Data from test_V78500241_3126.txt Node
Date: Fri Mar 25 15:31:37 CST 2022
User: usil
Spectrometer: V785-0024
Trigger mode: 0
Integration Time (sec): 4.000000E-1
Scans to average: 1
Nonlinearity correction enabled: false
Boxcar width: 0
Storing dark spectrum: false
XAxis mode: Wavelengths
Number of Pixels in Spectrum: 1024
>>>>>Begin Spectral Data<<<<<
801.071	27154
801.214	27062
801.356	26925
801.499	26857
801.641	26693
801.783	26495
801.926	26716
802.068	26693
802.211	26609
802.353	26469
802.496	26180
802.638	26320
802.78	26138
802.923	26225
803.065	26218
803.208	26092
803.35	26271
803.492	26301
803.635	26419
803.777	26199
803.919	26511
804.061	26693
804.204	26427
804.346	26408
804.488	26309
804.63	26434
804.773	26271
804.915	26408
805.057	26556
805.199	26305
805.341	26351
805.483	26473
805.626	26533
805.768	26450
805.91	26602
806.052	26492
806.194	26317
806.336	26686
806.478	26358
806.62	26526
806.762	26617
806.904	26724
807.046	27096
807.188	26960
807.33	27013
807.472	26994
807.614	26944
807.756	26830
807.898	26754
808.04	26678
808.182	26807
808.324	26849
808.465	26773
808.607	26944
808.749	27028
808.891	27272
809.033	27287
809.174	27150
809.316	27085
809.458	27032
809.6	27062
809.741	27180
809.883	27169
810.025	27416
810.166	27359
810.308	27332
810.45	27275
810.591	27302
810.733	27058
810.875	27085
811.016	26940
811.158	27032
811.299	27180
811.441	27180
811.582	27157
811.724	27207
811.865	26940
812.007	27096
812.148	27051
812.29	26944
812.431	27207
812.573	27374
812.714	27408
812.855	27622
812.997	27648
813.138	27819
813.279	27656
813.421	27557
813.562	27599
813.703	27386
813.845	27283
813.986	27039
814.127	26731
814.268	26632
814.41	26819
814.551	26632
814.692	26727
814.833	26655
814.974	26769
815.115	26807
815.256	26667
815.397	26686
815.539	26678
815.68	26564
815.821	26537
815.962	26613
816.103	26473
816.244	26347
816.385	26370
816.526	26271
816.666	26088
816.807	25963
816.948	25997
817.089	26233
817.23	26046
817.371	25860
817.512	25906
817.653	25982
817.793	25875
817.934	26016
818.075	26039
818.216	25974
818.356	25928
818.497	25807
818.638	25715
818.778	25605
818.919	25776
819.06	25788
819.2	25822
819.341	26024
819.481	25909
819.622	26157
819.762	26366
819.903	26225
820.043	26282
820.184	26062
820.324	26073
820.465	26164
820.605	26103
820.746	26054
820.886	25906
821.026	26008
821.167	26142
821.307	26126
821.447	25852
821.588	25731
821.728	25871
821.868	25681
822.008	25464
822.149	25460
822.289	25396
822.429	25133
822.569	25148
822.709	25225
822.849	25076
822.99	24878
823.13	24943
823.27	24951
823.41	24859
823.55	24665
823.69	24688
823.83	24719
823.97	24734
824.11	24585
824.25	24502
824.389	24597
824.529	24582
824.669	24684
824.809	24719
824.949	24631
825.089	24661
825.228	24536
825.368	24414
825.508	24566
825.648	24490
825.787	24528
825.927	24658
826.067	24395
826.206	24441
826.346	24498
826.485	24559
826.625	24505
826.765	24498
826.904	24608
827.044	24369
827.183	24308
827.323	24083
827.462	24239
827.601	24205
827.741	24213
827.88	24228
828.02	24030
828.159	24102
828.298	24125
828.437	24197
828.577	24064
828.716	24174
828.855	24068
828.994	23866
829.134	23874
829.273	23901
829.412	23828
829.551	23988
829.69	23904
829.829	23950
829.968	23836
830.107	23942
830.246	23866
830.385	23821
830.524	23756
830.663	23551
830.802	23687
830.941	23512
831.08	23493
831.219	23653
831.357	23585
831.496	23756
831.635	23440
831.774	23444
831.913	23376
832.051	23254
832.19	23277
832.329	23364
832.467	23159
832.606	23010
832.744	23113
832.883	23094
833.022	23041
833.16	23098
833.299	23048
833.437	23235
833.576	23356
833.714	23239
833.852	23402
833.991	23208
834.129	23376
834.267	23299
834.406	23208
834.544	23250
834.682	23216
834.821	23250
834.959	23364
835.097	23239
835.235	23280
835.373	23189
835.511	23239
835.65	23159
835.788	23075
835.926	22949
836.064	22809
836.202	22828
836.34	23159
836.478	23086
836.615	23003
836.753	23162
836.891	22995
837.029	23067
837.167	22995
837.305	22984
837.443	22919
837.58	22744
837.718	22980
837.856	22793
837.993	22911
838.131	22923
838.269	22759
838.406	22774
838.544	22831
838.681	22504
838.819	22478
838.956	22512
839.094	22337
839.231	22405
839.369	22607
839.506	22843
839.643	22645
839.781	22485
839.918	22436
840.055	22398
840.193	22443
840.33	22284
840.467	22409
840.604	22348
840.742	22664
840.879	22238
841.016	22261
841.153	22276
841.29	22386
841.427	22329
841.564	22382
841.701	22318
841.838	22303
841.975	22128
842.112	22211
842.249	22139
842.385	22036
842.522	22337
842.659	22207
842.796	22128
842.933	22105
843.069	22044
843.206	22002
843.343	22150
843.479	22032
843.616	22128
843.752	21831
843.889	21873
844.025	22013
844.162	21869
844.298	21873
844.435	21800
844.571	21770
844.708	21899
844.844	22139
844.98	22135
845.117	21987
845.253	21926
845.389	21736
845.525	21709
845.661	21701
845.798	21542
845.934	21648
846.07	21595
846.206	21583
846.342	21713
846.478	21629
846.614	21340
846.75	21317
846.886	21386
847.022	21382
847.158	21439
847.294	21370
847.429	21291
847.565	21340
847.701	21583
847.837	21093
847.972	21024
848.108	21081
848.244	21154
848.379	20956
848.515	20986
848.65	20963
848.786	20864
848.921	20807
849.057	21062
849.192	21055
849.328	21017
849.463	21039
849.598	20781
849.734	20902
849.869	20845
850.004	20644
850.14	20686
850.275	20670
850.41	20682
850.545	20708
850.68	20651
850.815	20811
850.95	20754
851.085	20853
851.22	20845
851.355	20765
851.49	20613
851.625	20568
851.76	20602
851.895	20507
852.03	20678
852.165	20727
852.299	20773
852.434	20762
852.569	20781
852.703	20769
852.838	20796
852.973	20769
853.107	20811
853.242	20663
853.376	20670
853.511	20480
853.645	20446
853.78	20686
853.914	20530
854.048	20526
854.183	20549
854.317	20560
854.451	20743
854.585	20609
854.72	20556
854.854	20625
854.988	20533
855.122	20590
855.256	20389
855.39	20609
855.524	20526
855.658	20518
855.792	20670
855.926	20636
856.06	20609
856.194	20606
856.327	20636
856.461	20530
856.595	20465
856.729	20507
856.862	20686
856.996	20556
857.13	20693
857.263	20621
857.397	20583
857.53	20503
857.664	20556
857.797	20815
857.931	20727
858.064	20469
858.197	20705
858.331	20480
858.464	20366
858.597	20427
858.731	20507
858.864	20495
858.997	20518
859.13	20606
859.263	20503
859.396	20583
859.529	20640
859.662	20499
859.795	20438
859.928	20602
860.061	20842
860.194	20682
860.327	20648
860.46	20438
860.592	20636
860.725	20716
860.858	20697
860.99	20598
861.123	20431
861.256	20495
861.388	20545
861.521	20967
861.653	20412
861.786	20237
861.918	20465
862.05	20590
862.183	20457
862.315	20537
862.447	20492
862.58	20400
862.712	20377
862.844	20233
862.976	20427
863.108	20275
863.24	20674
863.372	20195
863.504	20290
863.636	20278
863.768	20267
863.9	20248
864.032	20206
864.164	20225
864.296	20309
864.428	20427
864.559	20385
864.691	20256
864.823	20332
864.954	20271
865.086	20176
865.217	20202
865.349	20119
865.48	20187
865.612	20149
865.743	20237
865.875	20339
866.006	20122
866.137	20218
866.269	20149
866.4	20149
866.531	20058
866.662	20005
866.793	20062
866.924	20164
867.055	20180
867.186	20225
867.317	20168
867.448	20035
867.579	20043
867.71	20134
867.841	19982
867.972	20103
868.103	20024
868.233	20054
868.364	20103
868.495	20100
868.625	20366
868.756	20400
868.886	20328
869.017	20305
869.147	20415
869.278	20461
869.408	20275
869.539	20263
869.669	20427
869.799	20377
869.929	20518
870.06	20499
870.19	20640
870.32	20682
870.45	20659
870.58	20693
870.71	20914
870.84	20826
870.97	20708
871.1	20883
871.23	20792
871.36	20880
871.489	20864
871.619	20975
871.749	20994
871.879	20914
872.008	21150
872.138	20982
872.267	20960
872.397	20864
872.526	20731
872.656	20804
872.785	20819
872.915	20982
873.044	21100
873.173	21001
873.303	21184
873.432	20929
873.561	21028
873.69	21036
873.819	20921
873.948	21104
874.077	21066
874.206	20944
874.335	20990
874.464	21188
874.593	21237
874.722	21291
874.851	21310
874.979	21260
875.108	21431
875.237	21230
875.365	21116
875.494	21192
875.623	21325
875.751	21279
875.88	21302
876.008	21363
876.136	21450
876.265	21648
876.393	21797
876.521	21778
876.65	21709
876.778	21656
876.906	21572
877.034	21561
877.162	21679
877.29	21549
877.418	21724
877.546	21523
877.674	21568
877.802	21511
877.93	21538
878.058	21488
878.185	21511
878.313	21526
878.441	21603
878.568	21359
878.696	21428
878.824	21663
878.951	21667
879.079	21785
879.206	21911
879.333	21766
879.461	21507
879.588	21614
879.715	21812
879.842	21846
879.97	21656
880.097	21351
880.224	21374
880.351	21382
880.478	21511
880.605	21450
880.732	21443
880.859	21564
880.986	21367
881.112	21450
881.239	21294
881.366	21241
881.493	21074
881.619	21020
881.746	21081
881.872	20944
881.999	20929
882.125	20956
882.252	21074
882.378	21005
882.505	21051
882.631	20834
882.757	20720
882.883	20914
883.01	20708
883.136	20727
883.262	20621
883.388	20636
883.514	20678
883.64	20750
883.766	20590
883.892	20492
884.018	20549
884.143	20503
884.269	20708
884.395	20419
884.52	20309
884.646	20351
884.772	20202
884.897	20355
885.023	20393
885.148	20488
885.274	20522
885.399	20488
885.524	20374
885.65	20415
885.775	20313
885.9	20275
886.025	20374
886.15	20415
886.275	20374
886.4	20187
886.525	20370
886.65	20309
886.775	20286
886.9	20431
887.025	20575
887.149	20370
887.274	20031
887.399	20088
887.523	20050
887.648	20046
887.773	20084
887.897	20138
888.021	20187
888.146	20103
888.27	20187
888.395	20210
888.519	20107
888.643	20240
888.767	20218
888.891	20096
889.015	19909
889.139	19917
889.263	19986
889.387	20092
889.511	20278
889.635	20069
889.759	19963
889.883	19875
890.006	19947
890.13	20035
890.254	19887
890.377	19921
890.501	19632
890.624	19719
890.748	19746
890.871	19544
890.995	19563
891.118	19460
891.241	19586
891.364	19544
891.488	19635
891.611	19502
891.734	19510
891.857	19616
891.98	19540
892.103	19491
892.226	19578
892.349	19502
892.471	19377
892.594	19373
892.717	19495
892.839	19384
892.962	19499
893.085	19662
893.207	19426
893.33	19331
893.452	19320
893.575	19441
893.697	19430
893.819	19594
893.941	19651
894.064	19544
894.186	19335
894.308	19438
894.43	19575
894.552	19552
894.674	19529
894.796	19403
894.918	19407
895.04	19339
895.161	19441
895.283	19525
895.405	19407
895.526	19556
895.648	19373
895.769	19396
895.891	19491
896.012	19441
896.134	19502
896.255	19362
896.376	19445
896.498	19476
896.619	19438
896.74	19369
896.861	19495
896.982	19799
897.103	19864
897.224	19643
897.345	19696
897.466	19655
897.587	19795
897.708	19761
897.828	19708
897.949	19453
898.07	19594
898.19	19575
898.311	19685
898.431	19704
898.552	19685
898.672	19795
898.792	19727
898.913	19658
899.033	19540
899.153	19529
899.273	19510
899.393	19358
899.513	19514
899.633	19441
899.753	19419
899.873	19362
899.993	19552
900.113	19369
900.232	19362
900.352	19282
900.472	19244
900.591	19221
900.711	19225
900.83	19225
900.95	19453
901.069	19251
901.189	19110
901.308	18886
901.427	18745
901.546	18802
901.665	18840
901.784	18810
901.904	18677
902.023	18642
902.141	18486
902.26	18441
902.379	18311
902.498	18319
902.617	18258
902.735	18399
902.854	18254
902.973	18289
903.091	17988
903.21	17927
903.328	18019
903.446	17908
903.565	17878
903.683	17824
903.801	17687
903.919	17824
904.038	17665
904.156	17589
904.274	17668
904.392	17611
904.51	17577
904.627	17535
904.745	17577
904.863	17729
904.981	17395
905.098	17227
905.216	17280
905.334	17204
905.451	17246
905.569	17242
905.686	17307
905.803	17235
905.921	17109
906.038	17204
906.155	17045
906.272	16797
906.389	16984
906.506	16869
906.623	16949
906.74	16717
906.857	16729
906.974	16660
907.091	16835
907.208	16984
907.324	16835
907.441	16782
907.557	16565
907.674	16538
907.79	16447
907.907	16592
908.023	16531
908.139	16554
908.256	16512
908.372	16382
908.488	16462
908.604	16230
908.72	16352
908.836	16230
908.952	16211
909.068	16379
909.184	16405
909.3	16249
909.415	16318
909.531	16352
909.647	16010
909.762	15949
909.878	15945
909.993	16063
910.108	16025
910.224	15934
910.339	15934
910.454	15819
910.57	15770
910.685	15667
910.8	16006
910.915	15949
911.03	15835
911.145	15720
911.259	15660
911.374	15580
911.489	15454
911.604	15458
911.718	15386
911.833	15378
911.947	15226
912.062	15192
912.176	15416
912.291	15275
912.405	15443
912.519	15500
912.633	15580
912.748	15363
912.862	15378
912.976	15230
913.09	15005
913.204	15180
913.318	15214
913.431	15256
913.545	15161
913.659	15184
913.772	15135
913.886	14982
914	14948
914.113	15036
914.226	15085
914.34	15001
914.453	14849
914.566	15001
914.68	14792
914.793	14849
914.906	14689
915.019	14621
915.132	14511
915.245	14617
915.358	14526
915.47	14613
915.583	14560
915.696	14663
915.809	14556
915.921	14697
916.034	14461
916.146	14507
916.259	14503
916.371	14644
916.483	14549
916.595	14320
916.708	14438
916.82	14339
916.932	14461
917.044	14336
917.156	14320
917.268	14240
917.38	14252
917.491	14294
917.603	14263
917.715	14362
917.826	14298
917.938	14195
918.049	14134
918.161	14199
918.272	14305
918.384	14370
918.495	14172
918.606	14027
918.717	13944
918.828	14027
918.939	14073
919.05	14073
919.161	13986
919.272	13803
919.383	13928
919.494	13982
919.604	14149
919.715	14069
919.826	13814
919.936	14008
920.047	13978
920.157	14001
920.267	14161
920.378	14050
920.488	13947
920.598	14077
920.708	14309
920.818	14103
920.928	14031
921.038	14309
921.148	14233
921.258	13909
921.368	13830
921.477	13750
921.587	13776
921.697	13620
921.806	13795
921.916	13506
922.025	13445
922.134	13468
922.244	13320
922.353	13457
922.462	13285
922.571	13206
922.68	13069
922.789	13118
922.898	13057
923.007	12905
923.116	13137
923.224	13091
923.333	13065
923.442	12840
923.55	12837
923.659	12905
923.767	12939
923.876	12905
923.984	12905
924.092	12753
924.201	12844
924.309	12890
924.417	12829
924.525	12707
924.633	12760
924.741	13734
924.849	12574
924.956	12604
925.064	12555
925.172	12498
925.279	12475
925.387	12494
925.494	12547
925.602	12536
925.709	12551
925.816	12372
925.924	12448
926.031	12521
926.138	12471
926.245	12418
926.352	12365
926.459	12502
926.566	12551
926.673	12384
926.779	12270
926.886	12251
926.993	12098
927.099	12079
927.206	11984
927.312	12022
927.419	12083
927.525	12068
927.631	12087
927.737	11927
927.843	11973
927.95	11828
928.056	11859
928.162	11885
928.267	11980
928.373	12509
928.479	11980
928.585	11668
928.69	11916
928.796	11942
928.901	11802
929.007	11608
929.112	11726
929.218	11718
929.323	11691
929.428	11570
929.533	11817
929.638	11532
929.743	11604
929.848	11688
929.953	11558
930.058	11474
930.163	11421
930.267	11284
930.372	11478
930.477	11311
930.581	11490
930.685	11360
930.79	11299
930.894	11197
930.998	11208
931.103	11273
931.207	11037
931.311	10889
931.415	10858
931.519	10615
931.623	10649
