Data from test_V78500241_2589.txt Node
Date: Fri Mar 25 15:27:53 CST 2022
User: usil
Spectrometer: V785-0024
Trigger mode: 0
Integration Time (sec): 4.000000E-1
Scans to average: 1
Nonlinearity correction enabled: false
Boxcar width: 0
Storing dark spectrum: false
XAxis mode: Wavelengths
Number of Pixels in Spectrum: 1024
>>>>>Begin Spectral Data<<<<<
801.071	27055
801.214	26914
801.356	26811
801.499	26815
801.641	26564
801.783	26636
801.926	26705
802.068	26533
802.211	26495
802.353	26484
802.496	26176
802.638	26248
802.78	26115
802.923	26164
803.065	26172
803.208	25966
803.35	26233
803.492	26271
803.635	26374
803.777	26195
803.919	26358
804.061	26849
804.204	26511
804.346	26225
804.488	26282
804.63	26214
804.773	26286
804.915	26267
805.057	26484
805.199	26320
805.341	26400
805.483	26526
805.626	26552
805.768	26313
805.91	26575
806.052	26564
806.194	26366
806.336	26693
806.478	26476
806.62	26492
806.762	26609
806.904	26735
807.046	27066
807.188	26785
807.33	27028
807.472	27005
807.614	26845
807.756	26815
807.898	26773
808.04	26602
808.182	26663
808.324	26724
808.465	26682
808.607	26956
808.749	27001
808.891	27070
809.033	27184
809.174	27089
809.316	26960
809.458	27017
809.6	27218
809.741	27104
809.883	27207
810.025	27310
810.166	27279
810.308	27317
810.45	27298
810.591	27260
810.733	26910
810.875	27001
811.016	27028
811.158	27001
811.299	27127
811.441	27245
811.582	27325
811.724	27051
811.865	27085
812.007	26891
812.148	26918
812.29	26956
812.431	27192
812.573	27317
812.714	27454
812.855	27561
812.997	27774
813.138	27793
813.279	27724
813.421	27629
813.562	27469
813.703	27283
813.845	27237
813.986	27020
814.127	26773
814.268	26644
814.41	26636
814.551	26769
814.692	26689
814.833	26651
814.974	26686
815.115	26739
815.256	26693
815.397	26514
815.539	26613
815.68	26499
815.821	26488
815.962	26438
816.103	26465
816.244	26313
816.385	26214
816.526	26332
816.666	26031
816.807	25906
816.948	25982
817.089	25974
817.23	26020
817.371	25856
817.512	25932
817.653	26027
817.793	25944
817.934	25940
818.075	26027
818.216	25959
818.356	25917
818.497	25849
818.638	25723
818.778	25700
818.919	25609
819.06	25780
819.2	25894
819.341	25909
819.481	25963
819.622	25966
819.762	26271
819.903	26233
820.043	26122
820.184	25997
820.324	26012
820.465	26081
820.605	26195
820.746	26020
820.886	25970
821.026	26058
821.167	25921
821.307	26100
821.447	25928
821.588	25883
821.728	25731
821.868	25438
822.008	25426
822.149	25472
822.289	25411
822.429	25251
822.569	25175
822.709	25221
822.849	25046
822.99	24920
823.13	24970
823.27	24966
823.41	24749
823.55	24597
823.69	24669
823.83	24768
823.97	24639
824.11	24585
824.25	24467
824.389	24665
824.529	24620
824.669	24418
824.809	24749
824.949	24631
825.089	24692
825.228	24593
825.368	24338
825.508	24361
825.648	24445
825.787	24517
825.927	24505
826.067	24445
826.206	24551
826.346	24597
826.485	24528
826.625	24338
826.765	24574
826.904	24494
827.044	24182
827.183	24102
827.323	24178
827.462	24281
827.601	24167
827.741	24087
827.88	24140
828.02	24038
828.159	24270
828.298	24216
828.437	24182
828.577	24136
828.716	24140
828.855	23954
828.994	23817
829.134	23927
829.273	23912
829.412	23843
829.551	23802
829.69	23836
829.829	23908
829.968	23935
830.107	23897
830.246	23779
830.385	23813
830.524	23821
830.663	23615
830.802	23570
830.941	23509
831.08	23528
831.219	23516
831.357	23615
831.496	23718
831.635	23600
831.774	23429
831.913	23337
832.051	23337
832.19	23246
832.329	23337
832.467	23086
832.606	23037
832.744	23117
832.883	23079
833.022	23098
833.16	23311
833.299	23250
833.437	23227
833.576	23250
833.714	23235
833.852	23303
833.991	23181
834.129	23280
834.267	23273
834.406	23273
834.544	23341
834.682	23273
834.821	23311
834.959	23235
835.097	23261
835.235	23242
835.373	23360
835.511	23193
835.65	23136
835.788	23086
835.926	22957
836.064	22934
836.202	22953
836.34	23071
836.478	23185
836.615	23094
836.753	23094
836.891	23170
837.029	23044
837.167	23037
837.305	23033
837.443	22965
837.58	22991
837.718	23048
837.856	22957
837.993	22889
838.131	22892
838.269	22824
838.406	22824
838.544	22885
838.681	22516
838.819	22637
838.956	22348
839.094	22348
839.231	22512
839.369	22504
839.506	22812
839.643	22710
839.781	22417
839.918	22413
840.055	22382
840.193	22440
840.33	22295
840.467	22405
840.604	22436
840.742	22656
840.879	22333
841.016	22242
841.153	22348
841.29	22405
841.427	22318
841.564	22265
841.701	22314
841.838	22268
841.975	22272
842.112	22474
842.249	22226
842.385	22185
842.522	22329
842.659	22306
842.796	22059
842.933	22032
843.069	21979
843.206	22112
843.343	22261
843.479	22032
843.616	22166
843.752	21960
843.889	21926
844.025	21987
844.162	21873
844.298	21972
844.435	21865
844.571	21728
844.708	21861
844.844	22036
844.98	22029
845.117	22044
845.253	21918
845.389	21739
845.525	21755
845.661	21755
845.798	21671
845.934	21610
846.07	21515
846.206	21739
846.342	21778
846.478	21606
846.614	21439
846.75	21386
846.886	21351
847.022	21386
847.158	21412
847.294	21359
847.429	21370
847.565	21302
847.701	21534
847.837	21066
847.972	21001
848.108	21180
848.244	21131
848.379	20986
848.515	20925
848.65	21028
848.786	20967
848.921	20918
849.057	21070
849.192	21100
849.328	20994
849.463	21085
849.598	20899
849.734	20845
849.869	20857
850.004	20571
850.14	20773
850.275	20754
850.41	20648
850.545	20670
850.68	20571
850.815	20697
850.95	20720
851.085	21013
851.22	20785
851.355	20788
851.49	20716
851.625	20724
851.76	20670
851.895	20629
852.03	20731
852.165	20777
852.299	20743
852.434	20735
852.569	20819
852.703	20689
852.838	20792
852.973	20868
853.107	20857
853.242	20693
853.376	20564
853.511	20492
853.645	20552
853.78	20602
853.914	20632
854.048	20571
854.183	20393
854.317	20575
854.451	20792
854.585	20659
854.72	20473
854.854	20488
854.988	20571
855.122	20560
855.256	20522
855.39	20419
855.524	20640
855.658	20476
855.792	20476
855.926	20522
856.06	20655
856.194	20583
856.327	20568
856.461	20495
856.595	20442
856.729	20522
856.862	20655
856.996	20667
857.13	20674
857.263	20705
857.397	20648
857.53	20541
857.664	20575
857.797	20522
857.931	20629
858.064	20598
858.197	20606
858.331	20457
858.464	20545
858.597	20434
858.731	20499
858.864	20457
858.997	20560
859.13	20568
859.263	20427
859.396	20727
859.529	20636
859.662	20427
859.795	20492
859.928	20499
860.061	20663
860.194	20735
860.327	20434
860.46	20484
860.592	20613
860.725	20769
860.858	20564
860.99	20492
861.123	20568
861.256	20408
861.388	20522
861.521	21150
861.653	20347
861.786	20457
861.918	20362
862.05	20415
862.183	20545
862.315	20507
862.447	20431
862.58	20442
862.712	20324
862.844	20237
862.976	20275
863.108	20309
863.24	20629
863.372	20225
863.504	20138
863.636	20149
863.768	20400
863.9	20366
864.032	20172
864.164	20229
864.296	20320
864.428	20473
864.559	20305
864.691	20412
864.823	20259
864.954	20256
865.086	20252
865.217	20157
865.349	20073
865.48	20145
865.612	20233
865.743	20351
865.875	20149
866.006	20111
866.137	20103
866.269	20176
866.4	20199
866.531	20142
866.662	19997
866.793	20149
866.924	20081
867.055	20153
867.186	20161
867.317	20122
867.448	20142
867.579	20077
867.71	19936
867.841	20012
867.972	20176
868.103	20237
868.233	20077
868.364	20138
868.495	20195
868.625	20290
868.756	20522
868.886	20377
869.017	20309
869.147	20450
869.278	20400
869.408	20408
869.539	20206
869.669	20431
869.799	20507
869.929	20533
870.06	20442
870.19	20735
870.32	20659
870.45	20705
870.58	20712
870.71	20807
870.84	20857
870.97	20845
871.1	20727
871.23	20845
871.36	20998
871.489	20826
871.619	20902
871.749	20861
871.879	21024
872.008	21017
872.138	21013
872.267	20895
872.397	20941
872.526	20701
872.656	20739
872.785	20701
872.915	21013
873.044	20960
873.173	21081
873.303	21058
873.432	21009
873.561	21096
873.69	21009
873.819	21028
873.948	21074
874.077	21051
874.206	20868
874.335	21005
874.464	21116
874.593	21176
874.722	21108
874.851	21241
874.979	21195
875.108	21237
875.237	21127
875.365	21104
875.494	21192
875.623	21374
875.751	21279
875.88	21222
876.008	21443
876.136	21424
876.265	21504
876.393	21755
876.521	21720
876.65	21587
876.778	21724
876.906	21572
877.034	21542
877.162	21572
877.29	21568
877.418	21732
877.546	21595
877.674	21519
877.802	21595
877.93	21606
878.058	21466
878.185	21477
878.313	21587
878.441	21580
878.568	21443
878.696	21507
878.824	21644
878.951	21572
879.079	21789
879.206	21892
879.333	21781
879.461	21443
879.588	21641
879.715	21747
879.842	21778
879.97	21732
880.097	21583
880.224	21378
880.351	21443
880.478	21416
880.605	21291
880.732	21439
880.859	21660
880.986	21500
881.112	21408
881.239	21199
881.366	21241
881.493	20979
881.619	21112
881.746	21017
881.872	20963
881.999	20910
882.125	20864
882.252	21017
882.378	20853
882.505	21116
882.631	20853
882.757	20746
882.883	20769
883.01	20712
883.136	20712
883.262	20514
883.388	20651
883.514	20667
883.64	20823
883.766	20750
883.892	20480
884.018	20629
884.143	20644
884.269	20530
884.395	20480
884.52	20294
884.646	20404
884.772	20229
884.897	20278
885.023	20415
885.148	20431
885.274	20568
885.399	20438
885.524	20408
885.65	20385
885.775	20377
885.9	20347
886.025	20522
886.15	20370
886.275	20248
886.4	20233
886.525	20267
886.65	20324
886.775	20252
886.9	20385
887.025	20579
887.149	20282
887.274	20111
887.399	20153
887.523	20134
887.648	20043
887.773	20043
887.897	20111
888.021	20214
888.146	20069
888.27	20210
888.395	20138
888.519	20107
888.643	20145
888.767	20073
888.891	20050
889.015	19883
889.139	20100
889.263	20005
889.387	19940
889.511	20161
889.635	20062
889.759	19909
889.883	19841
890.006	19978
890.13	19967
890.254	19947
890.377	19769
890.501	19704
890.624	19681
890.748	19761
890.871	19635
890.995	19525
891.118	19445
891.241	19613
891.364	19487
891.488	19677
891.611	19502
891.734	19529
891.857	19635
891.98	19613
892.103	19590
892.226	19537
892.349	19453
892.471	19293
892.594	19422
892.717	19464
892.839	19362
892.962	19460
893.085	19457
893.207	19354
893.33	19312
893.452	19388
893.575	19476
893.697	19430
893.819	19594
893.941	19605
894.064	19540
894.186	19384
894.308	19407
894.43	19578
894.552	19590
894.674	19453
894.796	19324
894.918	19415
895.04	19388
895.161	19453
895.283	19472
895.405	19381
895.526	19384
895.648	19350
895.769	19441
895.891	19544
896.012	19502
896.134	19495
896.255	19499
896.376	19365
896.498	19415
896.619	19529
896.74	19392
896.861	19495
896.982	19651
897.103	19784
897.224	19765
897.345	19715
897.466	19693
897.587	19594
897.708	19917
897.828	19681
897.949	19502
898.07	19487
898.19	19575
898.311	19807
898.431	19506
898.552	19712
898.672	19677
898.792	19662
898.913	19738
899.033	19586
899.153	19605
899.273	19411
899.393	19415
899.513	19411
899.633	19563
899.753	19419
899.873	19339
899.993	19453
900.113	19324
900.232	19495
900.352	19365
900.472	19228
900.591	19236
900.711	19320
900.83	19088
900.95	19369
901.069	19350
901.189	19065
901.308	18878
901.427	18875
901.546	18894
901.665	18825
901.784	18696
901.904	18719
902.023	18658
902.141	18490
902.26	18315
902.379	18498
902.498	18308
902.617	18148
902.735	18426
902.854	18342
902.973	18197
903.091	18076
903.21	18076
903.328	18076
903.446	17958
903.565	17832
903.683	17813
903.801	17676
903.919	17855
904.038	17737
904.156	17585
904.274	17684
904.392	17554
904.51	17570
904.627	17520
904.745	17718
904.863	17665
904.981	17410
905.098	17223
905.216	17349
905.334	17368
905.451	17292
905.569	17273
905.686	17277
905.803	17212
905.921	17128
906.038	17117
906.155	17075
906.272	16957
906.389	16999
906.506	16793
906.623	16904
906.74	16820
906.857	16607
906.974	16828
907.091	16843
907.208	16938
907.324	16915
907.441	16698
907.557	16615
907.674	16592
907.79	16466
907.907	16519
908.023	16573
908.139	16474
908.256	16558
908.372	16367
908.488	16352
908.604	16272
908.72	16333
908.836	16276
908.952	16192
909.068	16242
909.184	16363
909.3	16150
909.415	16219
909.531	16169
909.647	15972
909.762	15956
909.878	16002
909.993	16036
910.108	15968
910.224	15937
910.339	15876
910.454	15812
910.57	15819
910.685	15663
910.8	15911
910.915	15857
911.03	15797
911.145	15629
911.259	15584
911.374	15606
911.489	15473
911.604	15424
911.718	15355
911.833	15306
911.947	15260
912.062	15279
912.176	15408
912.291	15348
912.405	15306
912.519	15614
912.633	15545
912.748	15382
912.862	15287
912.976	15138
913.09	15005
913.204	15074
913.318	15188
913.431	15222
913.545	15142
913.659	15275
913.772	15150
913.886	15108
914	14986
914.113	15104
914.226	15032
914.34	14998
914.453	14823
914.566	15001
914.68	14872
914.793	14750
914.906	14602
915.019	14602
915.132	14522
915.245	14564
915.358	14522
915.47	14522
915.583	14583
915.696	14640
915.809	14705
915.921	14708
916.034	14583
916.146	14469
916.259	14408
916.371	14541
916.483	14613
916.595	14412
916.708	14343
916.82	14396
916.932	14415
917.044	14412
917.156	14183
917.268	14183
917.38	14259
917.491	14218
917.603	14267
917.715	14313
917.826	14381
917.938	14218
918.049	14107
918.161	14187
918.272	14290
918.384	14412
918.495	14256
918.606	14062
918.717	13970
918.828	14096
918.939	13986
919.05	13947
919.161	13925
919.272	13799
919.383	13845
919.494	14100
919.604	14202
919.715	13947
919.826	13970
919.936	14008
920.047	13997
920.157	13989
920.267	14145
920.378	13963
920.488	13940
920.598	14130
920.708	14393
920.818	14081
920.928	14161
921.038	14225
921.148	14244
921.258	13898
921.368	13864
921.477	13750
921.587	13696
921.697	13655
921.806	13780
921.916	13556
922.025	13422
922.134	13480
922.244	13297
922.353	13419
922.462	13297
922.571	13187
922.68	13080
922.789	13118
922.898	13091
923.007	12973
923.116	12996
923.224	13088
923.333	13057
923.442	12878
923.55	12867
923.659	12932
923.767	12981
923.876	12814
923.984	12954
924.092	12715
924.201	12798
924.309	12817
924.417	12856
924.525	12738
924.633	12757
924.741	13620
924.849	12475
924.956	12681
925.064	12559
925.172	12475
925.279	12467
925.387	12521
925.494	12426
925.602	12517
925.709	12525
925.816	12346
925.924	12441
926.031	12585
926.138	12376
926.245	12429
926.352	12209
926.459	12483
926.566	12456
926.673	12410
926.779	12243
926.886	12239
926.993	12064
927.099	12144
927.206	12087
927.312	11939
927.419	12102
927.525	12057
927.631	12076
927.737	11961
927.843	12026
927.95	11843
928.056	11866
928.162	11980
928.267	11961
928.373	12448
928.479	12019
928.585	11684
928.69	11851
928.796	11904
928.901	11821
929.007	11634
929.112	11756
929.218	11714
929.323	11638
929.428	11684
929.533	11710
929.638	11600
929.743	11638
929.848	11532
929.953	11638
930.058	11493
930.163	11337
930.267	11296
930.372	11516
930.477	11387
930.581	11463
930.685	11417
930.79	11227
930.894	11250
930.998	11204
931.103	11311
931.207	10972
931.311	10923
931.415	10793
931.519	10664
931.623	10622
