Data from test_V78500241_589.txt Node
Date: Fri Mar 25 15:13:57 CST 2022
User: usil
Spectrometer: V785-0024
Trigger mode: 0
Integration Time (sec): 4.000000E-1
Scans to average: 1
Nonlinearity correction enabled: false
Boxcar width: 0
Storing dark spectrum: false
XAxis mode: Wavelengths
Number of Pixels in Spectrum: 1024
>>>>>Begin Spectral Data<<<<<
801.071	27504
801.214	27351
801.356	27268
801.499	27146
801.641	27005
801.783	26960
801.926	26967
802.068	26902
802.211	26830
802.353	26815
802.496	26583
802.638	26541
802.78	26659
802.923	26552
803.065	26537
803.208	26442
803.35	26613
803.492	26720
803.635	26708
803.777	26621
803.919	26674
804.061	27024
804.204	26762
804.346	26629
804.488	26541
804.63	26762
804.773	26522
804.915	26739
805.057	26952
805.199	26746
805.341	26853
805.483	26899
805.626	26967
805.768	26845
805.91	26830
806.052	26895
806.194	26773
806.336	27047
806.478	27009
806.62	26948
806.762	27039
806.904	27081
807.046	27603
807.188	27245
807.33	27268
807.472	27466
807.614	27222
807.756	27340
807.898	27001
808.04	27081
808.182	27096
808.324	27047
808.465	27184
808.607	27283
808.749	27526
808.891	27538
809.033	27538
809.174	27576
809.316	27481
809.458	27496
809.6	27321
809.741	27660
809.883	27603
810.025	27778
810.166	27770
810.308	27838
810.45	27808
810.591	27816
810.733	27572
810.875	27473
811.016	27294
811.158	27195
811.299	27557
811.441	27717
811.582	27652
811.724	27355
811.865	27450
812.007	27427
812.148	27321
812.29	27435
812.431	27675
812.573	27682
812.714	27884
812.855	28055
812.997	28192
813.138	28173
813.279	28211
813.421	27949
813.562	28070
813.703	27937
813.845	27720
813.986	27603
814.127	27329
814.268	27150
814.41	27176
814.551	27100
814.692	27203
814.833	27089
814.974	27157
815.115	27127
815.256	27146
815.397	27222
815.539	27096
815.68	26967
815.821	26861
815.962	26918
816.103	26902
816.244	26731
816.385	26868
816.526	26777
816.666	26412
816.807	26446
816.948	26590
817.089	26450
817.23	26389
817.371	26415
817.512	26499
817.653	26450
817.793	26442
817.934	26465
818.075	26427
818.216	26427
818.356	26396
818.497	26332
818.638	26172
818.778	26145
818.919	26218
819.06	26149
819.2	26252
819.341	26370
819.481	26366
819.622	26629
819.762	26815
819.903	26659
820.043	26564
820.184	26560
820.324	26556
820.465	26613
820.605	26674
820.746	26564
820.886	26366
821.026	26476
821.167	26412
821.307	26708
821.447	26446
821.588	26252
821.728	26263
821.868	26111
822.008	25951
822.149	25845
822.289	25772
822.429	25727
822.569	25479
822.709	25499
822.849	25464
822.99	25377
823.13	25297
823.27	25362
823.41	25240
823.55	25114
823.69	25365
823.83	25266
823.97	25145
824.11	25088
824.25	25004
824.389	25038
824.529	25137
824.669	25057
824.809	25118
824.949	25160
825.089	25110
825.228	25019
825.368	24814
825.508	24825
825.648	24943
825.787	24989
825.927	24962
826.067	24875
826.206	24875
826.346	24958
826.485	25015
826.625	24867
826.765	24966
826.904	24920
827.044	24536
827.183	24696
827.323	24639
827.462	24730
827.601	24608
827.741	24601
827.88	24696
828.02	24441
828.159	24570
828.298	24639
828.437	24692
828.577	24555
828.716	24753
828.855	24490
828.994	24289
829.134	24334
829.273	24372
829.412	24365
829.551	24315
829.69	24311
829.829	24498
829.968	24403
830.107	24350
830.246	24391
830.385	24296
830.524	24194
830.663	24155
830.802	24079
830.941	23912
831.08	23901
831.219	24018
831.357	23961
831.496	24319
831.635	23973
831.774	23866
831.913	23775
832.051	23718
832.19	23691
832.329	23615
832.467	23741
832.606	23611
832.744	23581
832.883	23608
833.022	23524
833.16	23573
833.299	23623
833.437	23699
833.576	23726
833.714	23729
833.852	23676
833.991	23703
834.129	23672
834.267	23767
834.406	23657
834.544	23714
834.682	23608
834.821	23745
834.959	23901
835.097	23653
835.235	23847
835.373	23653
835.511	23649
835.65	23562
835.788	23512
835.926	23242
836.064	23452
836.202	23478
836.34	23649
836.478	23668
836.615	23421
836.753	23414
836.891	23703
837.029	23611
837.167	23520
837.305	23406
837.443	23258
837.58	23425
837.718	23417
837.856	23478
837.993	23406
838.131	23326
838.269	23318
838.406	23318
838.544	23239
838.681	22995
838.819	23140
838.956	22790
839.094	22736
839.231	22793
839.369	23147
839.506	23231
839.643	23071
839.781	22793
839.918	22717
840.055	22862
840.193	22748
840.33	22854
840.467	22828
840.604	22892
840.742	23064
840.879	22687
841.016	22736
841.153	22641
841.29	22793
841.427	22771
841.564	22809
841.701	22634
841.838	22767
841.975	22687
842.112	22752
842.249	22557
842.385	22390
842.522	22759
842.659	22481
842.796	22538
842.933	22447
843.069	22375
843.206	22519
843.343	22672
843.479	22634
843.616	22538
843.752	22299
843.889	22356
844.025	22409
844.162	22253
844.298	22333
844.435	22268
844.571	22322
844.708	22421
844.844	22493
844.98	22493
845.117	22390
845.253	22181
845.389	22162
845.525	22154
845.661	22181
845.798	22040
845.934	22086
846.07	21991
846.206	22051
846.342	22265
846.478	22002
846.614	21827
846.75	21709
846.886	21819
847.022	21869
847.158	21808
847.294	21816
847.429	21895
847.565	21728
847.701	21964
847.837	21629
847.972	21530
848.108	21504
848.244	21515
848.379	21401
848.515	21477
848.65	21340
848.786	21393
848.921	21420
849.057	21545
849.192	21458
849.328	21454
849.463	21435
849.598	21313
849.734	21252
849.869	21104
850.004	21184
850.14	21184
850.275	21184
850.41	21112
850.545	21188
850.68	21142
850.815	21116
850.95	21066
851.085	21367
851.22	21218
851.355	21188
851.49	21154
851.625	21131
851.76	21039
851.895	21062
852.03	21005
852.165	21127
852.299	21123
852.434	21272
852.569	21123
852.703	21142
852.838	21249
852.973	21348
853.107	21218
853.242	21203
853.376	21013
853.511	20872
853.645	20823
853.78	21089
853.914	20929
854.048	21096
854.183	20918
854.317	21005
854.451	21154
854.585	21001
854.72	20975
854.854	21020
854.988	20826
855.122	21020
855.256	20785
855.39	20918
855.524	21081
855.658	20998
855.792	20956
855.926	20975
856.06	20906
856.194	21161
856.327	20956
856.461	20963
856.595	20902
856.729	20929
856.862	21089
856.996	20986
857.13	21028
857.263	21116
857.397	21005
857.53	20975
857.664	20941
857.797	20994
857.931	21108
858.064	21135
858.197	21077
858.331	20963
858.464	20990
858.597	20792
858.731	21032
858.864	20796
858.997	20979
859.13	20971
859.263	21039
859.396	21032
859.529	20956
859.662	20941
859.795	20826
859.928	20952
860.061	21230
860.194	21108
860.327	21077
860.46	21013
860.592	21074
860.725	21142
860.858	21089
860.99	20925
861.123	20986
861.256	20918
861.388	20941
861.521	21671
861.653	20887
861.786	20716
861.918	20792
862.05	20720
862.183	20982
862.315	20807
862.447	21028
862.58	20773
862.712	20613
862.844	20712
862.976	20727
863.108	20727
863.24	21150
863.372	20697
863.504	20636
863.636	20651
863.768	20659
863.9	20583
864.032	20594
864.164	20659
864.296	20720
864.428	20838
864.559	20804
864.691	20788
864.823	20701
864.954	20571
865.086	20670
865.217	20693
865.349	20533
865.48	20651
865.612	20530
865.743	20682
865.875	20613
866.006	20499
866.137	20648
866.269	20743
866.4	20609
866.531	20488
866.662	20393
866.793	20457
866.924	20537
867.055	20579
867.186	20571
867.317	20423
867.448	20454
867.579	20495
867.71	20507
867.841	20438
867.972	20568
868.103	20461
868.233	20571
868.364	20446
868.495	20648
868.625	20705
868.756	20849
868.886	20613
869.017	20743
869.147	20815
869.278	20864
869.408	20762
869.539	20727
869.669	20990
869.799	20762
869.929	20941
870.06	20937
870.19	21032
870.32	20994
870.45	20990
870.58	21184
870.71	21207
870.84	21264
870.97	21142
871.1	21203
871.23	21195
871.36	21279
871.489	21245
871.619	21279
871.749	21348
871.879	21389
872.008	21443
872.138	21332
872.267	21302
872.397	21154
872.526	21192
872.656	21192
872.785	21108
872.915	21538
873.044	21477
873.173	21405
873.303	21408
873.432	21382
873.561	21340
873.69	21302
873.819	21424
873.948	21450
874.077	21249
874.206	21302
874.335	21332
874.464	21652
874.593	21561
874.722	21549
874.851	21591
874.979	21648
875.108	21660
875.237	21443
875.365	21416
875.494	21656
875.623	21709
875.751	21618
875.88	21549
876.008	21793
876.136	21709
876.265	21987
876.393	22112
876.521	22040
876.65	22082
876.778	21911
876.906	22067
877.034	21953
877.162	21808
877.29	21865
877.418	21960
877.546	21922
877.674	22059
877.802	21968
877.93	21930
878.058	21816
878.185	21857
878.313	21823
878.441	21941
878.568	21819
878.696	21857
878.824	21983
878.951	22002
879.079	22090
879.206	22265
879.333	22173
879.461	21949
879.588	22059
879.715	22124
879.842	22192
879.97	21968
880.097	21888
880.224	21827
880.351	21812
880.478	21705
880.605	21720
880.732	21854
880.859	21960
880.986	21800
881.112	21808
881.239	21663
881.366	21603
881.493	21443
881.619	21428
881.746	21367
881.872	21287
881.999	21313
882.125	21401
882.252	21397
882.378	21374
882.505	21416
882.631	21237
882.757	21214
882.883	21062
883.01	21131
883.136	20948
883.262	20956
883.388	20887
883.514	21039
883.64	21005
883.766	20925
883.892	20758
884.018	20941
884.143	21123
884.269	21074
884.395	20697
884.52	20621
884.646	20663
884.772	20644
884.897	20663
885.023	20602
885.148	20868
885.274	20834
885.399	20792
885.524	20663
885.65	20807
885.775	20804
885.9	20609
886.025	20773
886.15	20716
886.275	20667
886.4	20533
886.525	20746
886.65	20663
886.775	20625
886.9	20769
887.025	20948
887.149	20648
887.274	20568
887.399	20419
887.523	20469
887.648	20408
887.773	20454
887.897	20552
888.021	20552
888.146	20244
888.27	20533
888.395	20644
888.519	20480
888.643	20533
888.767	20530
888.891	20454
889.015	20366
889.139	20358
889.263	20271
889.387	20263
889.511	20412
889.635	20347
889.759	20206
889.883	20267
890.006	20248
890.13	20286
890.254	20027
890.377	20221
890.501	20157
890.624	19947
890.748	20122
890.871	19871
890.995	19788
891.118	19727
891.241	19849
891.364	19811
891.488	20008
891.611	19928
891.734	19772
891.857	19875
891.98	19845
892.103	19932
892.226	19890
892.349	19959
892.471	19784
892.594	19772
892.717	19719
892.839	19845
892.962	19788
893.085	19841
893.207	19715
893.33	19658
893.452	19731
893.575	19799
893.697	19658
893.819	19780
893.941	19993
894.064	19890
894.186	19807
894.308	19708
894.43	19902
894.552	19845
894.674	19689
894.796	19696
894.918	19750
895.04	19700
895.161	19818
895.283	19723
895.405	19605
895.526	19875
895.648	19689
895.769	19864
895.891	19818
896.012	19788
896.134	19860
896.255	19868
896.376	19761
896.498	19811
896.619	19689
896.74	19609
896.861	19757
896.982	20065
897.103	20096
897.224	20084
897.345	19989
897.466	19890
897.587	20016
897.708	20062
897.828	20039
897.949	19906
898.07	19883
898.19	20005
898.311	20202
898.431	19959
898.552	19898
898.672	20005
898.792	20008
898.913	20058
899.033	19887
899.153	19791
899.273	19647
899.393	19696
899.513	19803
899.633	19826
899.753	19849
899.873	19632
899.993	19731
900.113	19712
900.232	19658
900.352	19658
900.472	19620
900.591	19548
900.711	19624
900.83	19438
900.95	19674
901.069	19674
901.189	19388
901.308	19270
901.427	19072
901.546	19110
901.665	19232
901.784	19114
901.904	18962
902.023	18924
902.141	18707
902.26	18753
902.379	18821
902.498	18681
902.617	18540
902.735	18627
902.854	18566
902.973	18578
903.091	18372
903.21	18300
903.328	18296
903.446	18232
903.565	18167
903.683	18110
903.801	18030
903.919	18015
904.038	18106
904.156	17965
904.274	17809
904.392	17889
904.51	17832
904.627	17855
904.745	17969
904.863	17935
904.981	17710
905.098	17623
905.216	17684
905.334	17554
905.451	17589
905.569	17600
905.686	17516
905.803	17566
905.921	17284
906.038	17448
906.155	17330
906.272	17345
906.389	17307
906.506	17208
906.623	17132
906.74	17094
906.857	17029
906.974	17064
907.091	17231
907.208	17242
907.324	17048
907.441	17029
907.557	16790
907.674	16740
907.79	16797
907.907	16805
908.023	16877
908.139	16896
908.256	16729
908.372	16691
908.488	16710
908.604	16577
908.72	16466
908.836	16558
908.952	16508
909.068	16656
909.184	16584
909.3	16611
909.415	16611
909.531	16611
909.647	16314
909.762	16329
909.878	16226
909.993	16291
910.108	16253
910.224	16234
910.339	16261
910.454	16158
910.57	15937
910.685	15968
910.8	16333
910.915	16192
911.03	15960
911.145	15869
911.259	15926
911.374	15869
911.489	15842
911.604	15759
911.718	15644
911.833	15644
911.947	15431
912.062	15408
912.176	15545
912.291	15587
912.405	15511
912.519	15720
912.633	15838
912.748	15671
912.862	15580
912.976	15435
913.09	15294
913.204	15408
913.318	15382
913.431	15526
913.545	15500
913.659	15469
913.772	15340
913.886	15317
914	15211
914.113	15401
914.226	15287
914.34	15367
914.453	15123
914.566	15226
914.68	15097
914.793	15169
914.906	14979
915.019	14872
915.132	14800
915.245	14845
915.358	14876
915.47	14864
915.583	14777
915.696	14815
915.809	14937
915.921	14910
916.034	14689
916.146	14697
916.259	14682
916.371	14811
916.483	14815
916.595	14678
916.708	14727
916.82	14598
916.932	14617
917.044	14590
917.156	14587
917.268	14450
917.38	14556
917.491	14541
917.603	14442
917.715	14541
917.826	14648
917.938	14514
918.049	14347
918.161	14507
918.272	14625
918.384	14545
918.495	14503
918.606	14355
918.717	14305
918.828	14286
918.939	14313
919.05	14195
919.161	14229
919.272	14107
919.383	14221
919.494	14290
919.604	14522
919.715	14240
919.826	14221
919.936	14199
920.047	14320
920.157	14358
920.267	14438
920.378	14278
920.488	14286
920.598	14507
920.708	14423
920.818	14374
920.928	14362
921.038	14511
921.148	14431
921.258	14206
921.368	14027
921.477	14077
921.587	14054
921.697	13849
921.806	14027
921.916	13841
922.025	13674
922.134	13636
922.244	13594
922.353	13662
922.462	13514
922.571	13430
922.68	13263
922.789	13270
922.898	13255
923.007	13240
923.116	13289
923.224	13255
923.333	13304
923.442	13137
923.55	13107
923.659	13061
923.767	13244
923.876	13114
923.984	13034
924.092	12932
924.201	13080
924.309	13031
924.417	12985
924.525	12943
924.633	12939
924.741	13704
924.849	12757
924.956	12882
925.064	12745
925.172	12635
925.279	12692
925.387	12779
925.494	12764
925.602	12890
925.709	12741
925.816	12612
925.924	12582
926.031	12730
926.138	12532
926.245	12711
926.352	12540
926.459	12764
926.566	12878
926.673	12547
926.779	12490
926.886	12517
926.993	12372
927.099	12308
927.206	12296
927.312	12323
927.419	12262
927.525	12277
927.631	12273
927.737	12091
927.843	12194
927.95	12064
928.056	12117
928.162	12121
928.267	12068
928.373	12779
928.479	12129
928.585	11988
928.69	12152
928.796	12144
928.901	11961
929.007	11790
929.112	11927
929.218	11912
929.323	11912
929.428	11805
929.533	11942
929.638	11767
929.743	11779
929.848	11870
929.953	11756
930.058	11699
930.163	11570
930.267	11570
930.372	11733
930.477	11528
930.581	11733
930.685	11608
930.79	11421
930.894	11501
930.998	11402
931.103	11543
931.207	11208
931.311	11086
931.415	11037
931.519	10831
931.623	10839
