Data from test_V78500241_889.txt Node
Date: Fri Mar 25 15:16:02 CST 2022
User: usil
Spectrometer: V785-0024
Trigger mode: 0
Integration Time (sec): 4.000000E-1
Scans to average: 1
Nonlinearity correction enabled: false
Boxcar width: 0
Storing dark spectrum: false
XAxis mode: Wavelengths
Number of Pixels in Spectrum: 1024
>>>>>Begin Spectral Data<<<<<
801.071	28128
801.214	28147
801.356	27861
801.499	27717
801.641	27705
801.783	27743
801.926	27785
802.068	27804
802.211	27705
802.353	27534
802.496	27367
802.638	27439
802.78	27412
802.923	27306
803.065	27469
803.208	27435
803.35	27389
803.492	27610
803.635	27587
803.777	27488
803.919	27587
804.061	27983
804.204	27671
804.346	27568
804.488	27344
804.63	27583
804.773	27519
804.915	27564
805.057	27762
805.199	27622
805.341	27637
805.483	27842
805.626	27736
805.768	27656
805.91	27698
806.052	27644
806.194	27644
806.336	27895
806.478	27888
806.62	27705
806.762	28021
806.904	27949
807.046	28226
807.188	28154
807.33	28196
807.472	28150
807.614	28139
807.756	28086
807.898	28109
808.04	27880
808.182	28078
808.324	27991
808.465	28029
808.607	28322
808.749	28382
808.891	28580
809.033	28470
809.174	28337
809.316	28447
809.458	28462
809.6	28401
809.741	28531
809.883	28580
810.025	28675
810.166	28698
810.308	28694
810.45	28755
810.591	28660
810.733	28512
810.875	28500
811.016	28363
811.158	28265
811.299	28459
811.441	28660
811.582	28622
811.724	28382
811.865	28360
812.007	28561
812.148	28379
812.29	28485
812.431	28584
812.573	28660
812.714	28869
812.855	28885
812.997	29143
813.138	29185
813.279	29124
813.421	28965
813.562	29014
813.703	28835
813.845	28660
813.986	28455
814.127	28192
814.268	28090
814.41	28188
814.551	28211
814.692	28166
814.833	28116
814.974	28067
815.115	28116
815.256	28116
815.397	28063
815.539	28090
815.68	27983
815.821	27873
815.962	27945
816.103	28188
816.244	27899
816.385	27720
816.526	27736
816.666	27561
816.807	27469
816.948	27583
817.089	27671
817.23	27473
817.371	27443
817.512	27458
817.653	27408
817.793	27443
817.934	27462
818.075	27351
818.216	27466
818.356	27523
818.497	27283
818.638	27249
818.778	27226
818.919	27218
819.06	27298
819.2	27439
819.341	27302
819.481	27427
819.622	27660
819.762	27747
819.903	27732
820.043	27561
820.184	27561
820.324	27686
820.465	27736
820.605	27572
820.746	27561
820.886	27405
821.026	27576
821.167	27591
821.307	27511
821.447	27507
821.588	27367
821.728	27233
821.868	26994
822.008	27032
822.149	26853
822.289	26910
822.429	26701
822.569	26537
822.709	26564
822.849	26457
822.99	26381
823.13	26332
823.27	26267
823.41	26317
823.55	26153
823.69	26233
823.83	26404
823.97	26267
824.11	26191
824.25	26096
824.389	26077
824.529	26229
824.669	26157
824.809	26244
824.949	26183
825.089	26195
825.228	26084
825.368	26024
825.508	26054
825.648	25906
825.787	26020
825.927	26046
826.067	25970
826.206	25993
826.346	25982
826.485	26092
826.625	26001
826.765	26050
826.904	25974
827.044	25860
827.183	25795
827.323	25788
827.462	25803
827.601	25753
827.741	25613
827.88	25601
828.02	25632
828.159	25651
828.298	25582
828.437	25719
828.577	25643
828.716	25830
828.855	25540
828.994	25510
829.134	25354
829.273	25479
829.412	25327
829.551	25320
829.69	25407
829.829	25346
829.968	25540
830.107	25460
830.246	25373
830.385	25483
830.524	25225
830.663	25164
830.802	25152
830.941	24932
831.08	24905
831.219	25152
831.357	25080
831.496	25129
831.635	25076
831.774	24973
831.913	24905
832.051	24642
832.19	24821
832.329	24719
832.467	24677
832.606	24658
832.744	24589
832.883	24578
833.022	24715
833.16	24700
833.299	24585
833.437	24684
833.576	24829
833.714	24757
833.852	24848
833.991	24821
834.129	24791
834.267	24821
834.406	24783
834.544	24985
834.682	24802
834.821	24604
834.959	24905
835.097	24661
835.235	24772
835.373	24673
835.511	24715
835.65	24639
835.788	24658
835.926	24483
836.064	24388
836.202	24395
836.34	24642
836.478	24593
836.615	24521
836.753	24528
836.891	24608
837.029	24464
837.167	24528
837.305	24563
837.443	24513
837.58	24304
837.718	24448
837.856	24433
837.993	24319
838.131	24441
838.269	24429
838.406	24380
838.544	24140
838.681	24068
838.819	24018
838.956	23843
839.094	23916
839.231	23916
839.369	24072
839.506	24266
839.643	24178
839.781	24007
839.918	23920
840.055	24003
840.193	23874
840.33	23843
840.467	23756
840.604	23874
840.742	23984
840.879	23570
841.016	23745
841.153	23653
841.29	23661
841.427	23901
841.564	23668
841.701	23779
841.838	23699
841.975	23642
842.112	23680
842.249	23646
842.385	23623
842.522	23710
842.659	23680
842.796	23433
842.933	23486
843.069	23493
843.206	23535
843.343	23452
843.479	23554
843.616	23562
843.752	23231
843.889	23406
844.025	23360
844.162	23296
844.298	23353
844.435	23406
844.571	23231
844.708	23368
844.844	23414
844.98	23414
845.117	23425
845.253	23159
845.389	23075
845.525	23178
845.661	23193
845.798	22999
845.934	22999
846.07	22984
846.206	23060
846.342	23220
846.478	23006
846.614	22938
846.75	22873
846.886	22660
847.022	22919
847.158	22809
847.294	22755
847.429	22812
847.565	22801
847.701	23033
847.837	22542
847.972	22554
848.108	22451
848.244	22660
848.379	22417
848.515	22367
848.65	22443
848.786	22443
848.921	22504
849.057	22440
849.192	22390
849.328	22470
849.463	22462
849.598	22322
849.734	22238
849.869	22219
850.004	22147
850.14	22204
850.275	22196
850.41	22040
850.545	22082
850.68	22150
850.815	22139
850.95	22196
851.085	22204
851.22	22242
851.355	22166
851.49	22051
851.625	22017
851.76	21991
851.895	22105
852.03	22059
852.165	22010
852.299	22143
852.434	22234
852.569	22120
852.703	22230
852.838	22139
852.973	22257
853.107	22204
853.242	22074
853.376	22010
853.511	21888
853.645	21838
853.78	22048
853.914	21994
854.048	21835
854.183	21934
854.317	22006
854.451	22166
854.585	21884
854.72	21876
854.854	21972
854.988	21964
855.122	22051
855.256	21789
855.39	21956
855.524	21937
855.658	21972
855.792	22013
855.926	21960
856.06	22067
856.194	22010
856.327	21972
856.461	21842
856.595	21907
856.729	21759
856.862	22002
856.996	21983
857.13	22040
857.263	22029
857.397	21972
857.53	22055
857.664	22006
857.797	21998
857.931	22097
858.064	21998
858.197	22021
858.331	21850
858.464	21819
858.597	21861
858.731	21934
858.864	21907
858.997	21972
859.13	22010
859.263	21983
859.396	21972
859.529	21850
859.662	21960
859.795	21793
859.928	22029
860.061	22051
860.194	22196
860.327	21994
860.46	21842
860.592	22036
860.725	22048
860.858	22048
860.99	22013
861.123	21865
861.256	21869
861.388	21918
861.521	22683
861.653	21812
861.786	21785
861.918	21739
862.05	21804
862.183	21880
862.315	21861
862.447	21945
862.58	21819
862.712	21564
862.844	21656
862.976	21823
863.108	21701
863.24	22169
863.372	21591
863.504	21633
863.636	21603
863.768	21633
863.9	21713
864.032	21629
864.164	21568
864.296	21679
864.428	21690
864.559	21568
864.691	21717
864.823	21682
864.954	21641
865.086	21591
865.217	21500
865.349	21534
865.48	21663
865.612	21576
865.743	21622
865.875	21633
866.006	21485
866.137	21576
866.269	21534
866.4	21564
866.531	21595
866.662	21420
866.793	21348
866.924	21504
867.055	21542
867.186	21439
867.317	21454
867.448	21447
867.579	21382
867.71	21336
867.841	21313
867.972	21481
868.103	21488
868.233	21447
868.364	21397
868.495	21424
868.625	21698
868.756	21911
868.886	21641
869.017	21652
869.147	21816
869.278	21778
869.408	21846
869.539	21789
869.669	21720
869.799	21846
869.929	21888
870.06	21827
870.19	21937
870.32	21983
870.45	22143
870.58	22143
870.71	22207
870.84	22116
870.97	22070
871.1	22067
871.23	22310
871.36	22131
871.489	22226
871.619	22181
871.749	22310
871.879	22337
872.008	22474
872.138	22318
872.267	22287
872.397	22124
872.526	22116
872.656	22128
872.785	22196
872.915	22344
873.044	22497
873.173	22337
873.303	22329
873.432	22348
873.561	22470
873.69	22291
873.819	22272
873.948	22360
874.077	22265
874.206	22139
874.335	22333
874.464	22348
874.593	22497
874.722	22497
874.851	22542
874.979	22596
875.108	22637
875.237	22519
875.365	22409
875.494	22443
875.623	22554
875.751	22584
875.88	22523
876.008	22630
876.136	22694
876.265	22873
876.393	22957
876.521	23052
876.65	22991
876.778	22984
876.906	22805
877.034	22854
877.162	22839
877.29	22805
877.418	22809
877.546	22820
877.674	22889
877.802	22790
877.93	22752
878.058	22949
878.185	22713
878.313	22767
878.441	22862
878.568	22656
878.696	22748
878.824	22835
878.951	22873
879.079	23018
879.206	23239
879.333	22892
879.461	22987
879.588	22900
879.715	23056
879.842	23258
879.97	22927
880.097	22618
880.224	22729
880.351	22694
880.478	22748
880.605	22588
880.732	22752
880.859	22885
880.986	22672
881.112	22622
881.239	22561
881.366	22375
881.493	22306
881.619	22200
881.746	22284
881.872	22234
881.999	22200
882.125	22249
882.252	22192
882.378	22196
882.505	22344
882.631	22109
882.757	21994
882.883	22051
883.01	22013
883.136	21926
883.262	21911
883.388	21720
883.514	21899
883.64	21926
883.766	21861
883.892	21781
884.018	21637
884.143	21869
884.269	21880
884.395	21759
884.52	21504
884.646	21477
884.772	21557
884.897	21393
885.023	21526
885.148	21816
885.274	21736
885.399	21682
885.524	21606
885.65	21599
885.775	21542
885.9	21564
886.025	21694
886.15	21675
886.275	21492
886.4	21504
886.525	21500
886.65	21504
886.775	21428
886.9	21739
887.025	21766
887.149	21557
887.274	21466
887.399	21344
887.523	21252
887.648	21332
887.773	21378
887.897	21469
888.021	21412
888.146	21428
888.27	21462
888.395	21462
888.519	21424
888.643	21321
888.767	21336
888.891	21211
889.015	21173
889.139	21283
889.263	21195
889.387	21370
889.511	21420
889.635	21291
889.759	21154
889.883	21062
890.006	21184
890.13	21192
890.254	21058
890.377	21119
890.501	20823
890.624	20933
890.748	20967
890.871	20842
890.995	20811
891.118	20602
891.241	20701
891.364	20807
891.488	20918
891.611	20785
891.734	20792
891.857	20823
891.98	20727
892.103	20864
892.226	20674
892.349	20678
892.471	20461
892.594	20678
892.717	20693
892.839	20594
892.962	20716
893.085	20712
893.207	20632
893.33	20545
893.452	20537
893.575	20648
893.697	20522
893.819	20830
893.941	20830
894.064	20727
894.186	20617
894.308	20457
894.43	20724
894.552	20804
894.674	20796
894.796	20579
894.918	20606
895.04	20533
895.161	20655
895.283	20678
895.405	20560
895.526	20667
895.648	20594
895.769	20579
895.891	20670
896.012	20644
896.134	20571
896.255	20575
896.376	20434
896.498	20575
896.619	20621
896.74	20617
896.861	20655
896.982	20842
897.103	20975
897.224	20933
897.345	20994
897.466	20823
897.587	20845
897.708	20895
897.828	20834
897.949	20708
898.07	20697
898.19	20750
898.311	20944
898.431	20743
898.552	20731
898.672	20899
898.792	20861
898.913	20762
899.033	20750
899.153	20674
899.273	20530
899.393	20602
899.513	20503
899.633	20461
899.753	20564
899.873	20423
899.993	20552
900.113	20465
900.232	20583
900.352	20389
900.472	20419
900.591	20240
900.711	20374
900.83	20278
900.95	20320
901.069	20423
901.189	20218
901.308	19856
901.427	19772
901.546	19921
901.665	19894
901.784	19860
901.904	19742
902.023	19655
902.141	19388
902.26	19419
902.379	19499
902.498	19384
902.617	19339
902.735	19457
902.854	19358
902.973	19244
903.091	19244
903.21	19061
903.328	19088
903.446	19091
903.565	18935
903.683	18920
903.801	18688
903.919	18909
904.038	18798
904.156	18616
904.274	18722
904.392	18608
904.51	18650
904.627	18631
904.745	18593
904.863	18642
904.981	18448
905.098	18323
905.216	18369
905.334	18494
905.451	18365
905.569	18300
905.686	18334
905.803	18304
905.921	18095
906.038	18281
906.155	18209
906.272	17973
906.389	18098
906.506	17851
906.623	17790
906.74	17809
906.857	17805
906.974	17786
907.091	17901
907.208	17912
907.324	17802
907.441	17687
907.557	17672
907.674	17554
907.79	17528
907.907	17543
908.023	17562
908.139	17642
908.256	17528
908.372	17376
908.488	17478
908.604	17330
908.72	17349
908.836	17220
908.952	17345
909.068	17277
909.184	17299
909.3	17261
909.415	17406
909.531	17299
909.647	17033
909.762	16995
909.878	16976
909.993	17067
910.108	16984
910.224	16927
910.339	16877
910.454	16896
910.57	16801
910.685	16664
910.8	17014
910.915	16942
911.03	16786
911.145	16668
911.259	16599
911.374	16584
911.489	16466
911.604	16489
911.718	16325
911.833	16394
911.947	16181
912.062	16105
912.176	16162
912.291	16280
912.405	16356
912.519	16447
912.633	16512
912.748	16329
912.862	16310
912.976	16162
913.09	16006
913.204	16143
913.318	16124
913.431	16162
913.545	16219
913.659	16246
913.772	15972
913.886	15975
914	15956
914.113	15949
914.226	15968
914.34	15968
914.453	15808
914.566	16032
914.68	15743
914.793	15816
914.906	15584
915.019	15618
915.132	15488
915.245	15496
915.358	15511
915.47	15530
915.583	15545
915.696	15519
915.809	15614
915.921	15599
916.034	15549
916.146	15397
916.259	15458
916.371	15530
916.483	15458
916.595	15313
916.708	15355
916.82	15325
916.932	15287
917.044	15249
917.156	15233
917.268	15180
917.38	15116
917.491	15123
917.603	15230
917.715	15241
917.826	15344
917.938	15081
918.049	15093
918.161	15142
918.272	15150
918.384	15211
918.495	15123
918.606	14979
918.717	14880
918.828	14861
918.939	14887
919.05	14769
919.161	14887
919.272	14648
919.383	14777
919.494	14868
919.604	15165
919.715	14960
919.826	14754
919.936	14781
920.047	14971
920.157	14861
920.267	14990
920.378	14887
920.488	14815
920.598	15036
920.708	15188
920.818	15036
920.928	15013
921.038	15165
921.148	15146
921.258	14807
921.368	14826
921.477	14621
921.587	14636
921.697	14419
921.806	14473
921.916	14446
922.025	14305
922.134	14138
922.244	14259
922.353	14210
922.462	14050
922.571	13997
922.68	13864
922.789	13856
922.898	13917
923.007	13871
923.116	13856
923.224	13849
923.333	13818
923.442	13704
923.55	13575
923.659	13696
923.767	13761
923.876	13548
923.984	13708
924.092	13514
924.201	13624
924.309	13590
924.417	13597
924.525	13430
924.633	13476
924.741	14244
924.849	13445
924.956	13476
925.064	13354
925.172	13251
925.279	13339
925.387	13263
925.494	13251
925.602	13350
925.709	13339
925.816	13118
925.924	13289
926.031	13324
926.138	13251
926.245	13206
926.352	13118
926.459	13202
926.566	13240
926.673	13126
926.779	13008
926.886	12966
926.993	12791
927.099	12844
927.206	12779
927.312	12825
927.419	12833
927.525	12764
927.631	12928
927.737	12665
927.843	12711
927.95	12498
928.056	12570
928.162	12654
928.267	12578
928.373	13278
928.479	12715
928.585	12570
928.69	12563
928.796	12631
928.901	12525
929.007	12357
929.112	12486
929.218	12517
929.323	12437
929.428	12372
929.533	12525
929.638	12300
929.743	12315
929.848	12296
929.953	12372
930.058	12235
930.163	12095
930.267	12011
930.372	12228
930.477	11916
930.581	12285
930.685	12110
930.79	11805
930.894	12011
930.998	11923
931.103	11927
931.207	11657
931.311	11577
931.415	11402
931.519	11299
931.623	11242
