Data from test_V78500241_1391.txt Node
Date: Fri Mar 25 15:19:32 CST 2022
User: usil
Spectrometer: V785-0024
Trigger mode: 0
Integration Time (sec): 4.000000E-1
Scans to average: 1
Nonlinearity correction enabled: false
Boxcar width: 0
Storing dark spectrum: false
XAxis mode: Wavelengths
Number of Pixels in Spectrum: 1024
>>>>>Begin Spectral Data<<<<<
801.071	28090
801.214	27698
801.356	27538
801.499	27526
801.641	27427
801.783	27515
801.926	27485
802.068	27462
802.211	27298
802.353	27195
802.496	27104
802.638	27074
802.78	27032
802.923	27051
803.065	27032
803.208	27047
803.35	27013
803.492	27256
803.635	27325
803.777	27195
803.919	27386
804.061	27542
804.204	27287
804.346	27260
804.488	27173
804.63	27332
804.773	27256
804.915	27427
805.057	27507
805.199	27351
805.341	27378
805.483	27526
805.626	27485
805.768	27317
805.91	27458
806.052	27466
806.194	27363
806.336	27564
806.478	27458
806.62	27401
806.762	27561
806.904	27625
807.046	27956
807.188	27857
807.33	27827
807.472	28032
807.614	27869
807.756	27793
807.898	27690
808.04	27717
808.182	27724
808.324	27793
808.465	27690
808.607	27991
808.749	28154
808.891	28013
809.033	28284
809.174	28090
809.316	28223
809.458	28006
809.6	28109
809.741	28246
809.883	28124
810.025	28382
810.166	28322
810.308	28451
810.45	28299
810.591	28257
810.733	28177
810.875	28135
811.016	28135
811.158	28078
811.299	28135
811.441	28200
811.582	28238
811.724	28029
811.865	28200
812.007	28120
812.148	28173
812.29	28268
812.431	28192
812.573	28409
812.714	28603
812.855	28744
812.997	28759
813.138	28824
813.279	28740
813.421	28706
813.562	28615
813.703	28500
813.845	28352
813.986	27975
814.127	28055
814.268	27732
814.41	27949
814.551	27759
814.692	27949
814.833	27911
814.974	27732
815.115	27892
815.256	27644
815.397	27633
815.539	27766
815.68	27717
815.821	27340
815.962	27618
816.103	27610
816.244	27405
816.385	27348
816.526	27351
816.666	27165
816.807	27089
816.948	27180
817.089	27249
817.23	27188
817.371	27093
817.512	27081
817.653	27051
817.793	27104
817.934	27108
818.075	27028
818.216	27058
818.356	27009
818.497	26853
818.638	26769
818.778	26815
818.919	26750
819.06	27047
819.2	26994
819.341	27104
819.481	27028
819.622	27154
819.762	27473
819.903	27325
820.043	27344
820.184	27237
820.324	27142
820.465	27268
820.605	27363
820.746	27055
820.886	27146
821.026	27291
821.167	27214
821.307	27233
821.447	27047
821.588	26929
821.728	26781
821.868	26609
822.008	26613
822.149	26389
822.289	26389
822.429	26256
822.569	26282
822.709	26195
822.849	26088
822.99	26069
823.13	25894
823.27	25909
823.41	25906
823.55	25772
823.69	25776
823.83	26001
823.97	25864
824.11	25616
824.25	25537
824.389	25731
824.529	25632
824.669	25677
824.809	25795
824.949	25765
825.089	25776
825.228	25765
825.368	25571
825.508	25487
825.648	25575
825.787	25559
825.927	25643
826.067	25635
826.206	25628
826.346	25521
826.485	25624
826.625	25639
826.765	25704
826.904	25518
827.044	25343
827.183	25259
827.323	25263
827.462	25388
827.601	25289
827.741	25320
827.88	25403
828.02	25259
828.159	25232
828.298	25282
828.437	25316
828.577	25137
828.716	25377
828.855	25339
828.994	25084
829.134	24992
829.273	24954
829.412	24977
829.551	24920
829.69	25008
829.829	25019
829.968	25019
830.107	24977
830.246	24928
830.385	25004
830.524	24875
830.663	24802
830.802	24776
830.941	24627
831.08	24608
831.219	24783
831.357	24711
831.496	24859
831.635	24635
831.774	24612
831.913	24490
832.051	24536
832.19	24391
832.329	24464
832.467	24266
832.606	24262
832.744	24216
832.883	24357
833.022	24076
833.16	24395
833.299	24361
833.437	24304
833.576	24410
833.714	24315
833.852	24410
833.991	24361
834.129	24391
834.267	24460
834.406	24376
834.544	24311
834.682	24281
834.821	24361
834.959	24521
835.097	24296
835.235	24281
835.373	24262
835.511	24399
835.65	24235
835.788	24133
835.926	23969
836.064	23942
836.202	24095
836.34	24095
836.478	24422
836.615	24292
836.753	24041
836.891	24296
837.029	24171
837.167	24030
837.305	24095
837.443	24060
837.58	24083
837.718	24034
837.856	24034
837.993	23961
838.131	23935
838.269	23885
838.406	23802
838.544	23859
838.681	23600
838.819	23608
838.956	23376
839.094	23486
839.231	23566
839.369	23638
839.506	23824
839.643	23745
839.781	23570
839.918	23455
840.055	23497
840.193	23452
840.33	23467
840.467	23497
840.604	23364
840.742	23558
840.879	23296
841.016	23318
841.153	23208
841.29	23455
841.427	23356
841.564	23402
841.701	23440
841.838	23436
841.975	23337
842.112	23299
842.249	23254
842.385	23185
842.522	23223
842.659	23273
842.796	23140
842.933	23102
843.069	23067
843.206	22991
843.343	23113
843.479	23181
843.616	23151
843.752	22919
843.889	23079
844.025	23113
844.162	23003
844.298	22987
844.435	22869
844.571	22877
844.708	23022
844.844	23033
844.98	23117
845.117	22923
845.253	22763
845.389	22740
845.525	22759
845.661	22786
845.798	22778
845.934	22641
846.07	22550
846.206	22668
846.342	22755
846.478	22577
846.614	22504
846.75	22116
846.886	22398
847.022	22470
847.158	22466
847.294	22333
847.429	22443
847.565	22447
847.701	22592
847.837	22185
847.972	22173
848.108	22169
848.244	22223
848.379	22044
848.515	21873
848.65	21869
848.786	22006
848.921	22188
849.057	22124
849.192	22025
849.328	22010
849.463	21911
849.598	21945
849.734	21873
849.869	21873
850.004	21698
850.14	21724
850.275	21747
850.41	21625
850.545	21576
850.68	21709
850.815	21709
850.95	21682
851.085	22025
851.22	21789
851.355	21751
851.49	21736
851.625	21705
851.76	21800
851.895	21603
852.03	21580
852.165	21690
852.299	21739
852.434	21789
852.569	21698
852.703	21759
852.838	21781
852.973	21857
853.107	21937
853.242	21599
853.376	21504
853.511	21492
853.645	21538
853.78	21728
853.914	21652
854.048	21526
854.183	21576
854.317	21538
854.451	21690
854.585	21481
854.72	21500
854.854	21591
854.988	21515
855.122	21473
855.256	21367
855.39	21492
855.524	21587
855.658	21523
855.792	21591
855.926	21622
856.06	21549
856.194	21675
856.327	21530
856.461	21420
856.595	21458
856.729	21466
856.862	21641
856.996	21542
857.13	21641
857.263	21701
857.397	21587
857.53	21515
857.664	21583
857.797	21591
857.931	21671
858.064	21568
858.197	21610
858.331	21538
858.464	21462
858.597	21405
858.731	21576
858.864	21610
858.997	21648
859.13	21618
859.263	21568
859.396	21523
859.529	21545
859.662	21519
859.795	21561
859.928	21515
860.061	21629
860.194	21762
860.327	21599
860.46	21416
860.592	21644
860.725	21743
860.858	21694
860.99	21542
861.123	21393
861.256	21469
861.388	21462
861.521	22169
861.653	21511
861.786	21214
861.918	21481
862.05	21435
862.183	21538
862.315	21519
862.447	21572
862.58	21466
862.712	21245
862.844	21344
862.976	21298
863.108	21355
863.24	21633
863.372	21218
863.504	21241
863.636	21161
863.768	21321
863.9	21283
864.032	21104
864.164	21127
864.296	21218
864.428	21325
864.559	21249
864.691	21359
864.823	21321
864.954	21180
865.086	21173
865.217	21184
865.349	21066
865.48	21142
865.612	21096
865.743	21203
865.875	21157
866.006	21138
866.137	21203
866.269	21176
866.4	21207
866.531	21138
866.662	21028
866.793	21104
866.924	21062
867.055	21074
867.186	21036
867.317	21108
867.448	21058
867.579	21024
867.71	21039
867.841	20982
867.972	21100
868.103	21036
868.233	21047
868.364	21123
868.495	21131
868.625	21195
868.756	21195
868.886	21260
869.017	21211
869.147	21504
869.278	21405
869.408	21298
869.539	21386
869.669	21462
869.799	21283
869.929	21458
870.06	21389
870.19	21599
870.32	21629
870.45	21595
870.58	21720
870.71	21736
870.84	21804
870.97	21675
871.1	21762
871.23	21785
871.36	21964
871.489	21918
871.619	21838
871.749	21880
871.879	21926
872.008	21880
872.138	22021
872.267	21972
872.397	21728
872.526	21656
872.656	21759
872.785	21720
872.915	21922
873.044	21937
873.173	21937
873.303	21907
873.432	21953
873.561	22063
873.69	21922
873.819	21876
873.948	21956
874.077	21994
874.206	21861
874.335	21899
874.464	22029
874.593	22120
874.722	22147
874.851	22154
874.979	22109
875.108	22185
875.237	22063
875.365	22036
875.494	22063
875.623	22242
875.751	22150
875.88	22158
876.008	22341
876.136	22284
876.265	22447
876.393	22691
876.521	22679
876.65	22603
876.778	22500
876.906	22523
877.034	22493
877.162	22443
877.29	22531
877.418	22504
877.546	22470
877.674	22409
877.802	22436
877.93	22470
878.058	22493
878.185	22352
878.313	22451
878.441	22466
878.568	22310
878.696	22337
878.824	22580
878.951	22531
879.079	22740
879.206	22710
879.333	22634
879.461	22462
879.588	22569
879.715	22615
879.842	22771
879.97	22569
880.097	22295
880.224	22261
880.351	22398
880.478	22303
880.605	22166
880.732	22337
880.859	22603
880.986	22215
881.112	22363
881.239	22188
881.366	21994
881.493	21937
881.619	21907
881.746	21907
881.872	21964
881.999	21835
882.125	21747
882.252	21953
882.378	21941
882.505	22036
882.631	21625
882.757	21599
882.883	21587
883.01	21572
883.136	21454
883.262	21519
883.388	21340
883.514	21511
883.64	21496
883.766	21523
883.892	21252
884.018	21447
884.143	21492
884.269	21583
884.395	21367
884.52	21180
884.646	21188
884.772	21135
884.897	21108
885.023	21249
885.148	21283
885.274	21332
885.399	21268
885.524	21218
885.65	21188
885.775	21306
885.9	21199
886.025	21287
886.15	21226
886.275	21188
886.4	21100
886.525	21108
886.65	21188
886.775	21104
886.9	21378
887.025	21252
887.149	21264
887.274	20944
887.399	20994
887.523	20990
887.648	20948
887.773	20899
887.897	21013
888.021	20971
888.146	20807
888.27	21093
888.395	21085
888.519	20956
888.643	20929
888.767	21028
888.891	20925
889.015	20743
889.139	20796
889.263	20693
889.387	20876
889.511	21001
889.635	20895
889.759	20868
889.883	20750
890.006	20701
890.13	20963
890.254	20758
890.377	20765
890.501	20492
890.624	20484
890.748	20537
890.871	20480
890.995	20347
891.118	20301
891.241	20381
891.364	20377
891.488	20454
891.611	20317
891.734	20317
891.857	20473
891.98	20408
892.103	20294
892.226	20259
892.349	20313
892.471	20103
892.594	20282
892.717	20259
892.839	20290
892.962	20336
893.085	20355
893.207	20267
893.33	20157
893.452	20191
893.575	20225
893.697	20240
893.819	20336
893.941	20400
894.064	20301
894.186	20153
894.308	20031
894.43	20259
894.552	20431
894.674	20320
894.796	20073
894.918	20343
895.04	20229
895.161	20290
895.283	20237
895.405	20168
895.526	20161
895.648	20164
895.769	20225
895.891	20248
896.012	20381
896.134	20320
896.255	20313
896.376	20309
896.498	20298
896.619	20332
896.74	20237
896.861	20294
896.982	20606
897.103	20640
897.224	20549
897.345	20473
897.466	20309
897.587	20393
897.708	20507
897.828	20480
897.949	20324
898.07	20313
898.19	20332
898.311	20415
898.431	20393
898.552	20366
898.672	20617
898.792	20473
898.913	20461
899.033	20347
899.153	20176
899.273	20191
899.393	20259
899.513	20290
899.633	20206
899.753	20298
899.873	20054
899.993	20278
900.113	20180
900.232	20062
900.352	20084
900.472	20084
900.591	19849
900.711	20046
900.83	19887
900.95	20001
901.069	20115
901.189	19845
901.308	19544
901.427	19605
901.546	19620
901.665	19521
901.784	19483
901.904	19438
902.023	19240
902.141	19099
902.26	19126
902.379	19225
902.498	19110
902.617	18996
902.735	19061
902.854	19114
902.973	18935
903.091	18791
903.21	18779
903.328	18669
903.446	18703
903.565	18479
903.683	18597
903.801	18445
903.919	18555
904.038	18513
904.156	18361
904.274	18323
904.392	18353
904.51	18254
904.627	18350
904.745	18273
904.863	18311
904.981	18178
905.098	17977
905.216	18041
905.334	17939
905.451	18038
905.569	17969
905.686	17958
905.803	18079
905.921	17794
906.038	17908
906.155	17676
906.272	17596
906.389	17718
906.506	17608
906.623	17547
906.74	17596
906.857	17505
906.974	17421
907.091	17471
907.208	17585
907.324	17436
907.441	17459
907.557	17216
907.674	17193
907.79	17094
907.907	17231
908.023	17140
908.139	17208
908.256	17140
908.372	17113
908.488	17048
908.604	16961
908.72	16911
908.836	16934
908.952	16942
909.068	17025
909.184	17041
909.3	16965
909.415	16946
909.531	16889
909.647	16729
909.762	16645
909.878	16596
909.993	16584
910.108	16664
910.224	16672
910.339	16558
910.454	16531
910.57	16459
910.685	16413
910.8	16653
910.915	16542
911.03	16481
911.145	16337
911.259	16303
911.374	16295
911.489	16196
911.604	16097
911.718	16032
911.833	15918
911.947	15888
912.062	15797
912.176	15911
912.291	15922
912.405	16006
912.519	16082
912.633	16150
912.748	16074
912.862	15899
912.976	15671
913.09	15800
913.204	15846
913.318	15770
913.431	15865
913.545	15857
913.659	15854
913.772	15724
913.886	15633
914	15568
914.113	15682
914.226	15762
914.34	15652
914.453	15542
914.566	15629
914.68	15412
914.793	15408
914.906	15252
915.019	15112
915.132	15176
915.245	15252
915.358	15272
915.47	15256
915.583	15279
915.696	15249
915.809	15313
915.921	15317
916.034	15199
916.146	15157
916.259	15062
916.371	15233
916.483	15203
916.595	15070
916.708	14998
916.82	14975
916.932	15020
917.044	15039
917.156	14925
917.268	14807
917.38	14899
917.491	14853
917.603	14910
917.715	14895
917.826	14906
917.938	14853
918.049	14663
918.161	14754
918.272	14910
918.384	14998
918.495	14777
918.606	14610
918.717	14587
918.828	14629
918.939	14499
919.05	14503
919.161	14530
919.272	14446
919.383	14423
919.494	14663
919.604	14720
919.715	14575
919.826	14495
919.936	14587
920.047	14610
920.157	14503
920.267	14644
920.378	14655
920.488	14476
920.598	14735
920.708	14887
920.818	14682
920.928	14693
921.038	14880
921.148	14754
921.258	14484
921.368	14339
921.477	14366
921.587	14256
921.697	14229
921.806	14271
921.916	14176
922.025	13970
922.134	13978
922.244	13879
922.353	13890
922.462	13788
922.571	13753
922.68	13647
922.789	13643
922.898	13609
923.007	13476
923.116	13639
923.224	13578
923.333	13582
923.442	13350
923.55	13396
923.659	13396
923.767	13510
923.876	13445
923.984	13400
924.092	13304
924.201	13327
924.309	13362
924.417	13282
924.525	13236
924.633	13324
924.741	14145
924.849	13019
924.956	13194
925.064	13088
925.172	12886
925.279	13019
925.387	13046
925.494	12932
925.602	13042
925.709	13076
925.816	12935
925.924	12981
926.031	12977
926.138	12970
926.245	13015
926.352	12909
926.459	13046
926.566	13027
926.673	12837
926.779	12757
926.886	12715
926.993	12646
927.099	12681
927.206	12585
927.312	12494
927.419	12627
927.525	12544
927.631	12555
927.737	12399
927.843	12433
927.95	12247
928.056	12327
928.162	12467
928.267	12429
928.373	13076
928.479	12418
928.585	12209
928.69	12391
928.796	12376
928.901	12273
929.007	12106
929.112	12216
929.218	12205
929.323	12129
929.428	12079
929.533	12159
929.638	12019
929.743	12060
929.848	12110
929.953	12038
930.058	11988
930.163	11771
930.267	11767
930.372	11969
930.477	11832
930.581	11920
930.685	11843
930.79	11638
930.894	11573
930.998	11589
931.103	11809
931.207	11414
931.311	11376
931.415	11299
931.519	11128
931.623	11075
