Data from test_V78500241_3581.txt Node
Date: Fri Mar 25 15:34:47 CST 2022
User: usil
Spectrometer: V785-0024
Trigger mode: 0
Integration Time (sec): 4.000000E-1
Scans to average: 1
Nonlinearity correction enabled: false
Boxcar width: 0
Storing dark spectrum: false
XAxis mode: Wavelengths
Number of Pixels in Spectrum: 1024
>>>>>Begin Spectral Data<<<<<
801.071	27405
801.214	27420
801.356	27222
801.499	26918
801.641	26902
801.783	26830
801.926	26872
802.068	26921
802.211	26876
802.353	26739
802.496	26575
802.638	26511
802.78	26438
802.923	26530
803.065	26370
803.208	26461
803.35	26541
803.492	26678
803.635	26644
803.777	26541
803.919	26773
804.061	27028
804.204	26800
804.346	26629
804.488	26560
804.63	26667
804.773	26541
804.915	26655
805.057	26735
805.199	26708
805.341	26853
805.483	26769
805.626	26819
805.768	26682
805.91	26735
806.052	26830
806.194	26735
806.336	27028
806.478	26777
806.62	26823
806.762	26823
806.904	27024
807.046	27279
807.188	27180
807.33	27222
807.472	27260
807.614	27131
807.756	27093
807.898	27043
808.04	26963
808.182	26910
808.324	26948
808.465	27058
808.607	27226
808.749	27420
808.891	27485
809.033	27644
809.174	27408
809.316	27275
809.458	27310
809.6	27405
809.741	27332
809.883	27416
810.025	27705
810.166	27698
810.308	27717
810.45	27534
810.591	27663
810.733	27447
810.875	27427
811.016	27359
811.158	27439
811.299	27374
811.441	27576
811.582	27450
811.724	27378
811.865	27386
812.007	27264
812.148	27321
812.29	27378
812.431	27599
812.573	27679
812.714	27865
812.855	27892
812.997	27888
813.138	28139
813.279	28017
813.421	27854
813.562	27838
813.703	27701
813.845	27568
813.986	27481
814.127	26982
814.268	27032
814.41	27127
814.551	27085
814.692	27077
814.833	27001
814.974	27089
815.115	26975
815.256	26785
815.397	27013
815.539	27051
815.68	26838
815.821	26659
815.962	26853
816.103	26678
816.244	26644
816.385	26552
816.526	26621
816.666	26305
816.807	26320
816.948	26252
817.089	26336
817.23	26191
817.371	26259
817.512	26278
817.653	26317
817.793	26172
817.934	26336
818.075	26202
818.216	26427
818.356	26320
818.497	26187
818.638	26122
818.778	26111
818.919	25970
819.06	26096
819.2	26191
819.341	26336
819.481	26206
819.622	26518
819.762	26648
819.903	26560
820.043	26488
820.184	26488
820.324	26419
820.465	26381
820.605	26473
820.746	26343
820.886	26294
821.026	26374
821.167	26320
821.307	26370
821.447	26195
821.588	26202
821.728	26138
821.868	25887
822.008	25849
822.149	25651
822.289	25708
822.429	25430
822.569	25453
822.709	25491
822.849	25247
822.99	25346
823.13	25278
823.27	25369
823.41	25118
823.55	25015
823.69	25225
823.83	25095
823.97	25015
824.11	24966
824.25	24852
824.389	24882
824.529	25027
824.669	24924
824.809	24954
824.949	25069
825.089	25000
825.228	24977
825.368	24825
825.508	24741
825.648	24764
825.787	24852
825.927	24852
826.067	24707
826.206	24837
826.346	24840
826.485	24795
826.625	24760
826.765	24840
826.904	25004
827.044	24521
827.183	24399
827.323	24528
827.462	24498
827.601	24414
827.741	24502
827.88	24452
828.02	24258
828.159	24441
828.298	24540
828.437	24547
828.577	24376
828.716	24684
828.855	24323
828.994	24296
829.134	24235
829.273	24323
829.412	24239
829.551	24068
829.69	24194
829.829	24254
829.968	24380
830.107	24327
830.246	24140
830.385	24129
830.524	24178
830.663	24053
830.802	23866
830.941	23897
831.08	23729
831.219	23946
831.357	23893
831.496	24064
831.635	23767
831.774	23893
831.913	23714
832.051	23600
832.19	23779
832.329	23680
832.467	23630
832.606	23486
832.744	23471
832.883	23486
833.022	23482
833.16	23512
833.299	23581
833.437	23490
833.576	23608
833.714	23630
833.852	23573
833.991	23745
834.129	23638
834.267	23604
834.406	23657
834.544	23547
834.682	23440
834.821	23512
834.959	23630
835.097	23558
835.235	23676
835.373	23646
835.511	23558
835.65	23425
835.788	23459
835.926	23277
836.064	23288
836.202	23220
836.34	23360
836.478	23551
836.615	23497
836.753	23395
836.891	23490
837.029	23528
837.167	23512
837.305	23376
837.443	23254
837.58	23208
837.718	23337
837.856	23330
837.993	23288
838.131	23368
838.269	23174
838.406	23121
838.544	23098
838.681	23029
838.819	22965
838.956	22771
839.094	22694
839.231	22877
839.369	23037
839.506	23056
839.643	23083
839.781	22778
839.918	22725
840.055	22729
840.193	22725
840.33	22748
840.467	22820
840.604	22713
840.742	22885
840.879	22630
841.016	22611
841.153	22516
841.29	22824
841.427	22656
841.564	22774
841.701	22630
841.838	22611
841.975	22626
842.112	22748
842.249	22497
842.385	22500
842.522	22691
842.659	22523
842.796	22390
842.933	22386
843.069	22394
843.206	22310
843.343	22561
843.479	22462
843.616	22470
843.752	22230
843.889	22169
844.025	22512
844.162	22207
844.298	22329
844.435	22242
844.571	22230
844.708	22242
844.844	22394
844.98	22147
845.117	22188
845.253	22219
845.389	22013
845.525	22131
845.661	22036
845.798	21956
845.934	21994
846.07	21941
846.206	22010
846.342	22093
846.478	22010
846.614	21720
846.75	21671
846.886	21709
847.022	21778
847.158	21709
847.294	21641
847.429	21865
847.565	21629
847.701	21884
847.837	21443
847.972	21458
848.108	21595
848.244	21580
848.379	21363
848.515	21298
848.65	21294
848.786	21313
848.921	21260
849.057	21450
849.192	21473
849.328	21218
849.463	21302
849.598	21218
849.734	21211
849.869	21184
850.004	21108
850.14	21150
850.275	21058
850.41	21062
850.545	20975
850.68	21032
850.815	21119
850.95	21077
851.085	21412
851.22	21192
851.355	21169
851.49	21039
851.625	21108
851.76	20994
851.895	21017
852.03	21085
852.165	21081
852.299	21188
852.434	21089
852.569	21020
852.703	21017
852.838	21123
852.973	21184
853.107	21112
853.242	20963
853.376	20918
853.511	20697
853.645	20830
853.78	21039
853.914	20895
854.048	20876
854.183	20963
854.317	20842
854.451	21108
854.585	20986
854.72	20952
854.854	20918
854.988	20823
855.122	20929
855.256	20785
855.39	20861
855.524	20986
855.658	20933
855.792	20998
855.926	20948
856.06	20857
856.194	20960
856.327	20872
856.461	20918
856.595	20750
856.729	20804
856.862	21017
856.996	21032
857.13	20929
857.263	21081
857.397	20929
857.53	20807
857.664	20944
857.797	21123
857.931	20982
858.064	20853
858.197	20876
858.331	20811
858.464	20910
858.597	20830
858.731	20937
858.864	20872
858.997	20830
859.13	20727
859.263	20880
859.396	20948
859.529	20804
859.662	20895
859.795	20750
859.928	20845
860.061	20956
860.194	21017
860.327	20921
860.46	20902
860.592	21043
860.725	21028
860.858	21116
860.99	20838
861.123	20891
861.256	20849
861.388	20796
861.521	21682
861.653	20765
861.786	20777
861.918	20629
862.05	20758
862.183	20804
862.315	20883
862.447	20895
862.58	20731
862.712	20594
862.844	20670
862.976	20663
863.108	20796
863.24	21051
863.372	20579
863.504	20636
863.636	20655
863.768	20632
863.9	20518
864.032	20396
864.164	20492
864.296	20712
864.428	20701
864.559	20693
864.691	20667
864.823	20541
864.954	20575
865.086	20617
865.217	20598
865.349	20473
865.48	20541
865.612	20560
865.743	20579
865.875	20568
866.006	20571
866.137	20625
866.269	20419
866.4	20473
866.531	20351
866.662	20442
866.793	20476
866.924	20298
867.055	20663
867.186	20590
867.317	20469
867.448	20271
867.579	20495
867.71	20298
867.841	20408
867.972	20377
868.103	20564
868.233	20393
868.364	20469
868.495	20670
868.625	20651
868.756	20864
868.886	20667
869.017	20739
869.147	20750
869.278	20769
869.408	20720
869.539	20712
869.669	20735
869.799	20712
869.929	20868
870.06	20842
870.19	21020
870.32	21020
870.45	20952
870.58	21081
870.71	21089
870.84	21283
870.97	21070
871.1	21062
871.23	21275
871.36	21336
871.489	21241
871.619	21214
871.749	21294
871.879	21348
872.008	21416
872.138	21336
872.267	21294
872.397	21272
872.526	21127
872.656	21017
872.785	21252
872.915	21374
873.044	21405
873.173	21344
873.303	21252
873.432	21389
873.561	21310
873.69	21386
873.819	21233
873.948	21310
874.077	21355
874.206	21325
874.335	21207
874.464	21439
874.593	21519
874.722	21523
874.851	21622
874.979	21553
875.108	21682
875.237	21545
875.365	21507
875.494	21568
875.623	21515
875.751	21458
875.88	21583
876.008	21583
876.136	21838
876.265	21892
876.393	22105
876.521	22017
876.65	22097
876.778	21972
876.906	21972
877.034	21869
877.162	22029
877.29	21888
877.418	21778
877.546	21956
877.674	21903
877.802	21956
877.93	21945
878.058	21876
878.185	21842
878.313	21869
878.441	21960
878.568	21751
878.696	21998
878.824	21937
878.951	21998
879.079	22036
879.206	22226
879.333	22036
879.461	21888
879.588	22070
879.715	22086
879.842	22135
879.97	22166
880.097	21766
880.224	21739
880.351	21884
880.478	21812
880.605	21671
880.732	21701
880.859	22112
880.986	21679
881.112	21835
881.239	21686
881.366	21363
881.493	21416
881.619	21325
881.746	21291
881.872	21340
881.999	21291
882.125	21131
882.252	21355
882.378	21294
882.505	21447
882.631	21279
882.757	20933
882.883	21108
883.01	21058
883.136	21051
883.262	20986
883.388	20975
883.514	20910
883.64	21024
883.766	20864
883.892	20906
884.018	20811
884.143	21009
884.269	21024
884.395	20720
884.52	20659
884.646	20667
884.772	20716
884.897	20564
885.023	20739
885.148	20769
885.274	20960
885.399	20750
885.524	20746
885.65	20602
885.775	20708
885.9	20746
886.025	20659
886.15	20800
886.275	20632
886.4	20606
886.525	20613
886.65	20625
886.775	20602
886.9	20727
887.025	20948
887.149	20689
887.274	20454
887.399	20415
887.523	20351
887.648	20282
887.773	20313
887.897	20613
888.021	20594
888.146	20442
888.27	20507
888.395	20579
888.519	20393
888.643	20583
888.767	20339
888.891	20244
889.015	20282
889.139	20240
889.263	20252
889.387	20393
889.511	20393
889.635	20381
889.759	20199
889.883	20240
890.006	20210
890.13	20415
890.254	20046
890.377	20130
890.501	20035
890.624	19925
890.748	20077
890.871	19906
890.995	19814
891.118	19769
891.241	19898
891.364	19814
891.488	19959
891.611	19765
891.734	19746
891.857	19841
891.98	19761
892.103	19925
892.226	19772
892.349	19841
892.471	19635
892.594	19757
892.717	19757
892.839	19746
892.962	19658
893.085	19830
893.207	19700
893.33	19552
893.452	19712
893.575	19666
893.697	19662
893.819	19837
893.941	19967
894.064	19955
894.186	19639
894.308	19723
894.43	19784
894.552	19788
894.674	19780
894.796	19624
894.918	19670
895.04	19731
895.161	19826
895.283	19712
895.405	19666
895.526	19738
895.648	19700
895.769	19784
895.891	19864
896.012	19856
896.134	19693
896.255	19734
896.376	19655
896.498	19719
896.619	19723
896.74	19655
896.861	19666
896.982	20096
897.103	20142
897.224	20020
897.345	19898
897.466	19772
897.587	19970
897.708	19986
897.828	19959
897.949	20008
898.07	19830
898.19	19887
898.311	20062
898.431	19890
898.552	19868
898.672	19997
898.792	19982
898.913	19883
899.033	19807
899.153	19803
899.273	19677
899.393	19639
899.513	19601
899.633	19753
899.753	19677
899.873	19750
899.993	19704
900.113	19647
900.232	19620
900.352	19662
900.472	19533
900.591	19495
900.711	19537
900.83	19369
900.95	19578
901.069	19605
901.189	19392
901.308	19145
901.427	19008
901.546	19088
901.665	19061
901.784	19114
901.904	18875
902.023	18859
902.141	18681
902.26	18566
902.379	18627
902.498	18566
902.617	18517
902.735	18646
902.854	18635
902.973	18483
903.091	18285
903.21	18300
903.328	18133
903.446	18152
903.565	18068
903.683	18098
903.801	18011
903.919	18106
904.038	18034
904.156	17843
904.274	17927
904.392	17855
904.51	17832
904.627	17851
904.745	17786
904.863	17977
904.981	17649
905.098	17608
905.216	17547
905.334	17551
905.451	17478
905.569	17421
905.686	17615
905.803	17535
905.921	17414
906.038	17410
906.155	17398
906.272	17227
906.389	17223
906.506	17200
906.623	17189
906.74	16995
906.857	16991
906.974	17041
907.091	17094
907.208	17136
907.324	17006
907.441	16980
907.557	16820
907.674	16812
907.79	16710
907.907	16755
908.023	16782
908.139	16710
908.256	16748
908.372	16653
908.488	16698
908.604	16569
908.72	16481
908.836	16596
908.952	16421
909.068	16489
909.184	16702
909.3	16447
909.415	16653
909.531	16402
909.647	16314
909.762	16284
909.878	16124
909.993	16162
910.108	16131
910.224	16078
910.339	16177
910.454	16097
910.57	16147
910.685	15941
910.8	16234
910.915	16166
911.03	16067
911.145	15827
911.259	15816
911.374	15819
911.489	15755
911.604	15701
911.718	15553
911.833	15549
911.947	15428
912.062	15439
912.176	15557
912.291	15576
912.405	15606
912.519	15774
912.633	15743
912.748	15644
912.862	15584
912.976	15382
913.09	15252
913.204	15351
913.318	15473
913.431	15542
913.545	15496
913.659	15488
913.772	15287
913.886	15116
914	15264
914.113	15252
914.226	15245
914.34	15252
914.453	15039
914.566	15237
914.68	15127
914.793	15043
914.906	14914
915.019	14857
915.132	14811
915.245	14777
915.358	14811
915.47	14769
915.583	14788
915.696	14792
915.809	14963
915.921	14967
916.034	14781
916.146	14640
916.259	14678
916.371	14823
916.483	14830
916.595	14655
916.708	14644
916.82	14579
916.932	14655
917.044	14625
917.156	14526
917.268	14427
917.38	14507
917.491	14469
917.603	14377
917.715	14617
917.826	14629
917.938	14423
918.049	14294
918.161	14393
918.272	14533
918.384	14518
918.495	14465
918.606	14358
918.717	14263
918.828	14248
918.939	14309
919.05	14134
919.161	14278
919.272	13982
919.383	14088
919.494	14199
919.604	14377
919.715	14286
919.826	14103
919.936	14145
920.047	14202
920.157	14191
920.267	14366
920.378	14176
920.488	14130
920.598	14339
920.708	14476
920.818	14317
920.928	14419
921.038	14541
921.148	14571
921.258	14123
921.368	14065
921.477	13864
921.587	13963
921.697	13898
921.806	14020
921.916	13830
922.025	13666
922.134	13578
922.244	13616
922.353	13567
922.462	13426
922.571	13350
922.68	13308
922.789	13297
922.898	13251
923.007	13091
923.116	13297
923.224	13194
923.333	13187
923.442	13080
923.55	13046
923.659	13050
923.767	13171
923.876	12966
923.984	13179
924.092	13053
924.201	12993
924.309	13004
924.417	13015
924.525	12848
924.633	12882
924.741	13769
924.849	12684
924.956	12798
925.064	12726
925.172	12703
925.279	12525
925.387	12662
925.494	12665
925.602	12787
925.709	12711
925.816	12551
925.924	12551
926.031	12604
926.138	12604
926.245	12730
926.352	12483
926.459	12616
926.566	12772
926.673	12593
926.779	12441
926.886	12426
926.993	12330
927.099	12266
927.206	12270
927.312	12190
927.419	12224
927.525	12308
927.631	12376
927.737	12079
927.843	12117
927.95	11984
928.056	11992
928.162	12110
928.267	12049
928.373	12642
928.479	12095
928.585	11908
928.69	12034
928.796	12106
928.901	11935
929.007	11779
929.112	11908
929.218	11874
929.323	11764
929.428	11786
929.533	11870
929.638	11752
929.743	11790
929.848	11783
929.953	11809
930.058	11688
930.163	11364
930.267	11452
930.372	11722
930.477	11402
930.581	11661
930.685	11570
930.79	11383
930.894	11402
930.998	11391
931.103	11532
931.207	11128
931.311	11124
931.415	10987
931.519	10869
931.623	10835
