Data from test_V78500241_2082.txt Node
Date: Fri Mar 25 15:24:21 CST 2022
User: usil
Spectrometer: V785-0024
Trigger mode: 0
Integration Time (sec): 4.000000E-1
Scans to average: 1
Nonlinearity correction enabled: false
Boxcar width: 0
Storing dark spectrum: false
XAxis mode: Wavelengths
Number of Pixels in Spectrum: 1024
>>>>>Begin Spectral Data<<<<<
801.071	27751
801.214	27694
801.356	27488
801.499	27542
801.641	27412
801.783	27420
801.926	27412
802.068	27439
802.211	27283
802.353	27252
802.496	27036
802.638	26956
802.78	26937
802.923	26914
803.065	26762
803.208	26868
803.35	26929
803.492	27123
803.635	27055
803.777	27127
803.919	27085
804.061	27545
804.204	27199
804.346	27268
804.488	26948
804.63	27233
804.773	27207
804.915	27272
805.057	27268
805.199	27142
805.341	27359
805.483	27424
805.626	27268
805.768	27222
805.91	27344
806.052	27298
806.194	27245
806.336	27519
806.478	27222
806.62	27378
806.762	27359
806.904	27644
807.046	27751
807.188	27660
807.33	27785
807.472	27690
807.614	27690
807.756	27610
807.898	27580
808.04	27477
808.182	27606
808.324	27603
808.465	27667
808.607	27739
808.749	27895
808.891	27994
809.033	27945
809.174	28040
809.316	27892
809.458	27907
809.6	27857
809.741	28063
809.883	28029
810.025	28204
810.166	28272
810.308	28223
810.45	28166
810.591	28029
810.733	28074
810.875	27975
811.016	27869
811.158	27816
811.299	28010
811.441	28032
811.582	28150
811.724	27956
811.865	27941
812.007	27911
812.148	27930
812.29	27960
812.431	28070
812.573	28310
812.714	28360
812.855	28500
812.997	28584
813.138	28812
813.279	28421
813.421	28516
813.562	28405
813.703	28291
813.845	28086
813.986	27854
814.127	27652
814.268	27762
814.41	27690
814.551	27553
814.692	27747
814.833	27576
814.974	27641
815.115	27595
815.256	27644
815.397	27538
815.539	27534
815.68	27420
815.821	27355
815.962	27401
816.103	27427
816.244	27283
816.385	27135
816.526	27207
816.666	26986
816.807	26944
816.948	27062
817.089	27043
817.23	26902
817.371	27009
817.512	26979
817.653	26868
817.793	26864
817.934	26781
818.075	26883
818.216	26925
818.356	26861
818.497	26830
818.638	26648
818.778	26678
818.919	26720
819.06	26724
819.2	26883
819.341	26960
819.481	26883
819.622	27024
819.762	27176
819.903	27176
820.043	27043
820.184	27085
820.324	26994
820.465	26986
820.605	27161
820.746	26982
820.886	26967
821.026	26929
821.167	26914
821.307	27032
821.447	26872
821.588	26887
821.728	26777
821.868	26442
822.008	26423
822.149	26305
822.289	26183
822.429	26191
822.569	25966
822.709	26081
822.849	25769
822.99	25986
823.13	25712
823.27	25799
823.41	25738
823.55	25605
823.69	25746
823.83	25643
823.97	25601
824.11	25472
824.25	25518
824.389	25594
824.529	25594
824.669	25533
824.809	25776
824.949	25635
825.089	25708
825.228	25502
825.368	25301
825.508	25377
825.648	25354
825.787	25468
825.927	25381
826.067	25263
826.206	25327
826.346	25381
826.485	25320
826.625	25415
826.765	25491
826.904	25411
827.044	25118
827.183	25160
827.323	25061
827.462	25251
827.601	25129
827.741	25175
827.88	25137
828.02	24981
828.159	24996
828.298	25076
828.437	25133
828.577	25034
828.716	25187
828.855	25053
828.994	24730
829.134	24810
829.273	24840
829.412	24738
829.551	24749
829.69	24745
829.829	24741
829.968	24817
830.107	24791
830.246	24726
830.385	24791
830.524	24688
830.663	24551
830.802	24460
830.941	24399
831.08	24380
831.219	24505
831.357	24380
831.496	24559
831.635	24502
831.774	24346
831.913	24262
832.051	24140
832.19	24163
832.329	24098
832.467	24114
832.606	24041
832.744	24030
832.883	24072
833.022	24064
833.16	24125
833.299	24041
833.437	24102
833.576	24117
833.714	24266
833.852	24243
833.991	24144
834.129	24152
834.267	24205
834.406	24155
834.544	24174
834.682	24186
834.821	24125
834.959	24437
835.097	24148
835.235	24129
835.373	24053
835.511	24060
835.65	24015
835.788	24034
835.926	23817
836.064	23767
836.202	23889
836.34	23973
836.478	23984
836.615	23996
836.753	24034
836.891	24015
837.029	23908
837.167	23912
837.305	23912
837.443	23775
837.58	23783
837.718	23813
837.856	23726
837.993	23672
838.131	23847
838.269	23729
838.406	23691
838.544	23687
838.681	23547
838.819	23482
838.956	23242
839.094	23269
839.231	23353
839.369	23433
839.506	23623
839.643	23490
839.781	23231
839.918	23303
840.055	23246
840.193	23227
840.33	23223
840.467	23102
840.604	23223
840.742	23448
840.879	23037
841.016	23109
841.153	23010
841.29	23315
841.427	23235
841.564	23086
841.701	23227
841.838	23151
841.975	23143
842.112	23067
842.249	22976
842.385	22908
842.522	23170
842.659	22987
842.796	22790
842.933	22911
843.069	22904
843.206	22858
843.343	22980
843.479	22904
843.616	23010
843.752	22706
843.889	22816
844.025	22850
844.162	22767
844.298	22805
844.435	22660
844.571	22622
844.708	22793
844.844	22854
844.98	22725
845.117	22729
845.253	22748
845.389	22508
845.525	22607
845.661	22580
845.798	22535
845.934	22519
846.07	22417
846.206	22489
846.342	22527
846.478	22443
846.614	22219
846.75	22196
846.886	22246
847.022	22196
847.158	22124
847.294	22124
847.429	22215
847.565	22128
847.701	22535
847.837	21956
847.972	21747
848.108	21983
848.244	21922
848.379	21797
848.515	21705
848.65	21823
848.786	21766
848.921	21823
849.057	21778
849.192	21873
849.328	21899
849.463	21679
849.598	21724
849.734	21747
849.869	21492
850.004	21633
850.14	21538
850.275	21500
850.41	21408
850.545	21504
850.68	21473
850.815	21580
850.95	21629
851.085	21637
851.22	21694
851.355	21515
851.49	21534
851.625	21526
851.76	21458
851.895	21317
852.03	21568
852.165	21542
852.299	21538
852.434	21595
852.569	21606
852.703	21530
852.838	21629
852.973	21599
853.107	21698
853.242	21481
853.376	21336
853.511	21298
853.645	21321
853.78	21519
853.914	21306
854.048	21291
854.183	21306
854.317	21351
854.451	21622
854.585	21401
854.72	21081
854.854	21279
854.988	21260
855.122	21214
855.256	21279
855.39	21412
855.524	21370
855.658	21348
855.792	21389
855.926	21401
856.06	21340
856.194	21481
856.327	21393
856.461	21275
856.595	21298
856.729	21329
856.862	21424
856.996	21416
857.13	21439
857.263	21393
857.397	21382
857.53	21313
857.664	21412
857.797	21447
857.931	21283
858.064	21351
858.197	21454
858.331	21389
858.464	21264
858.597	21241
858.731	21382
858.864	21298
858.997	21211
859.13	21214
859.263	21317
859.396	21370
859.529	21424
859.662	21325
859.795	21249
859.928	21313
860.061	21568
860.194	21629
860.327	21344
860.46	21469
860.592	21504
860.725	21428
860.858	21488
860.99	21393
861.123	21310
861.256	21344
861.388	21321
861.521	22044
861.653	21249
861.786	21207
861.918	21142
862.05	21291
862.183	21260
862.315	21252
862.447	21275
862.58	21226
862.712	21058
862.844	21150
862.976	21192
863.108	21127
863.24	21481
863.372	21093
863.504	21043
863.636	21024
863.768	21131
863.9	21005
864.032	21017
864.164	21005
864.296	21047
864.428	21241
864.559	21127
864.691	21089
864.823	21055
864.954	20990
865.086	20979
865.217	20982
865.349	20830
865.48	20979
865.612	20944
865.743	21199
865.875	20842
866.006	20944
866.137	20990
866.269	20864
866.4	20933
866.531	20834
866.662	20899
866.793	21020
866.924	20902
867.055	20975
867.186	20998
867.317	20773
867.448	20811
867.579	20876
867.71	20861
867.841	20914
867.972	20963
868.103	20887
868.233	20872
868.364	20979
868.495	20979
868.625	21047
868.756	21165
868.886	21062
869.017	20956
869.147	21264
869.278	21252
869.408	21055
869.539	21047
869.669	21249
869.799	21176
869.929	21199
870.06	21211
870.19	21428
870.32	21443
870.45	21408
870.58	21633
870.71	21564
870.84	21629
870.97	21526
871.1	21538
871.23	21690
871.36	21690
871.489	21542
871.619	21583
871.749	21663
871.879	21800
872.008	21846
872.138	21743
872.267	21690
872.397	21614
872.526	21515
872.656	21587
872.785	21660
872.915	21816
873.044	21819
873.173	21709
873.303	21819
873.432	21743
873.561	21804
873.69	21747
873.819	21705
873.948	21751
874.077	21686
874.206	21781
874.335	21755
874.464	21854
874.593	21998
874.722	22048
874.851	21998
874.979	21918
875.108	21892
875.237	21873
875.365	21827
875.494	21987
875.623	22139
875.751	21953
875.88	21915
876.008	22124
876.136	22147
876.265	22375
876.393	22470
876.521	22375
876.65	22375
876.778	22405
876.906	22265
877.034	22310
877.162	22303
877.29	22280
877.418	22367
877.546	22337
877.674	22329
877.802	22257
877.93	22265
878.058	22253
878.185	22105
878.313	22234
878.441	22204
878.568	22150
878.696	22299
878.824	22341
878.951	22417
879.079	22504
879.206	22599
879.333	22462
879.461	22337
879.588	22443
879.715	22523
879.842	22500
879.97	22390
880.097	22162
880.224	22120
880.351	22131
880.478	22128
880.605	22276
880.732	22162
880.859	22398
880.986	22181
881.112	22048
881.239	21915
881.366	21861
881.493	21812
881.619	21671
881.746	21800
881.872	21587
881.999	21652
882.125	21641
882.252	21766
882.378	21736
882.505	21953
882.631	21660
882.757	21443
882.883	21530
883.01	21450
883.136	21382
883.262	21378
883.388	21260
883.514	21382
883.64	21359
883.766	21344
883.892	21176
884.018	21188
884.143	21355
884.269	21416
884.395	21154
884.52	21077
884.646	21020
884.772	20876
884.897	20891
885.023	21051
885.148	21226
885.274	21272
885.399	21116
885.524	21009
885.65	21142
885.775	21108
885.9	20937
886.025	21260
886.15	21127
886.275	21116
886.4	20902
886.525	20979
886.65	20830
886.775	20990
886.9	21226
887.025	21260
887.149	21024
887.274	20735
887.399	20815
887.523	20815
887.648	20720
887.773	20781
887.897	20849
888.021	20861
888.146	20705
888.27	20853
888.395	20902
888.519	20815
888.643	20804
888.767	20758
888.891	20727
889.015	20629
889.139	20686
889.263	20522
889.387	20815
889.511	20872
889.635	20739
889.759	20621
889.883	20625
890.006	20526
890.13	20758
890.254	20568
890.377	20541
890.501	20480
890.624	20252
890.748	20427
890.871	20301
890.995	20168
891.118	20031
891.241	20183
891.364	20164
891.488	20282
891.611	20206
891.734	20199
891.857	20244
891.98	20343
892.103	20275
892.226	20278
892.349	20199
892.471	19978
892.594	20126
892.717	20157
892.839	20046
892.962	20126
893.085	20103
893.207	20210
893.33	20008
893.452	20008
893.575	20119
893.697	20092
893.819	20286
893.941	20210
894.064	20225
894.186	20122
894.308	20062
894.43	20081
894.552	20267
894.674	20138
894.796	20050
894.918	19986
895.04	20149
895.161	19940
895.283	20199
895.405	19997
895.526	20111
895.648	20077
895.769	20077
895.891	20149
896.012	20218
896.134	20081
896.255	20107
896.376	19944
896.498	20088
896.619	20164
896.74	20001
896.861	20180
896.982	20404
897.103	20518
897.224	20358
897.345	20275
897.466	20187
897.587	20336
897.708	20374
897.828	20313
897.949	20290
898.07	20229
898.19	20191
898.311	20286
898.431	20172
898.552	20138
898.672	20278
898.792	20412
898.913	20313
899.033	20248
899.153	20103
899.273	19970
899.393	20145
899.513	20058
899.633	19925
899.753	20096
899.873	19982
899.993	20218
900.113	20024
900.232	20035
900.352	19993
900.472	19932
900.591	19978
900.711	19928
900.83	19803
900.95	19928
901.069	19928
901.189	19651
901.308	19506
901.427	19415
901.546	19495
901.665	19407
901.784	19422
901.904	19217
902.023	19122
902.141	19053
902.26	18916
902.379	19046
902.498	18935
902.617	18871
902.735	18909
902.854	18966
902.973	18817
903.091	18639
903.21	18601
903.328	18578
903.446	18464
903.565	18433
903.683	18498
903.801	18289
903.919	18407
904.038	18361
904.156	18292
904.274	18095
904.392	18197
904.51	18072
904.627	18224
904.745	18262
904.863	18163
904.981	17904
905.098	17912
905.216	17901
905.334	17961
905.451	18007
905.569	17855
905.686	17939
905.803	17904
905.921	17665
906.038	17680
906.155	17737
906.272	17421
906.389	17543
906.506	17280
906.623	17493
906.74	17455
906.857	17337
906.974	17463
907.091	17474
907.208	17577
907.324	17425
907.441	17185
907.557	17022
907.674	17037
907.79	17090
907.907	17090
908.023	17075
908.139	17041
908.256	17124
908.372	17045
908.488	16923
908.604	16896
908.72	16774
908.836	16801
908.952	16790
909.068	16911
909.184	16854
909.3	16900
909.415	16938
909.531	16793
909.647	16542
909.762	16588
909.878	16478
909.993	16462
910.108	16527
910.224	16436
910.339	16489
910.454	16284
910.57	16314
910.685	16382
910.8	16569
910.915	16413
911.03	16348
911.145	16120
911.259	16200
911.374	16131
911.489	16078
911.604	16082
911.718	15766
911.833	15884
911.947	15728
912.062	15694
912.176	15842
912.291	15956
912.405	15778
912.519	15987
912.633	15975
912.748	15907
912.862	15766
912.976	15663
913.09	15538
913.204	15587
913.318	15656
913.431	15743
913.545	15850
913.659	15861
913.772	15622
913.886	15485
914	15492
914.113	15519
914.226	15576
914.34	15568
914.453	15393
914.566	15500
914.68	15386
914.793	15336
914.906	15157
915.019	15100
915.132	15055
915.245	15123
915.358	15188
915.47	15077
915.583	15123
915.696	15112
915.809	15195
915.921	15260
916.034	14986
916.146	15039
916.259	14891
916.371	15051
916.483	14998
916.595	14937
916.708	14864
916.82	14899
916.932	14952
917.044	14883
917.156	14769
917.268	14746
917.38	14754
917.491	14682
917.603	14686
917.715	14857
917.826	14811
917.938	14724
918.049	14636
918.161	14632
918.272	14705
918.384	14731
918.495	14781
918.606	14564
918.717	14442
918.828	14541
918.939	14476
919.05	14415
919.161	14492
919.272	14309
919.383	14278
919.494	14537
919.604	14632
919.715	14446
919.826	14355
919.936	14469
920.047	14552
920.157	14358
920.267	14735
920.378	14499
920.488	14480
920.598	14674
920.708	14807
920.818	14514
920.928	14610
921.038	14731
921.148	14720
921.258	14377
921.368	14271
921.477	14168
921.587	14153
921.697	14050
921.806	14229
921.916	14031
922.025	13906
922.134	13811
922.244	13795
922.353	13879
922.462	13757
922.571	13628
922.68	13491
922.789	13457
922.898	13518
923.007	13426
923.116	13472
923.224	13476
923.333	13403
923.442	13346
923.55	13312
923.659	13377
923.767	13381
923.876	13247
923.984	13266
924.092	13213
924.201	13225
924.309	13168
924.417	13190
924.525	13149
924.633	13168
924.741	13864
924.849	12981
924.956	13061
925.064	12905
925.172	12859
925.279	12901
925.387	12924
925.494	12829
925.602	13069
925.709	13000
925.816	12875
925.924	12768
926.031	12920
926.138	12734
926.245	12939
926.352	12757
926.459	12894
926.566	12897
926.673	12825
926.779	12703
926.886	12669
926.993	12528
927.099	12486
927.206	12407
927.312	12483
927.419	12563
927.525	12498
927.631	12464
927.737	12376
927.843	12296
927.95	12125
928.056	12277
928.162	12323
928.267	12338
928.373	13012
928.479	12441
928.585	12053
928.69	12296
928.796	12281
928.901	12178
929.007	12030
929.112	12064
929.218	12095
929.323	12068
929.428	12003
929.533	12232
929.638	11988
929.743	11984
929.848	11996
929.953	11969
930.058	11832
930.163	11703
930.267	11748
930.372	11847
930.477	11688
930.581	11843
930.685	11745
930.79	11691
930.894	11604
930.998	11581
931.103	11703
931.207	11356
931.311	11322
931.415	11269
931.519	11033
931.623	10968
