Data from test_V78500241_1190.txt Node
Date: Fri Mar 25 15:18:08 CST 2022
User: usil
Spectrometer: V785-0024
Trigger mode: 0
Integration Time (sec): 4.000000E-1
Scans to average: 1
Nonlinearity correction enabled: false
Boxcar width: 0
Storing dark spectrum: false
XAxis mode: Wavelengths
Number of Pixels in Spectrum: 1024
>>>>>Begin Spectral Data<<<<<
801.071	28112
801.214	27960
801.356	27827
801.499	27618
801.641	27545
801.783	27511
801.926	27641
802.068	27492
802.211	27538
802.353	27393
802.496	27264
802.638	27237
802.78	27260
802.923	27047
803.065	27157
803.208	27203
803.35	27192
803.492	27306
803.635	27405
803.777	27218
803.919	27302
804.061	27739
804.204	27447
804.346	27279
804.488	27249
804.63	27447
804.773	27332
804.915	27435
805.057	27530
805.199	27359
805.341	27515
805.483	27515
805.626	27542
805.768	27427
805.91	27511
806.052	27485
806.194	27492
806.336	27838
806.478	27614
806.62	27523
806.762	27641
806.904	27968
807.046	28082
807.188	27846
807.33	28036
807.472	28021
807.614	27865
807.756	27975
807.898	27880
808.04	27667
808.182	27770
808.324	27903
808.465	27823
808.607	27987
808.749	28257
808.891	28310
809.033	28314
809.174	28226
809.316	28276
809.458	28173
809.6	28048
809.741	28234
809.883	28196
810.025	28569
810.166	28561
810.308	28497
810.45	28493
810.591	28436
810.733	28211
810.875	28139
811.016	28074
811.158	28040
811.299	28318
811.441	28287
811.582	28363
811.724	28128
811.865	28181
812.007	28097
812.148	28246
812.29	28409
812.431	28375
812.573	28561
812.714	28672
812.855	28790
812.997	28744
813.138	29003
813.279	28820
813.421	28809
813.562	28717
813.703	28462
813.845	28401
813.986	28131
814.127	27960
814.268	27873
814.41	27880
814.551	27914
814.692	28017
814.833	28006
814.974	27816
815.115	27968
815.256	27838
815.397	27854
815.539	27781
815.68	27808
815.821	27663
815.962	27675
816.103	27705
816.244	27530
816.385	27572
816.526	27420
816.666	27462
816.807	27268
816.948	27325
817.089	27329
817.23	27188
817.371	27237
817.512	27283
817.653	27173
817.793	27165
817.934	27180
818.075	27184
818.216	27275
818.356	27283
818.497	27020
818.638	26864
818.778	27009
818.919	26986
819.06	27036
819.2	27135
819.341	27116
819.481	27150
819.622	27363
819.762	27519
819.903	27534
820.043	27336
820.184	27389
820.324	27302
820.465	27427
820.605	27427
820.746	27408
820.886	27268
821.026	27469
821.167	27321
821.307	27313
821.447	27256
821.588	27146
821.728	27032
821.868	26792
822.008	26849
822.149	26644
822.289	26788
822.429	26609
822.569	26522
822.709	26457
822.849	26248
822.99	26168
823.13	26187
823.27	26107
823.41	25868
823.55	25830
823.69	26024
823.83	25913
823.97	25936
824.11	25818
824.25	25845
824.389	25788
824.529	25978
824.669	25917
824.809	25932
824.949	25970
825.089	25902
825.228	25742
825.368	25723
825.508	25753
825.648	25772
825.787	25856
825.927	25655
826.067	25651
826.206	25685
826.346	25750
826.485	25590
826.625	25795
826.765	25936
826.904	25753
827.044	25479
827.183	25487
827.323	25400
827.462	25487
827.601	25556
827.741	25479
827.88	25483
828.02	25320
828.159	25453
828.298	25460
828.437	25487
828.577	25392
828.716	25533
828.855	25506
828.994	25164
829.134	25095
829.273	25148
829.412	25137
829.551	25019
829.69	25137
829.829	25217
829.968	25270
830.107	25110
830.246	25072
830.385	25255
830.524	25110
830.663	25171
830.802	24863
830.941	24734
831.08	24757
831.219	24875
831.357	24882
831.496	24966
831.635	24741
831.774	24700
831.913	24616
832.051	24589
832.19	24620
832.329	24460
832.467	24578
832.606	24315
832.744	24342
832.883	24467
833.022	24251
833.16	24464
833.299	24391
833.437	24551
833.576	24513
833.714	24574
833.852	24582
833.991	24646
834.129	24566
834.267	24414
834.406	24547
834.544	24574
834.682	24623
834.821	24502
834.959	24612
835.097	24479
835.235	24563
835.373	24563
835.511	24620
835.65	24376
835.788	24403
835.926	24220
836.064	24102
836.202	24155
836.34	24441
836.478	24464
836.615	24433
836.753	24407
836.891	24388
837.029	24448
837.167	24338
837.305	24174
837.443	24262
837.58	24220
837.718	24228
837.856	24254
837.993	24201
838.131	24129
838.269	24114
838.406	23999
838.544	24007
838.681	23821
838.819	23836
838.956	23687
839.094	23752
839.231	23729
839.369	23863
839.506	24106
839.643	23931
839.781	23509
839.918	23547
840.055	23520
840.193	23619
840.33	23649
840.467	23623
840.604	23630
840.742	23851
840.879	23524
841.016	23520
841.153	23402
841.29	23779
841.427	23547
841.564	23581
841.701	23562
841.838	23611
841.975	23387
842.112	23379
842.249	23383
842.385	23200
842.522	23589
842.659	23402
842.796	23395
842.933	23402
843.069	23193
843.206	23231
843.343	23383
843.479	23474
843.616	23330
843.752	23117
843.889	23204
844.025	23193
844.162	23204
844.298	23265
844.435	23067
844.571	23132
844.708	23254
844.844	23200
844.98	23345
845.117	23200
845.253	23029
845.389	22923
845.525	22987
845.661	22908
845.798	22885
845.934	23029
846.07	22957
846.206	22858
846.342	22946
846.478	22713
846.614	22683
846.75	22615
846.886	22504
847.022	22645
847.158	22535
847.294	22500
847.429	22599
847.565	22630
847.701	22896
847.837	22356
847.972	22367
848.108	22276
848.244	22436
848.379	22173
848.515	22284
848.65	22223
848.786	22097
848.921	22215
849.057	22344
849.192	22226
849.328	22166
849.463	22284
849.598	22181
849.734	22116
849.869	22074
850.004	21979
850.14	21937
850.275	21979
850.41	21960
850.545	21983
850.68	21956
850.815	22090
850.95	21937
851.085	22093
851.22	21979
851.355	21949
851.49	21892
851.625	21835
851.76	21812
851.895	21823
852.03	21835
852.165	21880
852.299	21903
852.434	21987
852.569	22063
852.703	21987
852.838	22017
852.973	21975
853.107	22082
853.242	21842
853.376	21903
853.511	21686
853.645	21800
853.78	21789
853.914	21637
854.048	21835
854.183	21679
854.317	21679
854.451	22055
854.585	21838
854.72	21694
854.854	21930
854.988	21591
855.122	21831
855.256	21614
855.39	21732
855.524	21846
855.658	21808
855.792	21720
855.926	21774
856.06	21892
856.194	21793
856.327	21770
856.461	21804
856.595	21652
856.729	21671
856.862	21911
856.996	21869
857.13	21778
857.263	21888
857.397	21793
857.53	21743
857.664	21774
857.797	21850
857.931	21876
858.064	21819
858.197	21888
858.331	21728
858.464	21644
858.597	21671
858.731	21759
858.864	21747
858.997	21724
859.13	21743
859.263	21800
859.396	21873
859.529	21686
859.662	21797
859.795	21732
859.928	21717
860.061	21915
860.194	21857
860.327	21884
860.46	21759
860.592	21903
860.725	21937
860.858	21941
860.99	21720
861.123	21633
861.256	21762
861.388	21751
861.521	22664
861.653	21675
861.786	21511
861.918	21622
862.05	21564
862.183	21728
862.315	21793
862.447	21732
862.58	21675
862.712	21428
862.844	21466
862.976	21572
863.108	21515
863.24	21800
863.372	21504
863.504	21447
863.636	21450
863.768	21576
863.9	21469
864.032	21435
864.164	21428
864.296	21606
864.428	21553
864.559	21507
864.691	21534
864.823	21523
864.954	21363
865.086	21481
865.217	21389
865.349	21355
865.48	21473
865.612	21389
865.743	21542
865.875	21340
866.006	21355
866.137	21431
866.269	21363
866.4	21332
866.531	21275
866.662	21260
866.793	21260
866.924	21260
867.055	21222
867.186	21230
867.317	21332
867.448	21184
867.579	21195
867.71	21260
867.841	21214
867.972	21272
868.103	21313
868.233	21222
868.364	21302
868.495	21378
868.625	21466
868.756	21629
868.886	21466
869.017	21526
869.147	21572
869.278	21591
869.408	21462
869.539	21408
869.669	21610
869.799	21466
869.929	21633
870.06	21629
870.19	21842
870.32	21751
870.45	21762
870.58	21945
870.71	22017
870.84	21956
870.97	21850
871.1	21915
871.23	22025
871.36	22139
871.489	21937
871.619	22067
871.749	22097
871.879	21994
872.008	22139
872.138	22074
872.267	22044
872.397	21991
872.526	21899
872.656	21987
872.785	21884
872.915	22162
873.044	22223
873.173	22116
873.303	22185
873.432	22143
873.561	22238
873.69	22112
873.819	22158
873.948	22192
874.077	22055
874.206	22082
874.335	22078
874.464	22238
874.593	22318
874.722	22257
874.851	22367
874.979	22356
875.108	22424
875.237	22322
875.365	22226
875.494	22386
875.623	22417
875.751	22394
875.88	22436
876.008	22462
876.136	22432
876.265	22767
876.393	22999
876.521	22771
876.65	22782
876.778	22748
876.906	22645
877.034	22611
877.162	22668
877.29	22725
877.418	22717
877.546	22713
877.674	22763
877.802	22634
877.93	22615
878.058	22679
878.185	22641
878.313	22592
878.441	22752
878.568	22527
878.696	22645
878.824	22664
878.951	22805
879.079	22820
879.206	23071
879.333	22904
879.461	22725
879.588	22801
879.715	22740
879.842	23067
879.97	22816
880.097	22500
880.224	22481
880.351	22516
880.478	22470
880.605	22459
880.732	22440
880.859	22672
880.986	22542
881.112	22519
881.239	22440
881.366	22242
881.493	22169
881.619	22059
881.746	22196
881.872	22090
881.999	22002
882.125	21949
882.252	22139
882.378	22105
882.505	22200
882.631	21926
882.757	21747
882.883	21857
883.01	21770
883.136	21701
883.262	21504
883.388	21553
883.514	21800
883.64	21739
883.766	21660
883.892	21515
884.018	21701
884.143	21755
884.269	21778
884.395	21447
884.52	21488
884.646	21329
884.772	21370
884.897	21222
885.023	21397
885.148	21583
885.274	21538
885.399	21424
885.524	21389
885.65	21370
885.775	21439
885.9	21412
886.025	21504
886.15	21485
886.275	21310
886.4	21241
886.525	21416
886.65	21230
886.775	21321
886.9	21496
887.025	21523
887.149	21378
887.274	21154
887.399	21252
887.523	21096
887.648	21176
887.773	20982
887.897	21302
888.021	21252
888.146	21176
888.27	21275
888.395	21283
888.519	21173
888.643	21226
888.767	21237
888.891	21058
889.015	20921
889.139	21020
889.263	20963
889.387	21051
889.511	21119
889.635	21096
889.759	21020
889.883	20994
890.006	20880
890.13	20963
890.254	20876
890.377	20967
890.501	20663
890.624	20644
890.748	20762
890.871	20606
890.995	20530
891.118	20408
891.241	20560
891.364	20594
891.488	20625
891.611	20492
891.734	20530
891.857	20552
891.98	20545
892.103	20579
892.226	20545
892.349	20408
892.471	20351
892.594	20434
892.717	20480
892.839	20343
892.962	20469
893.085	20602
893.207	20457
893.33	20347
893.452	20419
893.575	20427
893.697	20469
893.819	20480
893.941	20545
894.064	20442
894.186	20290
894.308	20393
894.43	20457
894.552	20533
894.674	20457
894.796	20370
894.918	20393
895.04	20305
895.161	20476
895.283	20389
895.405	20328
895.526	20366
895.648	20301
895.769	20465
895.891	20495
896.012	20415
896.134	20511
896.255	20427
896.376	20332
896.498	20408
896.619	20328
896.74	20545
896.861	20488
896.982	20587
897.103	20845
897.224	20674
897.345	20663
897.466	20613
897.587	20621
897.708	20678
897.828	20678
897.949	20533
898.07	20526
898.19	20454
898.311	20648
898.431	20602
898.552	20492
898.672	20678
898.792	20693
898.913	20678
899.033	20427
899.153	20271
899.273	20404
899.393	20351
899.513	20328
899.633	20351
899.753	20347
899.873	20282
899.993	20419
900.113	20393
900.232	20275
900.352	20275
900.472	20206
900.591	20035
900.711	20240
900.83	20100
900.95	20142
901.069	20252
901.189	20008
901.308	19837
901.427	19757
901.546	19666
901.665	19841
901.784	19761
901.904	19388
902.023	19476
902.141	19354
902.26	19266
902.379	19320
902.498	19278
902.617	19175
902.735	19206
902.854	19160
902.973	19091
903.091	18932
903.21	18856
903.328	18890
903.446	18787
903.565	18692
903.683	18688
903.801	18566
903.919	18566
904.038	18604
904.156	18483
904.274	18601
904.392	18346
904.51	18403
904.627	18395
904.745	18525
904.863	18460
904.981	18224
905.098	18015
905.216	18216
905.334	18087
905.451	18072
905.569	18129
905.686	18110
905.803	18007
905.921	17885
906.038	18045
906.155	17836
906.272	17760
906.389	17824
906.506	17786
906.623	17691
906.74	17718
906.857	17543
906.974	17676
907.091	17604
907.208	17821
907.324	17642
907.441	17512
907.557	17520
907.674	17379
907.79	17277
907.907	17414
908.023	17318
908.139	17402
908.256	17307
908.372	17296
908.488	17376
908.604	17136
908.72	17037
908.836	17094
908.952	17060
909.068	17086
909.184	17216
909.3	17090
909.415	17216
909.531	17033
909.647	16812
909.762	16812
909.878	16740
909.993	16805
910.108	16828
910.224	16786
910.339	16645
910.454	16687
910.57	16672
910.685	16538
910.8	16873
910.915	16687
911.03	16558
911.145	16508
911.259	16428
911.374	16417
911.489	16394
911.604	16249
911.718	16082
911.833	16181
911.947	16063
912.062	15918
912.176	16124
912.291	16139
912.405	16131
912.519	16314
912.633	16306
912.748	16223
912.862	16097
912.976	15964
913.09	15835
913.204	15956
913.318	15998
913.431	16048
913.545	16029
913.659	15972
913.772	15911
913.886	15781
914	15705
914.113	15854
914.226	15892
914.34	15823
914.453	15667
914.566	15808
914.68	15652
914.793	15625
914.906	15431
915.019	15306
915.132	15302
915.245	15313
915.358	15329
915.47	15382
915.583	15382
915.696	15370
915.809	15492
915.921	15447
916.034	15325
916.146	15241
916.259	15211
916.371	15272
916.483	15298
916.595	15154
916.708	15135
916.82	15135
916.932	15192
917.044	15165
917.156	15108
917.268	14876
917.38	15020
917.491	15005
917.603	14929
917.715	15032
917.826	15032
917.938	15051
918.049	14777
918.161	14963
918.272	15043
918.384	15036
918.495	14975
918.606	14788
918.717	14724
918.828	14689
918.939	14788
919.05	14674
919.161	14773
919.272	14503
919.383	14697
919.494	14735
919.604	15001
919.715	14659
919.826	14602
919.936	14781
920.047	14705
920.157	14735
920.267	14788
920.378	14731
920.488	14682
920.598	14883
920.708	15001
920.818	14788
920.928	14807
921.038	14979
921.148	14944
921.258	14667
921.368	14564
921.477	14590
921.587	14454
921.697	14381
921.806	14537
921.916	14237
922.025	14225
922.134	14100
922.244	13997
922.353	14039
922.462	13955
922.571	13799
922.68	13750
922.789	13719
922.898	13765
923.007	13715
923.116	13750
923.224	13712
923.333	13609
923.442	13460
923.55	13487
923.659	13521
923.767	13636
923.876	13460
923.984	13632
924.092	13354
924.201	13514
924.309	13491
924.417	13460
924.525	13457
924.633	13464
924.741	14123
924.849	13084
924.956	13308
925.064	13141
925.172	13034
925.279	13076
925.387	13110
925.494	13149
925.602	13285
925.709	13175
925.816	13027
925.924	13091
926.031	13126
926.138	12985
926.245	13061
926.352	12875
926.459	13149
926.566	13152
926.673	13019
926.779	12821
926.886	12852
926.993	12696
927.099	12726
927.206	12711
927.312	12570
927.419	12783
927.525	12627
927.631	12658
927.737	12574
927.843	12585
927.95	12376
928.056	12475
928.162	12445
928.267	12570
928.373	13053
928.479	12608
928.585	12384
928.69	12475
928.796	12502
928.901	12365
929.007	12235
929.112	12350
929.218	12342
929.323	12243
929.428	12247
929.533	12247
929.638	12106
929.743	12129
929.848	12232
929.953	12133
930.058	12019
930.163	11904
930.267	11794
930.372	12026
930.477	11847
930.581	12159
930.685	11958
930.79	11764
930.894	11893
930.998	11813
931.103	11939
931.207	11665
931.311	11509
931.415	11402
931.519	11193
931.623	11159
