Data from test_V78500241_1820.txt Node
Date: Fri Mar 25 15:22:31 CST 2022
User: usil
Spectrometer: V785-0024
Trigger mode: 0
Integration Time (sec): 4.000000E-1
Scans to average: 1
Nonlinearity correction enabled: false
Boxcar width: 0
Storing dark spectrum: false
XAxis mode: Wavelengths
Number of Pixels in Spectrum: 1024
>>>>>Begin Spectral Data<<<<<
801.071	27789
801.214	27778
801.356	27545
801.499	27291
801.641	27298
801.783	27435
801.926	27374
802.068	27241
802.211	27256
802.353	27051
802.496	27009
802.638	27032
802.78	26891
802.923	26861
803.065	26887
803.208	26842
803.35	27005
803.492	26948
803.635	27135
803.777	27028
803.919	27165
804.061	27393
804.204	27264
804.346	27226
804.488	26967
804.63	27161
804.773	27104
804.915	27203
805.057	27214
805.199	27195
805.341	27252
805.483	27336
805.626	27287
805.768	27176
805.91	27294
806.052	27298
806.194	27222
806.336	27568
806.478	27260
806.62	27310
806.762	27447
806.904	27458
807.046	27686
807.188	27694
807.33	27606
807.472	27591
807.614	27675
807.756	27717
807.898	27557
808.04	27454
808.182	27564
808.324	27603
808.465	27720
808.607	27671
808.749	27846
808.891	28048
809.033	28021
809.174	28006
809.316	28051
809.458	27895
809.6	27937
809.741	28185
809.883	28109
810.025	28246
810.166	28207
810.308	28299
810.45	28105
810.591	28086
810.733	28051
810.875	27857
811.016	27800
811.158	27747
811.299	27941
811.441	28032
811.582	28032
811.724	27846
811.865	28006
812.007	27972
812.148	27983
812.29	28029
812.431	28177
812.573	28299
812.714	28382
812.855	28485
812.997	28569
813.138	28649
813.279	28557
813.421	28489
813.562	28379
813.703	28363
813.845	28192
813.986	27956
814.127	27629
814.268	27618
814.41	27667
814.551	27679
814.692	27671
814.833	27641
814.974	27530
815.115	27679
815.256	27614
815.397	27603
815.539	27530
815.68	27492
815.821	27321
815.962	27351
816.103	27363
816.244	27272
816.385	27096
816.526	27119
816.666	26975
816.807	26921
816.948	27017
817.089	27112
817.23	26929
817.371	26929
817.512	26857
817.653	26937
817.793	26937
817.934	26845
818.075	26952
818.216	26906
818.356	26994
818.497	26754
818.638	26560
818.778	26663
818.919	26902
819.06	26682
819.2	26731
819.341	26895
819.481	26880
819.622	27036
819.762	27218
819.903	27256
820.043	27066
820.184	26982
820.324	26990
820.465	27093
820.605	27043
820.746	26872
820.886	26758
821.026	27051
821.167	27066
821.307	27112
821.447	26842
821.588	26769
821.728	26606
821.868	26609
822.008	26415
822.149	26328
822.289	26328
822.429	26073
822.569	25982
822.709	26012
822.849	25868
822.99	25921
823.13	25849
823.27	25765
823.41	25639
823.55	25430
823.69	25871
823.83	25643
823.97	25780
824.11	25540
824.25	25445
824.389	25597
824.529	25563
824.669	25567
824.809	25632
824.949	25586
825.089	25597
825.228	25605
825.368	25369
825.508	25297
825.648	25312
825.787	25350
825.927	25491
826.067	25449
826.206	25396
826.346	25426
826.485	25422
826.625	25479
826.765	25441
826.904	25514
827.044	25034
827.183	25187
827.323	25046
827.462	25206
827.601	25057
827.741	25080
827.88	25164
828.02	25046
828.159	25175
828.298	25118
828.437	25103
828.577	25126
828.716	25236
828.855	25012
828.994	24764
829.134	24837
829.273	24825
829.412	24783
829.551	24894
829.69	24783
829.829	24958
829.968	24989
830.107	24966
830.246	24738
830.385	24749
830.524	24585
830.663	24593
830.802	24563
830.941	24540
831.08	24380
831.219	24471
831.357	24525
831.496	24707
831.635	24426
831.774	24376
831.913	24311
832.051	24251
832.19	24178
832.329	24205
832.467	24018
832.606	24133
832.744	24277
832.883	24076
833.022	24068
833.16	24068
833.299	24197
833.437	24087
833.576	24163
833.714	24216
833.852	24315
833.991	24209
834.129	24243
834.267	24178
834.406	24247
834.544	24076
834.682	24311
834.821	24152
834.959	24388
835.097	24152
835.235	24194
835.373	24296
835.511	24205
835.65	24057
835.788	24026
835.926	23916
836.064	23805
836.202	23832
836.34	24121
836.478	24182
836.615	23999
836.753	24095
836.891	24178
837.029	24083
837.167	24053
837.305	23980
837.443	23855
837.58	23912
837.718	23984
837.856	23828
837.993	23843
838.131	23901
838.269	23710
838.406	23878
838.544	23672
838.681	23531
838.819	23524
838.956	23288
839.094	23326
839.231	23299
839.369	23509
839.506	23767
839.643	23611
839.781	23330
839.918	23296
840.055	23474
840.193	23341
840.33	23231
840.467	23364
840.604	23303
840.742	23547
840.879	23151
841.016	23280
841.153	23143
841.29	23383
841.427	23311
841.564	23387
841.701	23197
841.838	23269
841.975	23113
842.112	23151
842.249	23147
842.385	22987
842.522	23296
842.659	23113
842.796	23025
842.933	22938
843.069	22938
843.206	22900
843.343	23200
843.479	23178
843.616	23022
843.752	22820
843.889	22767
844.025	23033
844.162	22744
844.298	22843
844.435	22885
844.571	22797
844.708	22801
844.844	22881
844.98	22858
845.117	22896
845.253	22683
845.389	22592
845.525	22828
845.661	22672
845.798	22508
845.934	22637
846.07	22580
846.206	22546
846.342	22679
846.478	22459
846.614	22306
846.75	22291
846.886	22291
847.022	22394
847.158	22322
847.294	22329
847.429	22215
847.565	22230
847.701	22569
847.837	22067
847.972	21934
848.108	22169
848.244	22013
848.379	21949
848.515	21903
848.65	21922
848.786	21884
848.921	21895
849.057	21956
849.192	21953
849.328	21903
849.463	22025
849.598	21762
849.734	21671
849.869	21717
850.004	21644
850.14	21644
850.275	21705
850.41	21549
850.545	21606
850.68	21583
850.815	21641
850.95	21656
851.085	21736
851.22	21701
851.355	21504
851.49	21648
851.625	21595
851.76	21488
851.895	21469
852.03	21572
852.165	21660
852.299	21595
852.434	21690
852.569	21778
852.703	21736
852.838	21614
852.973	21736
853.107	21728
853.242	21549
853.376	21500
853.511	21294
853.645	21450
853.78	21492
853.914	21523
854.048	21443
854.183	21488
854.317	21500
854.451	21660
854.585	21450
854.72	21443
854.854	21633
854.988	21348
855.122	21515
855.256	21272
855.39	21447
855.524	21405
855.658	21545
855.792	21511
855.926	21416
856.06	21450
856.194	21481
856.327	21408
856.461	21317
856.595	21439
856.729	21431
856.862	21557
856.996	21580
857.13	21576
857.263	21515
857.397	21530
857.53	21382
857.664	21500
857.797	21492
857.931	21507
858.064	21454
858.197	21538
858.331	21367
858.464	21431
858.597	21321
858.731	21416
858.864	21401
858.997	21298
859.13	21526
859.263	21485
859.396	21583
859.529	21523
859.662	21344
859.795	21408
859.928	21500
860.061	21610
860.194	21610
860.327	21580
860.46	21477
860.592	21515
860.725	21618
860.858	21424
860.99	21439
861.123	21355
861.256	21378
861.388	21500
861.521	21922
861.653	21275
861.786	21233
861.918	21249
862.05	21321
862.183	21367
862.315	21473
862.447	21416
862.58	21279
862.712	21161
862.844	21135
862.976	21252
863.108	21226
863.24	21542
863.372	21096
863.504	21173
863.636	21135
863.768	21150
863.9	21142
864.032	21051
864.164	21157
864.296	21169
864.428	21313
864.559	21214
864.691	21310
864.823	21188
864.954	21199
865.086	21009
865.217	21070
865.349	20990
865.48	21032
865.612	21062
865.743	21176
865.875	21062
866.006	21142
866.137	21020
866.269	21047
866.4	20952
866.531	20895
866.662	20876
866.793	21001
866.924	20925
867.055	21043
867.186	20979
867.317	20906
867.448	20952
867.579	20868
867.71	20842
867.841	20838
867.972	21020
868.103	20990
868.233	21001
868.364	21036
868.495	21032
868.625	21214
868.756	21367
868.886	21100
869.017	21275
869.147	21252
869.278	21363
869.408	21207
869.539	21222
869.669	21340
869.799	21245
869.929	21363
870.06	21374
870.19	21557
870.32	21515
870.45	21549
870.58	21618
870.71	21793
870.84	21633
870.97	21705
871.1	21648
871.23	21736
871.36	21705
871.489	21781
871.619	21736
871.749	21762
871.879	21743
872.008	21968
872.138	21770
872.267	21774
872.397	21705
872.526	21648
872.656	21694
872.785	21652
872.915	21766
873.044	21930
873.173	21930
873.303	21766
873.432	21903
873.561	21854
873.69	21774
873.819	21819
873.948	21876
874.077	21770
874.206	21778
874.335	21895
874.464	21941
874.593	22086
874.722	22036
874.851	22040
874.979	22166
875.108	22070
875.237	22059
875.365	21972
875.494	22124
875.623	22109
875.751	22131
875.88	21994
876.008	22112
876.136	22181
876.265	22542
876.393	22500
876.521	22573
876.65	22615
876.778	22436
876.906	22409
877.034	22424
877.162	22424
877.29	22367
877.418	22466
877.546	22363
877.674	22360
877.802	22531
877.93	22512
878.058	22363
878.185	22428
878.313	22348
878.441	22394
878.568	22143
878.696	22379
878.824	22363
878.951	22519
879.079	22603
879.206	22767
879.333	22569
879.461	22432
879.588	22561
879.715	22554
879.842	22596
879.97	22466
880.097	22215
880.224	22276
880.351	22382
880.478	22348
880.605	22230
880.732	22196
880.859	22626
880.986	22386
881.112	22318
881.239	22105
881.366	22021
881.493	21903
881.619	21903
881.746	21895
881.872	21842
881.999	21785
882.125	21694
882.252	21793
882.378	21732
882.505	21937
882.631	21705
882.757	21587
882.883	21629
883.01	21515
883.136	21629
883.262	21275
883.388	21306
883.514	21526
883.64	21515
883.766	21591
883.892	21386
884.018	21302
884.143	21587
884.269	21549
884.395	21291
884.52	21180
884.646	21119
884.772	21188
884.897	21066
885.023	21112
885.148	21237
885.274	21348
885.399	21252
885.524	21058
885.65	21157
885.775	21085
885.9	21176
886.025	21112
886.15	21218
886.275	21104
886.4	21039
886.525	21146
886.65	21085
886.775	21127
886.9	21306
887.025	21443
887.149	21142
887.274	20982
887.399	20937
887.523	20880
887.648	20720
887.773	20804
887.897	20994
888.021	20990
888.146	20872
888.27	21058
888.395	20952
888.519	20937
888.643	20948
888.767	21066
888.891	20834
889.015	20750
889.139	20796
889.263	20746
889.387	20826
889.511	20975
889.635	20971
889.759	20693
889.883	20697
890.006	20670
890.13	20804
890.254	20545
890.377	20613
890.501	20412
890.624	20358
890.748	20560
890.871	20419
890.995	20282
891.118	20191
891.241	20332
891.364	20339
891.488	20454
891.611	20320
891.734	20278
891.857	20370
891.98	20298
892.103	20347
892.226	20240
892.349	20199
892.471	20073
892.594	20157
892.717	20244
892.839	20164
892.962	20275
893.085	20294
893.207	20256
893.33	20103
893.452	20119
893.575	20290
893.697	20088
893.819	20317
893.941	20408
894.064	20218
894.186	20062
894.308	20073
894.43	20153
894.552	20305
894.674	20324
894.796	20107
894.918	20153
895.04	20168
895.161	20298
895.283	20252
895.405	20240
895.526	20233
895.648	20126
895.769	20119
895.891	20263
896.012	20309
896.134	20229
896.255	20183
896.376	20088
896.498	20240
896.619	20221
896.74	20100
896.861	20240
896.982	20518
897.103	20689
897.224	20461
897.345	20374
897.466	20457
897.587	20400
897.708	20552
897.828	20408
897.949	20332
898.07	20161
898.19	20286
898.311	20457
898.431	20431
898.552	20415
898.672	20355
898.792	20457
898.913	20438
899.033	20339
899.153	20145
899.273	20035
899.393	20107
899.513	20161
899.633	20069
899.753	20206
899.873	20161
899.993	20214
900.113	20073
900.232	20183
900.352	20065
900.472	19917
900.591	19833
900.711	19936
900.83	19849
900.95	20084
901.069	20012
901.189	19871
901.308	19635
901.427	19521
901.546	19620
901.665	19460
901.784	19510
901.904	19396
902.023	19304
902.141	19038
902.26	19012
902.379	19084
902.498	19061
902.617	18897
902.735	19046
902.854	19099
902.973	18882
903.091	18730
903.21	18703
903.328	18589
903.446	18677
903.565	18403
903.683	18494
903.801	18403
903.919	18509
904.038	18498
904.156	18171
904.274	18289
904.392	18308
904.51	18220
904.627	18289
904.745	18247
904.863	18277
904.981	18068
905.098	17889
905.216	17897
905.334	17969
905.451	18003
905.569	17870
905.686	18026
905.803	17897
905.921	17851
906.038	17813
906.155	17722
906.272	17665
906.389	17608
906.506	17474
906.623	17493
906.74	17474
906.857	17364
906.974	17372
907.091	17486
907.208	17539
907.324	17463
907.441	17353
907.557	17147
907.674	17105
907.79	17052
907.907	17124
908.023	17147
908.139	17197
908.256	17204
908.372	16999
908.488	17056
908.604	16915
908.72	16911
908.836	16987
908.952	16801
909.068	16942
909.184	17090
909.3	16889
909.415	16923
909.531	16911
909.647	16634
909.762	16687
909.878	16691
909.993	16649
910.108	16656
910.224	16523
910.339	16550
910.454	16432
910.57	16424
910.685	16409
910.8	16626
910.915	16550
911.03	16360
911.145	16322
911.259	16192
911.374	16215
911.489	16128
911.604	16074
911.718	15949
911.833	15895
911.947	15884
912.062	15717
912.176	15888
912.291	15930
912.405	15850
912.519	16162
912.633	16082
912.748	15930
912.862	15945
912.976	15770
913.09	15652
913.204	15720
913.318	15831
913.431	15865
913.545	15804
913.659	15804
913.772	15789
913.886	15526
914	15595
914.113	15686
914.226	15770
914.34	15587
914.453	15397
914.566	15675
914.68	15443
914.793	15370
914.906	15214
915.019	15237
915.132	15188
915.245	15123
915.358	15180
915.47	15173
915.583	15275
915.696	15165
915.809	15226
915.921	15260
916.034	15070
916.146	15024
916.259	15081
916.371	15135
916.483	15123
916.595	14952
916.708	15036
916.82	14902
916.932	15005
917.044	14914
917.156	14948
917.268	14864
917.38	14800
917.491	14792
917.603	14800
917.715	14845
917.826	14834
917.938	14788
918.049	14678
918.161	14746
918.272	14834
918.384	14845
918.495	14769
918.606	14530
918.717	14590
918.828	14583
918.939	14594
919.05	14518
919.161	14556
919.272	14320
919.383	14362
919.494	14648
919.604	14724
919.715	14606
919.826	14492
919.936	14549
920.047	14587
920.157	14461
920.267	14708
920.378	14602
920.488	14522
920.598	14762
920.708	14765
920.818	14716
920.928	14648
921.038	14823
921.148	14830
921.258	14404
921.368	14366
921.477	14202
921.587	14240
921.697	14187
921.806	14259
921.916	14157
922.025	13932
922.134	13909
922.244	13849
922.353	13898
922.462	13814
922.571	13776
922.68	13582
922.789	13559
922.898	13597
923.007	13441
923.116	13582
923.224	13556
923.333	13563
923.442	13354
923.55	13369
923.659	13476
923.767	13491
923.876	13403
923.984	13426
924.092	13301
924.201	13403
924.309	13350
924.417	13278
924.525	13221
924.633	13263
924.741	14214
924.849	12993
924.956	13145
925.064	13023
925.172	12859
925.279	12951
925.387	13023
925.494	12962
925.602	13156
925.709	13095
925.816	12833
925.924	12909
926.031	12928
926.138	12966
926.245	12928
926.352	12795
926.459	12890
926.566	12989
926.673	12852
926.779	12642
926.886	12806
926.993	12574
927.099	12471
927.206	12399
927.312	12437
927.419	12620
927.525	12555
927.631	12502
927.737	12479
927.843	12407
927.95	12300
928.056	12357
928.162	12369
928.267	12380
928.373	13038
928.479	12460
928.585	12171
928.69	12167
928.796	12365
928.901	12133
929.007	12095
929.112	12243
929.218	12091
929.323	12144
929.428	12007
929.533	12247
929.638	11984
929.743	11980
929.848	12098
929.953	12011
930.058	11912
930.163	11699
930.267	11745
930.372	11874
930.477	11790
930.581	11843
930.685	11847
930.79	11596
930.894	11729
930.998	11577
931.103	11771
931.207	11398
931.311	11410
931.415	11227
931.519	11025
931.623	11018
