Data from test_V78500241_2268.txt Node
Date: Fri Mar 25 15:25:39 CST 2022
User: usil
Spectrometer: V785-0024
Trigger mode: 0
Integration Time (sec): 4.000000E-1
Scans to average: 1
Nonlinearity correction enabled: false
Boxcar width: 0
Storing dark spectrum: false
XAxis mode: Wavelengths
Number of Pixels in Spectrum: 1024
>>>>>Begin Spectral Data<<<<<
801.071	27633
801.214	27481
801.356	27302
801.499	27298
801.641	27123
801.783	27142
801.926	27291
802.068	27062
802.211	27017
802.353	27047
802.496	26819
802.638	26648
802.78	26845
802.923	26739
803.065	26594
803.208	26636
803.35	26853
803.492	26880
803.635	27020
803.777	26682
803.919	26967
804.061	27287
804.204	26967
804.346	26986
804.488	26906
804.63	27062
804.773	26773
804.915	26948
805.057	27028
805.199	26842
805.341	26925
805.483	26899
805.626	27001
805.768	27077
805.91	27093
806.052	27100
806.194	27001
806.336	27313
806.478	27039
806.62	27169
806.762	27138
806.904	27302
807.046	27603
807.188	27603
807.33	27454
807.472	27564
807.614	27389
807.756	27500
807.898	27340
808.04	27241
808.182	27416
808.324	27317
808.465	27306
808.607	27660
808.749	27739
808.891	27690
809.033	27846
809.174	27785
809.316	27610
809.458	27679
809.6	27686
809.741	27876
809.883	27739
810.025	27964
810.166	28032
810.308	28032
810.45	27911
810.591	27907
810.733	27762
810.875	27686
811.016	27492
811.158	27534
811.299	27679
811.441	27770
811.582	27873
811.724	27644
811.865	27572
812.007	27633
812.148	27603
812.29	27739
812.431	27686
812.573	27960
812.714	28139
812.855	28120
812.997	28226
813.138	28428
813.279	28333
813.421	28200
813.562	28204
813.703	28063
813.845	27975
813.986	27610
814.127	27500
814.268	27427
814.41	27370
814.551	27370
814.692	27408
814.833	27310
814.974	27431
815.115	27370
815.256	27192
815.397	27233
815.539	27272
815.68	27176
815.821	27096
815.962	27104
816.103	27127
816.244	27100
816.385	26883
816.526	26895
816.666	26689
816.807	26613
816.948	26769
817.089	26564
817.23	26750
817.371	26735
817.512	26659
817.653	26533
817.793	26492
817.934	26579
818.075	26602
818.216	26670
818.356	26579
818.497	26511
818.638	26366
818.778	26393
818.919	26358
819.06	26659
819.2	26499
819.341	26606
819.481	26556
819.622	26781
819.762	26826
819.903	26902
820.043	26819
820.184	26590
820.324	26838
820.465	26804
820.605	26674
820.746	26594
820.886	26575
821.026	26655
821.167	26727
821.307	26785
821.447	26583
821.588	26598
821.728	26446
821.868	26183
822.008	26062
822.149	26046
822.289	26073
822.429	25780
822.569	25712
822.709	25757
822.849	25655
822.99	25575
823.13	25582
823.27	25632
823.41	25441
823.55	25312
823.69	25464
823.83	25381
823.97	25316
824.11	25316
824.25	25129
824.389	25145
824.529	25346
824.669	25198
824.809	25377
824.949	25381
825.089	25381
825.228	25190
825.368	25027
825.508	24996
825.648	25168
825.787	25156
825.927	25095
826.067	25050
826.206	25034
826.346	25057
826.485	25190
826.625	25053
826.765	25183
826.904	25126
827.044	24867
827.183	24909
827.323	24684
827.462	24977
827.601	24745
827.741	24897
827.88	24901
828.02	24669
828.159	24741
828.298	24871
828.437	24859
828.577	24734
828.716	24848
828.855	24730
828.994	24563
829.134	24544
829.273	24555
829.412	24433
829.551	24410
829.69	24547
829.829	24418
829.968	24623
830.107	24661
830.246	24559
830.385	24456
830.524	24346
830.663	24300
830.802	24304
830.941	24121
831.08	24159
831.219	24251
831.357	24102
831.496	24357
831.635	24068
831.774	24026
831.913	23866
832.051	24076
832.19	24022
832.329	23794
832.467	23878
832.606	23729
832.744	23802
832.883	23756
833.022	23707
833.16	23764
833.299	23729
833.437	23832
833.576	23821
833.714	23866
833.852	23954
833.991	23893
834.129	23882
834.267	23870
834.406	23920
834.544	23767
834.682	23817
834.821	23790
834.959	23939
835.097	23733
835.235	23813
835.373	23710
835.511	23764
835.65	23501
835.788	23752
835.926	23642
836.064	23421
836.202	23608
836.34	23752
836.478	23779
836.615	23596
836.753	23623
836.891	23752
837.029	23611
837.167	23596
837.305	23748
837.443	23615
837.58	23463
837.718	23630
837.856	23516
837.993	23528
838.131	23516
838.269	23341
838.406	23406
838.544	23322
838.681	23197
838.819	23109
838.956	22987
839.094	23052
839.231	22991
839.369	23086
839.506	23417
839.643	23181
839.781	22972
839.918	22991
840.055	22862
840.193	22740
840.33	22908
840.467	22869
840.604	22892
840.742	23109
840.879	22668
841.016	22873
841.153	22706
841.29	22938
841.427	22896
841.564	22889
841.701	22850
841.838	22938
841.975	22881
842.112	22816
842.249	22584
842.385	22767
842.522	22812
842.659	22721
842.796	22672
842.933	22672
843.069	22588
843.206	22561
843.343	22767
843.479	22618
843.616	22637
843.752	22538
843.889	22409
844.025	22474
844.162	22360
844.298	22516
844.435	22379
844.571	22318
844.708	22485
844.844	22611
844.98	22508
845.117	22523
845.253	22348
845.389	22386
845.525	22276
845.661	22230
845.798	22223
845.934	22177
846.07	22097
846.206	22082
846.342	22249
846.478	22135
846.614	21926
846.75	21850
846.886	21869
847.022	21987
847.158	21934
847.294	21888
847.429	22006
847.565	21869
847.701	22207
847.837	21622
847.972	21625
848.108	21732
848.244	21717
848.379	21553
848.515	21542
848.65	21492
848.786	21599
848.921	21439
849.057	21603
849.192	21519
849.328	21469
849.463	21469
849.598	21439
849.734	21447
849.869	21424
850.004	21340
850.14	21203
850.275	21310
850.41	21241
850.545	21325
850.68	21188
850.815	21237
850.95	21332
851.085	21450
851.22	21321
851.355	21313
851.49	21264
851.625	21188
851.76	21310
851.895	21108
852.03	21165
852.165	21146
852.299	21348
852.434	21382
852.569	21302
852.703	21161
852.838	21237
852.973	21298
853.107	21195
853.242	21192
853.376	21135
853.511	21009
853.645	21009
853.78	21077
853.914	20941
854.048	21032
854.183	20994
854.317	21089
854.451	21245
854.585	21047
854.72	21032
854.854	21214
854.988	20971
855.122	21188
855.256	20876
855.39	21017
855.524	21093
855.658	21226
855.792	21032
855.926	21028
856.06	21100
856.194	21146
856.327	20998
856.461	21036
856.595	21047
856.729	21062
856.862	21081
856.996	21096
857.13	21116
857.263	21138
857.397	21176
857.53	20998
857.664	21062
857.797	21096
857.931	21154
858.064	21077
858.197	21093
858.331	20986
858.464	20910
858.597	20960
858.731	20982
858.864	20960
858.997	20952
859.13	21116
859.263	21154
859.396	21070
859.529	21081
859.662	21100
859.795	20937
859.928	21051
860.061	21230
860.194	21184
860.327	21085
860.46	21039
860.592	21176
860.725	21138
860.858	21195
860.99	21058
861.123	20948
861.256	20925
861.388	21062
861.521	21709
861.653	20952
861.786	20815
861.918	20838
862.05	20952
862.183	20979
862.315	21074
862.447	21039
862.58	20914
862.712	20613
862.844	20819
862.976	20765
863.108	20785
863.24	21127
863.372	20625
863.504	20724
863.636	20788
863.768	20667
863.9	20758
864.032	20731
864.164	20800
864.296	20788
864.428	20910
864.559	20876
864.691	20895
864.823	20754
864.954	20697
865.086	20887
865.217	20724
865.349	20575
865.48	20625
865.612	20762
865.743	20735
865.875	20697
866.006	20625
866.137	20686
866.269	20621
866.4	20632
866.531	20571
866.662	20670
866.793	20587
866.924	20530
867.055	20663
867.186	20674
867.317	20648
867.448	20465
867.579	20575
867.71	20484
867.841	20454
867.972	20720
868.103	20613
868.233	20541
868.364	20545
868.495	20735
868.625	20842
868.756	20826
868.886	20800
869.017	20845
869.147	20796
869.278	20963
869.408	20921
869.539	20788
869.669	21051
869.799	20956
869.929	20804
870.06	21024
870.19	21199
870.32	21165
870.45	21195
870.58	21260
870.71	21420
870.84	21332
870.97	21203
871.1	21161
871.23	21359
871.36	21389
871.489	21351
871.619	21477
871.749	21458
871.879	21439
872.008	21485
872.138	21367
872.267	21420
872.397	21302
872.526	21291
872.656	21233
872.785	21252
872.915	21458
873.044	21561
873.173	21355
873.303	21591
873.432	21610
873.561	21416
873.69	21412
873.819	21466
873.948	21462
874.077	21431
874.206	21378
874.335	21443
874.464	21545
874.593	21778
874.722	21679
874.851	21637
874.979	21831
875.108	21682
875.237	21591
875.365	21439
875.494	21694
875.623	21762
875.751	21694
875.88	21599
876.008	21720
876.136	21819
876.265	21983
876.393	22131
876.521	22150
876.65	22246
876.778	22040
876.906	22036
877.034	22025
877.162	22055
877.29	22029
877.418	22040
877.546	22051
877.674	22025
877.802	21975
877.93	22090
878.058	21998
878.185	21823
878.313	21934
878.441	21918
878.568	21911
878.696	21869
878.824	21937
878.951	22059
879.079	22238
879.206	22234
879.333	22131
879.461	22010
879.588	22063
879.715	22211
879.842	22371
879.97	22074
880.097	21975
880.224	21857
880.351	21998
880.478	21911
880.605	21915
880.732	21827
880.859	22097
880.986	21945
881.112	21903
881.239	21686
881.366	21538
881.493	21561
881.619	21477
881.746	21488
881.872	21348
881.999	21458
882.125	21477
882.252	21420
882.378	21416
882.505	21469
882.631	21249
882.757	21154
882.883	21355
883.01	21169
883.136	21154
883.262	20971
883.388	21058
883.514	21104
883.64	21188
883.766	20982
883.892	20880
884.018	20967
884.143	20937
884.269	21199
884.395	20902
884.52	20735
884.646	20804
884.772	20663
884.897	20663
885.023	20758
885.148	20895
885.274	20921
885.399	20952
885.524	20727
885.65	20910
885.775	20773
885.9	20659
886.025	20868
886.15	20914
886.275	20746
886.4	20674
886.525	20644
886.65	20777
886.775	20625
886.9	20921
887.025	20895
887.149	20785
887.274	20560
887.399	20564
887.523	20499
887.648	20442
887.773	20492
887.897	20651
888.021	20590
888.146	20442
888.27	20655
888.395	20575
888.519	20644
888.643	20518
888.767	20590
888.891	20511
889.015	20404
889.139	20389
889.263	20423
889.387	20476
889.511	20537
889.635	20465
889.759	20377
889.883	20282
890.006	20309
890.13	20336
890.254	20233
890.377	20290
890.501	20149
890.624	20115
890.748	20180
890.871	20134
890.995	19833
891.118	19883
891.241	19951
891.364	19852
891.488	20058
891.611	19921
891.734	19860
891.857	19959
891.98	19898
892.103	19997
892.226	19967
892.349	19917
892.471	19746
892.594	19902
892.717	19841
892.839	19780
892.962	19795
893.085	19860
893.207	19799
893.33	19655
893.452	19731
893.575	19776
893.697	19700
893.819	19982
893.941	20058
894.064	19974
894.186	19803
894.308	19822
894.43	19852
894.552	19932
894.674	19822
894.796	19780
894.918	19894
895.04	19894
895.161	19921
895.283	19868
895.405	19723
895.526	19871
895.648	19799
895.769	19784
895.891	19841
896.012	19883
896.134	19849
896.255	19887
896.376	19814
896.498	19807
896.619	19883
896.74	19898
896.861	19852
896.982	20126
897.103	20252
897.224	20202
897.345	20081
897.466	20027
897.587	20008
897.708	20221
897.828	20084
897.949	19982
898.07	19978
898.19	19875
898.311	20183
898.431	20035
898.552	20191
898.672	20122
898.792	20069
898.913	20084
899.033	19887
899.153	19890
899.273	19868
899.393	19833
899.513	19750
899.633	19932
899.753	19982
899.873	19727
899.993	19906
900.113	19841
900.232	19852
900.352	19715
900.472	19578
900.591	19487
900.711	19594
900.83	19597
900.95	19712
901.069	19693
901.189	19525
901.308	19236
901.427	19232
901.546	19198
901.665	19183
901.784	19110
901.904	19084
902.023	18913
902.141	18791
902.26	18734
902.379	18878
902.498	18734
902.617	18593
902.735	18768
902.854	18604
902.973	18673
903.091	18414
903.21	18490
903.328	18308
903.446	18346
903.565	18220
903.683	18163
903.801	18083
903.919	18144
904.038	18167
904.156	18030
904.274	18076
904.392	17939
904.51	17958
904.627	17984
904.745	18110
904.863	18019
904.981	17771
905.098	17703
905.216	17634
905.334	17638
905.451	17661
905.569	17573
905.686	17798
905.803	17646
905.921	17516
906.038	17630
906.155	17558
906.272	17368
906.389	17341
906.506	17170
906.623	17227
906.74	17155
906.857	17025
906.974	17113
907.091	17280
907.208	17334
907.324	17083
907.441	17067
907.557	16995
907.674	16828
907.79	16885
907.907	16782
908.023	16885
908.139	16805
908.256	16873
908.372	16744
908.488	16809
908.604	16599
908.72	16561
908.836	16626
908.952	16554
909.068	16645
909.184	16611
909.3	16599
909.415	16577
909.531	16599
909.647	16314
909.762	16291
909.878	16382
909.993	16299
910.108	16181
910.224	16280
910.339	16268
910.454	16139
910.57	16078
910.685	16067
910.8	16333
910.915	16272
911.03	16143
911.145	16029
911.259	15854
911.374	15911
911.489	15892
911.604	15808
911.718	15682
911.833	15671
911.947	15496
912.062	15523
912.176	15625
912.291	15580
912.405	15656
912.519	15823
912.633	15842
912.748	15717
912.862	15694
912.976	15545
913.09	15222
913.204	15492
913.318	15496
913.431	15629
913.545	15450
913.659	15545
913.772	15450
913.886	15283
914	15256
914.113	15287
914.226	15462
914.34	15359
914.453	15211
914.566	15241
914.68	15089
914.793	15081
914.906	15028
915.019	14990
915.132	14826
915.245	14830
915.358	14864
915.47	14937
915.583	14804
915.696	14857
915.809	14960
915.921	15058
916.034	14800
916.146	14876
916.259	14762
916.371	14826
916.483	14792
916.595	14724
916.708	14743
916.82	14746
916.932	14785
917.044	14727
917.156	14613
917.268	14518
917.38	14651
917.491	14480
917.603	14568
917.715	14716
917.826	14545
917.938	14518
918.049	14396
918.161	14522
918.272	14640
918.384	14617
918.495	14434
918.606	14374
918.717	14267
918.828	14248
918.939	14298
919.05	14161
919.161	14244
919.272	14134
919.383	14138
919.494	14263
919.604	14568
919.715	14282
919.826	14153
919.936	14233
920.047	14282
920.157	14240
920.267	14450
920.378	14294
920.488	14309
920.598	14396
920.708	14613
920.818	14415
920.928	14457
921.038	14564
921.148	14469
921.258	14202
921.368	14161
921.477	14020
921.587	13989
921.697	13890
921.806	13986
921.916	13887
922.025	13712
922.134	13700
922.244	13636
922.353	13662
922.462	13548
922.571	13540
922.68	13285
922.789	13335
922.898	13373
923.007	13221
923.116	13369
923.224	13308
923.333	13289
923.442	13168
923.55	13164
923.659	13217
923.767	13187
923.876	13038
923.984	13080
924.092	13004
924.201	13118
924.309	13076
924.417	13023
924.525	12935
924.633	13046
924.741	13750
924.849	12886
924.956	12947
925.064	12730
925.172	12673
925.279	12734
925.387	12821
925.494	12795
925.602	12852
925.709	12738
925.816	12623
925.924	12642
926.031	12795
926.138	12696
926.245	12719
926.352	12563
926.459	12711
926.566	12734
926.673	12589
926.779	12388
926.886	12445
926.993	12380
927.099	12342
927.206	12346
927.312	12258
927.419	12384
927.525	12281
927.631	12277
927.737	12273
927.843	12178
927.95	12133
928.056	12194
928.162	12194
928.267	12197
928.373	12776
928.479	12235
928.585	11969
928.69	12068
928.796	12167
928.901	11988
929.007	11866
929.112	12049
929.218	11874
929.323	11916
929.428	11832
929.533	12003
929.638	11802
929.743	11805
929.848	11882
929.953	11798
930.058	11771
930.163	11566
930.267	11604
930.372	11676
930.477	11539
930.581	11817
930.685	11615
930.79	11512
930.894	11455
930.998	11433
931.103	11532
931.207	11204
931.311	11136
931.415	11025
931.519	10786
931.623	10828
