Data from test_V78500241_16.txt Node
Date: Fri Mar 25 15:09:58 CST 2022
User: usil
Spectrometer: V785-0024
Trigger mode: 0
Integration Time (sec): 4.000000E-1
Scans to average: 1
Nonlinearity correction enabled: false
Boxcar width: 0
Storing dark spectrum: false
XAxis mode: Wavelengths
Number of Pixels in Spectrum: 1024
>>>>>Begin Spectral Data<<<<<
801.071	27774
801.214	27823
801.356	27519
801.499	27420
801.641	27313
801.783	27245
801.926	27382
802.068	27275
802.211	27176
802.353	27077
802.496	26975
802.638	26929
802.78	26880
802.923	26914
803.065	26758
803.208	26750
803.35	26823
803.492	26952
803.635	26925
803.777	26979
803.919	27062
804.061	27226
804.204	27032
804.346	26849
804.488	26781
804.63	26929
804.773	26781
804.915	26963
805.057	27009
805.199	27017
805.341	27024
805.483	27169
805.626	26986
805.768	26929
805.91	27001
806.052	27028
806.194	26792
806.336	27089
806.478	26982
806.62	26982
806.762	26952
806.904	27192
807.046	27447
807.188	27214
807.33	27329
807.472	27359
807.614	27081
807.756	27325
807.898	27142
808.04	27085
808.182	27043
808.324	27093
808.465	26952
808.607	27180
808.749	27306
808.891	27462
809.033	27515
809.174	27401
809.316	27389
809.458	27279
809.6	27313
809.741	27545
809.883	27519
810.025	27599
810.166	27488
810.308	27663
810.45	27568
810.591	27561
810.733	27386
810.875	27317
811.016	27195
811.158	27127
811.299	27340
811.441	27336
811.582	27302
811.724	27363
811.865	27104
812.007	27096
812.148	27363
812.29	27180
812.431	27447
812.573	27587
812.714	27606
812.855	27789
812.997	27880
813.138	28017
813.279	27816
813.421	27778
813.562	27671
813.703	27679
813.845	27507
813.986	27089
814.127	26921
814.268	26857
814.41	26826
814.551	26762
814.692	26849
814.833	26632
814.974	26777
815.115	26838
815.256	26590
815.397	26678
815.539	26689
815.68	26545
815.821	26431
815.962	26473
816.103	26556
816.244	26476
816.385	26233
816.526	26324
816.666	26145
816.807	25864
816.948	25940
817.089	26065
817.23	26016
817.371	25963
817.512	25830
817.653	25894
817.793	25830
817.934	25989
818.075	25841
818.216	25887
818.356	25845
818.497	25677
818.638	25559
818.778	25670
818.919	25514
819.06	25499
819.2	25738
819.341	25830
819.481	25875
819.622	26016
819.762	26001
819.903	26062
820.043	25959
820.184	26065
820.324	25925
820.465	25906
820.605	25978
820.746	25917
820.886	25734
821.026	25784
821.167	25814
821.307	25833
821.447	25788
821.588	25597
821.728	25674
821.868	25419
822.008	25187
822.149	25228
822.289	25156
822.429	24928
822.569	24840
822.709	24875
822.849	24802
822.99	24631
823.13	24585
823.27	24528
823.41	24464
823.55	24399
823.69	24536
823.83	24540
823.97	24513
824.11	24224
824.25	24087
824.389	24251
824.529	24273
824.669	24266
824.809	24308
824.949	24330
825.089	24342
825.228	24190
825.368	23988
825.508	24049
825.648	24060
825.787	24030
825.927	24110
826.067	24114
826.206	23942
826.346	24034
826.485	24140
826.625	23980
826.765	24155
826.904	24060
827.044	23695
827.183	23752
827.323	23585
827.462	23923
827.601	23672
827.741	23729
827.88	23687
828.02	23634
828.159	23657
828.298	23577
828.437	23726
828.577	23589
828.716	23707
828.855	23600
828.994	23516
829.134	23322
829.273	23436
829.412	23478
829.551	23303
829.69	23280
829.829	23349
829.968	23341
830.107	23402
830.246	23387
830.385	23231
830.524	23128
830.663	23143
830.802	23025
830.941	22892
831.08	22858
831.219	22957
831.357	23010
831.496	23136
831.635	22809
831.774	22763
831.913	22805
832.051	22740
832.19	22592
832.329	22641
832.467	22523
832.606	22451
832.744	22550
832.883	22489
833.022	22531
833.16	22478
833.299	22535
833.437	22569
833.576	22611
833.714	22611
833.852	22538
833.991	22649
834.129	22588
834.267	22554
834.406	22470
834.544	22516
834.682	22554
834.821	22405
834.959	22706
835.097	22382
835.235	22664
835.373	22462
835.511	22440
835.65	22417
835.788	22470
835.926	22169
836.064	22215
836.202	22169
836.34	22352
836.478	22447
836.615	22371
836.753	22478
836.891	22451
837.029	22341
837.167	22211
837.305	22314
837.443	22257
837.58	22082
837.718	22284
837.856	22287
837.993	22067
838.131	22090
838.269	22082
838.406	22105
838.544	21991
838.681	21911
838.819	21884
838.956	21679
839.094	21656
839.231	21781
839.369	21789
839.506	22044
839.643	21835
839.781	21637
839.918	21420
840.055	21515
840.193	21572
840.33	21469
840.467	21519
840.604	21580
840.742	21785
840.879	21348
841.016	21405
841.153	21378
841.29	21656
841.427	21435
841.564	21469
841.701	21443
841.838	21488
841.975	21386
842.112	21351
842.249	21226
842.385	21260
842.522	21454
842.659	21218
842.796	21264
842.933	21294
843.069	21074
843.206	21188
843.343	21279
843.479	21207
843.616	21131
843.752	21020
843.889	20998
844.025	21176
844.162	20960
844.298	21005
844.435	20918
844.571	20849
844.708	21013
844.844	21036
844.98	21093
845.117	20990
845.253	20891
845.389	20796
845.525	20807
845.661	20887
845.798	20564
845.934	20762
846.07	20598
846.206	20655
846.342	20743
846.478	20716
846.614	20541
846.75	20446
846.886	20415
847.022	20583
847.158	20427
847.294	20415
847.429	20541
847.565	20511
847.701	20674
847.837	20130
847.972	20142
848.108	20206
848.244	20206
848.379	20081
848.515	19868
848.65	19963
848.786	19932
848.921	20107
849.057	20073
849.192	20050
849.328	20035
849.463	19944
849.598	19902
849.734	19765
849.869	19772
850.004	19639
850.14	19689
850.275	19674
850.41	19635
850.545	19514
850.68	19666
850.815	19742
850.95	19658
851.085	19890
851.22	19727
851.355	19567
851.49	19594
851.625	19651
851.76	19544
851.895	19601
852.03	19571
852.165	19510
852.299	19639
852.434	19704
852.569	19658
852.703	19624
852.838	19670
852.973	19734
853.107	19715
853.242	19655
853.376	19502
853.511	19343
853.645	19529
853.78	19639
853.914	19411
854.048	19354
854.183	19407
854.317	19411
854.451	19594
854.585	19537
854.72	19400
854.854	19559
854.988	19358
855.122	19502
855.256	19240
855.39	19388
855.524	19544
855.658	19483
855.792	19594
855.926	19563
856.06	19544
856.194	19552
856.327	19407
856.461	19381
856.595	19472
856.729	19339
856.862	19537
856.996	19392
857.13	19529
857.263	19658
857.397	19586
857.53	19373
857.664	19533
857.797	19483
857.931	19533
858.064	19472
858.197	19594
858.331	19419
858.464	19400
858.597	19350
858.731	19422
858.864	19362
858.997	19369
859.13	19400
859.263	19362
859.396	19426
859.529	19343
859.662	19285
859.795	19343
859.928	19327
860.061	19544
860.194	19605
860.327	19403
860.46	19304
860.592	19495
860.725	19480
860.858	19499
860.99	19278
861.123	19175
861.256	19346
861.388	19289
861.521	19925
861.653	19209
861.786	19190
861.918	19278
862.05	19377
862.183	19350
862.315	19426
862.447	19445
862.58	19407
862.712	19228
862.844	19023
862.976	19251
863.108	19126
863.24	19628
863.372	18989
863.504	19095
863.636	19072
863.768	19091
863.9	18985
864.032	18954
864.164	19042
864.296	19114
864.428	19190
864.559	19137
864.691	19148
864.823	19076
864.954	18985
865.086	19129
865.217	18966
865.349	18856
865.48	18985
865.612	18939
865.743	19107
865.875	19004
866.006	18966
866.137	18894
866.269	18985
866.4	18962
866.531	19053
866.662	18993
866.793	18837
866.924	18943
867.055	18935
867.186	18867
867.317	18863
867.448	18798
867.579	18878
867.71	18787
867.841	18779
867.972	18833
868.103	18977
868.233	18863
868.364	19072
868.495	19012
868.625	19038
868.756	19225
868.886	19095
869.017	19148
869.147	19164
869.278	19324
869.408	19126
869.539	19072
869.669	19202
869.799	19183
869.929	19263
870.06	19225
870.19	19419
870.32	19422
870.45	19563
870.58	19457
870.71	19666
870.84	19647
870.97	19556
871.1	19529
871.23	19807
871.36	19708
871.489	19571
871.619	19651
871.749	19723
871.879	19765
872.008	19868
872.138	19746
872.267	19662
872.397	19571
872.526	19586
872.656	19666
872.785	19529
872.915	19761
873.044	19894
873.173	19814
873.303	19799
873.432	19776
873.561	19913
873.69	19799
873.819	19734
873.948	19784
874.077	19780
874.206	19803
874.335	19750
874.464	19833
874.593	19959
874.722	20046
874.851	20077
874.979	20142
875.108	20107
875.237	19967
875.365	20046
875.494	20149
875.623	20084
875.751	19936
875.88	20199
876.008	20240
876.136	20317
876.265	20446
876.393	20530
876.521	20499
876.65	20507
876.778	20556
876.906	20473
877.034	20320
877.162	20415
877.29	20362
877.418	20358
877.546	20442
877.674	20370
877.802	20389
877.93	20461
878.058	20434
878.185	20271
878.313	20450
878.441	20248
878.568	20309
878.696	20278
878.824	20507
878.951	20465
879.079	20545
879.206	20693
879.333	20579
879.461	20427
879.588	20476
879.715	20560
879.842	20659
879.97	20511
880.097	20252
880.224	20259
880.351	20256
880.478	20328
880.605	20237
880.732	20267
880.859	20533
880.986	20278
881.112	20278
881.239	20145
881.366	20020
881.493	19868
881.619	19845
881.746	19849
881.872	19856
881.999	19803
882.125	19814
882.252	19875
882.378	19871
882.505	20103
882.631	19841
882.757	19586
882.883	19715
883.01	19616
883.136	19601
883.262	19449
883.388	19434
883.514	19590
883.64	19666
883.766	19540
883.892	19381
884.018	19384
884.143	19537
884.269	19731
884.395	19422
884.52	19179
884.646	19209
884.772	19274
884.897	19217
885.023	19270
885.148	19483
885.274	19449
885.399	19335
885.524	19327
885.65	19259
885.775	19320
885.9	19365
886.025	19514
886.15	19316
886.275	19194
886.4	19232
886.525	19217
886.65	19221
886.775	19209
886.9	19468
887.025	19487
887.149	19175
887.274	19137
887.399	19031
887.523	19088
887.648	19110
887.773	18878
887.897	19091
888.021	19012
888.146	19019
888.27	19118
888.395	19137
888.519	19057
888.643	19031
888.767	19015
888.891	18981
889.015	18833
889.139	18932
889.263	18806
889.387	18939
889.511	19076
889.635	18947
889.759	18821
889.883	18776
890.006	18814
890.13	18905
890.254	18661
890.377	18741
890.501	18612
890.624	18601
890.748	18673
890.871	18506
890.995	18570
891.118	18403
891.241	18551
891.364	18422
891.488	18601
891.611	18498
891.734	18376
891.857	18437
891.98	18456
892.103	18563
892.226	18433
892.349	18407
892.471	18311
892.594	18418
892.717	18448
892.839	18342
892.962	18323
893.085	18452
893.207	18304
893.33	18266
893.452	18201
893.575	18433
893.697	18361
893.819	18570
893.941	18703
894.064	18498
894.186	18266
894.308	18323
894.43	18490
894.552	18540
894.674	18460
894.796	18327
894.918	18330
895.04	18452
895.161	18502
895.283	18414
895.405	18277
895.526	18372
895.648	18426
895.769	18399
895.891	18429
896.012	18513
896.134	18517
896.255	18513
896.376	18437
896.498	18540
896.619	18544
896.74	18486
896.861	18623
896.982	18920
897.103	18958
897.224	18688
897.345	18795
897.466	18681
897.587	18787
897.708	18863
897.828	18719
897.949	18604
898.07	18585
898.19	18563
898.311	18791
898.431	18642
898.552	18711
898.672	18658
898.792	18684
898.913	18627
899.033	18597
899.153	18437
899.273	18361
899.393	18429
899.513	18311
899.633	18403
899.753	18350
899.873	18361
899.993	18426
900.113	18243
900.232	18323
900.352	18365
900.472	18285
900.591	18133
900.711	18304
900.83	18129
900.95	18369
901.069	18334
901.189	18136
901.308	17904
901.427	17885
901.546	17843
901.665	17756
901.784	17779
901.904	17653
902.023	17699
902.141	17490
902.26	17360
902.379	17410
902.498	17376
902.617	17223
902.735	17376
902.854	17326
902.973	17162
903.091	17090
903.21	17071
903.328	17098
903.446	16904
903.565	16820
903.683	16881
903.801	16797
903.919	16755
904.038	16782
904.156	16755
904.274	16748
904.392	16634
904.51	16599
904.627	16634
904.745	16694
904.863	16698
904.981	16459
905.098	16257
905.216	16257
905.334	16253
905.451	16325
905.569	16257
905.686	16303
905.803	16325
905.921	16090
906.038	16192
906.155	16192
906.272	15975
906.389	15968
906.506	15934
906.623	15857
906.74	15800
906.857	15751
906.974	15759
907.091	15915
907.208	15956
907.324	15743
907.441	15675
907.557	15679
907.674	15519
907.79	15542
907.907	15507
908.023	15504
908.139	15549
908.256	15534
908.372	15378
908.488	15408
908.604	15298
908.72	15173
908.836	15321
908.952	15214
909.068	15241
909.184	15287
909.3	15218
909.415	15306
909.531	15135
909.647	14998
909.762	14941
909.878	14899
909.993	14998
910.108	14929
910.224	14876
910.339	14971
910.454	14777
910.57	14785
910.685	14678
910.8	14994
910.915	14861
911.03	14708
911.145	14594
911.259	14568
911.374	14568
911.489	14454
911.604	14492
911.718	14339
911.833	14267
911.947	14210
912.062	14153
912.176	14252
912.291	14328
912.405	14218
912.519	14541
912.633	14511
912.748	14309
912.862	14244
912.976	14073
913.09	14008
913.204	14081
913.318	14123
913.431	14202
913.545	14149
913.659	14267
913.772	14111
913.886	13982
914	13951
914.113	14062
914.226	13986
914.34	13978
914.453	13833
914.566	14039
914.68	13830
914.793	13837
914.906	13700
915.019	13586
915.132	13495
915.245	13601
915.358	13636
915.47	13609
915.583	13563
915.696	13693
915.809	13761
915.921	13776
916.034	13594
916.146	13567
916.259	13521
916.371	13613
916.483	13643
916.595	13407
916.708	13499
916.82	13434
916.932	13419
917.044	13434
917.156	13316
917.268	13343
917.38	13320
917.491	13285
917.603	13369
917.715	13491
917.826	13487
917.938	13301
918.049	13240
918.161	13259
918.272	13460
918.384	13384
918.495	13343
918.606	13152
918.717	13008
918.828	13076
918.939	13080
919.05	12962
919.161	12981
919.272	12814
919.383	12928
919.494	13194
919.604	13324
919.715	13000
919.826	12935
919.936	13038
920.047	13141
920.157	13149
920.267	13259
920.378	13095
920.488	13126
920.598	13190
920.708	13362
920.818	13217
920.928	13160
921.038	13331
921.148	13221
921.258	12943
921.368	12973
921.477	12837
921.587	12829
921.697	12669
921.806	12871
921.916	12772
922.025	12490
922.134	12585
922.244	12460
922.353	12498
922.462	12300
922.571	12277
922.68	12083
922.789	12133
922.898	12072
923.007	12095
923.116	12190
923.224	12083
923.333	12045
923.442	11935
923.55	11946
923.659	12038
923.767	11996
923.876	11961
923.984	11999
924.092	11836
924.201	11923
924.309	11961
924.417	11923
924.525	11760
924.633	11885
924.741	12631
924.849	11691
924.956	11752
925.064	11642
925.172	11577
925.279	11608
925.387	11710
925.494	11688
925.602	11695
925.709	11714
925.816	11611
925.924	11596
926.031	11649
926.138	11642
926.245	11707
926.352	11467
926.459	11589
926.566	11688
926.673	11463
926.779	11417
926.886	11353
926.993	11364
927.099	11261
927.206	11170
927.312	11258
927.419	11292
927.525	11235
927.631	11216
927.737	11223
927.843	11109
927.95	10987
928.056	11128
928.162	11124
928.267	11079
928.373	11745
928.479	11242
928.585	10968
928.69	11006
928.796	11136
928.901	10972
929.007	10812
929.112	10995
929.218	10908
929.323	10797
929.428	10839
929.533	10885
929.638	10714
929.743	10873
929.848	10862
929.953	10778
930.058	10702
930.163	10554
930.267	10584
930.372	10599
930.477	10424
930.581	10752
930.685	10584
930.79	10436
930.894	10402
930.998	10386
931.103	10531
931.207	10230
931.311	10063
931.415	9915
931.519	9838
931.623	9793
