Data from test_V78500241_1102.txt Node
Date: Fri Mar 25 15:17:31 CST 2022
User: usil
Spectrometer: V785-0024
Trigger mode: 0
Integration Time (sec): 4.000000E-1
Scans to average: 1
Nonlinearity correction enabled: false
Boxcar width: 0
Storing dark spectrum: false
XAxis mode: Wavelengths
Number of Pixels in Spectrum: 1024
>>>>>Begin Spectral Data<<<<<
801.071	28318
801.214	28337
801.356	28162
801.499	28002
801.641	27766
801.783	27884
801.926	27972
802.068	27861
802.211	27888
802.353	27812
802.496	27728
802.638	27587
802.78	27618
802.923	27690
803.065	27530
803.208	27618
803.35	27545
803.492	27732
803.635	27926
803.777	27717
803.919	27789
804.061	28249
804.204	27930
804.346	27739
804.488	27759
804.63	27861
804.773	27941
804.915	27979
805.057	28006
805.199	28131
805.341	27914
805.483	28055
805.626	28074
805.768	27888
805.91	28040
806.052	28082
806.194	27964
806.336	28131
806.478	28169
806.62	28086
806.762	28128
806.904	28284
807.046	28451
807.188	28299
807.33	28409
807.472	28478
807.614	28318
807.756	28584
807.898	28276
808.04	28306
808.182	28287
808.324	28276
808.465	28371
808.607	28538
808.749	28687
808.891	28782
809.033	28820
809.174	28668
809.316	28660
809.458	28752
809.6	28626
809.741	28752
809.883	28752
810.025	28862
810.166	28946
810.308	28911
810.45	28942
810.591	28881
810.733	28790
810.875	28702
811.016	28546
811.158	28573
811.299	28599
811.441	28771
811.582	28942
811.724	28660
811.865	28641
812.007	28744
812.148	28782
812.29	28592
812.431	28797
812.573	29094
812.714	29083
812.855	29223
812.997	29330
813.138	29277
813.279	29318
813.421	29364
813.562	29220
813.703	29098
813.845	29033
813.986	28634
814.127	28596
814.268	28356
814.41	28428
814.551	28394
814.692	28519
814.833	28440
814.974	28325
815.115	28405
815.256	28242
815.397	28394
815.539	28253
815.68	28284
815.821	28036
815.962	28276
816.103	28253
816.244	28120
816.385	27991
816.526	27941
816.666	27869
816.807	27694
816.948	27804
817.089	27816
817.23	27793
817.371	27755
817.512	27724
817.653	27622
817.793	27523
817.934	27713
818.075	27747
818.216	27698
818.356	27743
818.497	27656
818.638	27488
818.778	27496
818.919	27485
819.06	27500
819.2	27660
819.341	27774
819.481	27759
819.622	27819
819.762	28093
819.903	27907
820.043	27930
820.184	27865
820.324	27907
820.465	27991
820.605	27964
820.746	27869
820.886	27720
821.026	27854
821.167	27888
821.307	27835
821.447	27759
821.588	27641
821.728	27447
821.868	27408
822.008	27252
822.149	27283
822.289	27188
822.429	27005
822.569	26727
822.709	27047
822.849	26777
822.99	26716
823.13	26594
823.27	26720
823.41	26552
823.55	26598
823.69	26606
823.83	26602
823.97	26503
824.11	26278
824.25	26453
824.389	26324
824.529	26412
824.669	26480
824.809	26465
824.949	26415
825.089	26400
825.228	26415
825.368	26157
825.508	26377
825.648	26332
825.787	26263
825.927	26351
826.067	26214
826.206	26142
826.346	26355
826.485	26324
826.625	26290
826.765	26381
826.904	26412
827.044	26119
827.183	26103
827.323	25947
827.462	26130
827.601	26027
827.741	26027
827.88	26062
828.02	25795
828.159	26039
828.298	25997
828.437	25989
828.577	25841
828.716	26142
828.855	25837
828.994	25750
829.134	25715
829.273	25681
829.412	25674
829.551	25822
829.69	25704
829.829	25727
829.968	25738
830.107	25757
830.246	25655
830.385	25700
830.524	25647
830.663	25441
830.802	25499
830.941	25434
831.08	25247
831.219	25506
831.357	25400
831.496	25540
831.635	25198
831.774	25187
831.913	25244
832.051	25194
832.19	25072
832.329	25027
832.467	24958
832.606	24932
832.744	24916
832.883	25027
833.022	25027
833.16	25019
833.299	25050
833.437	25038
833.576	25152
833.714	25046
833.852	25190
833.991	25175
834.129	25088
834.267	25057
834.406	25110
834.544	25072
834.682	25091
834.821	24996
834.959	25259
835.097	24924
835.235	25008
835.373	25137
835.511	25057
835.65	24970
835.788	24916
835.926	24806
836.064	24741
836.202	24726
836.34	25019
836.478	24882
836.615	24852
836.753	24821
836.891	24920
837.029	25015
837.167	24821
837.305	24867
837.443	24852
837.58	24658
837.718	24791
837.856	24825
837.993	24654
838.131	24703
838.269	24635
838.406	24597
838.544	24623
838.681	24570
838.819	24414
838.956	24155
839.094	24319
839.231	24213
839.369	24319
839.506	24631
839.643	24410
839.781	24186
839.918	24068
840.055	24076
840.193	24117
840.33	24068
840.467	24110
840.604	24251
840.742	24380
840.879	23878
841.016	24102
841.153	24003
841.29	24292
841.427	24026
841.564	24125
841.701	24102
841.838	24060
841.975	24148
842.112	24026
842.249	23912
842.385	23840
842.522	24072
842.659	23893
842.796	23889
842.933	23859
843.069	23813
843.206	23764
843.343	23935
843.479	23920
843.616	23809
843.752	23707
843.889	23687
844.025	23809
844.162	23680
844.298	23790
844.435	23577
844.571	23642
844.708	23627
844.844	23794
844.98	23813
845.117	23657
845.253	23611
845.389	23554
845.525	23531
845.661	23615
845.798	23448
845.934	23497
846.07	23334
846.206	23417
846.342	23440
846.478	23311
846.614	23147
846.75	23029
846.886	23079
847.022	23174
847.158	23162
847.294	22987
847.429	23041
847.565	23098
847.701	23395
847.837	22896
847.972	22873
848.108	22934
848.244	22968
848.379	22866
848.515	22797
848.65	22729
848.786	22831
848.921	22782
849.057	22831
849.192	22812
849.328	22748
849.463	22565
849.598	22668
849.734	22497
849.869	22516
850.004	22588
850.14	22432
850.275	22409
850.41	22432
850.545	22474
850.68	22478
850.815	22516
850.95	22516
851.085	22748
851.22	22683
851.355	22504
851.49	22375
851.625	22584
851.76	22440
851.895	22337
852.03	22352
852.165	22421
852.299	22478
852.434	22504
852.569	22440
852.703	22409
852.838	22546
852.973	22584
853.107	22698
853.242	22363
853.376	22344
853.511	22169
853.645	22303
853.78	22481
853.914	22295
854.048	22287
854.183	22310
854.317	22367
854.451	22516
854.585	22367
854.72	22299
854.854	22405
854.988	22188
855.122	22310
855.256	22135
855.39	22280
855.524	22341
855.658	22409
855.792	22405
855.926	22261
856.06	22322
856.194	22299
856.327	22352
856.461	22386
856.595	22363
856.729	22242
856.862	22481
856.996	22280
857.13	22405
857.263	22386
857.397	22466
857.53	22272
857.664	22287
857.797	22436
857.931	22459
858.064	22257
858.197	22557
858.331	22344
858.464	22139
858.597	22253
858.731	22375
858.864	22348
858.997	22207
859.13	22394
859.263	22333
859.396	22455
859.529	22215
859.662	22306
859.795	22234
859.928	22356
860.061	22512
860.194	22489
860.327	22360
860.46	22303
860.592	22386
860.725	22421
860.858	22485
860.99	22287
861.123	22287
861.256	22238
861.388	22356
861.521	23170
861.653	22295
861.786	22105
861.918	22097
862.05	22154
862.183	22185
862.315	22162
862.447	22299
862.58	22360
862.712	22090
862.844	21930
862.976	22181
863.108	22067
863.24	22512
863.372	21895
863.504	21998
863.636	21979
863.768	22124
863.9	22059
864.032	21953
864.164	21930
864.296	22124
864.428	22131
864.559	22177
864.691	22021
864.823	22021
864.954	21994
865.086	21937
865.217	21895
865.349	21915
865.48	21823
865.612	21854
865.743	22139
865.875	21838
866.006	21831
866.137	21911
866.269	21968
866.4	22032
866.531	21865
866.662	21857
866.793	21751
866.924	21899
867.055	21785
867.186	21781
867.317	21739
867.448	21701
867.579	21895
867.71	21759
867.841	21747
867.972	21800
868.103	21835
868.233	21819
868.364	21781
868.495	21899
868.625	21975
868.756	22116
868.886	21937
869.017	21983
869.147	22162
869.278	22109
869.408	22116
869.539	22059
869.669	22124
869.799	22105
869.929	22093
870.06	22139
870.19	22344
870.32	22348
870.45	22337
870.58	22462
870.71	22588
870.84	22683
870.97	22462
871.1	22379
871.23	22607
871.36	22740
871.489	22462
871.619	22634
871.749	22679
871.879	22672
872.008	22759
872.138	22637
872.267	22755
872.397	22516
872.526	22478
872.656	22523
872.785	22519
872.915	22759
873.044	22721
873.173	22664
873.303	22706
873.432	22797
873.561	22653
873.69	22702
873.819	22721
873.948	22694
874.077	22626
874.206	22531
874.335	22698
874.464	22736
874.593	22847
874.722	22896
874.851	22877
874.979	22965
875.108	22946
875.237	22809
875.365	22843
875.494	22778
875.623	22938
875.751	22919
875.88	22885
876.008	23064
876.136	23128
876.265	23288
876.393	23334
876.521	23444
876.65	23265
876.778	23364
876.906	23204
877.034	23200
877.162	23254
877.29	23029
877.418	23216
877.546	23216
877.674	23197
877.802	23212
877.93	23117
878.058	23220
878.185	23056
878.313	23212
878.441	23299
878.568	22999
878.696	23296
878.824	23227
878.951	23311
879.079	23303
879.206	23482
879.333	23436
879.461	23181
879.588	23284
879.715	23349
879.842	23493
879.97	23296
880.097	23094
880.224	23094
880.351	23006
880.478	23159
880.605	22984
880.732	22984
880.859	23349
880.986	23052
881.112	23121
881.239	22911
881.366	22828
881.493	22645
881.619	22569
881.746	22637
881.872	22607
881.999	22679
882.125	22531
882.252	22710
882.378	22592
882.505	22607
882.631	22470
882.757	22337
882.883	22371
883.01	22246
883.136	22306
883.262	22105
883.388	22074
883.514	22386
883.64	22287
883.766	22257
883.892	22048
884.018	22067
884.143	22192
884.269	22150
884.395	22090
884.52	21979
884.646	21983
884.772	21873
884.897	21816
885.023	21922
885.148	21884
885.274	22040
885.399	22116
885.524	21930
885.65	21899
885.775	21945
885.9	21934
886.025	21987
886.15	21880
886.275	21816
886.4	21804
886.525	21975
886.65	21831
886.775	21778
886.9	21968
887.025	22082
887.149	21884
887.274	21713
887.399	21736
887.523	21785
887.648	21717
887.773	21648
887.897	21747
888.021	21720
888.146	21568
888.27	21800
888.395	21766
888.519	21637
888.643	21762
888.767	21789
888.891	21534
889.015	21408
889.139	21443
889.263	21401
889.387	21580
889.511	21641
889.635	21629
889.759	21458
889.883	21447
890.006	21504
890.13	21572
890.254	21466
890.377	21374
890.501	21264
890.624	21249
890.748	21214
890.871	21093
890.995	21077
891.118	20971
891.241	20963
891.364	21138
891.488	21146
891.611	20979
891.734	20967
891.857	21020
891.98	20967
892.103	21089
892.226	20914
892.349	20963
892.471	20895
892.594	20982
892.717	20975
892.839	20842
892.962	21001
893.085	20960
893.207	20887
893.33	20640
893.452	20872
893.575	20956
893.697	20807
893.819	21032
893.941	21005
894.064	21043
894.186	20895
894.308	20819
894.43	21051
894.552	21089
894.674	20956
894.796	20857
894.918	20937
895.04	20838
895.161	20929
895.283	20902
895.405	20811
895.526	20914
895.648	20876
895.769	20853
895.891	20994
896.012	21017
896.134	20899
896.255	20895
896.376	20792
896.498	20785
896.619	20921
896.74	20880
896.861	20948
896.982	21138
897.103	21195
897.224	21096
897.345	21028
897.466	20979
897.587	21127
897.708	21275
897.828	21119
897.949	20982
898.07	20788
898.19	20952
898.311	21005
898.431	20990
898.552	21093
898.672	21157
898.792	21093
898.913	21039
899.033	21020
899.153	20853
899.273	20765
899.393	20921
899.513	20754
899.633	20807
899.753	20861
899.873	20754
899.993	20804
900.113	20853
900.232	20697
900.352	20712
900.472	20636
900.591	20514
900.711	20625
900.83	20640
900.95	20632
901.069	20571
901.189	20434
901.308	20206
901.427	20244
901.546	20214
901.665	20210
901.784	20233
901.904	19978
902.023	20016
902.141	19693
902.26	19693
902.379	19784
902.498	19613
902.617	19616
902.735	19662
902.854	19544
902.973	19571
903.091	19354
903.21	19289
903.328	19438
903.446	19316
903.565	19061
903.683	19095
903.801	19012
903.919	19050
904.038	19023
904.156	18852
904.274	18848
904.392	18783
904.51	18886
904.627	18844
904.745	18985
904.863	18970
904.981	18707
905.098	18639
905.216	18544
905.334	18597
905.451	18532
905.569	18502
905.686	18589
905.803	18589
905.921	18410
906.038	18376
906.155	18380
906.272	18304
906.389	18311
906.506	18167
906.623	18197
906.74	18121
906.857	17958
906.974	17984
907.091	18091
907.208	18197
907.324	18194
907.441	18034
907.557	17920
907.674	17847
907.79	17805
907.907	17790
908.023	17775
908.139	17813
908.256	17802
908.372	17760
908.488	17748
908.604	17436
908.72	17417
908.836	17532
908.952	17539
909.068	17512
909.184	17551
909.3	17467
909.415	17433
909.531	17425
909.647	17288
909.762	17105
909.878	17204
909.993	17216
910.108	17132
910.224	17109
910.339	17189
910.454	17124
910.57	17117
910.685	16911
910.8	17204
910.915	17166
911.03	17029
911.145	16755
911.259	16740
911.374	16824
911.489	16812
911.604	16615
911.718	16580
911.833	16546
911.947	16390
912.062	16268
912.176	16497
912.291	16523
912.405	16599
912.519	16653
912.633	16721
912.748	16687
912.862	16531
912.976	16363
913.09	16234
913.204	16375
913.318	16363
913.431	16371
913.545	16459
913.659	16489
913.772	16230
913.886	16192
914	16112
914.113	16272
914.226	16284
914.34	16116
914.453	15960
914.566	16162
914.68	16021
914.793	15911
914.906	15903
915.019	15762
915.132	15713
915.245	15736
915.358	15751
915.47	15641
915.583	15614
915.696	15743
915.809	15774
915.921	15854
916.034	15717
916.146	15663
916.259	15545
916.371	15667
916.483	15591
916.595	15485
916.708	15443
916.82	15553
916.932	15504
917.044	15462
917.156	15443
917.268	15332
917.38	15405
917.491	15359
917.603	15332
917.715	15469
917.826	15549
917.938	15291
918.049	15207
918.161	15374
918.272	15370
918.384	15412
918.495	15207
918.606	15150
918.717	15100
918.828	14990
918.939	15188
919.05	14979
919.161	15066
919.272	14906
919.383	14948
919.494	15150
919.604	15374
919.715	15024
919.826	14929
919.936	14979
920.047	15131
920.157	15024
920.267	15264
920.378	15138
920.488	15119
920.598	15199
920.708	15458
920.818	15039
920.928	15100
921.038	15374
921.148	15279
921.258	14963
921.368	14891
921.477	14861
921.587	14727
921.697	14674
921.806	14796
921.916	14640
922.025	14400
922.134	14419
922.244	14408
922.353	14465
922.462	14313
922.571	14218
922.68	14065
922.789	14020
922.898	14065
923.007	14027
923.116	14111
923.224	14005
923.333	13989
923.442	13967
923.55	13936
923.659	13902
923.767	13978
923.876	13864
923.984	13947
924.092	13795
924.201	13894
924.309	13860
924.417	13708
924.525	13738
924.633	13780
924.741	14697
924.849	13457
924.956	13632
925.064	13483
925.172	13377
925.279	13491
925.387	13476
925.494	13480
925.602	13586
925.709	13483
925.816	13369
925.924	13384
926.031	13559
926.138	13343
926.245	13445
926.352	13209
926.459	13392
926.566	13388
926.673	13331
926.779	13232
926.886	13152
926.993	13114
927.099	13042
927.206	12996
927.312	12958
927.419	12989
927.525	13095
927.631	12989
927.737	12913
927.843	12817
927.95	12745
928.056	12856
928.162	12852
928.267	12776
928.373	13487
928.479	12913
928.585	12616
928.69	12753
928.796	12840
928.901	12741
929.007	12566
929.112	12684
929.218	12525
929.323	12623
929.428	12513
929.533	12612
929.638	12445
929.743	12475
929.848	12570
929.953	12471
930.058	12388
930.163	12197
930.267	12178
930.372	12391
930.477	12159
930.581	12407
930.685	12270
930.79	12091
930.894	12091
930.998	12060
931.103	12144
931.207	11847
931.311	11707
931.415	11680
931.519	11440
931.623	11414
