Data from test_V78500241_2763.txt Node
Date: Fri Mar 25 15:29:05 CST 2022
User: usil
Spectrometer: V785-0024
Trigger mode: 0
Integration Time (sec): 4.000000E-1
Scans to average: 1
Nonlinearity correction enabled: false
Boxcar width: 0
Storing dark spectrum: false
XAxis mode: Wavelengths
Number of Pixels in Spectrum: 1024
>>>>>Begin Spectral Data<<<<<
801.071	27077
801.214	26990
801.356	26899
801.499	26735
801.641	26644
801.783	26644
801.926	26560
802.068	26648
802.211	26674
802.353	26659
802.496	26374
802.638	26286
802.78	26294
802.923	26271
803.065	26065
803.208	26206
803.35	26301
803.492	26484
803.635	26362
803.777	26385
803.919	26438
804.061	26629
804.204	26438
804.346	26404
804.488	26358
804.63	26507
804.773	26324
804.915	26541
805.057	26442
805.199	26400
805.341	26396
805.483	26609
805.626	26583
805.768	26511
805.91	26564
806.052	26609
806.194	26431
806.336	26712
806.478	26541
806.62	26492
806.762	26587
806.904	26853
807.046	27039
807.188	27001
807.33	27173
807.472	26876
807.614	26910
807.756	26925
807.898	26739
808.04	26636
808.182	26788
808.324	26921
808.465	26739
808.607	27036
808.749	27020
808.891	27252
809.033	27272
809.174	27123
809.316	26960
809.458	27020
809.6	27199
809.741	27131
809.883	27252
810.025	27435
810.166	27359
810.308	27454
810.45	27393
810.591	27382
810.733	27116
810.875	27077
811.016	27096
811.158	27226
811.299	27302
811.441	27329
811.582	27393
811.724	27036
811.865	27093
812.007	27077
812.148	26963
812.29	27256
812.431	27188
812.573	27374
812.714	27530
812.855	27690
812.997	27637
813.138	27720
813.279	27644
813.421	27591
813.562	27557
813.703	27302
813.845	27298
813.986	26952
814.127	26823
814.268	26899
814.41	26781
814.551	26727
814.692	26842
814.833	26720
814.974	26705
815.115	26762
815.256	26693
815.397	26678
815.539	26705
815.68	26621
815.821	26533
815.962	26640
816.103	26514
816.244	26469
816.385	26229
816.526	26263
816.666	26103
816.807	26016
816.948	25989
817.089	26115
817.23	26119
817.371	26024
817.512	25883
817.653	25909
817.793	25974
817.934	25906
818.075	26092
818.216	25982
818.356	25932
818.497	25970
818.638	25723
818.778	25628
818.919	25814
819.06	25761
819.2	26016
819.341	26008
819.481	26096
819.622	26362
819.762	26332
819.903	26290
820.043	26107
820.184	26199
820.324	26168
820.465	26286
820.605	26107
820.746	26008
820.886	26103
821.026	26050
821.167	26088
821.307	26065
821.447	26043
821.588	25970
821.728	25864
821.868	25750
822.008	25396
822.149	25377
822.289	25453
822.429	25289
822.569	25187
822.709	25110
822.849	25065
822.99	24973
823.13	24981
823.27	24741
823.41	24711
823.55	24806
823.69	24928
823.83	24817
823.97	24787
824.11	24509
824.25	24483
824.389	24521
824.529	24681
824.669	24612
824.809	24688
824.949	24604
825.089	24604
825.228	24692
825.368	24384
825.508	24403
825.648	24563
825.787	24593
825.927	24597
826.067	24452
826.206	24391
826.346	24521
826.485	24456
826.625	24353
826.765	24551
826.904	24555
827.044	24197
827.183	24182
827.323	24186
827.462	24304
827.601	24110
827.741	24136
827.88	24106
828.02	24076
828.159	24072
828.298	24262
828.437	24152
828.577	24053
828.716	24353
828.855	24041
828.994	23916
829.134	23843
829.273	23794
829.412	23752
829.551	23714
829.69	23824
829.829	23878
829.968	23954
830.107	24003
830.246	23824
830.385	23802
830.524	23642
830.663	23733
830.802	23802
830.941	23531
831.08	23414
831.219	23497
831.357	23547
831.496	23684
831.635	23395
831.774	23436
831.913	23490
832.051	23174
832.19	23303
832.329	23254
832.467	23197
832.606	23102
832.744	23048
832.883	23185
833.022	23109
833.16	23151
833.299	23162
833.437	23170
833.576	23216
833.714	23254
833.852	23307
833.991	23280
834.129	23322
834.267	23277
834.406	23147
834.544	23273
834.682	23212
834.821	23166
834.959	23406
835.097	23136
835.235	23273
835.373	23242
835.511	23193
835.65	23094
835.788	23239
835.926	22915
836.064	22961
836.202	22961
836.34	23033
836.478	23098
836.615	22991
836.753	23014
836.891	23010
837.029	23151
837.167	23010
837.305	22930
837.443	22908
837.58	22923
837.718	23044
837.856	22850
837.993	22824
838.131	22965
838.269	22675
838.406	22744
838.544	22603
838.681	22531
838.819	22565
838.956	22402
839.094	22360
839.231	22398
839.369	22508
839.506	22896
839.643	22607
839.781	22371
839.918	22299
840.055	22417
840.193	22367
840.33	22341
840.467	22341
840.604	22409
840.742	22599
840.879	22200
841.016	22166
841.153	22246
841.29	22310
841.427	22215
841.564	22253
841.701	22200
841.838	22204
841.975	22120
842.112	22257
842.249	22070
842.385	22078
842.522	22352
842.659	22139
842.796	22177
842.933	22048
843.069	22070
843.206	21915
843.343	22177
843.479	22116
843.616	22055
843.752	21823
843.889	21808
844.025	21991
844.162	21717
844.298	21975
844.435	21819
844.571	21823
844.708	21816
844.844	21991
844.98	21956
845.117	21884
845.253	21892
845.389	21808
845.525	21850
845.661	21694
845.798	21583
845.934	21641
846.07	21511
846.206	21496
846.342	21625
846.478	21477
846.614	21412
846.75	21355
846.886	21325
847.022	21393
847.158	21317
847.294	21291
847.429	21340
847.565	21332
847.701	21583
847.837	21062
847.972	21081
848.108	21184
848.244	21085
848.379	20910
848.515	20914
848.65	20826
848.786	20857
848.921	20823
849.057	20952
849.192	20998
849.328	21013
849.463	20914
849.598	20918
849.734	20823
849.869	20876
850.004	20659
850.14	20689
850.275	20727
850.41	20556
850.545	20682
850.68	20613
850.815	20632
850.95	20617
851.085	20826
851.22	20872
851.355	20800
851.49	20617
851.625	20648
851.76	20686
851.895	20575
852.03	20625
852.165	20830
852.299	20689
852.434	20823
852.569	20830
852.703	20594
852.838	20682
852.973	20921
853.107	20765
853.242	20556
853.376	20648
853.511	20423
853.645	20412
853.78	20613
853.914	20503
854.048	20465
854.183	20450
854.317	20533
854.451	20674
854.585	20465
854.72	20598
854.854	20609
854.988	20454
855.122	20511
855.256	20351
855.39	20442
855.524	20602
855.658	20587
855.792	20579
855.926	20514
856.06	20556
856.194	20617
856.327	20473
856.461	20419
856.595	20419
856.729	20374
856.862	20659
856.996	20495
857.13	20495
857.263	20663
857.397	20571
857.53	20457
857.664	20404
857.797	20594
857.931	20640
858.064	20549
858.197	20629
858.331	20419
858.464	20336
858.597	20427
858.731	20465
858.864	20461
858.997	20442
859.13	20434
859.263	20518
859.396	20522
859.529	20442
859.662	20484
859.795	20381
859.928	20541
860.061	20518
860.194	20590
860.327	20560
860.46	20473
860.592	20549
860.725	20712
860.858	20609
860.99	20446
861.123	20400
861.256	20423
861.388	20461
861.521	21020
861.653	20415
861.786	20305
861.918	20366
862.05	20286
862.183	20385
862.315	20355
862.447	20454
862.58	20324
862.712	20233
862.844	20073
862.976	20259
863.108	20294
863.24	20629
863.372	20252
863.504	20214
863.636	20161
863.768	20214
863.9	20206
864.032	20100
864.164	20142
864.296	20195
864.428	20233
864.559	20202
864.691	20187
864.823	20199
864.954	20191
865.086	20103
865.217	20130
865.349	19974
865.48	20130
865.612	20092
865.743	20313
865.875	20157
866.006	20092
866.137	20084
866.269	20122
866.4	20107
866.531	20016
866.662	19936
866.793	20050
866.924	20107
867.055	20119
867.186	20218
867.317	20016
867.448	19947
867.579	20103
867.71	19982
867.841	19974
867.972	20020
868.103	19963
868.233	20119
868.364	20020
868.495	20172
868.625	20332
868.756	20457
868.886	20199
869.017	20210
869.147	20427
869.278	20389
869.408	20320
869.539	20218
869.669	20328
869.799	20393
869.929	20389
870.06	20526
870.19	20602
870.32	20465
870.45	20514
870.58	20674
870.71	20792
870.84	20906
870.97	20712
871.1	20598
871.23	20861
871.36	20929
871.489	20815
871.619	20853
871.749	20811
871.879	20910
872.008	21017
872.138	20925
872.267	20906
872.397	20769
872.526	20872
872.656	20697
872.785	20826
872.915	20857
873.044	20982
873.173	20937
873.303	20925
873.432	20921
873.561	21017
873.69	20948
873.819	20872
873.948	20944
874.077	20925
874.206	20807
874.335	20899
874.464	21077
874.593	21154
874.722	21100
874.851	21272
874.979	21116
875.108	21203
875.237	21252
875.365	21043
875.494	21047
875.623	21108
875.751	21028
875.88	21230
876.008	21233
876.136	21291
876.265	21583
876.393	21778
876.521	21743
876.65	21736
876.778	21572
876.906	21652
877.034	21424
877.162	21485
877.29	21469
877.418	21622
877.546	21561
877.674	21580
877.802	21408
877.93	21561
878.058	21492
878.185	21272
878.313	21511
878.441	21568
878.568	21344
878.696	21580
878.824	21496
878.951	21564
879.079	21622
879.206	21762
879.333	21652
879.461	21526
879.588	21534
879.715	21545
879.842	21838
879.97	21606
880.097	21359
880.224	21283
880.351	21329
880.478	21370
880.605	21401
880.732	21344
880.859	21515
880.986	21287
881.112	21272
881.239	21230
881.366	21028
881.493	20937
881.619	20838
881.746	20857
881.872	21039
881.999	20849
882.125	20857
882.252	20960
882.378	20895
882.505	20956
882.631	20941
882.757	20556
882.883	20583
883.01	20594
883.136	20651
883.262	20465
883.388	20381
883.514	20678
883.64	20636
883.766	20564
883.892	20522
884.018	20488
884.143	20438
884.269	20705
884.395	20286
884.52	20218
884.646	20305
884.772	20233
884.897	20221
885.023	20309
885.148	20381
885.274	20282
885.399	20511
885.524	20370
885.65	20290
885.775	20256
885.9	20271
886.025	20282
886.15	20339
886.275	20221
886.4	20271
886.525	20161
886.65	20210
886.775	20100
886.9	20419
887.025	20476
887.149	20256
887.274	20126
887.399	20020
887.523	20111
887.648	20035
887.773	19906
887.897	20149
888.021	20081
888.146	20016
888.27	20103
888.395	20199
888.519	19928
888.643	19993
888.767	20115
888.891	19951
889.015	19928
889.139	19902
889.263	19818
889.387	19959
889.511	20001
889.635	19947
889.759	19803
889.883	19928
890.006	19947
890.13	20024
890.254	19818
890.377	19902
890.501	19502
890.624	19540
890.748	19685
890.871	19476
890.995	19514
891.118	19343
891.241	19567
891.364	19506
891.488	19586
891.611	19430
891.734	19411
891.857	19571
891.98	19438
892.103	19586
892.226	19460
892.349	19384
892.471	19255
892.594	19350
892.717	19468
892.839	19343
892.962	19464
893.085	19384
893.207	19445
893.33	19362
893.452	19293
893.575	19407
893.697	19293
893.819	19480
893.941	19567
894.064	19578
894.186	19282
894.308	19331
894.43	19525
894.552	19476
894.674	19415
894.796	19266
894.918	19327
895.04	19282
895.161	19457
895.283	19480
895.405	19358
895.526	19301
895.648	19373
895.769	19403
895.891	19457
896.012	19483
896.134	19251
896.255	19460
896.376	19308
896.498	19415
896.619	19514
896.74	19403
896.861	19426
896.982	19727
897.103	19871
897.224	19616
897.345	19468
897.466	19575
897.587	19582
897.708	19715
897.828	19655
897.949	19567
898.07	19403
898.19	19586
898.311	19597
898.431	19586
898.552	19658
898.672	19666
898.792	19719
898.913	19578
899.033	19510
899.153	19483
899.273	19449
899.393	19369
899.513	19282
899.633	19331
899.753	19411
899.873	19335
899.993	19343
900.113	19434
900.232	19438
900.352	19327
900.472	19240
900.591	19202
900.711	19187
900.83	19072
900.95	19354
901.069	19247
901.189	19091
901.308	18749
901.427	18669
901.546	18817
901.665	18665
901.784	18863
901.904	18582
902.023	18578
902.141	18361
902.26	18258
902.379	18380
902.498	18342
902.617	18224
902.735	18300
902.854	18194
902.973	18270
903.091	18038
903.21	17920
903.328	17863
903.446	17916
903.565	17790
903.683	17836
903.801	17707
903.919	17634
904.038	17687
904.156	17524
904.274	17653
904.392	17634
904.51	17528
904.627	17573
904.745	17551
904.863	17589
904.981	17307
905.098	17239
905.216	17311
905.334	17246
905.451	17258
905.569	17189
905.686	17208
905.803	17189
905.921	17105
906.038	17041
906.155	17064
906.272	16915
906.389	16938
906.506	16805
906.623	16869
906.74	16744
906.857	16603
906.974	16660
907.091	16885
907.208	16881
907.324	16790
907.441	16672
907.557	16558
907.674	16500
907.79	16478
907.907	16436
908.023	16565
908.139	16428
908.256	16398
908.372	16360
908.488	16367
908.604	16207
908.72	16143
908.836	16280
908.952	16188
909.068	16177
909.184	16394
909.3	16219
909.415	16055
909.531	16177
909.647	15956
909.762	15880
909.878	15857
909.993	16013
910.108	15812
910.224	15911
910.339	15816
910.454	15747
910.57	15785
910.685	15701
910.8	15956
910.915	15831
911.03	15766
911.145	15622
911.259	15618
911.374	15542
911.489	15504
911.604	15378
911.718	15252
911.833	15306
911.947	15241
912.062	15150
912.176	15348
912.291	15332
912.405	15294
912.519	15447
912.633	15519
912.748	15336
912.862	15138
912.976	15138
913.09	14998
913.204	15146
913.318	15138
913.431	15203
913.545	15157
913.659	15195
913.772	14937
913.886	14883
914	14910
914.113	14933
914.226	15036
914.34	15009
914.453	14834
914.566	14956
914.68	14743
914.793	14762
914.906	14625
915.019	14568
915.132	14412
915.245	14473
915.358	14621
915.47	14655
915.583	14465
915.696	14594
915.809	14678
915.921	14659
916.034	14488
916.146	14381
916.259	14503
916.371	14587
916.483	14537
916.595	14358
916.708	14400
916.82	14317
916.932	14370
917.044	14290
917.156	14370
917.268	14298
917.38	14172
917.491	14153
917.603	14210
917.715	14225
917.826	14233
917.938	14065
918.049	14024
918.161	14221
918.272	14294
918.384	14343
918.495	14103
918.606	13989
918.717	13986
918.828	14145
918.939	14043
919.05	13978
919.161	14024
919.272	13723
919.383	13818
919.494	14012
919.604	14134
919.715	13913
919.826	13852
919.936	14024
920.047	13921
920.157	13963
920.267	14062
920.378	13898
920.488	13940
920.598	14130
920.708	14221
920.818	14081
920.928	14088
921.038	14202
921.148	14164
921.258	13849
921.368	13845
921.477	13670
921.587	13738
921.697	13628
921.806	13738
921.916	13491
922.025	13445
922.134	13384
922.244	13365
922.353	13426
922.462	13240
922.571	13194
922.68	13004
922.789	13000
922.898	13000
923.007	12985
923.116	13057
923.224	13072
923.333	13015
923.442	12833
923.55	12795
923.659	12791
923.767	12878
923.876	12798
923.984	12734
924.092	12749
924.201	12753
924.309	12791
924.417	12707
924.525	12726
924.633	12673
924.741	13715
924.849	12498
924.956	12688
925.064	12441
925.172	12429
925.279	12536
925.387	12509
925.494	12426
925.602	12506
925.709	12456
925.816	12391
925.924	12437
926.031	12494
926.138	12403
926.245	12452
926.352	12296
926.459	12502
926.566	12441
926.673	12369
926.779	12228
926.886	12163
926.993	12095
927.099	12007
927.206	11939
927.312	12015
927.419	11958
927.525	12022
927.631	11935
927.737	11912
927.843	11863
927.95	11737
928.056	11809
928.162	11958
928.267	11889
928.373	12528
928.479	11946
928.585	11767
928.69	11851
928.796	11874
928.901	11714
929.007	11585
929.112	11714
929.218	11623
929.323	11657
929.428	11566
929.533	11760
929.638	11585
929.743	11589
929.848	11611
929.953	11638
930.058	11505
930.163	11318
930.267	11322
930.372	11383
930.477	11235
930.581	11551
930.685	11364
930.79	11124
930.894	11162
930.998	11181
931.103	11246
931.207	10938
931.311	10847
931.415	10835
931.519	10603
931.623	10634
