Data from test_V78500241_805.txt Node
Date: Fri Mar 25 15:15:27 CST 2022
User: usil
Spectrometer: V785-0024
Trigger mode: 0
Integration Time (sec): 4.000000E-1
Scans to average: 1
Nonlinearity correction enabled: false
Boxcar width: 0
Storing dark spectrum: false
XAxis mode: Wavelengths
Number of Pixels in Spectrum: 1024
>>>>>Begin Spectral Data<<<<<
801.071	28128
801.214	28249
801.356	27934
801.499	28131
801.641	27987
801.783	27884
801.926	27918
802.068	27827
802.211	27743
802.353	27713
802.496	27538
802.638	27355
802.78	27439
802.923	27439
803.065	27538
803.208	27359
803.35	27386
803.492	27648
803.635	27679
803.777	27576
803.919	27698
804.061	27960
804.204	27850
804.346	27625
804.488	27637
804.63	27759
804.773	27648
804.915	27625
805.057	27846
805.199	27511
805.341	27846
805.483	27793
805.626	27975
805.768	27770
805.91	27842
806.052	27739
806.194	27766
806.336	28086
806.478	27884
806.62	27785
806.762	27998
806.904	28040
807.046	28341
807.188	28169
807.33	28230
807.472	28234
807.614	28318
807.756	28147
807.898	28158
808.04	28070
808.182	28147
808.324	28185
808.465	28253
808.607	28272
808.749	28405
808.891	28535
809.033	28713
809.174	28618
809.316	28459
809.458	28516
809.6	28466
809.741	28748
809.883	28565
810.025	28831
810.166	28831
810.308	28896
810.45	28736
810.591	28694
810.733	28474
810.875	28523
811.016	28375
811.158	28459
811.299	28588
811.441	28668
811.582	28637
811.724	28512
811.865	28489
812.007	28409
812.148	28398
812.29	28733
812.431	28660
812.573	28763
812.714	28938
812.855	29193
812.997	29197
813.138	29265
813.279	29200
813.421	29147
813.562	29102
813.703	28911
813.845	28835
813.986	28596
814.127	28401
814.268	28063
814.41	28261
814.551	28147
814.692	28329
814.833	28090
814.974	28154
815.115	28257
815.256	28246
815.397	28032
815.539	28246
815.68	28150
815.821	27960
815.962	28109
816.103	28158
816.244	28055
816.385	27835
816.526	27781
816.666	27477
816.807	27500
816.948	27671
817.089	27591
817.23	27682
817.371	27587
817.512	27496
817.653	27568
817.793	27405
817.934	27481
818.075	27675
818.216	27507
818.356	27717
818.497	27378
818.638	27287
818.778	27256
818.919	27260
819.06	27249
819.2	27450
819.341	27644
819.481	27473
819.622	27686
819.762	27911
819.903	27876
820.043	27732
820.184	27622
820.324	27568
820.465	27663
820.605	27534
820.746	27663
820.886	27534
821.026	27675
821.167	27610
821.307	27709
821.447	27545
821.588	27458
821.728	27355
821.868	27104
822.008	27066
822.149	27116
822.289	26933
822.429	26815
822.569	26708
822.709	26872
822.849	26484
822.99	26450
823.13	26385
823.27	26511
823.41	26450
823.55	26324
823.69	26332
823.83	26301
823.97	26210
824.11	26210
824.25	26206
824.389	26180
824.529	26168
824.669	26161
824.809	26343
824.949	26301
825.089	26275
825.228	26210
825.368	26081
825.508	26092
825.648	26161
825.787	26065
825.927	26187
826.067	26046
826.206	26008
826.346	26088
826.485	26259
826.625	25955
826.765	26180
826.904	25997
827.044	25913
827.183	25784
827.323	25708
827.462	25811
827.601	25799
827.741	25712
827.88	25807
828.02	25643
828.159	25814
828.298	25696
828.437	25818
828.577	25632
828.716	25811
828.855	25708
828.994	25537
829.134	25468
829.273	25381
829.412	25293
829.551	25369
829.69	25449
829.829	25567
829.968	25552
830.107	25415
830.246	25438
830.385	25373
830.524	25464
830.663	25247
830.802	25255
830.941	25061
831.08	25034
831.219	25148
831.357	25076
831.496	25285
831.635	25145
831.774	24996
831.913	24901
832.051	24829
832.19	24901
832.329	24882
832.467	24726
832.606	24745
832.744	24684
832.883	24791
833.022	24715
833.16	24798
833.299	24745
833.437	24779
833.576	24798
833.714	24814
833.852	24886
833.991	24817
834.129	25080
834.267	24848
834.406	24852
834.544	24779
834.682	24958
834.821	24856
834.959	25046
835.097	24738
835.235	24768
835.373	24798
835.511	24833
835.65	24684
835.788	24681
835.926	24464
836.064	24517
836.202	24532
836.34	24631
836.478	24837
836.615	24540
836.753	24566
836.891	24730
837.029	24696
837.167	24681
837.305	24490
837.443	24551
837.58	24426
837.718	24460
837.856	24502
837.993	24365
838.131	24418
838.269	24410
838.406	24395
838.544	24281
838.681	24136
838.819	24220
838.956	24068
839.094	23977
839.231	24079
839.369	24133
839.506	24247
839.643	24270
839.781	23931
839.918	23969
840.055	23958
840.193	23863
840.33	23851
840.467	23866
840.604	23840
840.742	24091
840.879	23813
841.016	23783
841.153	23767
841.29	23901
841.427	23794
841.564	23939
841.701	23901
841.838	23901
841.975	23726
842.112	23798
842.249	23577
842.385	23505
842.522	23855
842.659	23665
842.796	23539
842.933	23665
843.069	23554
843.206	23474
843.343	23531
843.479	23551
843.616	23444
843.752	23341
843.889	23372
844.025	23433
844.162	23493
844.298	23417
844.435	23395
844.571	23284
844.708	23436
844.844	23512
844.98	23520
845.117	23531
845.253	23364
845.389	23212
845.525	23258
845.661	23258
845.798	23174
845.934	23227
846.07	23181
846.206	23166
846.342	23235
846.478	22984
846.614	22934
846.75	22919
846.886	22873
847.022	22900
847.158	22873
847.294	22889
847.429	22831
847.565	22812
847.701	23170
847.837	22694
847.972	22508
848.108	22664
848.244	22512
848.379	22413
848.515	22550
848.65	22523
848.786	22337
848.921	22462
849.057	22577
849.192	22451
849.328	22516
849.463	22451
849.598	22295
849.734	22173
849.869	22344
850.004	22097
850.14	22177
850.275	22344
850.41	22051
850.545	22158
850.68	22120
850.815	22211
850.95	22101
851.085	22295
851.22	22249
851.355	22276
851.49	22173
851.625	22272
851.76	22143
851.895	22078
852.03	21949
852.165	22173
852.299	22143
852.434	22204
852.569	22223
852.703	22226
852.838	22139
852.973	22379
853.107	22192
853.242	22173
853.376	22006
853.511	21922
853.645	22010
853.78	22021
853.914	22078
854.048	21972
854.183	22032
854.317	22109
854.451	22234
854.585	22059
854.72	21991
854.854	22082
854.988	21907
855.122	21918
855.256	21983
855.39	22074
855.524	22078
855.658	21960
855.792	22063
855.926	22116
856.06	21903
856.194	22097
856.327	21975
856.461	21922
856.595	21983
856.729	22059
856.862	22116
856.996	22051
857.13	21998
857.263	22135
857.397	22116
857.53	21994
857.664	22010
857.797	22097
857.931	22120
858.064	21975
858.197	22055
858.331	22116
858.464	21884
858.597	21991
858.731	21987
858.864	21956
858.997	21854
859.13	22002
859.263	21994
859.396	22086
859.529	21861
859.662	21956
859.795	21876
859.928	21960
860.061	22215
860.194	22200
860.327	22013
860.46	21880
860.592	22120
860.725	22234
860.858	22101
860.99	21972
861.123	21922
861.256	22013
861.388	21953
861.521	22862
861.653	21842
861.786	21774
861.918	21819
862.05	21831
862.183	21838
862.315	21941
862.447	22048
862.58	21907
862.712	21816
862.844	21713
862.976	21774
863.108	21717
863.24	22120
863.372	21743
863.504	21720
863.636	21671
863.768	21717
863.9	21641
864.032	21739
864.164	21633
864.296	21618
864.428	21770
864.559	21785
864.691	21831
864.823	21675
864.954	21717
865.086	21519
865.217	21679
865.349	21595
865.48	21622
865.612	21606
865.743	21625
865.875	21641
866.006	21488
866.137	21542
866.269	21599
866.4	21572
866.531	21500
866.662	21572
866.793	21591
866.924	21561
867.055	21671
867.186	21591
867.317	21443
867.448	21450
867.579	21523
867.71	21519
867.841	21397
867.972	21534
868.103	21530
868.233	21564
868.364	21466
868.495	21526
868.625	21682
868.756	21922
868.886	21663
869.017	21854
869.147	21823
869.278	21846
869.408	21827
869.539	21743
869.669	21819
869.799	21876
869.929	21941
870.06	21873
870.19	22109
870.32	22059
870.45	21994
870.58	22120
870.71	22223
870.84	22261
870.97	22109
871.1	22154
871.23	22310
871.36	22413
871.489	22120
871.619	22280
871.749	22234
871.879	22398
872.008	22386
872.138	22379
872.267	22443
872.397	22207
872.526	22215
872.656	22059
872.785	22226
872.915	22325
873.044	22512
873.173	22367
873.303	22440
873.432	22413
873.561	22527
873.69	22371
873.819	22371
873.948	22287
874.077	22310
874.206	22314
874.335	22375
874.464	22493
874.593	22706
874.722	22535
874.851	22717
874.979	22588
875.108	22645
875.237	22622
875.365	22500
875.494	22603
875.623	22698
875.751	22573
875.88	22660
876.008	22672
876.136	22767
876.265	23014
876.393	23060
876.521	23064
876.65	22999
876.778	22991
876.906	22915
877.034	22915
877.162	23018
877.29	22881
877.418	22999
877.546	22885
877.674	22866
877.802	22847
877.93	22839
878.058	22942
878.185	22786
878.313	22866
878.441	22755
878.568	22664
878.696	22752
878.824	22809
878.951	22972
879.079	23174
879.206	23239
879.333	23010
879.461	22984
879.588	22961
879.715	23079
879.842	23185
879.97	22908
880.097	22805
880.224	22649
880.351	22797
880.478	22706
880.605	22889
880.732	22797
880.859	22923
880.986	22668
881.112	22599
881.239	22626
881.366	22443
881.493	22405
881.619	22272
881.746	22337
881.872	22215
881.999	22287
882.125	22265
882.252	22363
882.378	22265
882.505	22432
882.631	22112
882.757	22048
882.883	22063
883.01	21964
883.136	22063
883.262	21884
883.388	21701
883.514	21934
883.64	22055
883.766	21880
883.892	21705
884.018	21819
884.143	22010
884.269	22013
884.395	21701
884.52	21572
884.646	21648
884.772	21515
884.897	21534
885.023	21637
885.148	21656
885.274	21766
885.399	21728
885.524	21553
885.65	21648
885.775	21675
885.9	21694
886.025	21869
886.15	21774
886.275	21587
886.4	21511
886.525	21492
886.65	21545
886.775	21542
886.9	21694
887.025	21698
887.149	21622
887.274	21496
887.399	21367
887.523	21378
887.648	21416
887.773	21241
887.897	21424
888.021	21507
888.146	21207
888.27	21466
888.395	21561
888.519	21397
888.643	21340
888.767	21405
888.891	21291
889.015	21211
889.139	21298
889.263	21116
889.387	21260
889.511	21507
889.635	21218
889.759	21089
889.883	21138
890.006	21245
890.13	21203
890.254	21062
890.377	21036
890.501	20921
890.624	20941
890.748	20811
890.871	20819
890.995	20804
891.118	20598
891.241	20689
891.364	20762
891.488	20807
891.611	20807
891.734	20746
891.857	20708
891.98	20708
892.103	20720
892.226	20804
892.349	20621
892.471	20480
892.594	20617
892.717	20739
892.839	20499
892.962	20613
893.085	20804
893.207	20556
893.33	20503
893.452	20552
893.575	20659
893.697	20648
893.819	20731
893.941	20826
894.064	20739
894.186	20587
894.308	20533
894.43	20644
894.552	20659
894.674	20727
894.796	20541
894.918	20735
895.04	20606
895.161	20606
895.283	20621
895.405	20640
895.526	20583
895.648	20518
895.769	20629
895.891	20587
896.012	20617
896.134	20583
896.255	20659
896.376	20571
896.498	20621
896.619	20590
896.74	20533
896.861	20735
896.982	20880
897.103	21024
897.224	20788
897.345	20899
897.466	20838
897.587	20857
897.708	20868
897.828	20883
897.949	20659
898.07	20659
898.19	20773
898.311	20899
898.431	20724
898.552	20845
898.672	20788
898.792	20857
898.913	20758
899.033	20758
899.153	20564
899.273	20598
899.393	20606
899.513	20636
899.633	20632
899.753	20541
899.873	20564
899.993	20503
900.113	20518
900.232	20499
900.352	20427
900.472	20480
900.591	20286
900.711	20347
900.83	20294
900.95	20473
901.069	20480
901.189	20149
901.308	20088
901.427	19955
901.546	19932
901.665	19906
901.784	19879
901.904	19761
902.023	19723
902.141	19586
902.26	19518
902.379	19521
902.498	19487
902.617	19400
902.735	19510
902.854	19373
902.973	19285
903.091	19217
903.21	19206
903.328	19118
903.446	19027
903.565	18989
903.683	18848
903.801	18840
903.919	18882
904.038	18776
904.156	18684
904.274	18703
904.392	18612
904.51	18544
904.627	18616
904.745	18787
904.863	18703
904.981	18498
905.098	18429
905.216	18357
905.334	18315
905.451	18380
905.569	18342
905.686	18467
905.803	18251
905.921	18121
906.038	18262
906.155	18019
906.272	18129
906.389	17969
906.506	17824
906.623	17828
906.74	17893
906.857	17676
906.974	17817
907.091	17908
907.208	18034
907.324	17920
907.441	17836
907.557	17619
907.674	17570
907.79	17520
907.907	17501
908.023	17619
908.139	17524
908.256	17463
908.372	17425
908.488	17436
908.604	17376
908.72	17235
908.836	17128
908.952	17254
909.068	17326
909.184	17387
909.3	17277
909.415	17261
909.531	17166
909.647	17003
909.762	17014
909.878	16953
909.993	16930
910.108	17022
910.224	16957
910.339	16869
910.454	16691
910.57	16729
910.685	16729
910.8	17014
910.915	16946
911.03	16881
911.145	16618
911.259	16584
911.374	16577
911.489	16474
911.604	16394
911.718	16329
911.833	16337
911.947	16200
912.062	16143
912.176	16200
912.291	16265
912.405	16219
912.519	16523
912.633	16402
912.748	16348
912.862	16268
912.976	16082
913.09	15934
913.204	16006
913.318	16112
913.431	16219
913.545	16150
913.659	16124
913.772	16086
913.886	15972
914	15926
914.113	16010
914.226	15994
914.34	16044
914.453	15808
914.566	15926
914.68	15884
914.793	15743
914.906	15538
915.019	15523
915.132	15439
915.245	15595
915.358	15637
915.47	15462
915.583	15523
915.696	15534
915.809	15568
915.921	15603
916.034	15488
916.146	15386
916.259	15367
916.371	15606
916.483	15382
916.595	15207
916.708	15291
916.82	15370
916.932	15386
917.044	15272
917.156	15165
917.268	15127
917.38	15142
917.491	15131
917.603	15093
917.715	15081
917.826	15241
917.938	15077
918.049	14929
918.161	15036
918.272	15180
918.384	15119
918.495	15070
918.606	14933
918.717	14731
918.828	14891
918.939	14899
919.05	14853
919.161	14929
919.272	14724
919.383	14758
919.494	14982
919.604	15093
919.715	14910
919.826	14788
919.936	14777
920.047	14864
920.157	14800
920.267	15001
920.378	14868
920.488	14811
920.598	14914
920.708	15199
920.818	14921
920.928	15020
921.038	15138
921.148	15081
921.258	14769
921.368	14758
921.477	14503
921.587	14575
921.697	14465
921.806	14663
921.916	14419
922.025	14225
922.134	14237
922.244	14115
922.353	14210
922.462	14142
922.571	13917
922.68	13928
922.789	13879
922.898	13856
923.007	13795
923.116	13951
923.224	13875
923.333	13803
923.442	13715
923.55	13727
923.659	13731
923.767	13693
923.876	13674
923.984	13662
924.092	13487
924.201	13609
924.309	13613
924.417	13540
924.525	13464
924.633	13578
924.741	14256
924.849	13255
924.956	13464
925.064	13350
925.172	13221
925.279	13221
925.387	13236
925.494	13316
925.602	13331
925.709	13289
925.816	13274
925.924	13206
926.031	13206
926.138	13190
926.245	13320
926.352	13133
926.459	13335
926.566	13240
926.673	13080
926.779	12966
926.886	12966
926.993	12779
927.099	12840
927.206	12745
927.312	12779
927.419	12856
927.525	12802
927.631	12897
927.737	12719
927.843	12642
927.95	12604
928.056	12532
928.162	12665
928.267	12684
928.373	13346
928.479	12753
928.585	12506
928.69	12601
928.796	12749
928.901	12597
929.007	12391
929.112	12445
929.218	12544
929.323	12403
929.428	12357
929.533	12544
929.638	12251
929.743	12304
929.848	12281
929.953	12334
930.058	12228
930.163	12053
930.267	12068
930.372	12159
930.477	12030
930.581	12213
930.685	12076
930.79	11965
930.894	11992
930.998	11946
931.103	12022
931.207	11649
931.311	11619
931.415	11493
931.519	11364
931.623	11197
