Data from test_V78500241_1565.txt Node
Date: Fri Mar 25 15:20:45 CST 2022
User: usil
Spectrometer: V785-0024
Trigger mode: 0
Integration Time (sec): 4.000000E-1
Scans to average: 1
Nonlinearity correction enabled: false
Boxcar width: 0
Storing dark spectrum: false
XAxis mode: Wavelengths
Number of Pixels in Spectrum: 1024
>>>>>Begin Spectral Data<<<<<
801.071	27816
801.214	27713
801.356	27576
801.499	27313
801.641	27245
801.783	27382
801.926	27405
802.068	27439
802.211	27211
802.353	27135
802.496	27047
802.638	27142
802.78	27146
802.923	27104
803.065	27017
803.208	26823
803.35	27017
803.492	27024
803.635	27203
803.777	27055
803.919	27397
804.061	27507
804.204	27355
804.346	27085
804.488	27096
804.63	27146
804.773	27169
804.915	27310
805.057	27412
805.199	27233
805.341	27264
805.483	27500
805.626	27260
805.768	27370
805.91	27370
806.052	27321
806.194	27412
806.336	27523
806.478	27370
806.62	27310
806.762	27473
806.904	27599
807.046	27979
807.188	27781
807.33	27785
807.472	27835
807.614	27682
807.756	27762
807.898	27625
808.04	27603
808.182	27652
808.324	27637
808.465	27667
808.607	27842
808.749	27968
808.891	28086
809.033	28105
809.174	28112
809.316	28013
809.458	27934
809.6	28135
809.741	28150
809.883	28154
810.025	28303
810.166	28295
810.308	28291
810.45	28329
810.591	28379
810.733	27987
810.875	28032
811.016	27945
811.158	27926
811.299	28040
811.441	28093
811.582	28162
811.724	28044
811.865	28063
812.007	28006
812.148	28044
812.29	28059
812.431	28234
812.573	28390
812.714	28489
812.855	28489
812.997	28531
813.138	28599
813.279	28588
813.421	28417
813.562	28561
813.703	28344
813.845	28242
813.986	28002
814.127	27846
814.268	27804
814.41	27778
814.551	27618
814.692	27873
814.833	27603
814.974	27614
815.115	27622
815.256	27599
815.397	27587
815.539	27587
815.68	27500
815.821	27351
815.962	27614
816.103	27515
816.244	27386
816.385	27397
816.526	27363
816.666	27055
816.807	27009
816.948	27032
817.089	27119
817.23	26963
817.371	26925
817.512	27047
817.653	27100
817.793	26990
817.934	27028
818.075	26948
818.216	27001
818.356	26895
818.497	26804
818.638	26819
818.778	26785
818.919	26788
819.06	26842
819.2	26758
819.341	26944
819.481	27009
819.622	27188
819.762	27393
819.903	27283
820.043	27173
820.184	27222
820.324	27135
820.465	27214
820.605	26963
820.746	27024
820.886	27108
821.026	27195
821.167	26982
821.307	27108
821.447	26872
821.588	26933
821.728	26769
821.868	26511
822.008	26442
822.149	26427
822.289	26351
822.429	26138
822.569	26134
822.709	26157
822.849	26008
822.99	26062
823.13	25811
823.27	25875
823.41	25727
823.55	25833
823.69	25723
823.83	25841
823.97	25753
824.11	25502
824.25	25521
824.389	25628
824.529	25666
824.669	25674
824.809	25693
824.949	25788
825.089	25689
825.228	25476
825.368	25529
825.508	25422
825.648	25499
825.787	25457
825.927	25476
826.067	25438
826.206	25411
826.346	25396
826.485	25228
826.625	25339
826.765	25613
826.904	25457
827.044	25316
827.183	25282
827.323	25270
827.462	25251
827.601	25247
827.741	25206
827.88	25008
828.02	24973
828.159	25053
828.298	25206
828.437	25285
828.577	25259
828.716	25304
828.855	25099
828.994	24924
829.134	24989
829.273	24935
829.412	24837
829.551	24852
829.69	24859
829.829	24928
829.968	24973
830.107	24913
830.246	24924
830.385	24867
830.524	24692
830.663	24646
830.802	24589
830.941	24426
831.08	24361
831.219	24639
831.357	24688
831.496	24639
831.635	24410
831.774	24346
831.913	24418
832.051	24262
832.19	24216
832.329	24144
832.467	24114
832.606	24114
832.744	23973
832.883	24235
833.022	24148
833.16	24125
833.299	24247
833.437	24133
833.576	24277
833.714	24243
833.852	24213
833.991	24319
834.129	24220
834.267	24410
834.406	24266
834.544	24144
834.682	24296
834.821	24209
834.959	24391
835.097	24110
835.235	24209
835.373	24178
835.511	24216
835.65	24174
835.788	23996
835.926	23942
836.064	23939
836.202	23912
836.34	24182
836.478	24087
836.615	23927
836.753	24003
836.891	24041
837.029	24053
837.167	23958
837.305	23931
837.443	23901
837.58	23809
837.718	23935
837.856	23992
837.993	23840
838.131	23805
838.269	23752
838.406	23817
838.544	23703
838.681	23406
838.819	23543
838.956	23368
839.094	23341
839.231	23307
839.369	23497
839.506	23726
839.643	23661
839.781	23341
839.918	23227
840.055	23372
840.193	23372
840.33	23250
840.467	23296
840.604	23315
840.742	23406
840.879	23216
841.016	23231
841.153	23079
841.29	23341
841.427	23277
841.564	23239
841.701	23162
841.838	23269
841.975	23254
842.112	23155
842.249	23033
842.385	22976
842.522	23280
842.659	23143
842.796	23071
842.933	23121
843.069	22843
843.206	22965
843.343	23105
843.479	23060
843.616	23113
843.752	22782
843.889	22744
844.025	22930
844.162	22729
844.298	22900
844.435	22706
844.571	22847
844.708	22805
844.844	22984
844.98	22866
845.117	23010
845.253	22679
845.389	22702
845.525	22759
845.661	22710
845.798	22531
845.934	22459
846.07	22535
846.206	22527
846.342	22713
846.478	22462
846.614	22447
846.75	22162
846.886	22371
847.022	22356
847.158	22360
847.294	22352
847.429	22276
847.565	22295
847.701	22512
847.837	22090
847.972	21945
848.108	21968
848.244	22070
848.379	21998
848.515	21823
848.65	21797
848.786	21747
848.921	21800
849.057	21979
849.192	21846
849.328	21850
849.463	21861
849.598	21838
849.734	21732
849.869	21690
850.004	21515
850.14	21591
850.275	21671
850.41	21545
850.545	21317
850.68	21622
850.815	21549
850.95	21587
851.085	21713
851.22	21663
851.355	21656
851.49	21511
851.625	21622
851.76	21542
851.895	21507
852.03	21389
852.165	21545
852.299	21648
852.434	21724
852.569	21564
852.703	21652
852.838	21660
852.973	21808
853.107	21644
853.242	21652
853.376	21454
853.511	21310
853.645	21416
853.78	21603
853.914	21420
854.048	21386
854.183	21332
854.317	21405
854.451	21431
854.585	21424
854.72	21412
854.854	21431
854.988	21393
855.122	21477
855.256	21306
855.39	21401
855.524	21481
855.658	21374
855.792	21359
855.926	21488
856.06	21435
856.194	21450
856.327	21313
856.461	21428
856.595	21294
856.729	21382
856.862	21507
856.996	21526
857.13	21526
857.263	21367
857.397	21534
857.53	21370
857.664	21462
857.797	21545
857.931	21466
858.064	21507
858.197	21466
858.331	21386
858.464	21230
858.597	21329
858.731	21397
858.864	21450
858.997	21428
859.13	21382
859.263	21553
859.396	21473
859.529	21348
859.662	21370
859.795	21401
859.928	21408
860.061	21481
860.194	21557
860.327	21435
860.46	21336
860.592	21606
860.725	21614
860.858	21660
860.99	21351
861.123	21283
861.256	21340
861.388	21275
861.521	22169
861.653	21405
861.786	21256
861.918	21291
862.05	21283
862.183	21408
862.315	21389
862.447	21344
862.58	21302
862.712	21074
862.844	21184
862.976	21180
863.108	21249
863.24	21599
863.372	21039
863.504	21108
863.636	21096
863.768	21062
863.9	21192
864.032	21066
864.164	21005
864.296	21173
864.428	21199
864.559	21112
864.691	21211
864.823	21233
864.954	21077
865.086	21043
865.217	21055
865.349	20887
865.48	21058
865.612	21074
865.743	21233
865.875	20925
866.006	20963
866.137	21005
866.269	20948
866.4	20963
866.531	21055
866.662	20994
866.793	20982
866.924	20876
867.055	21043
867.186	21009
867.317	20952
867.448	20944
867.579	20944
867.71	20804
867.841	20796
867.972	21009
868.103	20902
868.233	20933
868.364	20937
868.495	21005
868.625	21241
868.756	21287
868.886	21119
869.017	21184
869.147	21329
869.278	21298
869.408	21237
869.539	21154
869.669	21401
869.799	21302
869.929	21344
870.06	21363
870.19	21458
870.32	21450
870.45	21477
870.58	21466
870.71	21717
870.84	21789
870.97	21500
871.1	21553
871.23	21831
871.36	21842
871.489	21724
871.619	21751
871.749	21781
871.879	21713
872.008	21804
872.138	21816
872.267	21835
872.397	21671
872.526	21603
872.656	21622
872.785	21656
872.915	21770
873.044	21865
873.173	21804
873.303	21812
873.432	21884
873.561	21892
873.69	21876
873.819	21819
873.948	21907
874.077	21911
874.206	21842
874.335	21819
874.464	21960
874.593	22044
874.722	21945
874.851	21979
874.979	22124
875.108	22021
875.237	22044
875.365	21869
875.494	21949
875.623	22116
875.751	22105
875.88	21941
876.008	22147
876.136	22268
876.265	22268
876.393	22512
876.521	22489
876.65	22466
876.778	22341
876.906	22466
877.034	22230
877.162	22356
877.29	22402
877.418	22504
877.546	22390
877.674	22375
877.802	22371
877.93	22371
878.058	22196
878.185	22261
878.313	22322
878.441	22451
878.568	22143
878.696	22242
878.824	22325
878.951	22303
879.079	22535
879.206	22683
879.333	22516
879.461	22333
879.588	22500
879.715	22382
879.842	22546
879.97	22398
880.097	22185
880.224	22162
880.351	22234
880.478	22238
880.605	22036
880.732	22090
880.859	22466
880.986	22234
881.112	22188
881.239	21915
881.366	21903
881.493	21808
881.619	21732
881.746	21720
881.872	21743
881.999	21705
882.125	21766
882.252	21846
882.378	21679
882.505	21918
882.631	21622
882.757	21534
882.883	21401
883.01	21435
883.136	21466
883.262	21344
883.388	21222
883.514	21428
883.64	21587
883.766	21500
883.892	21268
884.018	21336
884.143	21408
884.269	21564
884.395	21207
884.52	21070
884.646	21096
884.772	21085
884.897	21024
885.023	21142
885.148	21123
885.274	21275
885.399	21226
885.524	21127
885.65	21116
885.775	20971
885.9	21070
886.025	21142
886.15	21165
886.275	20982
886.4	21001
886.525	21096
886.65	21028
886.775	20990
886.9	21081
887.025	21275
887.149	21024
887.274	20891
887.399	20842
887.523	20925
887.648	20937
887.773	20800
887.897	20887
888.021	20731
888.146	20815
888.27	20971
888.395	20975
888.519	20914
888.643	20845
888.767	20918
888.891	20769
889.015	20720
889.139	20667
889.263	20613
889.387	20811
889.511	20864
889.635	20815
889.759	20594
889.883	20735
890.006	20689
890.13	20800
890.254	20511
890.377	20518
890.501	20381
890.624	20370
890.748	20389
890.871	20339
890.995	20214
891.118	20157
891.241	20214
891.364	20290
891.488	20446
891.611	20103
891.734	20248
891.857	20267
891.98	20244
892.103	20240
892.226	20202
892.349	20138
892.471	20126
892.594	20069
892.717	20073
892.839	20054
892.962	20172
893.085	20153
893.207	20054
893.33	20103
893.452	20073
893.575	20225
893.697	20107
893.819	20301
893.941	20267
894.064	20164
894.186	20054
894.308	20016
894.43	20248
894.552	20221
894.674	20202
894.796	20043
894.918	20024
895.04	20130
895.161	20088
895.283	20214
895.405	20096
895.526	20107
895.648	20134
895.769	20206
895.891	20206
896.012	20161
896.134	20199
896.255	20142
896.376	20115
896.498	20077
896.619	20172
896.74	20130
896.861	20225
896.982	20431
897.103	20583
897.224	20457
897.345	20206
897.466	20305
897.587	20298
897.708	20461
897.828	20347
897.949	20267
898.07	20210
898.19	20229
898.311	20358
898.431	20259
898.552	20454
898.672	20488
898.792	20385
898.913	20408
899.033	20119
899.153	20153
899.273	19955
899.393	20008
899.513	20134
899.633	20081
899.753	20107
899.873	20012
899.993	20122
900.113	20005
900.232	19993
900.352	19890
900.472	20046
900.591	19841
900.711	19849
900.83	19917
900.95	20024
901.069	19913
901.189	19753
901.308	19605
901.427	19362
901.546	19525
901.665	19506
901.784	19354
901.904	19308
902.023	19324
902.141	19034
902.26	18947
902.379	19187
902.498	19023
902.617	18939
902.735	19091
902.854	18977
902.973	18852
903.091	18684
903.21	18661
903.328	18616
903.446	18585
903.565	18490
903.683	18547
903.801	18391
903.919	18422
904.038	18452
904.156	18292
904.274	18174
904.392	18110
904.51	18224
904.627	18266
904.745	18247
904.863	18190
904.981	17988
905.098	17775
905.216	17950
905.334	17935
905.451	17897
905.569	17828
905.686	17977
905.803	17923
905.921	17794
906.038	17840
906.155	17733
906.272	17665
906.389	17676
906.506	17444
906.623	17387
906.74	17425
906.857	17311
906.974	17368
907.091	17444
907.208	17581
907.324	17341
907.441	17280
907.557	17197
907.674	17162
907.79	17098
907.907	17143
908.023	17193
908.139	17136
908.256	17121
908.372	17094
908.488	16938
908.604	17006
908.72	16790
908.836	16930
908.952	16847
909.068	16843
909.184	16911
909.3	16923
909.415	16904
909.531	16866
909.647	16611
909.762	16523
909.878	16538
909.993	16535
910.108	16538
910.224	16497
910.339	16500
910.454	16379
910.57	16352
910.685	16405
910.8	16512
910.915	16603
911.03	16341
911.145	16230
911.259	16185
911.374	16207
911.489	16040
911.604	15949
911.718	15846
911.833	15804
911.947	15812
912.062	15724
912.176	15907
912.291	15979
912.405	15861
912.519	15994
912.633	16131
912.748	15953
912.862	15827
912.976	15713
913.09	15545
913.204	15637
913.318	15781
913.431	15800
913.545	15827
913.659	15732
913.772	15667
913.886	15568
914	15477
914.113	15591
914.226	15675
914.34	15576
914.453	15450
914.566	15671
914.68	15416
914.793	15283
914.906	15226
915.019	15116
915.132	15058
915.245	15138
915.358	15154
915.47	15176
915.583	15157
915.696	15146
915.809	15256
915.921	15195
916.034	15093
916.146	15017
916.259	15001
916.371	15195
916.483	15024
916.595	15001
916.708	15051
916.82	14986
916.932	14861
917.044	14887
917.156	14902
917.268	14693
917.38	14769
917.491	14815
917.603	14796
917.715	14785
917.826	14861
917.938	14587
918.049	14708
918.161	14765
918.272	14792
918.384	14788
918.495	14659
918.606	14583
918.717	14507
918.828	14537
918.939	14465
919.05	14514
919.161	14541
919.272	14271
919.383	14301
919.494	14640
919.604	14758
919.715	14495
919.826	14431
919.936	14492
920.047	14621
920.157	14552
920.267	14750
920.378	14438
920.488	14530
920.598	14629
920.708	14823
920.818	14606
920.928	14659
921.038	14724
921.148	14735
921.258	14476
921.368	14370
921.477	14180
921.587	14210
921.697	14058
921.806	14191
921.916	14126
922.025	13974
922.134	13852
922.244	13856
922.353	13868
922.462	13700
922.571	13708
922.68	13483
922.789	13567
922.898	13472
923.007	13430
923.116	13548
923.224	13514
923.333	13613
923.442	13350
923.55	13362
923.659	13335
923.767	13392
923.876	13316
923.984	13407
924.092	13251
924.201	13278
924.309	13228
924.417	13304
924.525	13255
924.633	13312
924.741	13982
924.849	13004
924.956	13118
925.064	12962
925.172	12875
925.279	12947
925.387	12882
925.494	12882
925.602	13065
925.709	12935
925.816	12875
925.924	12833
926.031	13061
926.138	12821
926.245	12897
926.352	12730
926.459	12897
926.566	12886
926.673	12829
926.779	12734
926.886	12669
926.993	12578
927.099	12525
927.206	12418
927.312	12422
927.419	12566
927.525	12528
927.631	12479
927.737	12395
927.843	12365
927.95	12266
928.056	12285
928.162	12350
928.267	12361
928.373	12920
928.479	12479
928.585	12232
928.69	12323
928.796	12251
928.901	12110
929.007	12057
929.112	12216
929.218	12098
929.323	12083
929.428	12106
929.533	12213
929.638	11935
929.743	11984
929.848	12026
929.953	11927
930.058	11904
930.163	11832
930.267	11714
930.372	11923
930.477	11726
930.581	11920
930.685	11798
930.79	11558
930.894	11722
930.998	11619
931.103	11688
931.207	11334
931.311	11330
931.415	11193
931.519	10923
931.623	10957
