Data from test_V78500241_3439.txt Node
Date: Fri Mar 25 15:33:48 CST 2022
User: usil
Spectrometer: V785-0024
Trigger mode: 0
Integration Time (sec): 4.000000E-1
Scans to average: 1
Nonlinearity correction enabled: false
Boxcar width: 0
Storing dark spectrum: false
XAxis mode: Wavelengths
Number of Pixels in Spectrum: 1024
>>>>>Begin Spectral Data<<<<<
801.071	27374
801.214	27203
801.356	27051
801.499	26986
801.641	26800
801.783	26823
801.926	26899
802.068	26944
802.211	26735
802.353	26708
802.496	26564
802.638	26571
802.78	26583
802.923	26366
803.065	26514
803.208	26396
803.35	26484
803.492	26632
803.635	26823
803.777	26598
803.919	26621
804.061	26918
804.204	26590
804.346	26609
804.488	26514
804.63	26594
804.773	26480
804.915	26621
805.057	26754
805.199	26659
805.341	26731
805.483	26765
805.626	26834
805.768	26712
805.91	26811
806.052	26697
806.194	26446
806.336	26834
806.478	26644
806.62	26807
806.762	26895
806.904	27058
807.046	27176
807.188	27260
807.33	27127
807.472	27203
807.614	27043
807.756	27123
807.898	27085
808.04	26998
808.182	26982
808.324	26986
808.465	26910
808.607	27207
808.749	27389
808.891	27473
809.033	27416
809.174	27469
809.316	27272
809.458	27458
809.6	27237
809.741	27416
809.883	27443
810.025	27591
810.166	27625
810.308	27534
810.45	27690
810.591	27557
810.733	27378
810.875	27264
811.016	27279
811.158	27359
811.299	27488
811.441	27473
811.582	27542
811.724	27256
811.865	27260
812.007	27214
812.148	27367
812.29	27370
812.431	27447
812.573	27469
812.714	27686
812.855	27861
812.997	27911
813.138	28109
813.279	28010
813.421	27903
813.562	27709
813.703	27728
813.845	27496
813.986	27142
814.127	27074
814.268	27081
814.41	27108
814.551	26956
814.692	27100
814.833	26956
814.974	26853
815.115	26952
815.256	26830
815.397	26849
815.539	26842
815.68	26868
815.821	26735
815.962	26910
816.103	26705
816.244	26495
816.385	26514
816.526	26503
816.666	26343
816.807	26278
816.948	26305
817.089	26473
817.23	26237
817.371	26240
817.512	26183
817.653	26362
817.793	26180
817.934	26282
818.075	26244
818.216	26221
818.356	26240
818.497	26096
818.638	26077
818.778	25970
818.919	26001
819.06	26103
819.2	26043
819.341	26290
819.481	26134
819.622	26457
819.762	26415
819.903	26438
820.043	26446
820.184	26423
820.324	26259
820.465	26484
820.605	26442
820.746	26229
820.886	26153
821.026	26347
821.167	26328
821.307	26400
821.447	26145
821.588	26054
821.728	25997
821.868	25875
822.008	25765
822.149	25757
822.289	25890
822.429	25457
822.569	25434
822.709	25426
822.849	25377
822.99	25179
823.13	25160
823.27	25141
823.41	25168
823.55	24947
823.69	24932
823.83	25190
823.97	25008
824.11	24783
824.25	24833
824.389	24829
824.529	24958
824.669	24920
824.809	24996
824.949	24989
825.089	24989
825.228	24913
825.368	24650
825.508	24753
825.648	24692
825.787	24692
825.927	24913
826.067	24608
826.206	24646
826.346	24719
826.485	24703
826.625	24646
826.765	24817
826.904	24726
827.044	24544
827.183	24525
827.323	24376
827.462	24441
827.601	24426
827.741	24490
827.88	24471
828.02	24369
828.159	24391
828.298	24521
828.437	24471
828.577	24334
828.716	24547
828.855	24338
828.994	24216
829.134	24155
829.273	24304
829.412	24121
829.551	24106
829.69	24091
829.829	24334
829.968	24292
830.107	24216
830.246	24155
830.385	24117
830.524	23992
830.663	23889
830.802	23813
830.941	23779
831.08	23745
831.219	23843
831.357	23817
831.496	23980
831.635	23672
831.774	23642
831.913	23543
832.051	23615
832.19	23452
832.329	23649
832.467	23364
832.606	23326
832.744	23421
832.883	23474
833.022	23334
833.16	23509
833.299	23554
833.437	23429
833.576	23512
833.714	23398
833.852	23547
833.991	23539
834.129	23551
834.267	23592
834.406	23535
834.544	23482
834.682	23459
834.821	23520
834.959	23672
835.097	23376
835.235	23604
835.373	23448
835.511	23486
835.65	23414
835.788	23345
835.926	23303
836.064	23151
836.202	23181
836.34	23330
836.478	23368
836.615	23360
836.753	23402
836.891	23372
837.029	23490
837.167	23318
837.305	23311
837.443	23235
837.58	23189
837.718	23311
837.856	23345
837.993	23140
838.131	23261
838.269	23056
838.406	23075
838.544	23094
838.681	22877
838.819	22949
838.956	22592
839.094	22615
839.231	22736
839.369	22965
839.506	23140
839.643	22908
839.781	22702
839.918	22706
840.055	22706
840.193	22603
840.33	22512
840.467	22691
840.604	22801
840.742	22809
840.879	22470
841.016	22573
841.153	22489
841.29	22767
841.427	22611
841.564	22748
841.701	22557
841.838	22573
841.975	22443
842.112	22565
842.249	22390
842.385	22379
842.522	22527
842.659	22500
842.796	22413
842.933	22417
843.069	22363
843.206	22421
843.343	22409
843.479	22371
843.616	22314
843.752	22139
843.889	22204
844.025	22329
844.162	22162
844.298	22356
844.435	22116
844.571	22147
844.708	22284
844.844	22211
844.98	22295
845.117	22356
845.253	22093
845.389	22074
845.525	22120
845.661	21998
845.798	21823
845.934	21865
846.07	21850
846.206	21945
846.342	21964
846.478	21800
846.614	21755
846.75	21561
846.886	21496
847.022	21694
847.158	21553
847.294	21610
847.429	21713
847.565	21644
847.701	21785
847.837	21351
847.972	21332
848.108	21439
848.244	21401
848.379	21279
848.515	21332
848.65	21157
848.786	21275
848.921	21207
849.057	21336
849.192	21294
849.328	21245
849.463	21313
849.598	21169
849.734	21112
849.869	21081
850.004	21051
850.14	21070
850.275	21043
850.41	20971
850.545	20925
850.68	20906
850.815	20933
850.95	20960
851.085	21222
851.22	21093
851.355	20925
851.49	21017
851.625	20944
851.76	21024
851.895	20944
852.03	20826
852.165	20899
852.299	20982
852.434	21043
852.569	20929
852.703	20998
852.838	21100
852.973	21150
853.107	21108
853.242	20933
853.376	20868
853.511	20708
853.645	20948
853.78	20921
853.914	20857
854.048	20773
854.183	20887
854.317	20785
854.451	20971
854.585	20910
854.72	20845
854.854	20830
854.988	20769
855.122	20785
855.256	20750
855.39	20678
855.524	20929
855.658	20971
855.792	20967
855.926	20918
856.06	20925
856.194	20921
856.327	20781
856.461	20758
856.595	20811
856.729	20792
856.862	20811
856.996	20861
857.13	20956
857.263	20804
857.397	20891
857.53	20811
857.664	20800
857.797	21017
857.931	20891
858.064	20727
858.197	20963
858.331	20773
858.464	20773
858.597	20701
858.731	20807
858.864	20765
858.997	20788
859.13	20762
859.263	20952
859.396	20872
859.529	20819
859.662	20754
859.795	20689
859.928	20891
860.061	20952
860.194	20902
860.327	20918
860.46	20979
860.592	20971
860.725	20929
860.858	20868
860.99	20765
861.123	20602
861.256	20807
861.388	20792
861.521	21435
861.653	20705
861.786	20682
861.918	20686
862.05	20762
862.183	20785
862.315	20731
862.447	20826
862.58	20773
862.712	20579
862.844	20678
862.976	20537
863.108	20530
863.24	21013
863.372	20564
863.504	20446
863.636	20400
863.768	20655
863.9	20415
864.032	20446
864.164	20556
864.296	20594
864.428	20450
864.559	20583
864.691	20514
864.823	20514
864.954	20450
865.086	20590
865.217	20438
865.349	20370
865.48	20438
865.612	20568
865.743	20545
865.875	20446
866.006	20396
866.137	20499
866.269	20400
866.4	20419
866.531	20408
866.662	20415
866.793	20457
866.924	20339
867.055	20461
867.186	20404
867.317	20465
867.448	20347
867.579	20286
867.71	20366
867.841	20313
867.972	20328
868.103	20358
868.233	20476
868.364	20400
868.495	20408
868.625	20522
868.756	20674
868.886	20617
869.017	20511
869.147	20613
869.278	20640
869.408	20651
869.539	20598
869.669	20724
869.799	20693
869.929	20811
870.06	20686
870.19	20868
870.32	20941
870.45	20929
870.58	21028
870.71	21077
870.84	21135
870.97	20960
871.1	21051
871.23	21173
871.36	21180
871.489	21108
871.619	21184
871.749	21218
871.879	21264
872.008	21321
872.138	21272
872.267	21169
872.397	21108
872.526	21093
872.656	20979
872.785	21017
872.915	21256
873.044	21329
873.173	21218
873.303	21275
873.432	21268
873.561	21321
873.69	21291
873.819	21230
873.948	21313
874.077	21180
874.206	21211
874.335	21195
874.464	21397
874.593	21485
874.722	21553
874.851	21492
874.979	21481
875.108	21526
875.237	21325
875.365	21424
875.494	21447
875.623	21443
875.751	21500
875.88	21576
876.008	21637
876.136	21778
876.265	21964
876.393	21934
876.521	21869
876.65	22055
876.778	21808
876.906	21865
877.034	21698
877.162	21865
877.29	21873
877.418	21842
877.546	21873
877.674	21846
877.802	21743
877.93	21648
878.058	21762
878.185	21743
878.313	21838
878.441	21846
878.568	21606
878.696	21827
878.824	21930
878.951	21819
879.079	21941
879.206	22078
879.333	22032
879.461	21751
879.588	21968
879.715	22017
879.842	22139
879.97	21789
880.097	21633
880.224	21667
880.351	21739
880.478	21656
880.605	21580
880.732	21759
880.859	21956
880.986	21641
881.112	21793
881.239	21458
881.366	21382
881.493	21355
881.619	21245
881.746	21230
881.872	21203
881.999	21233
882.125	21093
882.252	21249
882.378	21260
882.505	21180
882.631	21131
882.757	20914
882.883	21070
883.01	20929
883.136	20944
883.262	20849
883.388	20830
883.514	20899
883.64	20891
883.766	20887
883.892	20750
884.018	20750
884.143	20887
884.269	21104
884.395	20712
884.52	20655
884.646	20667
884.772	20476
884.897	20503
885.023	20598
885.148	20735
885.274	20697
885.399	20644
885.524	20545
885.65	20609
885.775	20488
885.9	20533
886.025	20571
886.15	20617
886.275	20541
886.4	20526
886.525	20594
886.65	20503
886.775	20495
886.9	20823
887.025	20716
887.149	20594
887.274	20362
887.399	20423
887.523	20298
887.648	20355
887.773	20256
887.897	20355
888.021	20309
888.146	20290
888.27	20400
888.395	20431
888.519	20480
888.643	20461
888.767	20415
888.891	20191
889.015	20214
889.139	20271
889.263	20142
889.387	20180
889.511	20332
889.635	20393
889.759	20126
889.883	20111
890.006	20119
890.13	20271
890.254	20058
890.377	20130
890.501	19928
890.624	19913
890.748	20031
890.871	19860
890.995	19731
891.118	19746
891.241	19719
891.364	19753
891.488	19791
891.611	19753
891.734	19719
891.857	19864
891.98	19807
892.103	19708
892.226	19776
892.349	19833
892.471	19483
892.594	19723
892.717	19742
892.839	19750
892.962	19674
893.085	19753
893.207	19635
893.33	19578
893.452	19495
893.575	19635
893.697	19658
893.819	19826
893.941	19951
894.064	19807
894.186	19616
894.308	19571
894.43	19681
894.552	19742
894.674	19746
894.796	19597
894.918	19731
895.04	19624
895.161	19651
895.283	19689
895.405	19620
895.526	19590
895.648	19647
895.769	19605
895.891	19681
896.012	19753
896.134	19712
896.255	19616
896.376	19723
896.498	19643
896.619	19594
896.74	19639
896.861	19715
896.982	20027
897.103	20153
897.224	19932
897.345	19970
897.466	19898
897.587	19894
897.708	20134
897.828	19947
897.949	19769
898.07	19715
898.19	19788
898.311	19909
898.431	19868
898.552	19879
898.672	19913
898.792	19898
898.913	19993
899.033	19788
899.153	19685
899.273	19544
899.393	19651
899.513	19708
899.633	19590
899.753	19635
899.873	19525
899.993	19685
900.113	19540
900.232	19586
900.352	19544
900.472	19483
900.591	19354
900.711	19529
900.83	19403
900.95	19464
901.069	19514
901.189	19331
901.308	19080
901.427	19038
901.546	19023
901.665	19095
901.784	18932
901.904	18951
902.023	18791
902.141	18665
902.26	18555
902.379	18639
902.498	18528
902.617	18433
902.735	18509
902.854	18551
902.973	18456
903.091	18049
903.21	18285
903.328	18121
903.446	18072
903.565	18072
903.683	17965
903.801	17828
903.919	17889
904.038	18019
904.156	17729
904.274	17802
904.392	17798
904.51	17710
904.627	17756
904.745	17756
904.863	17760
904.981	17585
905.098	17471
905.216	17539
905.334	17455
905.451	17467
905.569	17463
905.686	17516
905.803	17532
905.921	17322
906.038	17383
906.155	17181
906.272	17170
906.389	17197
906.506	16968
906.623	17086
906.74	16965
906.857	16927
906.974	16904
907.091	17064
907.208	17227
907.324	17200
907.441	16938
907.557	16736
907.674	16710
907.79	16577
907.907	16759
908.023	16778
908.139	16694
908.256	16683
908.372	16729
908.488	16607
908.604	16455
908.72	16367
908.836	16512
908.952	16402
909.068	16500
909.184	16538
909.3	16489
909.415	16466
909.531	16440
909.647	16261
909.762	16173
909.878	16173
909.993	16139
910.108	16185
910.224	16090
910.339	16078
910.454	16032
910.57	16006
910.685	15956
910.8	16181
910.915	16063
911.03	15941
911.145	15812
911.259	15770
911.374	15766
911.489	15652
911.604	15595
911.718	15450
911.833	15587
911.947	15389
912.062	15393
912.176	15504
912.291	15466
912.405	15568
912.519	15603
912.633	15701
912.748	15538
912.862	15469
912.976	15374
913.09	15287
913.204	15313
913.318	15378
913.431	15473
913.545	15466
913.659	15443
913.772	15310
913.886	15275
914	15097
914.113	15100
914.226	15313
914.34	15184
914.453	15036
914.566	15085
914.68	15138
914.793	14918
914.906	14872
915.019	14842
915.132	14777
915.245	14800
915.358	14663
915.47	14750
915.583	14773
915.696	14834
915.809	14857
915.921	14925
916.034	14693
916.146	14644
916.259	14533
916.371	14796
916.483	14746
916.595	14621
916.708	14648
916.82	14556
916.932	14621
917.044	14564
917.156	14545
917.268	14355
917.38	14423
917.491	14377
917.603	14408
917.715	14480
917.826	14465
917.938	14324
918.049	14309
918.161	14328
918.272	14579
918.384	14412
918.495	14370
918.606	14138
918.717	14073
918.828	14256
918.939	14313
919.05	14210
919.161	14183
919.272	13951
919.383	13932
919.494	14271
919.604	14320
919.715	14206
919.826	14149
919.936	14145
920.047	14271
920.157	14077
920.267	14248
920.378	14168
920.488	14138
920.598	14381
920.708	14469
920.818	14317
920.928	14248
921.038	14473
921.148	14385
921.258	14180
921.368	14001
921.477	13856
921.587	13879
921.697	13769
921.806	14012
921.916	13693
922.025	13590
922.134	13537
922.244	13529
922.353	13552
922.462	13320
922.571	13270
922.68	13213
922.789	13152
922.898	13213
923.007	13118
923.116	13202
923.224	13179
923.333	13244
923.442	13217
923.55	12977
923.659	13057
923.767	13156
923.876	12985
923.984	13118
924.092	12901
924.201	13008
924.309	12935
924.417	12973
924.525	12863
924.633	12909
924.741	13803
924.849	12745
924.956	12821
925.064	12730
925.172	12604
925.279	12654
925.387	12772
925.494	12612
925.602	12791
925.709	12673
925.816	12540
925.924	12563
926.031	12627
926.138	12582
926.245	12646
926.352	12506
926.459	12631
926.566	12642
926.673	12490
926.779	12448
926.886	12418
926.993	12243
927.099	12228
927.206	12140
927.312	12102
927.419	12232
927.525	12144
927.631	12266
927.737	12091
927.843	12068
927.95	11916
928.056	11965
928.162	12133
928.267	12049
928.373	12570
928.479	12114
928.585	11912
928.69	11931
928.796	11965
928.901	11958
929.007	11836
929.112	11931
929.218	11824
929.323	11843
929.428	11771
929.533	11733
929.638	11676
929.743	11703
929.848	11718
929.953	11764
930.058	11558
930.163	11501
930.267	11395
930.372	11577
930.477	11398
930.581	11665
930.685	11478
930.79	11387
930.894	11318
930.998	11261
931.103	11471
931.207	11094
931.311	10984
931.415	10923
931.519	10786
931.623	10653
