Data from test_V78500241_1571.txt Node
Date: Fri Mar 25 15:20:47 CST 2022
User: usil
Spectrometer: V785-0024
Trigger mode: 0
Integration Time (sec): 4.000000E-1
Scans to average: 1
Nonlinearity correction enabled: false
Boxcar width: 0
Storing dark spectrum: false
XAxis mode: Wavelengths
Number of Pixels in Spectrum: 1024
>>>>>Begin Spectral Data<<<<<
801.071	28025
801.214	27873
801.356	27587
801.499	27606
801.641	27488
801.783	27477
801.926	27587
802.068	27610
802.211	27485
802.353	27363
802.496	27245
802.638	27180
802.78	27146
802.923	27066
803.065	27161
803.208	27146
803.35	27138
803.492	27275
803.635	27203
803.777	27291
803.919	27466
804.061	27606
804.204	27374
804.346	27355
804.488	27199
804.63	27336
804.773	27165
804.915	27195
805.057	27523
805.199	27325
805.341	27435
805.483	27572
805.626	27534
805.768	27443
805.91	27462
806.052	27481
806.194	27405
806.336	27686
806.478	27488
806.62	27469
806.762	27580
806.904	27660
807.046	27987
807.188	28048
807.33	27994
807.472	27964
807.614	27774
807.756	28002
807.898	27873
808.04	27770
808.182	27930
808.324	27747
808.465	27762
808.607	28044
808.749	28067
808.891	28295
809.033	28299
809.174	28169
809.316	28074
809.458	28162
809.6	28116
809.741	28101
809.883	28185
810.025	28413
810.166	28466
810.308	28440
810.45	28360
810.591	28443
810.733	28162
810.875	28215
811.016	28040
811.158	27964
811.299	28219
811.441	28367
811.582	28261
811.724	28086
811.865	28173
812.007	28059
812.148	27960
812.29	28109
812.431	28242
812.573	28432
812.714	28641
812.855	28580
812.997	28755
813.138	28847
813.279	28725
813.421	28733
813.562	28641
813.703	28519
813.845	28497
813.986	28131
814.127	27914
814.268	27865
814.41	27857
814.551	27797
814.692	27945
814.833	27739
814.974	27800
815.115	27793
815.256	27701
815.397	27671
815.539	27663
815.68	27545
815.821	27443
815.962	27724
816.103	27545
816.244	27466
816.385	27458
816.526	27351
816.666	27184
816.807	27036
816.948	27081
817.089	27264
817.23	27241
817.371	27119
817.512	27036
817.653	27009
817.793	27051
817.934	27226
818.075	27127
818.216	27176
818.356	27062
818.497	27039
818.638	26853
818.778	26880
818.919	26804
819.06	26982
819.2	27032
819.341	27237
819.481	27161
819.622	27260
819.762	27500
819.903	27408
820.043	27287
820.184	27135
820.324	27264
820.465	27222
820.605	27336
820.746	27157
820.886	27089
821.026	27230
821.167	27142
821.307	27291
821.447	27150
821.588	27058
821.728	26872
821.868	26663
822.008	26533
822.149	26735
822.289	26480
822.429	26271
822.569	26256
822.709	26282
822.849	26016
822.99	26084
823.13	26103
823.27	26096
823.41	25909
823.55	25712
823.69	25822
823.83	26050
823.97	25780
824.11	25639
824.25	25742
824.389	25795
824.529	25799
824.669	25807
824.809	25864
824.949	25784
825.089	25803
825.228	25693
825.368	25681
825.508	25681
825.648	25708
825.787	25655
825.927	25738
826.067	25529
826.206	25575
826.346	25647
826.485	25674
826.625	25613
826.765	25597
826.904	25651
827.044	25537
827.183	25464
827.323	25236
827.462	25419
827.601	25343
827.741	25304
827.88	25308
828.02	25183
828.159	25339
828.298	25327
828.437	25304
828.577	25228
828.716	25400
828.855	25209
828.994	25091
829.134	24935
829.273	24977
829.412	25000
829.551	24928
829.69	24992
829.829	25069
829.968	25004
830.107	25057
830.246	24871
830.385	24977
830.524	24894
830.663	24806
830.802	24730
830.941	24525
831.08	24711
831.219	24711
831.357	24711
831.496	24764
831.635	24764
831.774	24437
831.913	24536
832.051	24418
832.19	24483
832.329	24479
832.467	24323
832.606	24205
832.744	24213
832.883	24205
833.022	24205
833.16	24300
833.299	24273
833.437	24330
833.576	24391
833.714	24372
833.852	24391
833.991	24517
834.129	24532
834.267	24502
834.406	24369
834.544	24433
834.682	24205
834.821	24357
834.959	24490
835.097	24228
835.235	24357
835.373	24410
835.511	24300
835.65	24247
835.788	24243
835.926	24095
836.064	23992
836.202	23950
836.34	24136
836.478	24296
836.615	24140
836.753	24114
836.891	24239
837.029	24129
837.167	24026
837.305	24159
837.443	24022
837.58	24011
837.718	24057
837.856	24041
837.993	23954
838.131	24022
838.269	23897
838.406	23920
838.544	23859
838.681	23771
838.819	23665
838.956	23463
839.094	23387
839.231	23551
839.369	23657
839.506	23958
839.643	23577
839.781	23577
839.918	23539
840.055	23417
840.193	23505
840.33	23391
840.467	23429
840.604	23395
840.742	23630
840.879	23299
841.016	23330
841.153	23299
841.29	23436
841.427	23330
841.564	23402
841.701	23421
841.838	23353
841.975	23265
842.112	23391
842.249	23098
842.385	23105
842.522	23376
842.659	23231
842.796	23056
842.933	23239
843.069	23041
843.206	23090
843.343	23064
843.479	23166
843.616	23151
843.752	22968
843.889	23064
844.025	22987
844.162	22858
844.298	23010
844.435	22892
844.571	22953
844.708	23010
844.844	22991
844.98	23121
845.117	22911
845.253	22904
845.389	22778
845.525	22740
845.661	22759
845.798	22664
845.934	22656
846.07	22691
846.206	22687
846.342	22694
846.478	22630
846.614	22485
846.75	22402
846.886	22265
847.022	22375
847.158	22485
847.294	22382
847.429	22409
847.565	22363
847.701	22588
847.837	22093
847.972	22090
848.108	22143
848.244	22318
848.379	22051
848.515	21892
848.65	21895
848.786	21994
848.921	22078
849.057	21983
849.192	22010
849.328	21956
849.463	21884
849.598	21945
849.734	21842
849.869	21899
850.004	21610
850.14	21724
850.275	21633
850.41	21667
850.545	21751
850.68	21599
850.815	21850
850.95	21675
851.085	22025
851.22	21854
851.355	21762
851.49	21648
851.625	21679
851.76	21682
851.895	21549
852.03	21660
852.165	21667
852.299	21705
852.434	21823
852.569	21732
852.703	21797
852.838	21812
852.973	21930
853.107	21857
853.242	21603
853.376	21580
853.511	21507
853.645	21526
853.78	21652
853.914	21663
854.048	21485
854.183	21549
854.317	21622
854.451	21709
854.585	21549
854.72	21561
854.854	21557
854.988	21515
855.122	21580
855.256	21302
855.39	21397
855.524	21641
855.658	21622
855.792	21663
855.926	21511
856.06	21591
856.194	21736
856.327	21526
856.461	21378
856.595	21553
856.729	21549
856.862	21663
856.996	21652
857.13	21686
857.263	21690
857.397	21641
857.53	21618
857.664	21587
857.797	21641
857.931	21599
858.064	21633
858.197	21629
858.331	21507
858.464	21500
858.597	21492
858.731	21435
858.864	21564
858.997	21500
859.13	21507
859.263	21500
859.396	21675
859.529	21420
859.662	21351
859.795	21500
859.928	21504
860.061	21610
860.194	21736
860.327	21583
860.46	21595
860.592	21728
860.725	21622
860.858	21698
860.99	21534
861.123	21587
861.256	21466
861.388	21530
861.521	22086
861.653	21477
861.786	21458
861.918	21462
862.05	21431
862.183	21488
862.315	21507
862.447	21488
862.58	21504
862.712	21294
862.844	21104
862.976	21302
863.108	21351
863.24	21622
863.372	21180
863.504	21241
863.636	21161
863.768	21321
863.9	21260
864.032	21104
864.164	21245
864.296	21241
864.428	21367
864.559	21329
864.691	21195
864.823	21211
864.954	21233
865.086	21268
865.217	21081
865.349	21192
865.48	21119
865.612	21123
865.743	21195
865.875	21074
866.006	21222
866.137	21074
866.269	21051
866.4	21077
866.531	21047
866.662	21093
866.793	21085
866.924	21123
867.055	21066
867.186	21070
867.317	21085
867.448	21013
867.579	21039
867.71	21005
867.841	20967
867.972	21085
868.103	20921
868.233	21108
868.364	20975
868.495	21127
868.625	21275
868.756	21351
868.886	21226
869.017	21386
869.147	21378
869.278	21500
869.408	21298
869.539	21351
869.669	21348
869.799	21317
869.929	21405
870.06	21530
870.19	21587
870.32	21553
870.45	21587
870.58	21667
870.71	21679
870.84	21759
870.97	21648
871.1	21778
871.23	21941
871.36	21838
871.489	21739
871.619	21812
871.749	21884
871.879	21964
872.008	21979
872.138	21903
872.267	21869
872.397	21614
872.526	21751
872.656	21747
872.785	21663
872.915	22021
873.044	22040
873.173	21827
873.303	21915
873.432	21911
873.561	21968
873.69	22032
873.819	21953
873.948	22139
874.077	21975
874.206	21766
874.335	21854
874.464	21975
874.593	22105
874.722	22055
874.851	22116
874.979	22139
875.108	22173
875.237	22154
875.365	22120
875.494	22036
875.623	22333
875.751	22048
875.88	22150
876.008	22287
876.136	22200
876.265	22481
876.393	22683
876.521	22466
876.65	22653
876.778	22535
876.906	22409
877.034	22462
877.162	22386
877.29	22493
877.418	22531
877.546	22535
877.674	22489
877.802	22561
877.93	22557
878.058	22417
878.185	22386
878.313	22417
878.441	22542
878.568	22249
878.696	22443
878.824	22523
878.951	22531
879.079	22771
879.206	22873
879.333	22630
879.461	22382
879.588	22660
879.715	22637
879.842	22809
879.97	22440
880.097	22367
880.224	22154
880.351	22318
880.478	22421
880.605	22348
880.732	22204
880.859	22634
880.986	22402
881.112	22238
881.239	22185
881.366	22074
881.493	21842
881.619	21846
881.746	21918
881.872	21873
881.999	21842
882.125	21762
882.252	21915
882.378	21892
882.505	21964
882.631	21732
882.757	21648
882.883	21755
883.01	21728
883.136	21466
883.262	21416
883.388	21329
883.514	21603
883.64	21530
883.766	21538
883.892	21351
884.018	21382
884.143	21466
884.269	21614
884.395	21207
884.52	21112
884.646	21207
884.772	21169
884.897	21169
885.023	21348
885.148	21351
885.274	21405
885.399	21268
885.524	21135
885.65	21279
885.775	21150
885.9	21195
886.025	21321
886.15	21321
886.275	21169
886.4	21119
886.525	21127
886.65	21146
886.775	21165
886.9	21382
887.025	21458
887.149	21157
887.274	20914
887.399	20956
887.523	21108
887.648	20994
887.773	20838
887.897	21028
888.021	20998
888.146	20979
888.27	20960
888.395	20967
888.519	20944
888.643	21001
888.767	21024
888.891	20845
889.015	20788
889.139	20849
889.263	20670
889.387	20845
889.511	20982
889.635	20883
889.759	20815
889.883	20705
890.006	20701
890.13	20857
890.254	20697
890.377	20625
890.501	20579
890.624	20537
890.748	20590
890.871	20408
890.995	20339
891.118	20286
891.241	20366
891.364	20412
891.488	20518
891.611	20370
891.734	20309
891.857	20480
891.98	20400
892.103	20412
892.226	20374
892.349	20248
892.471	20077
892.594	20278
892.717	20389
892.839	20183
892.962	20172
893.085	20408
893.207	20313
893.33	20149
893.452	20180
893.575	20412
893.697	20191
893.819	20423
893.941	20404
894.064	20233
894.186	20199
894.308	20195
894.43	20434
894.552	20389
894.674	20339
894.796	20161
894.918	20210
895.04	20069
895.161	20263
895.283	20294
895.405	20294
895.526	20275
895.648	20248
895.769	20221
895.891	20324
896.012	20317
896.134	20317
896.255	20313
896.376	20176
896.498	20202
896.619	20183
896.74	20130
896.861	20271
896.982	20545
897.103	20731
897.224	20583
897.345	20480
897.466	20309
897.587	20446
897.708	20670
897.828	20393
897.949	20465
898.07	20305
898.19	20351
898.311	20511
898.431	20461
898.552	20419
898.672	20575
898.792	20419
898.913	20404
899.033	20393
899.153	20195
899.273	20138
899.393	20271
899.513	20233
899.633	20252
899.753	20233
899.873	20202
899.993	20202
900.113	20134
900.232	20164
900.352	20157
900.472	19944
900.591	19913
900.711	19997
900.83	20027
900.95	20024
901.069	20039
901.189	19898
901.308	19674
901.427	19586
901.546	19616
901.665	19628
901.784	19559
901.904	19415
902.023	19350
902.141	19156
902.26	19148
902.379	19118
902.498	19004
902.617	19076
902.735	19129
902.854	18954
902.973	19034
903.091	18798
903.21	18741
903.328	18852
903.446	18703
903.565	18532
903.683	18490
903.801	18460
903.919	18528
904.038	18498
904.156	18254
904.274	18399
904.392	18346
904.51	18361
904.627	18296
904.745	18361
904.863	18410
904.981	18057
905.098	18057
905.216	17935
905.334	18038
905.451	18038
905.569	17950
905.686	18072
905.803	17935
905.921	17824
906.038	17813
906.155	17775
906.272	17714
906.389	17623
906.506	17535
906.623	17474
906.74	17600
906.857	17402
906.974	17349
907.091	17611
907.208	17665
907.324	17687
907.441	17417
907.557	17414
907.674	17204
907.79	17151
907.907	17273
908.023	17242
908.139	17318
908.256	17185
908.372	17109
908.488	17117
908.604	17033
908.72	16835
908.836	16927
908.952	16934
909.068	16984
909.184	17052
909.3	17025
909.415	16919
909.531	16930
909.647	16782
909.762	16588
909.878	16607
909.993	16683
910.108	16660
910.224	16596
910.339	16683
910.454	16489
910.57	16504
910.685	16341
910.8	16626
910.915	16626
911.03	16417
911.145	16360
911.259	16265
911.374	16356
911.489	16192
911.604	16063
911.718	15945
911.833	16013
911.947	15774
912.062	15869
912.176	15895
912.291	15994
912.405	16032
912.519	16131
912.633	16226
912.748	16063
912.862	15926
912.976	15808
913.09	15762
913.204	15793
913.318	15724
913.431	15888
913.545	15812
913.659	15888
913.772	15808
913.886	15675
914	15572
914.113	15724
914.226	15755
914.34	15690
914.453	15485
914.566	15557
914.68	15572
914.793	15473
914.906	15230
915.019	15256
915.132	15237
915.245	15233
915.358	15249
915.47	15161
915.583	15344
915.696	15195
915.809	15260
915.921	15272
916.034	15188
916.146	15093
916.259	15081
916.371	15142
916.483	15192
916.595	14933
916.708	15028
916.82	15119
916.932	14914
917.044	14979
917.156	14941
917.268	14807
917.38	14853
917.491	14807
917.603	14838
917.715	14963
917.826	14956
917.938	14781
918.049	14720
918.161	14819
918.272	14853
918.384	14967
918.495	14777
918.606	14678
918.717	14518
918.828	14655
918.939	14636
919.05	14511
919.161	14598
919.272	14412
919.383	14571
919.494	14632
919.604	14712
919.715	14629
919.826	14556
919.936	14541
920.047	14590
920.157	14602
920.267	14735
920.378	14511
920.488	14503
920.598	14739
920.708	14910
920.818	14746
920.928	14777
921.038	14773
921.148	14746
921.258	14530
921.368	14461
921.477	14404
921.587	14328
921.697	14145
921.806	14355
921.916	14157
922.025	14024
922.134	13982
922.244	13913
922.353	14035
922.462	13860
922.571	13784
922.68	13624
922.789	13594
922.898	13556
923.007	13597
923.116	13620
923.224	13613
923.333	13533
923.442	13411
923.55	13483
923.659	13403
923.767	13518
923.876	13388
923.984	13502
924.092	13346
924.201	13365
924.309	13350
924.417	13335
924.525	13293
924.633	13282
924.741	14008
924.849	13042
924.956	13164
925.064	13019
925.172	12901
925.279	12954
925.387	12932
925.494	13053
925.602	13091
925.709	13031
925.816	12894
925.924	12985
926.031	13004
926.138	12924
926.245	13031
926.352	12859
926.459	12973
926.566	13061
926.673	12932
926.779	12783
926.886	12798
926.993	12635
927.099	12513
927.206	12471
927.312	12540
927.419	12578
927.525	12498
927.631	12578
927.737	12391
927.843	12384
927.95	12342
928.056	12376
928.162	12403
928.267	12403
928.373	12985
928.479	12479
928.585	12266
928.69	12334
928.796	12384
928.901	12308
929.007	12213
929.112	12216
929.218	12228
929.323	12144
929.428	12102
929.533	12197
929.638	12057
929.743	12083
929.848	12133
929.953	12038
930.058	11882
930.163	11824
930.267	11794
930.372	11999
930.477	11703
930.581	12030
930.685	11824
930.79	11649
930.894	11710
930.998	11634
931.103	11832
931.207	11486
931.311	11372
931.415	11261
931.519	11098
931.623	10980
