Data from test_V78500241_129.txt Node
Date: Fri Mar 25 15:10:45 CST 2022
User: usil
Spectrometer: V785-0024
Trigger mode: 0
Integration Time (sec): 4.000000E-1
Scans to average: 1
Nonlinearity correction enabled: false
Boxcar width: 0
Storing dark spectrum: false
XAxis mode: Wavelengths
Number of Pixels in Spectrum: 1024
>>>>>Begin Spectral Data<<<<<
801.071	28287
801.214	28063
801.356	27953
801.499	27926
801.641	27747
801.783	27884
801.926	27892
802.068	27800
802.211	27816
802.353	27572
802.496	27515
802.638	27496
802.78	27454
802.923	27306
803.065	27408
803.208	27401
803.35	27393
803.492	27564
803.635	27644
803.777	27374
803.919	27507
804.061	27747
804.204	27545
804.346	27355
804.488	27317
804.63	27401
804.773	27317
804.915	27416
805.057	27553
805.199	27412
805.341	27690
805.483	27606
805.626	27622
805.768	27325
805.91	27526
806.052	27587
806.194	27557
806.336	27823
806.478	27492
806.62	27644
806.762	27583
806.904	27717
807.046	27899
807.188	28032
807.33	28036
807.472	27819
807.614	27759
807.756	27827
807.898	27797
808.04	27633
808.182	27732
808.324	27595
808.465	27614
808.607	27854
808.749	28150
808.891	28082
809.033	28211
809.174	28204
809.316	28097
809.458	28082
809.6	28078
809.741	28185
809.883	28219
810.025	28246
810.166	28299
810.308	28120
810.45	28284
810.591	28150
810.733	28257
810.875	28109
811.016	27968
811.158	28002
811.299	27968
811.441	28109
811.582	28150
811.724	27934
811.865	28006
812.007	28010
812.148	27918
812.29	28150
812.431	28051
812.573	28352
812.714	28478
812.855	28413
812.997	28538
813.138	28862
813.279	28588
813.421	28527
813.562	28436
813.703	28401
813.845	28265
813.986	27903
814.127	27804
814.268	27701
814.41	27675
814.551	27663
814.692	27698
814.833	27599
814.974	27591
815.115	27660
815.256	27557
815.397	27462
815.539	27526
815.68	27389
815.821	27466
815.962	27317
816.103	27424
816.244	27203
816.385	27051
816.526	27176
816.666	26902
816.807	26800
816.948	26845
817.089	26918
817.23	26800
817.371	26746
817.512	26777
817.653	26826
817.793	26743
817.934	26861
818.075	26788
818.216	26754
818.356	26598
818.497	26659
818.638	26484
818.778	26427
818.919	26473
819.06	26423
819.2	26579
819.341	26632
819.481	26845
819.622	26823
819.762	27039
819.903	26887
820.043	26872
820.184	26834
820.324	26781
820.465	26785
820.605	26754
820.746	26712
820.886	26560
821.026	26842
821.167	26644
821.307	26758
821.447	26667
821.588	26571
821.728	26415
821.868	26381
822.008	26187
822.149	26142
822.289	26172
822.429	25951
822.569	25860
822.709	25765
822.849	25666
822.99	25613
823.13	25491
823.27	25449
823.41	25384
823.55	25289
823.69	25407
823.83	25358
823.97	25327
824.11	25179
824.25	25259
824.389	25255
824.529	25335
824.669	25247
824.809	25259
824.949	25217
825.089	25388
825.228	25164
825.368	25069
825.508	24992
825.648	25069
825.787	25069
825.927	25042
826.067	25000
826.206	25019
826.346	25050
826.485	25122
826.625	25088
826.765	25004
826.904	25057
827.044	24798
827.183	24715
827.323	24760
827.462	24719
827.601	24753
827.741	24692
827.88	24783
828.02	24536
828.159	24578
828.298	24646
828.437	24681
828.577	24559
828.716	24738
828.855	24593
828.994	24342
829.134	24369
829.273	24456
829.412	24403
829.551	24254
829.69	24410
829.829	24376
829.968	24319
830.107	24456
830.246	24414
830.385	24270
830.524	24254
830.663	24201
830.802	24011
830.941	23866
831.08	23798
831.219	24057
831.357	24117
831.496	24076
831.635	23737
831.774	23771
831.913	23859
832.051	23665
832.19	23661
832.329	23722
832.467	23611
832.606	23562
832.744	23547
832.883	23570
833.022	23585
833.16	23653
833.299	23615
833.437	23493
833.576	23604
833.714	23653
833.852	23737
833.991	23592
834.129	23684
834.267	23668
834.406	23577
834.544	23551
834.682	23623
834.821	23516
834.959	23756
835.097	23535
835.235	23505
835.373	23436
835.511	23509
835.65	23292
835.788	23425
835.926	23288
836.064	23147
836.202	23235
836.34	23395
836.478	23482
836.615	23436
836.753	23349
836.891	23463
837.029	23368
837.167	23486
837.305	23223
837.443	23307
837.58	23326
837.718	23303
837.856	23246
837.993	23216
838.131	23212
838.269	23124
838.406	23048
838.544	22965
838.681	22866
838.819	22873
838.956	22698
839.094	22736
839.231	22740
839.369	22915
839.506	23003
839.643	22927
839.781	22755
839.918	22611
840.055	22622
840.193	22512
840.33	22504
840.467	22561
840.604	22660
840.742	22748
840.879	22421
841.016	22451
841.153	22424
841.29	22694
841.427	22519
841.564	22577
841.701	22519
841.838	22470
841.975	22447
842.112	22413
842.249	22367
842.385	22379
842.522	22557
842.659	22360
842.796	22242
842.933	22261
843.069	22166
843.206	22215
843.343	22242
843.479	22234
843.616	22306
843.752	22078
843.889	22025
844.025	22139
844.162	21983
844.298	22090
844.435	22078
844.571	21979
844.708	22067
844.844	22200
844.98	21983
845.117	22086
845.253	21930
845.389	21850
845.525	21899
845.661	21907
845.798	21812
845.934	21770
846.07	21694
846.206	21808
846.342	21895
846.478	21625
846.614	21591
846.75	21462
846.886	21443
847.022	21515
847.158	21580
847.294	21454
847.429	21389
847.565	21557
847.701	21610
847.837	21245
847.972	21180
848.108	21237
848.244	21344
848.379	21043
848.515	20982
848.65	21123
848.786	21051
848.921	21032
849.057	21150
849.192	21066
849.328	21100
849.463	21047
849.598	20994
849.734	20842
849.869	20830
850.004	20826
850.14	20785
850.275	20823
850.41	20731
850.545	20682
850.68	20746
850.815	20648
850.95	20781
851.085	20819
851.22	20823
851.355	20777
851.49	20762
851.625	20788
851.76	20697
851.895	20693
852.03	20659
852.165	20579
852.299	20708
852.434	20842
852.569	20693
852.703	20781
852.838	20785
852.973	20887
853.107	20925
853.242	20716
853.376	20533
853.511	20518
853.645	20674
853.78	20632
853.914	20537
854.048	20644
854.183	20564
854.317	20712
854.451	20781
854.585	20579
854.72	20667
854.854	20571
854.988	20541
855.122	20602
855.256	20374
855.39	20537
855.524	20686
855.658	20583
855.792	20606
855.926	20716
856.06	20663
856.194	20716
856.327	20568
856.461	20473
856.595	20476
856.729	20526
856.862	20708
856.996	20617
857.13	20701
857.263	20667
857.397	20663
857.53	20480
857.664	20762
857.797	20636
857.931	20659
858.064	20609
858.197	20727
858.331	20503
858.464	20438
858.597	20427
858.731	20541
858.864	20434
858.997	20457
859.13	20655
859.263	20503
859.396	20613
859.529	20370
859.662	20473
859.795	20488
859.928	20552
860.061	20693
860.194	20705
860.327	20632
860.46	20575
860.592	20636
860.725	20667
860.858	20701
860.99	20549
861.123	20358
861.256	20408
861.388	20541
861.521	21283
861.653	20492
861.786	20370
861.918	20362
862.05	20602
862.183	20480
862.315	20594
862.447	20530
862.58	20613
862.712	20271
862.844	20221
862.976	20389
863.108	20275
863.24	20720
863.372	20172
863.504	20320
863.636	20062
863.768	20263
863.9	20221
864.032	20058
864.164	20157
864.296	20252
864.428	20393
864.559	20267
864.691	20259
864.823	20206
864.954	20153
865.086	20062
865.217	20172
865.349	20180
865.48	20084
865.612	20100
865.743	20343
865.875	20180
866.006	20058
866.137	20134
866.269	19989
866.4	20043
866.531	20103
866.662	19997
866.793	19982
866.924	20149
867.055	20180
867.186	19982
867.317	20126
867.448	19970
867.579	20020
867.71	19993
867.841	19894
867.972	20100
868.103	20031
868.233	20043
868.364	20035
868.495	20134
868.625	20290
868.756	20362
868.886	20256
869.017	20221
869.147	20469
869.278	20313
869.408	20298
869.539	20294
869.669	20347
869.799	20301
869.929	20389
870.06	20438
870.19	20587
870.32	20705
870.45	20609
870.58	20739
870.71	20792
870.84	20800
870.97	20663
871.1	20693
871.23	20845
871.36	20910
871.489	20807
871.619	20868
871.749	20933
871.879	20921
872.008	20864
872.138	20910
872.267	20819
872.397	20777
872.526	20735
872.656	20754
872.785	20735
872.915	20845
873.044	20994
873.173	20937
873.303	20956
873.432	20876
873.561	20979
873.69	20929
873.819	21058
873.948	20948
874.077	20960
874.206	20807
874.335	20887
874.464	21055
874.593	21138
874.722	21119
874.851	21180
874.979	21203
875.108	21142
875.237	21214
875.365	21036
875.494	21161
875.623	21294
875.751	21123
875.88	21184
876.008	21173
876.136	21294
876.265	21561
876.393	21743
876.521	21587
876.65	21625
876.778	21473
876.906	21462
877.034	21492
877.162	21549
877.29	21416
877.418	21477
877.546	21488
877.674	21473
877.802	21492
877.93	21500
878.058	21454
878.185	21420
878.313	21412
878.441	21405
878.568	21325
878.696	21469
878.824	21458
878.951	21504
879.079	21450
879.206	21884
879.333	21656
879.461	21515
879.588	21599
879.715	21641
879.842	21823
879.97	21667
880.097	21275
880.224	21275
880.351	21325
880.478	21492
880.605	21195
880.732	21233
880.859	21538
880.986	21382
881.112	21386
881.239	21237
881.366	21043
881.493	21062
881.619	20883
881.746	21066
881.872	20952
881.999	20891
882.125	20785
882.252	20956
882.378	20872
882.505	21005
882.631	20876
882.757	20667
882.883	20674
883.01	20754
883.136	20499
883.262	20438
883.388	20495
883.514	20731
883.64	20705
883.766	20564
883.892	20484
884.018	20511
884.143	20514
884.269	20686
884.395	20408
884.52	20275
884.646	20351
884.772	20252
884.897	20092
885.023	20259
885.148	20370
885.274	20457
885.399	20263
885.524	20412
885.65	20206
885.775	20332
885.9	20358
886.025	20358
886.15	20320
886.275	20259
886.4	20195
886.525	20263
886.65	20278
886.775	20199
886.9	20282
887.025	20507
887.149	20320
887.274	20058
887.399	20073
887.523	19951
887.648	20012
887.773	19989
887.897	20187
888.021	20084
888.146	19982
888.27	20168
888.395	20126
888.519	20138
888.643	20088
888.767	20043
888.891	19947
889.015	19772
889.139	19830
889.263	19776
889.387	19811
889.511	20161
889.635	20119
889.759	19803
889.883	19719
890.006	19967
890.13	19887
890.254	19738
890.377	19780
890.501	19594
890.624	19544
890.748	19575
890.871	19518
890.995	19396
891.118	19327
891.241	19422
891.364	19460
891.488	19514
891.611	19426
891.734	19449
891.857	19495
891.98	19544
892.103	19400
892.226	19499
892.349	19525
892.471	19312
892.594	19403
892.717	19426
892.839	19324
892.962	19407
893.085	19468
893.207	19297
893.33	19232
893.452	19160
893.575	19369
893.697	19373
893.819	19506
893.941	19499
894.064	19434
894.186	19297
894.308	19244
894.43	19537
894.552	19537
894.674	19449
894.796	19301
894.918	19301
895.04	19335
895.161	19335
895.283	19354
895.405	19304
895.526	19434
895.648	19316
895.769	19377
895.891	19308
896.012	19464
896.134	19350
896.255	19358
896.376	19365
896.498	19381
896.619	19396
896.74	19308
896.861	19563
896.982	19753
897.103	19940
897.224	19788
897.345	19605
897.466	19609
897.587	19628
897.708	19772
897.828	19620
897.949	19506
898.07	19460
898.19	19495
898.311	19674
898.431	19521
898.552	19540
898.672	19658
898.792	19635
898.913	19518
899.033	19502
899.153	19327
899.273	19373
899.393	19278
899.513	19365
899.633	19255
899.753	19278
899.873	19320
899.993	19327
900.113	19175
900.232	19297
900.352	19247
900.472	19129
900.591	19168
900.711	19091
900.83	19091
900.95	19145
901.069	19114
901.189	19122
901.308	18928
901.427	18734
901.546	18738
901.665	18700
901.784	18787
901.904	18563
902.023	18547
902.141	18235
902.26	18178
902.379	18235
902.498	18171
902.617	18136
902.735	18308
902.854	18152
902.973	18034
903.091	17866
903.21	17885
903.328	17901
903.446	17878
903.565	17760
903.683	17745
903.801	17687
903.919	17668
904.038	17668
904.156	17455
904.274	17535
904.392	17448
904.51	17467
904.627	17425
904.745	17509
904.863	17471
904.981	17254
905.098	17227
905.216	17121
905.334	17193
905.451	17178
905.569	17090
905.686	17147
905.803	17159
905.921	16904
906.038	17010
906.155	16812
906.272	16752
906.389	16873
906.506	16622
906.623	16748
906.74	16535
906.857	16630
906.974	16542
907.091	16706
907.208	16767
907.324	16767
907.441	16538
907.557	16390
907.674	16417
907.79	16402
907.907	16352
908.023	16295
908.139	16230
908.256	16310
908.372	16314
908.488	16246
908.604	16074
908.72	15979
908.836	16044
908.952	16013
909.068	15941
909.184	16223
909.3	16040
909.415	16071
909.531	16040
909.647	15895
909.762	15743
909.878	15698
909.993	15827
910.108	15637
910.224	15739
910.339	15686
910.454	15572
910.57	15568
910.685	15568
910.8	15835
910.915	15747
911.03	15553
911.145	15412
911.259	15370
911.374	15431
911.489	15306
911.604	15287
911.718	15097
911.833	15157
911.947	14906
912.062	14845
912.176	15081
912.291	15005
912.405	15039
912.519	15218
912.633	15150
912.748	15112
912.862	15062
912.976	14921
913.09	14830
913.204	14845
913.318	14899
913.431	15081
913.545	14990
913.659	14929
913.772	14906
913.886	14731
914	14686
914.113	14838
914.226	14845
914.34	14819
914.453	14636
914.566	14674
914.68	14693
914.793	14663
914.906	14511
915.019	14469
915.132	14374
915.245	14377
915.358	14457
915.47	14408
915.583	14351
915.696	14457
915.809	14450
915.921	14434
916.034	14347
916.146	14206
916.259	14313
916.371	14301
916.483	14202
916.595	14221
916.708	14199
916.82	14214
916.932	14161
917.044	14126
917.156	14119
917.268	13978
917.38	14065
917.491	13947
917.603	14065
917.715	14084
917.826	14111
917.938	14016
918.049	14050
918.161	14005
918.272	14145
918.384	14134
918.495	13921
918.606	13811
918.717	13708
918.828	13811
918.939	13761
919.05	13677
919.161	13750
919.272	13575
919.383	13658
919.494	13890
919.604	13921
919.715	13731
919.826	13643
919.936	13765
920.047	13822
920.157	13769
920.267	13936
920.378	13757
920.488	13750
920.598	13989
920.708	14054
920.818	13864
920.928	13875
921.038	14172
921.148	13955
921.258	13639
921.368	13597
921.477	13487
921.587	13464
921.697	13346
921.806	13655
921.916	13384
922.025	13304
922.134	13152
922.244	13076
922.353	13213
922.462	13046
922.571	12962
922.68	12821
922.789	12810
922.898	12745
923.007	12760
923.116	12757
923.224	12745
923.333	12814
923.442	12616
923.55	12616
923.659	12604
923.767	12692
923.876	12631
923.984	12612
924.092	12528
924.201	12570
924.309	12525
924.417	12544
924.525	12433
924.633	12502
924.741	13141
924.849	12346
924.956	12433
925.064	12228
925.172	12171
925.279	12186
925.387	12197
925.494	12201
925.602	12350
925.709	12323
925.816	12163
925.924	12167
926.031	12239
926.138	12292
926.245	12247
926.352	12102
926.459	12266
926.566	12251
926.673	12159
926.779	12072
926.886	11923
926.993	11847
927.099	11813
927.206	11817
927.312	11821
927.419	11935
927.525	11790
927.631	11870
927.737	11745
927.843	11726
927.95	11581
928.056	11668
928.162	11710
928.267	11771
928.373	12216
928.479	11726
928.585	11474
928.69	11619
928.796	11646
928.901	11493
929.007	11406
929.112	11532
929.218	11558
929.323	11387
929.428	11417
929.533	11573
929.638	11345
929.743	11364
929.848	11505
929.953	11311
930.058	11334
930.163	11105
930.267	11193
930.372	11235
930.477	11056
930.581	11277
930.685	11181
930.79	11025
930.894	11064
930.998	10987
931.103	11052
931.207	10736
931.311	10618
931.415	10615
931.519	10310
931.623	10344
