Data from test_V78500241_2903.txt Node
Date: Fri Mar 25 15:30:04 CST 2022
User: usil
Spectrometer: V785-0024
Trigger mode: 0
Integration Time (sec): 4.000000E-1
Scans to average: 1
Nonlinearity correction enabled: false
Boxcar width: 0
Storing dark spectrum: false
XAxis mode: Wavelengths
Number of Pixels in Spectrum: 1024
>>>>>Begin Spectral Data<<<<<
801.071	27226
801.214	27127
801.356	26838
801.499	26845
801.641	26731
801.783	26735
801.926	26796
802.068	26720
802.211	26606
802.353	26731
802.496	26450
802.638	26355
802.78	26438
802.923	26343
803.065	26244
803.208	26259
803.35	26415
803.492	26484
803.635	26518
803.777	26469
803.919	26431
804.061	26823
804.204	26735
804.346	26495
804.488	26343
804.63	26556
804.773	26533
804.915	26587
805.057	26648
805.199	26514
805.341	26606
805.483	26617
805.626	26549
805.768	26465
805.91	26625
806.052	26632
806.194	26545
806.336	26682
806.478	26651
806.62	26701
806.762	26750
806.904	26743
807.046	27100
807.188	27100
807.33	27039
807.472	27066
807.614	27024
807.756	26960
807.898	26925
808.04	26826
808.182	26895
808.324	26967
808.465	26963
808.607	27020
808.749	27302
808.891	27325
809.033	27427
809.174	27096
809.316	27260
809.458	27157
809.6	27233
809.741	27374
809.883	27283
810.025	27625
810.166	27466
810.308	27454
810.45	27397
810.591	27416
810.733	27192
810.875	27317
811.016	27272
811.158	27135
811.299	27420
811.441	27329
811.582	27348
811.724	27298
811.865	27146
812.007	27237
812.148	27112
812.29	27279
812.431	27481
812.573	27511
812.714	27690
812.855	27797
812.997	27637
813.138	27865
813.279	27724
813.421	27884
813.562	27850
813.703	27564
813.845	27481
813.986	27074
814.127	26906
814.268	26990
814.41	26880
814.551	27005
814.692	26975
814.833	26762
814.974	26895
815.115	26986
815.256	26773
815.397	26746
815.539	26804
815.68	26735
815.821	26541
815.962	26659
816.103	26621
816.244	26503
816.385	26453
816.526	26381
816.666	26237
816.807	26172
816.948	26252
817.089	26267
817.23	26183
817.371	26176
817.512	26016
817.653	26050
817.793	26092
817.934	26138
818.075	26187
818.216	26122
818.356	26115
818.497	25955
818.638	25890
818.778	25936
818.919	25993
819.06	25989
819.2	25909
819.341	26046
819.481	26161
819.622	26214
819.762	26427
819.903	26404
820.043	26199
820.184	26240
820.324	26164
820.465	26374
820.605	26164
820.746	26221
820.886	26115
821.026	26309
821.167	26202
821.307	26187
821.447	26122
821.588	25951
821.728	25963
821.868	25780
822.008	25639
822.149	25582
822.289	25681
822.429	25434
822.569	25304
822.709	25282
822.849	25126
822.99	25110
823.13	25145
823.27	25126
823.41	24981
823.55	24852
823.69	24939
823.83	24939
823.97	24821
824.11	24688
824.25	24707
824.389	24635
824.529	24825
824.669	24715
824.809	24730
824.949	24726
825.089	24817
825.228	24760
825.368	24582
825.508	24559
825.648	24646
825.787	24700
825.927	24608
826.067	24589
826.206	24654
826.346	24555
826.485	24578
826.625	24574
826.765	24715
826.904	24639
827.044	24422
827.183	24384
827.323	24334
827.462	24251
827.601	24327
827.741	24323
827.88	24319
828.02	24174
828.159	24228
828.298	24342
828.437	24391
828.577	24315
828.716	24410
828.855	24125
828.994	24091
829.134	23973
829.273	24167
829.412	23942
829.551	23878
829.69	24038
829.829	24034
829.968	24083
830.107	24018
830.246	24076
830.385	23836
830.524	23912
830.663	23889
830.802	23737
830.941	23558
831.08	23566
831.219	23581
831.357	23657
831.496	23927
831.635	23581
831.774	23589
831.913	23551
832.051	23463
832.19	23410
832.329	23417
832.467	23261
832.606	23113
832.744	23155
832.883	23162
833.022	23200
833.16	23292
833.299	23368
833.437	23326
833.576	23337
833.714	23292
833.852	23490
833.991	23417
834.129	23349
834.267	23429
834.406	23322
834.544	23402
834.682	23231
834.821	23345
834.959	23573
835.097	23280
835.235	23414
835.373	23364
835.511	23273
835.65	23189
835.788	23303
835.926	23075
836.064	22930
836.202	22942
836.34	23178
836.478	23254
836.615	23151
836.753	23121
836.891	23242
837.029	23212
837.167	23098
837.305	23086
837.443	23147
837.58	22869
837.718	23064
837.856	23025
837.993	22987
838.131	23048
838.269	22923
838.406	22957
838.544	22828
838.681	22641
838.819	22596
838.956	22474
839.094	22481
839.231	22561
839.369	22622
839.506	22854
839.643	22702
839.781	22584
839.918	22303
840.055	22451
840.193	22436
840.33	22447
840.467	22348
840.604	22523
840.742	22687
840.879	22238
841.016	22310
841.153	22242
841.29	22485
841.427	22348
841.564	22375
841.701	22489
841.838	22276
841.975	22249
842.112	22344
842.249	22177
842.385	22287
842.522	22459
842.659	22230
842.796	22169
842.933	22192
843.069	22109
843.206	22158
843.343	22147
843.479	22154
843.616	22109
843.752	21926
843.889	21964
844.025	22074
844.162	21964
844.298	22067
844.435	21895
844.571	21949
844.708	21907
844.844	21987
844.98	22025
845.117	22109
845.253	21873
845.389	21789
845.525	21842
845.661	21739
845.798	21679
845.934	21736
846.07	21515
846.206	21656
846.342	21781
846.478	21724
846.614	21549
846.75	21374
846.886	21469
847.022	21466
847.158	21481
847.294	21401
847.429	21545
847.565	21329
847.701	21682
847.837	21116
847.972	21055
848.108	21169
848.244	21211
848.379	21066
848.515	20941
848.65	20933
848.786	21066
848.921	21070
849.057	21089
849.192	21089
849.328	21085
849.463	20963
849.598	20975
849.734	20842
849.869	20857
850.004	20746
850.14	20777
850.275	20914
850.41	20667
850.545	20678
850.68	20754
850.815	20861
850.95	20686
851.085	20887
851.22	20785
851.355	20716
851.49	20792
851.625	20807
851.76	20788
851.895	20758
852.03	20701
852.165	20727
852.299	20765
852.434	20743
852.569	20910
852.703	20716
852.838	20720
852.973	20971
853.107	20918
853.242	20636
853.376	20549
853.511	20446
853.645	20476
853.78	20705
853.914	20712
854.048	20514
854.183	20575
854.317	20697
854.451	20655
854.585	20526
854.72	20674
854.854	20655
854.988	20583
855.122	20625
855.256	20465
855.39	20552
855.524	20659
855.658	20674
855.792	20568
855.926	20606
856.06	20708
856.194	20617
856.327	20514
856.461	20499
856.595	20575
856.729	20518
856.862	20644
856.996	20564
857.13	20556
857.263	20754
857.397	20644
857.53	20636
857.664	20648
857.797	20621
857.931	20708
858.064	20609
858.197	20655
858.331	20552
858.464	20549
858.597	20583
858.731	20598
858.864	20480
858.997	20461
859.13	20556
859.263	20545
859.396	20735
859.529	20492
859.662	20651
859.795	20587
859.928	20625
860.061	20758
860.194	20758
860.327	20609
860.46	20670
860.592	20807
860.725	20765
860.858	20648
860.99	20530
861.123	20667
861.256	20473
861.388	20686
861.521	21146
861.653	20503
861.786	20492
861.918	20450
862.05	20514
862.183	20465
862.315	20480
862.447	20663
862.58	20423
862.712	20244
862.844	20305
862.976	20434
863.108	20320
863.24	20659
863.372	20286
863.504	20336
863.636	20229
863.768	20240
863.9	20374
864.032	20282
864.164	20347
864.296	20377
864.428	20450
864.559	20404
864.691	20450
864.823	20355
864.954	20385
865.086	20259
865.217	20187
865.349	20142
865.48	20206
865.612	20298
865.743	20290
865.875	20309
866.006	20176
866.137	20259
866.269	20191
866.4	20263
866.531	20054
866.662	20058
866.793	20176
866.924	20020
867.055	20218
867.186	20248
867.317	20111
867.448	20016
867.579	20126
867.71	20111
867.841	20096
867.972	20168
868.103	20168
868.233	20271
868.364	20096
868.495	20180
868.625	20355
868.756	20484
868.886	20358
869.017	20317
869.147	20492
869.278	20533
869.408	20381
869.539	20427
869.669	20533
869.799	20457
869.929	20590
870.06	20549
870.19	20743
870.32	20651
870.45	20765
870.58	20838
870.71	20750
870.84	20823
870.97	20792
871.1	20807
871.23	21013
871.36	21036
871.489	20941
871.619	20921
871.749	21036
871.879	21089
872.008	21142
872.138	21070
872.267	20982
872.397	20910
872.526	20708
872.656	20868
872.785	20826
872.915	20998
873.044	21146
873.173	21100
873.303	21062
873.432	21001
873.561	21138
873.69	21127
873.819	21028
873.948	21085
874.077	20944
874.206	21058
874.335	21108
874.464	21100
874.593	21367
874.722	21233
874.851	21302
874.979	21279
875.108	21359
875.237	21146
875.365	21135
875.494	21294
875.623	21298
875.751	21184
875.88	21332
876.008	21287
876.136	21374
876.265	21759
876.393	21800
876.521	21774
876.65	21641
876.778	21637
876.906	21644
877.034	21561
877.162	21545
877.29	21675
877.418	21698
877.546	21671
877.674	21614
877.802	21576
877.93	21614
878.058	21591
878.185	21485
878.313	21576
878.441	21629
878.568	21481
878.696	21629
878.824	21739
878.951	21751
879.079	21846
879.206	21979
879.333	21728
879.461	21618
879.588	21747
879.715	21694
879.842	21915
879.97	21663
880.097	21412
880.224	21519
880.351	21454
880.478	21447
880.605	21302
880.732	21447
880.859	21580
880.986	21401
881.112	21519
881.239	21329
881.366	21249
881.493	20956
881.619	21001
881.746	21108
881.872	21131
881.999	20937
882.125	20857
882.252	20967
882.378	20921
882.505	21093
882.631	20857
882.757	20750
882.883	20750
883.01	20712
883.136	20617
883.262	20560
883.388	20514
883.514	20807
883.64	20712
883.766	20598
883.892	20469
884.018	20533
884.143	20621
884.269	20781
884.395	20377
884.52	20320
884.646	20431
884.772	20298
884.897	20320
885.023	20427
885.148	20568
885.274	20438
885.399	20450
885.524	20377
885.65	20381
885.775	20377
885.9	20294
886.025	20488
886.15	20385
886.275	20336
886.4	20343
886.525	20442
886.65	20461
886.775	20195
886.9	20457
887.025	20484
887.149	20396
887.274	20130
887.399	20233
887.523	20168
887.648	20142
887.773	20065
887.897	20221
888.021	20119
888.146	20062
888.27	20180
888.395	20221
888.519	20202
888.643	20183
888.767	20298
888.891	20046
889.015	19993
889.139	20008
889.263	19989
889.387	20001
889.511	20172
889.635	20206
889.759	20020
889.883	19894
890.006	19970
890.13	20065
890.254	19898
890.377	19841
890.501	19731
890.624	19826
890.748	19681
890.871	19624
890.995	19559
891.118	19468
891.241	19594
891.364	19468
891.488	19715
891.611	19411
891.734	19578
891.857	19643
891.98	19556
892.103	19525
892.226	19601
892.349	19537
892.471	19430
892.594	19567
892.717	19544
892.839	19499
892.962	19441
893.085	19483
893.207	19518
893.33	19308
893.452	19297
893.575	19597
893.697	19354
893.819	19544
893.941	19708
894.064	19525
894.186	19453
894.308	19251
894.43	19540
894.552	19605
894.674	19563
894.796	19316
894.918	19381
895.04	19468
895.161	19426
895.283	19548
895.405	19510
895.526	19506
895.648	19301
895.769	19544
895.891	19502
896.012	19537
896.134	19483
896.255	19464
896.376	19468
896.498	19457
896.619	19400
896.74	19544
896.861	19563
896.982	19742
897.103	19818
897.224	19769
897.345	19647
897.466	19601
897.587	19734
897.708	19841
897.828	19719
897.949	19605
898.07	19559
898.19	19674
898.311	19784
898.431	19689
898.552	19658
898.672	19704
898.792	19803
898.913	19712
899.033	19601
899.153	19529
899.273	19373
899.393	19476
899.513	19449
899.633	19476
899.753	19472
899.873	19449
899.993	19403
900.113	19495
900.232	19426
900.352	19384
900.472	19266
900.591	19175
900.711	19244
900.83	19202
900.95	19263
901.069	19270
901.189	19168
901.308	18939
901.427	18856
901.546	18894
901.665	18871
901.784	18764
901.904	18798
902.023	18540
902.141	18391
902.26	18365
902.379	18486
902.498	18353
902.617	18369
902.735	18452
902.854	18369
902.973	18292
903.091	18148
903.21	18083
903.328	17992
903.446	17893
903.565	17851
903.683	17737
903.801	17771
903.919	17821
904.038	17718
904.156	17573
904.274	17703
904.392	17604
904.51	17566
904.627	17604
904.745	17710
904.863	17767
904.981	17471
905.098	17292
905.216	17296
905.334	17372
905.451	17353
905.569	17223
905.686	17383
905.803	17330
905.921	17083
906.038	17212
906.155	17200
906.272	16938
906.389	17010
906.506	16752
906.623	16755
906.74	16831
906.857	16778
906.974	16736
907.091	16873
907.208	16881
907.324	16889
907.441	16725
907.557	16660
907.674	16554
907.79	16436
907.907	16531
908.023	16523
908.139	16443
908.256	16565
908.372	16478
908.488	16390
908.604	16398
908.72	16276
908.836	16310
908.952	16200
909.068	16276
909.184	16402
909.3	16276
909.415	16390
909.531	16306
909.647	16112
909.762	16036
909.878	16044
909.993	15937
910.108	15960
910.224	15945
910.339	16067
910.454	15876
910.57	15781
910.685	15736
910.8	16101
910.915	15975
911.03	15857
911.145	15694
911.259	15515
911.374	15625
911.489	15568
911.604	15530
911.718	15355
911.833	15359
911.947	15332
912.062	15256
912.176	15462
912.291	15458
912.405	15397
912.519	15591
912.633	15682
912.748	15412
912.862	15306
912.976	15138
913.09	15039
913.204	15081
913.318	15222
913.431	15348
913.545	15325
913.659	15157
913.772	15058
913.886	15013
914	14887
914.113	15058
914.226	15058
914.34	15013
914.453	14857
914.566	15074
914.68	14872
914.793	14762
914.906	14674
915.019	14678
915.132	14537
915.245	14556
915.358	14701
915.47	14590
915.583	14606
915.696	14571
915.809	14587
915.921	14796
916.034	14575
916.146	14625
916.259	14438
916.371	14701
916.483	14674
916.595	14419
916.708	14530
916.82	14408
916.932	14438
917.044	14419
917.156	14366
917.268	14256
917.38	14320
917.491	14244
917.603	14259
917.715	14332
917.826	14415
917.938	14221
918.049	14126
918.161	14240
918.272	14408
918.384	14252
918.495	14240
918.606	14164
918.717	14058
918.828	14031
918.939	14111
919.05	14058
919.161	14016
919.272	13791
919.383	13898
919.494	14020
919.604	14282
919.715	14058
919.826	13936
919.936	13974
920.047	14069
920.157	13993
920.267	14259
920.378	14005
920.488	13963
920.598	14180
920.708	14324
920.818	14130
920.928	14054
921.038	14305
921.148	14202
921.258	13875
921.368	13845
921.477	13852
921.587	13772
921.697	13594
921.806	13799
921.916	13693
922.025	13514
922.134	13369
922.244	13362
922.353	13491
922.462	13335
922.571	13304
922.68	13088
922.789	13027
922.898	13107
923.007	12977
923.116	13080
923.224	13023
923.333	13008
923.442	12894
923.55	12840
923.659	12966
923.767	12966
923.876	12951
923.984	12970
924.092	12840
924.201	12707
924.309	12806
924.417	12776
924.525	12760
924.633	12730
924.741	13734
924.849	12635
924.956	12627
925.064	12494
925.172	12418
925.279	12429
925.387	12593
925.494	12563
925.602	12589
925.709	12513
925.816	12426
925.924	12525
926.031	12646
926.138	12445
926.245	12525
926.352	12350
926.459	12475
926.566	12582
926.673	12384
926.779	12247
926.886	12330
926.993	12102
927.099	12095
927.206	12022
927.312	12072
927.419	12136
927.525	12159
927.631	12201
927.737	11988
927.843	12060
927.95	11893
928.056	11958
928.162	11927
928.267	11977
928.373	12566
928.479	11973
928.585	11676
928.69	11874
928.796	11923
928.901	11760
929.007	11657
929.112	11726
929.218	11764
929.323	11676
929.428	11592
929.533	11798
929.638	11539
929.743	11668
929.848	11596
929.953	11684
930.058	11490
930.163	11383
930.267	11307
930.372	11471
930.477	11334
930.581	11524
930.685	11467
930.79	11280
930.894	11261
930.998	11193
931.103	11242
931.207	11014
931.311	10980
931.415	10908
931.519	10702
931.623	10626
