Data from test_V78500241_276.txt Node
Date: Fri Mar 25 15:11:46 CST 2022
User: usil
Spectrometer: V785-0024
Trigger mode: 0
Integration Time (sec): 4.000000E-1
Scans to average: 1
Nonlinearity correction enabled: false
Boxcar width: 0
Storing dark spectrum: false
XAxis mode: Wavelengths
Number of Pixels in Spectrum: 1024
>>>>>Begin Spectral Data<<<<<
801.071	27637
801.214	27568
801.356	27321
801.499	27233
801.641	27043
801.783	27192
801.926	27100
802.068	27058
802.211	26838
802.353	26925
802.496	26906
802.638	26804
802.78	26689
802.923	26606
803.065	26556
803.208	26674
803.35	26777
803.492	26830
803.635	26735
803.777	26811
803.919	26781
804.061	27070
804.204	26868
804.346	26769
804.488	26705
804.63	26762
804.773	26621
804.915	26887
805.057	26948
805.199	26765
805.341	26830
805.483	26872
805.626	26788
805.768	26781
805.91	26940
806.052	26963
806.194	26933
806.336	26963
806.478	26712
806.62	26845
806.762	27028
806.904	27176
807.046	27264
807.188	27096
807.33	27260
807.472	27393
807.614	27252
807.756	27180
807.898	27138
808.04	27173
808.182	27009
808.324	27199
808.465	27005
808.607	27142
808.749	27473
808.891	27504
809.033	27694
809.174	27530
809.316	27534
809.458	27359
809.6	27382
809.741	27462
809.883	27496
810.025	27660
810.166	27618
810.308	27553
810.45	27690
810.591	27686
810.733	27427
810.875	27393
811.016	27298
811.158	27294
811.299	27511
811.441	27614
811.582	27496
811.724	27374
811.865	27386
812.007	27359
812.148	27272
812.29	27408
812.431	27469
812.573	27583
812.714	27751
812.855	27926
812.997	28025
813.138	28097
813.279	28025
813.421	27960
813.562	27861
813.703	27766
813.845	27644
813.986	27325
814.127	27093
814.268	27161
814.41	26929
814.551	27024
814.692	27036
814.833	26906
814.974	26929
815.115	27165
815.256	26750
815.397	26933
815.539	27013
815.68	26853
815.821	26792
815.962	26891
816.103	26678
816.244	26716
816.385	26480
816.526	26552
816.666	26473
816.807	26256
816.948	26309
817.089	26374
817.23	26263
817.371	26126
817.512	26126
817.653	26271
817.793	26122
817.934	26168
818.075	26351
818.216	26301
818.356	26221
818.497	26103
818.638	25814
818.778	25894
818.919	25887
819.06	25970
819.2	26020
819.341	26248
819.481	26107
819.622	26457
819.762	26457
819.903	26514
820.043	26408
820.184	26278
820.324	26313
820.465	26328
820.605	26358
820.746	26305
820.886	26122
821.026	26339
821.167	26225
821.307	26351
821.447	26161
821.588	25970
821.728	25986
821.868	25818
822.008	25803
822.149	25563
822.289	25635
822.429	25373
822.569	25282
822.709	25228
822.849	25129
822.99	25069
823.13	25091
823.27	25126
823.41	24973
823.55	24878
823.69	24821
823.83	24947
823.97	24901
824.11	24764
824.25	24627
824.389	24715
824.529	24817
824.669	24776
824.809	24734
824.949	24745
825.089	24829
825.228	24700
825.368	24540
825.508	24593
825.648	24528
825.787	24570
825.927	24631
826.067	24483
826.206	24627
826.346	24547
826.485	24509
826.625	24437
826.765	24711
826.904	24612
827.044	24414
827.183	24410
827.323	24273
827.462	24441
827.601	24319
827.741	24334
827.88	24220
828.02	24228
828.159	24209
828.298	24213
828.437	24319
828.577	24186
828.716	24289
828.855	24281
828.994	23923
829.134	24026
829.273	24045
829.412	24018
829.551	23889
829.69	23931
829.829	23988
829.968	24026
830.107	24038
830.246	24041
830.385	23893
830.524	23828
830.663	23786
830.802	23707
830.941	23554
831.08	23585
831.219	23653
831.357	23649
831.496	23798
831.635	23657
831.774	23497
831.913	23429
832.051	23303
832.19	23303
832.329	23311
832.467	23292
832.606	23193
832.744	23155
832.883	23155
833.022	23132
833.16	23220
833.299	23311
833.437	23299
833.576	23231
833.714	23364
833.852	23376
833.991	23330
834.129	23410
834.267	23360
834.406	23204
834.544	23280
834.682	23147
834.821	23337
834.959	23452
835.097	23239
835.235	23372
835.373	23349
835.511	23227
835.65	23128
835.788	23117
835.926	22965
836.064	22946
836.202	22919
836.34	23159
836.478	23273
836.615	23159
836.753	23124
836.891	23178
837.029	23128
837.167	23143
837.305	22927
837.443	23022
837.58	22995
837.718	22942
837.856	23048
837.993	22828
838.131	22984
838.269	22847
838.406	22862
838.544	22752
838.681	22527
838.819	22569
838.956	22375
839.094	22462
839.231	22424
839.369	22615
839.506	22839
839.643	22607
839.781	22394
839.918	22325
840.055	22481
840.193	22341
840.33	22329
840.467	22253
840.604	22325
840.742	22519
840.879	22242
841.016	22341
841.153	22318
841.29	22485
841.427	22428
841.564	22459
841.701	22291
841.838	22207
841.975	22257
842.112	22181
842.249	22188
842.385	22101
842.522	22299
842.659	22097
842.796	22070
842.933	22021
843.069	22010
843.206	21968
843.343	22032
843.479	22090
843.616	22074
843.752	21983
843.889	21800
844.025	22116
844.162	21842
844.298	22059
844.435	21835
844.571	21789
844.708	21857
844.844	21827
844.98	22078
845.117	21956
845.253	21793
845.389	21720
845.525	21743
845.661	21622
845.798	21583
845.934	21553
846.07	21542
846.206	21530
846.342	21644
846.478	21454
846.614	21264
846.75	21382
846.886	21325
847.022	21351
847.158	21268
847.294	21256
847.429	21317
847.565	21298
847.701	21572
847.837	21203
847.972	20979
848.108	21264
848.244	21203
848.379	20925
848.515	20906
848.65	20853
848.786	20876
848.921	20868
849.057	20876
849.192	21005
849.328	20876
849.463	20815
849.598	20838
849.734	20788
849.869	20648
850.004	20632
850.14	20648
850.275	20602
850.41	20571
850.545	20545
850.68	20632
850.815	20636
850.95	20549
851.085	20781
851.22	20765
851.355	20583
851.49	20590
851.625	20530
851.76	20526
851.895	20640
852.03	20488
852.165	20640
852.299	20560
852.434	20788
852.569	20655
852.703	20617
852.838	20663
852.973	20807
853.107	20670
853.242	20621
853.376	20362
853.511	20317
853.645	20465
853.78	20571
853.914	20324
854.048	20328
854.183	20400
854.317	20419
854.451	20613
854.585	20396
854.72	20381
854.854	20499
854.988	20294
855.122	20370
855.256	20240
855.39	20423
855.524	20461
855.658	20488
855.792	20442
855.926	20385
856.06	20408
856.194	20552
856.327	20461
856.461	20298
856.595	20313
856.729	20446
856.862	20465
856.996	20522
857.13	20564
857.263	20522
857.397	20568
857.53	20415
857.664	20609
857.797	20583
857.931	20541
858.064	20343
858.197	20427
858.331	20355
858.464	20377
858.597	20336
858.731	20309
858.864	20347
858.997	20347
859.13	20488
859.263	20488
859.396	20499
859.529	20465
859.662	20495
859.795	20450
859.928	20442
860.061	20609
860.194	20644
860.327	20393
860.46	20377
860.592	20488
860.725	20590
860.858	20571
860.99	20450
861.123	20389
861.256	20202
861.388	20408
861.521	21043
861.653	20298
861.786	20248
861.918	20218
862.05	20438
862.183	20339
862.315	20339
862.447	20396
862.58	20351
862.712	20119
862.844	20122
862.976	20244
863.108	20187
863.24	20613
863.372	20107
863.504	20088
863.636	20122
863.768	20320
863.9	20046
864.032	20092
864.164	20100
864.296	20084
864.428	20233
864.559	20221
864.691	20237
864.823	20134
864.954	20149
865.086	20024
865.217	20020
865.349	19932
865.48	20016
865.612	20157
865.743	20122
865.875	20046
866.006	19947
866.137	20043
866.269	19913
866.4	19959
866.531	19970
866.662	19898
866.793	19936
866.924	19868
867.055	19921
867.186	19967
867.317	19890
867.448	19833
867.579	19944
867.71	19856
867.841	19803
867.972	19868
868.103	19932
868.233	19982
868.364	19989
868.495	20039
868.625	20126
868.756	20229
868.886	20122
869.017	20088
869.147	20347
869.278	20199
869.408	20122
869.539	20081
869.669	20229
869.799	20336
869.929	20320
870.06	20218
870.19	20473
870.32	20454
870.45	20480
870.58	20438
870.71	20743
870.84	20674
870.97	20606
871.1	20575
871.23	20712
871.36	20838
871.489	20724
871.619	20743
871.749	20754
871.879	20872
872.008	20876
872.138	20857
872.267	20788
872.397	20769
872.526	20655
872.656	20705
872.785	20857
872.915	20773
873.044	20762
873.173	20804
873.303	20891
873.432	20758
873.561	20929
873.69	20899
873.819	20914
873.948	20998
874.077	20842
874.206	20914
874.335	20823
874.464	20952
874.593	21104
874.722	20941
874.851	21176
874.979	21081
875.108	21039
875.237	20929
875.365	20952
875.494	21032
875.623	21127
875.751	20998
875.88	21058
876.008	21195
876.136	21085
876.265	21393
876.393	21804
876.521	21492
876.65	21515
876.778	21401
876.906	21397
877.034	21408
877.162	21412
877.29	21363
877.418	21420
877.546	21363
877.674	21317
877.802	21389
877.93	21325
878.058	21397
878.185	21260
878.313	21374
878.441	21443
878.568	21222
878.696	21321
878.824	21389
878.951	21462
879.079	21610
879.206	21686
879.333	21526
879.461	21542
879.588	21564
879.715	21416
879.842	21793
879.97	21538
880.097	21211
880.224	21291
880.351	21226
880.478	21226
880.605	21165
880.732	21275
880.859	21530
880.986	21291
881.112	21207
881.239	21165
881.366	20952
881.493	20880
881.619	20899
881.746	20910
881.872	20914
881.999	20621
882.125	20720
882.252	20853
882.378	20750
882.505	20925
882.631	20689
882.757	20625
882.883	20560
883.01	20526
883.136	20526
883.262	20385
883.388	20415
883.514	20724
883.64	20609
883.766	20385
883.892	20427
884.018	20396
884.143	20526
884.269	20545
884.395	20187
884.52	20206
884.646	20195
884.772	20172
884.897	20107
885.023	20233
885.148	20336
885.274	20263
885.399	20324
885.524	20374
885.65	20202
885.775	20202
885.9	20119
886.025	20343
886.15	20377
886.275	20115
886.4	20153
886.525	20126
886.65	20149
886.775	20180
886.9	20366
887.025	20374
887.149	20191
887.274	20043
887.399	20027
887.523	19951
887.648	20005
887.773	19887
887.897	20073
888.021	20081
888.146	19902
888.27	20012
888.395	19986
888.519	20024
888.643	20024
888.767	19928
888.891	19883
889.015	19776
889.139	19852
889.263	19807
889.387	19898
889.511	19974
889.635	19856
889.759	19776
889.883	19833
890.006	19727
890.13	19731
890.254	19784
890.377	19674
890.501	19499
890.624	19472
890.748	19575
890.871	19419
890.995	19422
891.118	19282
891.241	19396
891.364	19495
891.488	19411
891.611	19354
891.734	19388
891.857	19400
891.98	19274
892.103	19343
892.226	19373
892.349	19266
892.471	19160
892.594	19213
892.717	19263
892.839	19266
892.962	19251
893.085	19354
893.207	19263
893.33	19225
893.452	19244
893.575	19285
893.697	19141
893.819	19339
893.941	19483
894.064	19441
894.186	19171
894.308	19206
894.43	19312
894.552	19350
894.674	19365
894.796	19228
894.918	19266
895.04	19206
895.161	19324
895.283	19335
895.405	19259
895.526	19289
895.648	19129
895.769	19312
895.891	19362
896.012	19308
896.134	19365
896.255	19381
896.376	19213
896.498	19308
896.619	19373
896.74	19324
896.861	19339
896.982	19468
897.103	19833
897.224	19704
897.345	19445
897.466	19521
897.587	19510
897.708	19670
897.828	19556
897.949	19483
898.07	19411
898.19	19480
898.311	19590
898.431	19499
898.552	19544
898.672	19578
898.792	19658
898.913	19548
899.033	19468
899.153	19293
899.273	19316
899.393	19217
899.513	19278
899.633	19308
899.753	19221
899.873	19107
899.993	19304
900.113	19206
900.232	19324
900.352	19148
900.472	19160
900.591	19004
900.711	19072
900.83	19069
900.95	19107
901.069	19148
901.189	19023
901.308	18677
901.427	18669
901.546	18703
901.665	18821
901.784	18692
901.904	18441
902.023	18437
902.141	18327
902.26	18323
902.379	18281
902.498	18148
902.617	18155
902.735	18239
902.854	18152
902.973	18178
903.091	17901
903.21	17767
903.328	17954
903.446	17836
903.565	17672
903.683	17684
903.801	17486
903.919	17710
904.038	17661
904.156	17440
904.274	17554
904.392	17471
904.51	17512
904.627	17520
904.745	17433
904.863	17570
904.981	17258
905.098	17212
905.216	17014
905.334	17265
905.451	17132
905.569	17086
905.686	17147
905.803	17064
905.921	16919
906.038	16987
906.155	16927
906.272	16774
906.389	16892
906.506	16618
906.623	16603
906.74	16687
906.857	16664
906.974	16599
907.091	16660
907.208	16774
907.324	16653
907.441	16618
907.557	16375
907.674	16314
907.79	16299
907.907	16306
908.023	16375
908.139	16436
908.256	16303
908.372	16303
908.488	16249
908.604	16116
908.72	16006
908.836	16059
908.952	15987
909.068	16128
909.184	16223
909.3	16067
909.415	16071
909.531	16002
909.647	15987
909.762	15876
909.878	15759
909.993	15827
910.108	15778
910.224	15789
910.339	15751
910.454	15724
910.57	15549
910.685	15511
910.8	15903
910.915	15701
911.03	15618
911.145	15458
911.259	15424
911.374	15378
911.489	15302
911.604	15264
911.718	15123
911.833	15062
911.947	15024
912.062	15055
912.176	15127
912.291	15161
912.405	15058
912.519	15283
912.633	15230
912.748	15097
912.862	15176
912.976	14933
913.09	14823
913.204	14956
913.318	14971
913.431	15097
913.545	14933
913.659	15066
913.772	14967
913.886	14811
914	14708
914.113	14819
914.226	14921
914.34	14800
914.453	14762
914.566	14830
914.68	14629
914.793	14655
914.906	14469
915.019	14336
915.132	14286
915.245	14450
915.358	14511
915.47	14419
915.583	14431
915.696	14374
915.809	14549
915.921	14518
916.034	14282
916.146	14336
916.259	14370
916.371	14339
916.483	14412
916.595	14225
916.708	14256
916.82	14271
916.932	14298
917.044	14286
917.156	14218
917.268	14077
917.38	14130
917.491	14214
917.603	14161
917.715	14126
917.826	14149
917.938	13993
918.049	13902
918.161	13936
918.272	14202
918.384	14123
918.495	14046
918.606	13818
918.717	13803
918.828	13940
918.939	13890
919.05	13837
919.161	13814
919.272	13655
919.383	13765
919.494	13959
919.604	14161
919.715	13776
919.826	13799
919.936	13761
920.047	13989
920.157	13772
920.267	14027
920.378	13887
920.488	13769
920.598	14024
920.708	14134
920.818	13932
920.928	13986
921.038	14161
921.148	14050
921.258	13807
921.368	13689
921.477	13658
921.587	13548
921.697	13487
921.806	13628
921.916	13422
922.025	13270
922.134	13251
922.244	13217
922.353	13190
922.462	13183
922.571	13004
922.68	12894
922.789	12791
922.898	12939
923.007	12757
923.116	12962
923.224	12833
923.333	12757
923.442	12738
923.55	12703
923.659	12715
923.767	12692
923.876	12589
923.984	12658
924.092	12684
924.201	12639
924.309	12582
924.417	12574
924.525	12582
924.633	12544
924.741	13339
924.849	12353
924.956	12513
925.064	12342
925.172	12330
925.279	12277
925.387	12281
925.494	12334
925.602	12502
925.709	12300
925.816	12232
925.924	12292
926.031	12391
926.138	12277
926.245	12273
926.352	12220
926.459	12342
926.566	12395
926.673	12285
926.779	12095
926.886	12064
926.993	11965
927.099	11901
927.206	11878
927.312	11916
927.419	11916
927.525	11866
927.631	11958
927.737	11817
927.843	11783
927.95	11649
928.056	11832
928.162	11718
928.267	11817
928.373	12353
928.479	11874
928.585	11512
928.69	11684
928.796	11695
928.901	11623
929.007	11524
929.112	11627
929.218	11539
929.323	11482
929.428	11478
929.533	11642
929.638	11448
929.743	11402
929.848	11436
929.953	11395
930.058	11353
930.163	11250
930.267	11261
930.372	11311
930.477	11159
930.581	11322
930.685	11128
930.79	11064
930.894	11132
930.998	11003
931.103	11189
931.207	10778
931.311	10714
931.415	10653
931.519	10554
931.623	10542
