Data from test_V78500241_35.txt Node
Date: Fri Mar 25 15:10:06 CST 2022
User: usil
Spectrometer: V785-0024
Trigger mode: 0
Integration Time (sec): 4.000000E-1
Scans to average: 1
Nonlinearity correction enabled: false
Boxcar width: 0
Storing dark spectrum: false
XAxis mode: Wavelengths
Number of Pixels in Spectrum: 1024
>>>>>Begin Spectral Data<<<<<
801.071	28713
801.214	28626
801.356	28485
801.499	28322
801.641	28291
801.783	28192
801.926	28276
802.068	28238
802.211	28196
802.353	28078
802.496	27960
802.638	27827
802.78	27812
802.923	27850
803.065	27816
803.208	27857
803.35	27842
803.492	27911
803.635	28032
803.777	27838
803.919	28006
804.061	28257
804.204	28025
804.346	27895
804.488	27827
804.63	27968
804.773	27808
804.915	28070
805.057	28006
805.199	27831
805.341	28002
805.483	27987
805.626	28070
805.768	27800
805.91	28040
806.052	27918
806.194	27884
806.336	28200
806.478	28044
806.62	27907
806.762	28169
806.904	28261
807.046	28360
807.188	28398
807.33	28306
807.472	28265
807.614	28268
807.756	28215
807.898	28200
808.04	28128
808.182	28158
808.324	28211
808.465	28105
808.607	28192
808.749	28405
808.891	28557
809.033	28565
809.174	28455
809.316	28443
809.458	28493
809.6	28405
809.741	28573
809.883	28516
810.025	28729
810.166	28816
810.308	28767
810.45	28584
810.591	28672
810.733	28401
810.875	28356
811.016	28120
811.158	28344
811.299	28382
811.441	28325
811.582	28523
811.724	28318
811.865	28360
812.007	28310
812.148	28360
812.29	28565
812.431	28611
812.573	28672
812.714	28858
812.855	28858
812.997	29083
813.138	29136
813.279	29014
813.421	28915
813.562	28755
813.703	28550
813.845	28428
813.986	28329
814.127	28120
814.268	28055
814.41	28063
814.551	27903
814.692	28055
814.833	27911
814.974	27907
815.115	27941
815.256	27835
815.397	27835
815.539	27728
815.68	27728
815.821	27610
815.962	27709
816.103	27580
816.244	27519
816.385	27481
816.526	27435
816.666	27192
816.807	27020
816.948	27188
817.089	27222
817.23	27093
817.371	27119
817.512	27096
817.653	27009
817.793	26971
817.934	27051
818.075	27013
818.216	27077
818.356	26929
818.497	26933
818.638	26743
818.778	26811
818.919	26800
819.06	26769
819.2	26902
819.341	27051
819.481	26849
819.622	27089
819.762	27272
819.903	27241
820.043	27119
820.184	27146
820.324	27211
820.465	27260
820.605	27112
820.746	26990
820.886	26815
821.026	27085
821.167	26880
821.307	27112
821.447	27017
821.588	27020
821.728	26682
821.868	26533
822.008	26389
822.149	26355
822.289	26465
822.429	26176
822.569	26035
822.709	26073
822.849	25944
822.99	25955
823.13	25864
823.27	25906
823.41	25731
823.55	25609
823.69	25651
823.83	25518
823.97	25609
824.11	25400
824.25	25365
824.389	25483
824.529	25453
824.669	25240
824.809	25658
824.949	25525
825.089	25434
825.228	25388
825.368	25244
825.508	25225
825.648	25297
825.787	25217
825.927	25266
826.067	25015
826.206	25202
826.346	25263
826.485	25289
826.625	25179
826.765	25179
826.904	25320
827.044	25012
827.183	24954
827.323	24920
827.462	24970
827.601	24886
827.741	24878
827.88	24981
828.02	24856
828.159	24722
828.298	24753
828.437	24909
828.577	24776
828.716	24977
828.855	24890
828.994	24650
829.134	24582
829.273	24585
829.412	24536
829.551	24494
829.69	24521
829.829	24479
829.968	24589
830.107	24661
830.246	24582
830.385	24426
830.524	24433
830.663	24300
830.802	24224
830.941	24102
831.08	24102
831.219	24281
831.357	24285
831.496	24315
831.635	24011
831.774	24038
831.913	24076
832.051	23847
832.19	23847
832.329	23836
832.467	23771
832.606	23710
832.744	23585
832.883	23726
833.022	23646
833.16	23832
833.299	23790
833.437	23672
833.576	23707
833.714	23722
833.852	23630
833.991	23672
834.129	23760
834.267	23703
834.406	23707
834.544	23771
834.682	23733
834.821	23623
834.959	23855
835.097	23649
835.235	23733
835.373	23623
835.511	23737
835.65	23672
835.788	23531
835.926	23315
836.064	23261
836.202	23398
836.34	23486
836.478	23600
836.615	23448
836.753	23554
836.891	23611
837.029	23360
837.167	23448
837.305	23570
837.443	23337
837.58	23337
837.718	23509
837.856	23360
837.993	23326
838.131	23189
838.269	23220
838.406	23318
838.544	23235
838.681	23102
838.819	22946
838.956	22778
839.094	22736
839.231	22889
839.369	22934
839.506	23121
839.643	23014
839.781	22843
839.918	22713
840.055	22710
840.193	22660
840.33	22664
840.467	22660
840.604	22736
840.742	22953
840.879	22557
841.016	22554
841.153	22508
841.29	22713
841.427	22687
841.564	22694
841.701	22569
841.838	22554
841.975	22455
842.112	22527
842.249	22489
842.385	22398
842.522	22481
842.659	22371
842.796	22303
842.933	22226
843.069	22318
843.206	22238
843.343	22409
843.479	22276
843.616	22344
843.752	22051
843.889	22112
844.025	22352
844.162	21975
844.298	22257
844.435	22166
844.571	22040
844.708	22120
844.844	22238
844.98	22101
845.117	22128
845.253	21956
845.389	21785
845.525	21964
845.661	21926
845.798	21846
845.934	21915
846.07	21720
846.206	21903
846.342	21918
846.478	21808
846.614	21564
846.75	21462
846.886	21447
847.022	21622
847.158	21488
847.294	21431
847.429	21622
847.565	21355
847.701	21789
847.837	21154
847.972	21131
848.108	21370
848.244	21317
848.379	21150
848.515	20994
848.65	20956
848.786	21024
848.921	21055
849.057	21176
849.192	21070
849.328	21055
849.463	20982
849.598	20960
849.734	20990
849.869	20941
850.004	20826
850.14	20872
850.275	20769
850.41	20712
850.545	20842
850.68	20712
850.815	20758
850.95	20849
851.085	20986
851.22	20906
851.355	20788
851.49	20796
851.625	20648
851.76	20781
851.895	20594
852.03	20667
852.165	20785
852.299	20758
852.434	20876
852.569	20758
852.703	20701
852.838	20834
852.973	20906
853.107	20952
853.242	20667
853.376	20689
853.511	20404
853.645	20537
853.78	20724
853.914	20632
854.048	20503
854.183	20533
854.317	20621
854.451	20705
854.585	20632
854.72	20537
854.854	20587
854.988	20503
855.122	20454
855.256	20313
855.39	20476
855.524	20659
855.658	20697
855.792	20533
855.926	20545
856.06	20507
856.194	20640
856.327	20495
856.461	20552
856.595	20530
856.729	20461
856.862	20697
856.996	20625
857.13	20556
857.263	20533
857.397	20552
857.53	20526
857.664	20556
857.797	20530
857.931	20617
858.064	20564
858.197	20556
858.331	20560
858.464	20457
858.597	20503
858.731	20495
858.864	20446
858.997	20419
859.13	20396
859.263	20431
859.396	20495
859.529	20366
859.662	20442
859.795	20518
859.928	20564
860.061	20568
860.194	20602
860.327	20450
860.46	20355
860.592	20632
860.725	20602
860.858	20621
860.99	20503
861.123	20446
861.256	20419
861.388	20431
861.521	20887
861.653	20259
861.786	20355
861.918	20301
862.05	20480
862.183	20427
862.315	20484
862.447	20541
862.58	20541
862.712	20225
862.844	20024
862.976	20355
863.108	20286
863.24	20697
863.372	20138
863.504	20233
863.636	20221
863.768	20202
863.9	20191
864.032	20065
864.164	20115
864.296	20126
864.428	20275
864.559	20161
864.691	20202
864.823	20134
864.954	20183
865.086	20077
865.217	20027
865.349	20065
865.48	19982
865.612	20046
865.743	20180
865.875	20126
866.006	20077
866.137	20081
866.269	20138
866.4	20054
866.531	19959
866.662	20096
866.793	20005
866.924	19909
867.055	19959
867.186	19944
867.317	20001
867.448	19887
867.579	20012
867.71	19890
867.841	19921
867.972	19986
868.103	19947
868.233	19944
868.364	19993
868.495	20096
868.625	20210
868.756	20180
868.886	20119
869.017	20286
869.147	20240
869.278	20263
869.408	20157
869.539	20134
869.669	20195
869.799	20202
869.929	20385
870.06	20233
870.19	20492
870.32	20518
870.45	20613
870.58	20587
870.71	20705
870.84	20686
870.97	20583
871.1	20568
871.23	20762
871.36	20857
871.489	20655
871.619	20697
871.749	20765
871.879	20788
872.008	20914
872.138	20883
872.267	20811
872.397	20670
872.526	20701
872.656	20689
872.785	20579
872.915	20773
873.044	20899
873.173	20914
873.303	20834
873.432	20826
873.561	20956
873.69	20845
873.819	20724
873.948	20963
874.077	20982
874.206	20754
874.335	20796
874.464	20834
874.593	20994
874.722	21013
874.851	21150
874.979	21093
875.108	21123
875.237	21081
875.365	21070
875.494	21047
875.623	21135
875.751	21039
875.88	21169
876.008	21226
876.136	21283
876.265	21477
876.393	21561
876.521	21504
876.65	21580
876.778	21431
876.906	21393
877.034	21393
877.162	21424
877.29	21382
877.418	21473
877.546	21405
877.674	21530
877.802	21313
877.93	21393
878.058	21344
878.185	21340
878.313	21424
878.441	21523
878.568	21165
878.696	21397
878.824	21443
878.951	21564
879.079	21736
879.206	21861
879.333	21580
879.461	21378
879.588	21408
879.715	21576
879.842	21739
879.97	21553
880.097	21211
880.224	21192
880.351	21367
880.478	21237
880.605	21108
880.732	21272
880.859	21477
880.986	21184
881.112	21226
881.239	21112
881.366	21005
881.493	20861
881.619	20887
881.746	20864
881.872	20868
881.999	20807
882.125	20727
882.252	20929
882.378	20899
882.505	20887
882.631	20697
882.757	20629
882.883	20640
883.01	20609
883.136	20609
883.262	20434
883.388	20431
883.514	20568
883.64	20682
883.766	20568
883.892	20404
884.018	20366
884.143	20541
884.269	20629
884.395	20267
884.52	20332
884.646	20244
884.772	20233
884.897	20218
885.023	20107
885.148	20271
885.274	20317
885.399	20275
885.524	20145
885.65	20191
885.775	20168
885.9	20172
886.025	20374
886.15	20286
886.275	20088
886.4	20084
886.525	20218
886.65	20062
886.775	20092
886.9	20278
887.025	20404
887.149	20145
887.274	20039
887.399	20001
887.523	20065
887.648	19955
887.773	19852
887.897	19993
888.021	20111
888.146	19871
888.27	20115
888.395	20077
888.519	20031
888.643	19989
888.767	19997
888.891	19940
889.015	19757
889.139	19837
889.263	19757
889.387	19860
889.511	19982
889.635	19894
889.759	19757
889.883	19830
890.006	19715
890.13	19830
890.254	19590
890.377	19677
890.501	19521
890.624	19430
890.748	19712
890.871	19521
890.995	19255
891.118	19148
891.241	19304
891.364	19316
891.488	19369
891.611	19422
891.734	19335
891.857	19400
891.98	19377
892.103	19457
892.226	19419
892.349	19289
892.471	19156
892.594	19183
892.717	19324
892.839	19213
892.962	19255
893.085	19369
893.207	19206
893.33	19091
893.452	19240
893.575	19274
893.697	19289
893.819	19407
893.941	19567
894.064	19415
894.186	19164
894.308	19240
894.43	19388
894.552	19422
894.674	19396
894.796	19110
894.918	19293
895.04	19259
895.161	19308
895.283	19221
895.405	19217
895.526	19175
895.648	19263
895.769	19282
895.891	19255
896.012	19346
896.134	19285
896.255	19301
896.376	19312
896.498	19301
896.619	19426
896.74	19354
896.861	19419
896.982	19712
897.103	19845
897.224	19590
897.345	19616
897.466	19521
897.587	19544
897.708	19674
897.828	19601
897.949	19529
898.07	19289
898.19	19499
898.311	19655
898.431	19491
898.552	19464
898.672	19643
898.792	19643
898.913	19578
899.033	19358
899.153	19236
899.273	19019
899.393	19141
899.513	19369
899.633	19198
899.753	19259
899.873	19194
899.993	19282
900.113	19057
900.232	19301
900.352	19084
900.472	19133
900.591	19099
900.711	18977
900.83	19012
900.95	19095
901.069	19095
901.189	18897
901.308	18650
901.427	18597
901.546	18665
901.665	18749
901.784	18589
901.904	18448
902.023	18350
902.141	18216
902.26	18190
902.379	18258
902.498	18258
902.617	18034
902.735	18152
902.854	18106
902.973	18011
903.091	17821
903.21	17707
903.328	17794
903.446	17695
903.565	17619
903.683	17676
903.801	17490
903.919	17653
904.038	17619
904.156	17459
904.274	17509
904.392	17379
904.51	17383
904.627	17414
904.745	17341
904.863	17433
904.981	17197
905.098	16991
905.216	17132
905.334	17098
905.451	17090
905.569	16987
905.686	17025
905.803	17045
905.921	16786
906.038	17029
906.155	16850
906.272	16683
906.389	16759
906.506	16615
906.623	16516
906.74	16569
906.857	16504
906.974	16398
907.091	16672
907.208	16542
907.324	16683
907.441	16504
907.557	16344
907.674	16257
907.79	16143
907.907	16181
908.023	16382
908.139	16337
908.256	16158
908.372	16211
908.488	16169
908.604	15991
908.72	15911
908.836	16036
908.952	15922
909.068	15956
909.184	16143
909.3	15949
909.415	15956
909.531	15926
909.647	15633
909.762	15686
909.878	15622
909.993	15679
910.108	15641
910.224	15599
910.339	15534
910.454	15580
910.57	15511
910.685	15443
910.8	15641
910.915	15633
911.03	15401
911.145	15291
911.259	15260
911.374	15359
911.489	15207
911.604	15161
911.718	15062
911.833	15013
911.947	14861
912.062	14807
912.176	14868
912.291	14975
912.405	14948
912.519	15226
912.633	15214
912.748	15013
912.862	14971
912.976	14826
913.09	14777
913.204	14815
913.318	14823
913.431	14944
913.545	14910
913.659	14982
913.772	14777
913.886	14640
914	14663
914.113	14724
914.226	14689
914.34	14655
914.453	14514
914.566	14705
914.68	14571
914.793	14473
914.906	14343
915.019	14377
915.132	14294
915.245	14328
915.358	14298
915.47	14358
915.583	14252
915.696	14282
915.809	14377
915.921	14362
916.034	14233
916.146	14221
916.259	14103
916.371	14282
916.483	14240
916.595	14138
916.708	14145
916.82	14168
916.932	14107
917.044	14039
917.156	14020
917.268	13993
917.38	14031
917.491	13940
917.603	13909
917.715	14035
917.826	14073
917.938	13894
918.049	13795
918.161	13967
918.272	14073
918.384	14069
918.495	13890
918.606	13746
918.717	13556
918.828	13746
918.939	13723
919.05	13609
919.161	13715
919.272	13426
919.383	13628
919.494	13765
919.604	13974
919.715	13620
919.826	13537
919.936	13708
920.047	13632
920.157	13696
920.267	13890
920.378	13803
920.488	13632
920.598	13784
920.708	14035
920.818	13753
920.928	13761
921.038	13909
921.148	13849
921.258	13624
921.368	13552
921.477	13438
921.587	13396
921.697	13312
921.806	13354
921.916	13289
922.025	13099
922.134	13118
922.244	13050
922.353	13019
922.462	12947
922.571	12856
922.68	12802
922.789	12646
922.898	12700
923.007	12722
923.116	12623
923.224	12654
923.333	12627
923.442	12627
923.55	12540
923.659	12566
923.767	12555
923.876	12418
923.984	12547
924.092	12403
924.201	12483
924.309	12441
924.417	12490
924.525	12361
924.633	12410
924.741	13080
924.849	12194
924.956	12254
925.064	12129
925.172	12068
925.279	12087
925.387	12186
925.494	12205
925.602	12277
925.709	12262
925.816	12026
925.924	12148
926.031	12209
926.138	12144
926.245	12178
926.352	11992
926.459	12140
926.566	12220
926.673	12060
926.779	11965
926.886	11916
926.993	11874
927.099	11794
927.206	11688
927.312	11634
927.419	11840
927.525	11703
927.631	11893
927.737	11653
927.843	11634
927.95	11471
928.056	11638
928.162	11604
928.267	11608
928.373	12277
928.479	11672
928.585	11433
928.69	11600
928.796	11608
928.901	11459
929.007	11280
929.112	11425
929.218	11368
929.323	11425
929.428	11334
929.533	11452
929.638	11250
929.743	11364
929.848	11337
929.953	11303
930.058	11124
930.163	11041
930.267	11052
930.372	11140
930.477	10965
930.581	11250
930.685	11090
930.79	10923
930.894	10965
930.998	10896
931.103	10957
931.207	10607
931.311	10569
931.415	10516
931.519	10352
931.623	10280
