Data from test_V78500241_2682.txt Node
Date: Fri Mar 25 15:28:32 CST 2022
User: usil
Spectrometer: V785-0024
Trigger mode: 0
Integration Time (sec): 4.000000E-1
Scans to average: 1
Nonlinearity correction enabled: false
Boxcar width: 0
Storing dark spectrum: false
XAxis mode: Wavelengths
Number of Pixels in Spectrum: 1024
>>>>>Begin Spectral Data<<<<<
801.071	27108
801.214	27013
801.356	26845
801.499	26724
801.641	26499
801.783	26427
801.926	26686
802.068	26568
802.211	26533
802.353	26453
802.496	26301
802.638	26294
802.78	26248
802.923	26092
803.065	26122
803.208	26183
803.35	26267
803.492	26351
803.635	26415
803.777	26305
803.919	26423
804.061	26651
804.204	26419
804.346	26385
804.488	26275
804.63	26244
804.773	26320
804.915	26465
805.057	26484
805.199	26301
805.341	26385
805.483	26450
805.626	26511
805.768	26400
805.91	26579
806.052	26469
806.194	26453
806.336	26705
806.478	26495
806.62	26427
806.762	26549
806.904	26834
807.046	26891
807.188	26906
807.33	26933
807.472	26982
807.614	26823
807.756	26807
807.898	26712
808.04	26712
808.182	26697
808.324	26731
808.465	26804
808.607	26876
808.749	27165
808.891	27081
809.033	27325
809.174	27100
809.316	27028
809.458	26899
809.6	27058
809.741	27233
809.883	27157
810.025	27420
810.166	27348
810.308	27233
810.45	27184
810.591	27184
810.733	27081
810.875	27066
811.016	26910
811.158	26960
811.299	27138
811.441	27230
811.582	27272
811.724	27142
811.865	26944
812.007	26998
812.148	26986
812.29	27001
812.431	27062
812.573	27363
812.714	27359
812.855	27424
812.997	27682
813.138	27793
813.279	27720
813.421	27542
813.562	27420
813.703	27420
813.845	27329
813.986	26925
814.127	26750
814.268	26765
814.41	26746
814.551	26590
814.692	26720
814.833	26670
814.974	26640
815.115	26804
815.256	26476
815.397	26674
815.539	26537
815.68	26419
815.821	26434
815.962	26415
816.103	26412
816.244	26362
816.385	26298
816.526	26324
816.666	26069
816.807	26005
816.948	25917
817.089	26115
817.23	26016
817.371	25837
817.512	25966
817.653	25974
817.793	25966
817.934	26069
818.075	25921
818.216	26046
818.356	25936
818.497	25807
818.638	25750
818.778	25689
818.919	25719
819.06	25776
819.2	25849
819.341	25871
819.481	25951
819.622	26046
819.762	26282
819.903	26248
820.043	26062
820.184	26111
820.324	25989
820.465	26256
820.605	26077
820.746	26001
820.886	25791
821.026	25898
821.167	25928
821.307	25883
821.447	26012
821.588	25909
821.728	25727
821.868	25510
822.008	25381
822.149	25479
822.289	25396
822.429	25027
822.569	25076
822.709	25031
822.849	24844
822.99	24951
823.13	24829
823.27	24935
823.41	24734
823.55	24650
823.69	24707
823.83	24688
823.97	24616
824.11	24544
824.25	24445
824.389	24547
824.529	24608
824.669	24597
824.809	24582
824.949	24616
825.089	24544
825.228	24521
825.368	24300
825.508	24323
825.648	24426
825.787	24471
825.927	24418
826.067	24578
826.206	24353
826.346	24490
826.485	24471
826.625	24445
826.765	24483
826.904	24445
827.044	24072
827.183	24057
827.323	24117
827.462	24224
827.601	24136
827.741	24102
827.88	24201
828.02	23992
828.159	24117
828.298	24148
828.437	24186
828.577	24041
828.716	24114
828.855	24121
828.994	23980
829.134	23790
829.273	23893
829.412	23741
829.551	23691
829.69	23802
829.829	23855
829.968	23923
830.107	23950
830.246	23935
830.385	23798
830.524	23657
830.663	23627
830.802	23509
830.941	23364
831.08	23463
831.219	23490
831.357	23604
831.496	23646
831.635	23398
831.774	23288
831.913	23387
832.051	23223
832.19	23162
832.329	23250
832.467	23067
832.606	23098
832.744	23105
832.883	23178
833.022	23109
833.16	23025
833.299	23121
833.437	23143
833.576	23220
833.714	23006
833.852	23231
833.991	23204
834.129	23296
834.267	23246
834.406	23162
834.544	23242
834.682	23132
834.821	23105
834.959	23364
835.097	23140
835.235	23136
835.373	23155
835.511	23345
835.65	23090
835.788	23181
835.926	22881
836.064	22790
836.202	22904
836.34	23102
836.478	23159
836.615	22999
836.753	23022
836.891	23010
837.029	23010
837.167	22995
837.305	22850
837.443	22873
837.58	22866
837.718	22995
837.856	22877
837.993	22824
838.131	22801
838.269	22675
838.406	22702
838.544	22687
838.681	22497
838.819	22493
838.956	22348
839.094	22329
839.231	22398
839.369	22504
839.506	22645
839.643	22588
839.781	22455
839.918	22230
840.055	22402
840.193	22344
840.33	22295
840.467	22230
840.604	22348
840.742	22622
840.879	22223
841.016	22162
841.153	22135
841.29	22390
841.427	22200
841.564	22344
841.701	22207
841.838	22265
841.975	22204
842.112	22238
842.249	22246
842.385	22185
842.522	22238
842.659	22036
842.796	22070
842.933	22090
843.069	21975
843.206	21937
843.343	22223
843.479	21953
843.616	22101
843.752	21941
843.889	21732
844.025	21983
844.162	21869
844.298	22013
844.435	21808
844.571	21797
844.708	21888
844.844	22067
844.98	21907
845.117	21975
845.253	21701
845.389	21724
845.525	21800
845.661	21663
845.798	21515
845.934	21629
846.07	21671
846.206	21564
846.342	21694
846.478	21606
846.614	21431
846.75	21332
846.886	21249
847.022	21401
847.158	21317
847.294	21302
847.429	21401
847.565	21218
847.701	21534
847.837	21081
847.972	21093
848.108	21199
848.244	21066
848.379	20979
848.515	20864
848.65	20864
848.786	20876
848.921	20937
849.057	21001
849.192	20979
849.328	21047
849.463	20899
849.598	20826
849.734	20727
849.869	20731
850.004	20659
850.14	20556
850.275	20587
850.41	20511
850.545	20564
850.68	20590
850.815	20705
850.95	20670
851.085	20849
851.22	20807
851.355	20682
851.49	20701
851.625	20644
851.76	20716
851.895	20674
852.03	20617
852.165	20594
852.299	20750
852.434	20762
852.569	20712
852.703	20606
852.838	20739
852.973	20838
853.107	20819
853.242	20651
853.376	20602
853.511	20328
853.645	20473
853.78	20667
853.914	20530
854.048	20480
854.183	20393
854.317	20568
854.451	20651
854.585	20423
854.72	20427
854.854	20522
854.988	20362
855.122	20564
855.256	20381
855.39	20549
855.524	20530
855.658	20450
855.792	20629
855.926	20427
856.06	20571
856.194	20457
856.327	20484
856.461	20423
856.595	20423
856.729	20438
856.862	20514
856.996	20568
857.13	20613
857.263	20587
857.397	20545
857.53	20499
857.664	20560
857.797	20461
857.931	20594
858.064	20568
858.197	20518
858.331	20514
858.464	20404
858.597	20385
858.731	20476
858.864	20396
858.997	20454
859.13	20351
859.263	20469
859.396	20552
859.529	20355
859.662	20454
859.795	20317
859.928	20476
860.061	20602
860.194	20689
860.327	20450
860.46	20533
860.592	20545
860.725	20617
860.858	20644
860.99	20514
861.123	20381
861.256	20438
861.388	20446
861.521	21256
861.653	20294
861.786	20256
861.918	20271
862.05	20286
862.183	20434
862.315	20446
862.447	20469
862.58	20431
862.712	20221
862.844	20199
862.976	20324
863.108	20271
863.24	20701
863.372	20008
863.504	20164
863.636	20180
863.768	20164
863.9	20187
864.032	20168
864.164	20191
864.296	20111
864.428	20358
864.559	20267
864.691	20309
864.823	20183
864.954	20206
865.086	20180
865.217	20111
865.349	20024
865.48	20183
865.612	20084
865.743	20176
865.875	20050
866.006	20092
866.137	20248
866.269	20130
866.4	20130
866.531	19963
866.662	20016
866.793	20073
866.924	20088
867.055	20001
867.186	20164
867.317	19959
867.448	20005
867.579	20031
867.71	19947
867.841	20035
867.972	20065
868.103	20092
868.233	20054
868.364	19967
868.495	20145
868.625	20355
868.756	20320
868.886	20206
869.017	20240
869.147	20324
869.278	20404
869.408	20355
869.539	20317
869.669	20301
869.799	20419
869.929	20431
870.06	20408
870.19	20606
870.32	20609
870.45	20571
870.58	20693
870.71	20769
870.84	20845
870.97	20564
871.1	20689
871.23	20937
871.36	20933
871.489	20720
871.619	20941
871.749	20815
871.879	21017
872.008	21047
872.138	20982
872.267	21096
872.397	20746
872.526	20674
872.656	20773
872.785	20880
872.915	20887
873.044	21066
873.173	20883
873.303	20960
873.432	21066
873.561	20887
873.69	20914
873.819	20746
873.948	20906
874.077	20864
874.206	20880
874.335	20933
874.464	20990
874.593	21157
874.722	21066
874.851	21146
874.979	21192
875.108	21085
875.237	21020
875.365	21074
875.494	21226
875.623	21123
875.751	21093
875.88	21180
876.008	21363
876.136	21245
876.265	21564
876.393	21682
876.521	21698
876.65	21580
876.778	21660
876.906	21523
877.034	21549
877.162	21591
877.29	21466
877.418	21519
877.546	21576
877.674	21530
877.802	21397
877.93	21515
878.058	21534
878.185	21359
878.313	21507
878.441	21473
878.568	21363
878.696	21496
878.824	21545
878.951	21644
879.079	21614
879.206	21747
879.333	21766
879.461	21496
879.588	21534
879.715	21709
879.842	21797
879.97	21671
880.097	21344
880.224	21389
880.351	21340
880.478	21287
880.605	21367
880.732	21389
880.859	21500
880.986	21393
881.112	21428
881.239	21207
881.366	21135
881.493	21009
881.619	20929
881.746	20982
881.872	20948
881.999	20834
882.125	20880
882.252	20887
882.378	20941
882.505	20937
882.631	20864
882.757	20739
882.883	20758
883.01	20697
883.136	20579
883.262	20541
883.388	20495
883.514	20708
883.64	20724
883.766	20568
883.892	20301
884.018	20511
884.143	20549
884.269	20590
884.395	20351
884.52	20233
884.646	20294
884.772	20252
884.897	20191
885.023	20240
885.148	20267
885.274	20415
885.399	20393
885.524	20343
885.65	20351
885.775	20206
885.9	20488
886.025	20256
886.15	20362
886.275	20191
886.4	20122
886.525	20309
886.65	20062
886.775	20187
886.9	20442
887.025	20530
887.149	20339
887.274	20020
887.399	20062
887.523	20069
887.648	20035
887.773	20001
887.897	20020
888.021	19970
888.146	20081
888.27	20039
888.395	20134
888.519	20183
888.643	20103
888.767	20187
888.891	19951
889.015	19708
889.139	19868
889.263	19776
889.387	19982
889.511	20134
889.635	19989
889.759	19879
889.883	19932
890.006	19928
890.13	19868
890.254	19772
890.377	19776
890.501	19540
890.624	19708
890.748	19689
890.871	19506
890.995	19392
891.118	19339
891.241	19487
891.364	19403
891.488	19639
891.611	19529
891.734	19476
891.857	19384
891.98	19392
892.103	19362
892.226	19422
892.349	19350
892.471	19285
892.594	19373
892.717	19339
892.839	19445
892.962	19422
893.085	19453
893.207	19400
893.33	19263
893.452	19251
893.575	19476
893.697	19339
893.819	19586
893.941	19499
894.064	19552
894.186	19282
894.308	19175
894.43	19335
894.552	19514
894.674	19548
894.796	19270
894.918	19316
895.04	19354
895.161	19453
895.283	19445
895.405	19339
895.526	19480
895.648	19396
895.769	19499
895.891	19407
896.012	19411
896.134	19487
896.255	19346
896.376	19373
896.498	19400
896.619	19384
896.74	19343
896.861	19407
896.982	19780
897.103	19864
897.224	19719
897.345	19571
897.466	19605
897.587	19613
897.708	19849
897.828	19708
897.949	19518
898.07	19544
898.19	19597
898.311	19731
898.431	19567
898.552	19693
898.672	19700
898.792	19708
898.913	19712
899.033	19331
899.153	19449
899.273	19308
899.393	19362
899.513	19434
899.633	19403
899.753	19362
899.873	19304
899.993	19472
900.113	19392
900.232	19381
900.352	19293
900.472	19240
900.591	19168
900.711	19156
900.83	19137
900.95	19335
901.069	19369
901.189	18993
901.308	18867
901.427	18764
901.546	18802
901.665	18890
901.784	18806
901.904	18631
902.023	18494
902.141	18300
902.26	18266
902.379	18323
902.498	18388
902.617	18308
902.735	18433
902.854	18292
902.973	18262
903.091	17977
903.21	17923
903.328	17901
903.446	17779
903.565	17779
903.683	17813
903.801	17539
903.919	17653
904.038	17714
904.156	17649
904.274	17558
904.392	17532
904.51	17486
904.627	17554
904.745	17524
904.863	17554
904.981	17345
905.098	17318
905.216	17208
905.334	17284
905.451	17280
905.569	17250
905.686	17208
905.803	17223
905.921	17048
906.038	17105
906.155	17025
906.272	16869
906.389	16934
906.506	16790
906.623	16660
906.74	16797
906.857	16603
906.974	16618
907.091	16908
907.208	16805
907.324	16782
907.441	16797
907.557	16455
907.674	16485
907.79	16535
907.907	16440
908.023	16558
908.139	16546
908.256	16398
908.372	16344
908.488	16272
908.604	16287
908.72	16219
908.836	16219
908.952	16185
909.068	16211
909.184	16226
909.3	16105
909.415	16223
909.531	16185
909.647	15911
909.762	15941
909.878	15934
909.993	15907
910.108	15857
910.224	15884
910.339	15857
910.454	15770
910.57	15705
910.685	15679
910.8	15934
910.915	15842
911.03	15663
911.145	15504
911.259	15473
911.374	15549
911.489	15454
911.604	15435
911.718	15237
911.833	15355
911.947	15264
912.062	15157
912.176	15336
912.291	15374
912.405	15378
912.519	15534
912.633	15405
912.748	15420
912.862	15203
912.976	15218
913.09	14925
913.204	15100
913.318	15165
913.431	15199
913.545	15157
913.659	15150
913.772	15066
913.886	14941
914	14921
914.113	14952
914.226	15024
914.34	14956
914.453	14743
914.566	14994
914.68	14842
914.793	14731
914.906	14560
915.019	14617
915.132	14476
915.245	14492
915.358	14594
915.47	14541
915.583	14427
915.696	14556
915.809	14613
915.921	14708
916.034	14442
916.146	14450
916.259	14511
916.371	14461
916.483	14431
916.595	14339
916.708	14434
916.82	14370
916.932	14400
917.044	14461
917.156	14309
917.268	14237
917.38	14195
917.491	14206
917.603	14229
917.715	14252
917.826	14286
917.938	14081
918.049	14107
918.161	14206
918.272	14374
918.384	14271
918.495	14180
918.606	13944
918.717	13970
918.828	14012
918.939	14062
919.05	13871
919.161	14020
919.272	13738
919.383	13772
919.494	14054
919.604	14142
919.715	13925
919.826	13906
919.936	13887
920.047	13993
920.157	13932
920.267	14081
920.378	13932
920.488	13890
920.598	14065
920.708	14214
920.818	14031
920.928	14065
921.038	14256
921.148	14233
921.258	13860
921.368	13864
921.477	13639
921.587	13761
921.697	13605
921.806	13807
921.916	13487
922.025	13457
922.134	13388
922.244	13339
922.353	13449
922.462	13289
922.571	13209
922.68	13129
922.789	13008
922.898	12928
923.007	12939
923.116	13019
923.224	12935
923.333	12943
923.442	12928
923.55	12696
923.659	12852
923.767	12897
923.876	12833
923.984	12844
924.092	12722
924.201	12787
924.309	12734
924.417	12787
924.525	12669
924.633	12711
924.741	13670
924.849	12464
924.956	12669
925.064	12547
925.172	12429
925.279	12380
925.387	12494
925.494	12365
925.602	12525
925.709	12536
925.816	12372
925.924	12330
926.031	12471
926.138	12372
926.245	12544
926.352	12330
926.459	12452
926.566	12418
926.673	12346
926.779	12182
926.886	12140
926.993	12076
927.099	12019
927.206	11878
927.312	12007
927.419	12083
927.525	12003
927.631	12003
927.737	11931
927.843	11840
927.95	11752
928.056	11813
928.162	11946
928.267	11916
928.373	12467
928.479	11931
928.585	11748
928.69	11813
928.796	11863
928.901	11760
929.007	11562
929.112	11665
929.218	11707
929.323	11554
929.428	11653
929.533	11680
929.638	11554
929.743	11535
929.848	11532
929.953	11604
930.058	11463
930.163	11273
930.267	11292
930.372	11368
930.477	11178
930.581	11478
930.685	11353
930.79	11227
930.894	11231
930.998	11105
931.103	11277
931.207	10946
931.311	10885
931.415	10793
931.519	10565
931.623	10558
