Data from test_V78500241_1819.txt Node
Date: Fri Mar 25 15:22:31 CST 2022
User: usil
Spectrometer: V785-0024
Trigger mode: 0
Integration Time (sec): 4.000000E-1
Scans to average: 1
Nonlinearity correction enabled: false
Boxcar width: 0
Storing dark spectrum: false
XAxis mode: Wavelengths
Number of Pixels in Spectrum: 1024
>>>>>Begin Spectral Data<<<<<
801.071	27903
801.214	27724
801.356	27507
801.499	27454
801.641	27336
801.783	27291
801.926	27367
802.068	27317
802.211	27283
802.353	27154
802.496	27074
802.638	27017
802.78	26982
802.923	26845
803.065	26834
803.208	26853
803.35	26963
803.492	27081
803.635	27283
803.777	26948
803.919	27154
804.061	27492
804.204	27252
804.346	27081
804.488	26956
804.63	27146
804.773	27157
804.915	27108
805.057	27173
805.199	27119
805.341	27180
805.483	27245
805.626	27306
805.768	27081
805.91	27211
806.052	27393
806.194	27222
806.336	27401
806.478	27317
806.62	27138
806.762	27306
806.904	27439
807.046	27705
807.188	27663
807.33	27759
807.472	27846
807.614	27496
807.756	27694
807.898	27523
808.04	27523
808.182	27545
808.324	27523
808.465	27526
808.607	27804
808.749	27873
808.891	27884
809.033	28074
809.174	27960
809.316	27937
809.458	27873
809.6	27804
809.741	28082
809.883	28025
810.025	28230
810.166	28055
810.308	28200
810.45	28154
810.591	27994
810.733	27705
810.875	27774
811.016	27846
811.158	27804
811.299	27812
811.441	27987
811.582	27960
811.724	27797
811.865	27679
812.007	27778
812.148	28048
812.29	27907
812.431	27991
812.573	28272
812.714	28287
812.855	28322
812.997	28512
813.138	28611
813.279	28386
813.421	28478
813.562	28325
813.703	28120
813.845	28128
813.986	27911
814.127	27728
814.268	27595
814.41	27553
814.551	27606
814.692	27587
814.833	27523
814.974	27393
815.115	27587
815.256	27431
815.397	27405
815.539	27397
815.68	27336
815.821	27332
815.962	27504
816.103	27340
816.244	27348
816.385	27256
816.526	26944
816.666	26853
816.807	26864
816.948	26937
817.089	27020
817.23	26876
817.371	26739
817.512	26880
817.653	26883
817.793	26857
817.934	26849
818.075	26815
818.216	26986
818.356	26895
818.497	26758
818.638	26632
818.778	26621
818.919	26686
819.06	26705
819.2	26689
819.341	26781
819.481	26853
819.622	27051
819.762	27123
819.903	27108
820.043	27039
820.184	26994
820.324	27001
820.465	27085
820.605	27017
820.746	26937
820.886	26655
821.026	26960
821.167	27047
821.307	27058
821.447	26967
821.588	26807
821.728	26587
821.868	26442
822.008	26294
822.149	26305
822.289	26233
822.429	26073
822.569	26130
822.709	25993
822.849	25860
822.99	25913
823.13	25883
823.27	25708
823.41	25696
823.55	25506
823.69	25727
823.83	25639
823.97	25544
824.11	25559
824.25	25559
824.389	25559
824.529	25518
824.669	25426
824.809	25521
824.949	25540
825.089	25525
825.228	25350
825.368	25358
825.508	25381
825.648	25403
825.787	25308
825.927	25506
826.067	25343
826.206	25301
826.346	25400
826.485	25460
826.625	25308
826.765	25514
826.904	25362
827.044	25175
827.183	25080
827.323	25027
827.462	25133
827.601	25069
827.741	25031
827.88	25129
828.02	24947
828.159	25061
828.298	25160
828.437	25084
828.577	25050
828.716	25202
828.855	25027
828.994	24920
829.134	24905
829.273	24875
829.412	24863
829.551	24787
829.69	24779
829.829	24856
829.968	24916
830.107	24924
830.246	24779
830.385	24738
830.524	24787
830.663	24669
830.802	24642
830.941	24502
831.08	24414
831.219	24452
831.357	24585
831.496	24627
831.635	24426
831.774	24395
831.913	24308
832.051	24167
832.19	24239
832.329	24197
832.467	24102
832.606	24034
832.744	24106
832.883	24235
833.022	24110
833.16	24121
833.299	24155
833.437	24167
833.576	24209
833.714	24232
833.852	24273
833.991	24327
834.129	24308
834.267	24216
834.406	24213
834.544	24171
834.682	24102
834.821	24167
834.959	24323
835.097	24197
835.235	24197
835.373	24273
835.511	24152
835.65	23950
835.788	24030
835.926	23882
836.064	23870
836.202	23866
836.34	23946
836.478	24057
836.615	23965
836.753	23916
836.891	24079
837.029	24068
837.167	23912
837.305	23927
837.443	23878
837.58	23904
837.718	23843
837.856	23813
837.993	23745
838.131	23882
838.269	23741
838.406	23756
838.544	23687
838.681	23573
838.819	23505
838.956	23391
839.094	23284
839.231	23421
839.369	23547
839.506	23733
839.643	23516
839.781	23372
839.918	23292
840.055	23280
840.193	23345
840.33	23200
840.467	23242
840.604	23303
840.742	23589
840.879	23136
841.016	23296
841.153	23052
841.29	23356
841.427	23258
841.564	23231
841.701	23220
841.838	23239
841.975	23090
842.112	23109
842.249	23075
842.385	22980
842.522	23250
842.659	23083
842.796	23022
842.933	23166
843.069	22991
843.206	23006
843.343	23075
843.479	23056
843.616	22976
843.752	22790
843.889	22721
844.025	22915
844.162	22748
844.298	22915
844.435	22683
844.571	22816
844.708	22873
844.844	22915
844.98	23041
845.117	22843
845.253	22725
845.389	22592
845.525	22641
845.661	22706
845.798	22523
845.934	22481
846.07	22493
846.206	22554
846.342	22550
846.478	22550
846.614	22284
846.75	22154
846.886	22188
847.022	22272
847.158	22318
847.294	22291
847.429	22318
847.565	22234
847.701	22493
847.837	21941
847.972	21880
848.108	22036
848.244	21998
848.379	21960
848.515	21720
848.65	21899
848.786	21911
848.921	21838
849.057	21895
849.192	21911
849.328	21884
849.463	21835
849.598	21747
849.734	21800
849.869	21690
850.004	21701
850.14	21698
850.275	21595
850.41	21523
850.545	21557
850.68	21481
850.815	21648
850.95	21694
851.085	21766
851.22	21743
851.355	21682
851.49	21656
851.625	21553
851.76	21568
851.895	21534
852.03	21603
852.165	21652
852.299	21667
852.434	21610
852.569	21610
852.703	21663
852.838	21778
852.973	21854
853.107	21652
853.242	21564
853.376	21542
853.511	21336
853.645	21492
853.78	21614
853.914	21549
854.048	21336
854.183	21408
854.317	21481
854.451	21641
854.585	21454
854.72	21431
854.854	21408
854.988	21408
855.122	21412
855.256	21405
855.39	21340
855.524	21416
855.658	21534
855.792	21523
855.926	21469
856.06	21542
856.194	21458
856.327	21389
856.461	21447
856.595	21469
856.729	21408
856.862	21603
856.996	21504
857.13	21370
857.263	21523
857.397	21583
857.53	21477
857.664	21568
857.797	21477
857.931	21572
858.064	21447
858.197	21481
858.331	21496
858.464	21329
858.597	21279
858.731	21397
858.864	21408
858.997	21416
859.13	21462
859.263	21530
859.396	21553
859.529	21405
859.662	21279
859.795	21412
859.928	21485
860.061	21580
860.194	21709
860.327	21367
860.46	21378
860.592	21583
860.725	21511
860.858	21526
860.99	21454
861.123	21393
861.256	21485
861.388	21515
861.521	22067
861.653	21306
861.786	21237
861.918	21336
862.05	21370
862.183	21416
862.315	21344
862.447	21443
862.58	21317
862.712	21283
862.844	21237
862.976	21135
863.108	21142
863.24	21606
863.372	21142
863.504	21108
863.636	21077
863.768	21207
863.9	21108
864.032	21077
864.164	21074
864.296	21195
864.428	21283
864.559	21173
864.691	21146
864.823	21165
864.954	20986
865.086	21085
865.217	21066
865.349	21066
865.48	21100
865.612	20998
865.743	21222
865.875	21039
866.006	20971
866.137	20979
866.269	21039
866.4	21104
866.531	21036
866.662	20906
866.793	20868
866.924	20792
867.055	21028
867.186	20963
867.317	20937
867.448	20845
867.579	20952
867.71	20872
867.841	20925
867.972	20933
868.103	20887
868.233	21013
868.364	20998
868.495	21100
868.625	21268
868.756	21351
868.886	21169
869.017	21214
869.147	21233
869.278	21291
869.408	21184
869.539	21135
869.669	21245
869.799	21294
869.929	21306
870.06	21195
870.19	21428
870.32	21488
870.45	21496
870.58	21701
870.71	21591
870.84	21698
870.97	21519
871.1	21469
871.23	21705
871.36	21888
871.489	21629
871.619	21766
871.749	21804
871.879	21892
872.008	21827
872.138	21800
872.267	21728
872.397	21656
872.526	21591
872.656	21660
872.785	21625
872.915	21873
873.044	21884
873.173	21751
873.303	21926
873.432	21922
873.561	21876
873.69	21934
873.819	21800
873.948	21895
874.077	21854
874.206	21800
874.335	21808
874.464	22006
874.593	21968
874.722	21987
874.851	22078
874.979	22139
875.108	22010
875.237	22029
875.365	21994
875.494	22097
875.623	22188
875.751	22036
875.88	22067
876.008	22097
876.136	22265
876.265	22394
876.393	22645
876.521	22474
876.65	22512
876.778	22489
876.906	22367
877.034	22390
877.162	22303
877.29	22257
877.418	22443
877.546	22367
877.674	22249
877.802	22409
877.93	22466
878.058	22268
878.185	22295
878.313	22314
878.441	22379
878.568	22215
878.696	22363
878.824	22379
878.951	22504
879.079	22466
879.206	22504
879.333	22565
879.461	22485
879.588	22375
879.715	22561
879.842	22721
879.97	22481
880.097	22257
880.224	22265
880.351	22261
880.478	22310
880.605	22147
880.732	22181
880.859	22398
880.986	22177
881.112	22257
881.239	22055
881.366	21941
881.493	21895
881.619	21793
881.746	21854
881.872	21793
881.999	21842
882.125	21667
882.252	21812
882.378	21732
882.505	21831
882.631	21648
882.757	21469
882.883	21587
883.01	21447
883.136	21477
883.262	21462
883.388	21348
883.514	21660
883.64	21507
883.766	21454
883.892	21310
884.018	21332
884.143	21545
884.269	21450
884.395	21192
884.52	21058
884.646	21207
884.772	20963
884.897	21005
885.023	21138
885.148	21272
885.274	21230
885.399	21199
885.524	21024
885.65	21119
885.775	21127
885.9	21131
886.025	21199
886.15	21188
886.275	21074
886.4	21066
886.525	21093
886.65	20948
886.775	20891
886.9	21249
887.025	21348
887.149	21135
887.274	20998
887.399	21051
887.523	20906
887.648	20887
887.773	20819
887.897	20933
888.021	20811
888.146	20842
888.27	21013
888.395	21047
888.519	20868
888.643	20830
888.767	21085
888.891	20845
889.015	20701
889.139	20857
889.263	20678
889.387	20792
889.511	20872
889.635	20781
889.759	20678
889.883	20613
890.006	20682
890.13	20830
890.254	20648
890.377	20606
890.501	20396
890.624	20320
890.748	20465
890.871	20305
890.995	20229
891.118	20298
891.241	20229
891.364	20248
891.488	20313
891.611	20313
891.734	20328
891.857	20229
891.98	20317
892.103	20385
892.226	20229
892.349	20183
892.471	20054
892.594	20244
892.717	20145
892.839	20161
892.962	20210
893.085	20244
893.207	20191
893.33	20069
893.452	20043
893.575	20142
893.697	20161
893.819	20210
893.941	20370
894.064	20309
894.186	20111
894.308	20073
894.43	20142
894.552	20328
894.674	20252
894.796	20115
894.918	20073
895.04	20164
895.161	20077
895.283	20298
895.405	20119
895.526	20180
895.648	20149
895.769	20107
895.891	20180
896.012	20324
896.134	20122
896.255	20248
896.376	20191
896.498	20115
896.619	20164
896.74	20130
896.861	20275
896.982	20503
897.103	20526
897.224	20518
897.345	20461
897.466	20271
897.587	20263
897.708	20366
897.828	20355
897.949	20324
898.07	20180
898.19	20309
898.311	20343
898.431	20309
898.552	20385
898.672	20374
898.792	20385
898.913	20374
899.033	20252
899.153	20157
899.273	19986
899.393	20073
899.513	20077
899.633	20214
899.753	20191
899.873	19921
899.993	20172
900.113	20058
900.232	20081
900.352	20005
900.472	19833
900.591	19822
900.711	19982
900.83	19894
900.95	19944
901.069	19940
901.189	19795
901.308	19620
901.427	19407
901.546	19430
901.665	19483
901.784	19510
901.904	19259
902.023	19266
902.141	19053
902.26	18943
902.379	18943
902.498	19095
902.617	18966
902.735	18970
902.854	18924
902.973	18935
903.091	18840
903.21	18707
903.328	18722
903.446	18490
903.565	18483
903.683	18479
903.801	18388
903.919	18441
904.038	18418
904.156	18148
904.274	18216
904.392	18235
904.51	18148
904.627	18197
904.745	18315
904.863	18197
904.981	18007
905.098	17927
905.216	17809
905.334	17973
905.451	17927
905.569	17821
905.686	18019
905.803	17832
905.921	17726
906.038	17790
906.155	17600
906.272	17562
906.389	17646
906.506	17528
906.623	17512
906.74	17356
906.857	17303
906.974	17242
907.091	17589
907.208	17505
907.324	17474
907.441	17402
907.557	17155
907.674	17124
907.79	17105
907.907	17223
908.023	17048
908.139	17208
908.256	17022
908.372	16946
908.488	17018
908.604	16972
908.72	16873
908.836	16908
908.952	16767
909.068	16942
909.184	16930
909.3	16866
909.415	16812
909.531	16831
909.647	16618
909.762	16622
909.878	16558
909.993	16550
910.108	16573
910.224	16500
910.339	16561
910.454	16497
910.57	16409
910.685	16204
910.8	16546
910.915	16599
911.03	16356
911.145	16234
911.259	16200
911.374	16135
911.489	16112
911.604	16048
911.718	15911
911.833	15953
911.947	15789
912.062	15800
912.176	15865
912.291	15911
912.405	15808
912.519	16078
912.633	16128
912.748	15968
912.862	15831
912.976	15713
913.09	15587
913.204	15682
913.318	15751
913.431	15793
913.545	15778
913.659	15785
913.772	15614
913.886	15568
914	15492
914.113	15564
914.226	15663
914.34	15614
914.453	15519
914.566	15545
914.68	15519
914.793	15428
914.906	15256
915.019	15165
915.132	15112
915.245	15104
915.358	15165
915.47	15142
915.583	15089
915.696	15161
915.809	15180
915.921	15214
916.034	15135
916.146	15017
916.259	14979
916.371	15116
916.483	15062
916.595	14849
916.708	14944
916.82	14891
916.932	14823
917.044	14906
917.156	14826
917.268	14853
917.38	14838
917.491	14743
917.603	14842
917.715	14777
917.826	14807
917.938	14716
918.049	14590
918.161	14674
918.272	14864
918.384	14838
918.495	14785
918.606	14560
918.717	14503
918.828	14571
918.939	14579
919.05	14530
919.161	14530
919.272	14355
919.383	14366
919.494	14530
919.604	14712
919.715	14556
919.826	14305
919.936	14594
920.047	14568
920.157	14568
920.267	14712
920.378	14412
920.488	14423
920.598	14644
920.708	14902
920.818	14636
920.928	14606
921.038	14781
921.148	14712
921.258	14446
921.368	14309
921.477	14278
921.587	14278
921.697	14035
921.806	14275
921.916	14123
922.025	13982
922.134	13875
922.244	13837
922.353	13989
922.462	13837
922.571	13700
922.68	13525
922.789	13586
922.898	13521
923.007	13521
923.116	13537
923.224	13476
923.333	13518
923.442	13377
923.55	13358
923.659	13384
923.767	13419
923.876	13331
923.984	13426
924.092	13293
924.201	13251
924.309	13198
924.417	13297
924.525	13221
924.633	13244
924.741	14062
924.849	13019
924.956	13099
925.064	13061
925.172	12848
925.279	12856
925.387	12890
925.494	12954
925.602	13164
925.709	12993
925.816	12783
925.924	12909
926.031	12970
926.138	12939
926.245	12977
926.352	12814
926.459	12897
926.566	12882
926.673	12875
926.779	12749
926.886	12688
926.993	12604
927.099	12532
927.206	12448
927.312	12414
927.419	12551
927.525	12521
927.631	12460
927.737	12426
927.843	12323
927.95	12175
928.056	12277
928.162	12315
928.267	12308
928.373	13015
928.479	12395
928.585	12258
928.69	12296
928.796	12289
928.901	12152
929.007	12110
929.112	12117
929.218	12281
929.323	12110
929.428	12106
929.533	12163
929.638	12007
929.743	12011
929.848	12057
929.953	11999
930.058	11927
930.163	11722
930.267	11786
930.372	11885
930.477	11699
930.581	11977
930.685	11733
930.79	11600
930.894	11665
930.998	11627
931.103	11794
931.207	11372
931.311	11326
931.415	11201
931.519	11064
931.623	11094
