Data from test_V78500241_643.txt Node
Date: Fri Mar 25 15:14:20 CST 2022
User: usil
Spectrometer: V785-0024
Trigger mode: 0
Integration Time (sec): 4.000000E-1
Scans to average: 1
Nonlinearity correction enabled: false
Boxcar width: 0
Storing dark spectrum: false
XAxis mode: Wavelengths
Number of Pixels in Spectrum: 1024
>>>>>Begin Spectral Data<<<<<
801.071	27268
801.214	27207
801.356	27001
801.499	26845
801.641	26811
801.783	26746
801.926	26853
802.068	26750
802.211	26689
802.353	26640
802.496	26495
802.638	26412
802.78	26446
802.923	26309
803.065	26457
803.208	26488
803.35	26453
803.492	26556
803.635	26545
803.777	26465
803.919	26476
804.061	26868
804.204	26446
804.346	26617
804.488	26511
804.63	26518
804.773	26465
804.915	26518
805.057	26830
805.199	26560
805.341	26621
805.483	26754
805.626	26667
805.768	26640
805.91	26697
806.052	26644
806.194	26629
806.336	26785
806.478	26781
806.62	26636
806.762	26781
806.904	27032
807.046	27074
807.188	27119
807.33	27138
807.472	27096
807.614	27036
807.756	26986
807.898	26975
808.04	26849
808.182	26872
808.324	26906
808.465	26880
808.607	27112
808.749	27165
808.891	27302
809.033	27408
809.174	27420
809.316	27306
809.458	27291
809.6	27245
809.741	27431
809.883	27466
810.025	27526
810.166	27496
810.308	27614
810.45	27561
810.591	27389
810.733	27306
810.875	27298
811.016	27169
811.158	27211
811.299	27416
811.441	27397
811.582	27466
811.724	27283
811.865	27104
812.007	27233
812.148	27340
812.29	27408
812.431	27466
812.573	27705
812.714	27724
812.855	28006
812.997	27846
813.138	28070
813.279	27907
813.421	27838
813.562	27831
813.703	27686
813.845	27458
813.986	27363
814.127	26994
814.268	27024
814.41	27100
814.551	26982
814.692	26910
814.833	26876
814.974	26849
815.115	26998
815.256	26876
815.397	26777
815.539	26864
815.68	26796
815.821	26549
815.962	26785
816.103	26765
816.244	26594
816.385	26480
816.526	26438
816.666	26298
816.807	26290
816.948	26301
817.089	26366
817.23	26278
817.371	26328
817.512	26317
817.653	26164
817.793	26214
817.934	26313
818.075	26286
818.216	26286
818.356	26145
818.497	26149
818.638	26050
818.778	25997
818.919	25913
819.06	25993
819.2	26122
819.341	26332
819.481	26176
819.622	26431
819.762	26511
819.903	26511
820.043	26473
820.184	26419
820.324	26473
820.465	26404
820.605	26343
820.746	26313
820.886	26298
821.026	26362
821.167	26355
821.307	26431
821.447	26309
821.588	26229
821.728	25993
821.868	25898
822.008	25708
822.149	25719
822.289	25647
822.429	25483
822.569	25411
822.709	25441
822.849	25190
822.99	25270
823.13	25179
823.27	25202
823.41	25061
823.55	24920
823.69	25088
823.83	25050
823.97	24913
824.11	24817
824.25	24802
824.389	24863
824.529	24867
824.669	24734
824.809	24840
824.949	25027
825.089	24886
825.228	24901
825.368	24787
825.508	24783
825.648	24677
825.787	24726
825.927	24749
826.067	24585
826.206	24673
826.346	24734
826.485	24722
826.625	24810
826.765	24779
826.904	24711
827.044	24437
827.183	24410
827.323	24490
827.462	24517
827.601	24410
827.741	24361
827.88	24361
828.02	24270
828.159	24410
828.298	24357
828.437	24528
828.577	24361
828.716	24471
828.855	24247
828.994	24140
829.134	24098
829.273	24220
829.412	24053
829.551	24163
829.69	24174
829.829	24121
829.968	24159
830.107	24190
830.246	24091
830.385	23977
830.524	24007
830.663	23946
830.802	23783
830.941	23767
831.08	23699
831.219	23805
831.357	23775
831.496	23942
831.635	23687
831.774	23676
831.913	23657
832.051	23547
832.19	23573
832.329	23547
832.467	23417
832.606	23330
832.744	23379
832.883	23391
833.022	23360
833.16	23493
833.299	23387
833.437	23509
833.576	23566
833.714	23524
833.852	23421
833.991	23474
834.129	23570
834.267	23570
834.406	23490
834.544	23592
834.682	23421
834.821	23558
834.959	23531
835.097	23455
835.235	23543
835.373	23478
835.511	23459
835.65	23364
835.788	23311
835.926	23265
836.064	23094
836.202	23147
836.34	23410
836.478	23402
836.615	23208
836.753	23406
836.891	23448
837.029	23376
837.167	23147
837.305	23288
837.443	23269
837.58	23094
837.718	23174
837.856	23113
837.993	23140
838.131	23174
838.269	23006
838.406	23071
838.544	22976
838.681	22797
838.819	22790
838.956	22675
839.094	22592
839.231	22649
839.369	22869
839.506	22896
839.643	22919
839.781	22603
839.918	22599
840.055	22573
840.193	22675
840.33	22645
840.467	22725
840.604	22626
840.742	22729
840.879	22356
841.016	22531
841.153	22516
841.29	22603
841.427	22508
841.564	22561
841.701	22550
841.838	22542
841.975	22379
842.112	22394
842.249	22272
842.385	22325
842.522	22542
842.659	22428
842.796	22306
842.933	22242
843.069	22265
843.206	22322
843.343	22303
843.479	22238
843.616	22314
843.752	22257
843.889	22124
844.025	22135
844.162	22105
844.298	22230
844.435	22067
844.571	22021
844.708	22086
844.844	22242
844.98	22162
845.117	22211
845.253	21994
845.389	22048
845.525	22070
845.661	21994
845.798	21804
845.934	21983
846.07	21895
846.206	21857
846.342	21884
846.478	21762
846.614	21568
846.75	21454
846.886	21534
847.022	21545
847.158	21648
847.294	21599
847.429	21652
847.565	21496
847.701	21762
847.837	21340
847.972	21393
848.108	21382
848.244	21477
848.379	21230
848.515	21199
848.65	21207
848.786	21245
848.921	21150
849.057	21294
849.192	21142
849.328	21135
849.463	21112
849.598	21074
849.734	21112
849.869	20979
850.004	20933
850.14	20948
850.275	20937
850.41	20773
850.545	20941
850.68	20902
850.815	20982
850.95	20967
851.085	21001
851.22	21108
851.355	20929
851.49	20864
851.625	20960
851.76	20948
851.895	20883
852.03	20800
852.165	20918
852.299	20960
852.434	21123
852.569	20952
852.703	20975
852.838	21108
852.973	21100
853.107	21157
853.242	20845
853.376	20849
853.511	20697
853.645	20762
853.78	20925
853.914	20807
854.048	20807
854.183	20758
854.317	20670
854.451	21001
854.585	20758
854.72	20765
854.854	20834
854.988	20785
855.122	20689
855.256	20571
855.39	20762
855.524	20834
855.658	20845
855.792	20853
855.926	20777
856.06	20777
856.194	20861
856.327	20773
856.461	20670
856.595	20792
856.729	20746
856.862	20925
856.996	20769
857.13	20800
857.263	20864
857.397	20807
857.53	20830
857.664	20716
857.797	20727
857.931	20693
858.064	20746
858.197	20986
858.331	20617
858.464	20750
858.597	20659
858.731	20765
858.864	20823
858.997	20788
859.13	20777
859.263	20781
859.396	20819
859.529	20587
859.662	20750
859.795	20864
859.928	20667
860.061	20952
860.194	20998
860.327	20887
860.46	20800
860.592	20857
860.725	20724
860.858	20845
860.99	20731
861.123	20564
861.256	20765
861.388	20807
861.521	21492
861.653	20590
861.786	20686
861.918	20636
862.05	20708
862.183	20682
862.315	20842
862.447	20735
862.58	20697
862.712	20473
862.844	20309
862.976	20636
863.108	20560
863.24	20971
863.372	20511
863.504	20450
863.636	20530
863.768	20419
863.9	20404
864.032	20362
864.164	20301
864.296	20488
864.428	20594
864.559	20552
864.691	20549
864.823	20480
864.954	20495
865.086	20434
865.217	20465
865.349	20339
865.48	20381
865.612	20503
865.743	20423
865.875	20393
866.006	20400
866.137	20343
866.269	20328
866.4	20282
866.531	20256
866.662	20176
866.793	20381
866.924	20358
867.055	20320
867.186	20248
867.317	20324
867.448	20244
867.579	20305
867.71	20210
867.841	20218
867.972	20400
868.103	20214
868.233	20275
868.364	20313
868.495	20415
868.625	20499
868.756	20648
868.886	20446
869.017	20598
869.147	20651
869.278	20705
869.408	20655
869.539	20431
869.669	20682
869.799	20602
869.929	20560
870.06	20731
870.19	20693
870.32	20773
870.45	20830
870.58	20948
870.71	21146
870.84	20971
870.97	20921
871.1	20990
871.23	21024
871.36	21268
871.489	21055
871.619	21066
871.749	21123
871.879	21154
872.008	21222
872.138	21108
872.267	21085
872.397	21100
872.526	20956
872.656	20887
872.785	20990
872.915	21211
873.044	21249
873.173	21184
873.303	21195
873.432	21291
873.561	21256
873.69	21173
873.819	21138
873.948	21161
874.077	21146
874.206	21138
874.335	21203
874.464	21351
874.593	21488
874.722	21374
874.851	21469
874.979	21420
875.108	21542
875.237	21382
875.365	21260
875.494	21416
875.623	21496
875.751	21389
875.88	21408
876.008	21431
876.136	21614
876.265	21800
876.393	21968
876.521	21797
876.65	21888
876.778	21705
876.906	21701
877.034	21762
877.162	21739
877.29	21583
877.418	21903
877.546	21743
877.674	21793
877.802	21644
877.93	21633
878.058	21823
878.185	21591
878.313	21747
878.441	21701
878.568	21507
878.696	21739
878.824	21774
878.951	21880
879.079	21918
879.206	22051
879.333	21899
879.461	21812
879.588	21800
879.715	21873
879.842	22021
879.97	21816
880.097	21625
880.224	21644
880.351	21561
880.478	21534
880.605	21622
880.732	21557
880.859	21880
880.986	21606
881.112	21599
881.239	21439
881.366	21306
881.493	21131
881.619	21176
881.746	21199
881.872	21108
881.999	21176
882.125	21047
882.252	21249
882.378	21108
882.505	21313
882.631	21058
882.757	20944
882.883	20941
883.01	20918
883.136	20876
883.262	20785
883.388	20693
883.514	20899
883.64	20914
883.766	20720
883.892	20708
884.018	20648
884.143	20826
884.269	20868
884.395	20564
884.52	20446
884.646	20530
884.772	20568
884.897	20408
885.023	20526
885.148	20590
885.274	20686
885.399	20632
885.524	20606
885.65	20499
885.775	20663
885.9	20522
886.025	20621
886.15	20583
886.275	20442
886.4	20423
886.525	20423
886.65	20339
886.775	20438
886.9	20697
887.025	20678
887.149	20469
887.274	20286
887.399	20240
887.523	20309
887.648	20233
887.773	20172
887.897	20339
888.021	20320
888.146	20301
888.27	20396
888.395	20298
888.519	20332
888.643	20415
888.767	20415
888.891	20214
889.015	20210
889.139	20081
889.263	19947
889.387	20126
889.511	20172
889.635	20286
889.759	20107
889.883	20111
890.006	20157
890.13	20130
890.254	20103
890.377	20001
890.501	19913
890.624	19776
890.748	19906
890.871	19814
890.995	19639
891.118	19628
891.241	19742
891.364	19746
891.488	19727
891.611	19693
891.734	19666
891.857	19674
891.98	19731
892.103	19723
892.226	19803
892.349	19552
892.471	19518
892.594	19552
892.717	19635
892.839	19594
892.962	19548
893.085	19639
893.207	19578
893.33	19495
893.452	19635
893.575	19632
893.697	19548
893.819	19681
893.941	19750
894.064	19658
894.186	19537
894.308	19594
894.43	19696
894.552	19696
894.674	19696
894.796	19533
894.918	19502
895.04	19620
895.161	19594
895.283	19605
895.405	19605
895.526	19495
895.648	19540
895.769	19681
895.891	19582
896.012	19662
896.134	19582
896.255	19609
896.376	19624
896.498	19647
896.619	19696
896.74	19632
896.861	19674
896.982	19887
897.103	20157
897.224	19917
897.345	19879
897.466	19803
897.587	19871
897.708	19913
897.828	19925
897.949	19807
898.07	19635
898.19	19849
898.311	19909
898.431	19826
898.552	19738
898.672	19837
898.792	19955
898.913	19898
899.033	19624
899.153	19620
899.273	19552
899.393	19578
899.513	19556
899.633	19559
899.753	19605
899.873	19483
899.993	19616
900.113	19563
900.232	19666
900.352	19521
900.472	19415
900.591	19388
900.711	19403
900.83	19331
900.95	19438
901.069	19407
901.189	19225
901.308	19084
901.427	18932
901.546	18935
901.665	19050
901.784	18966
901.904	18947
902.023	18806
902.141	18547
902.26	18395
902.379	18566
902.498	18506
902.617	18456
902.735	18490
902.854	18502
902.973	18483
903.091	18197
903.21	18235
903.328	18106
903.446	18049
903.565	17992
903.683	18034
903.801	17866
903.919	17870
904.038	17775
904.156	17771
904.274	17923
904.392	17707
904.51	17714
904.627	17832
904.745	17661
904.863	17794
904.981	17562
905.098	17318
905.216	17448
905.334	17440
905.451	17376
905.569	17341
905.686	17482
905.803	17429
905.921	17170
906.038	17395
906.155	17273
906.272	17090
906.389	17227
906.506	17003
906.623	16980
906.74	16942
906.857	16759
906.974	16881
907.091	17037
907.208	17143
907.324	16965
907.441	16908
907.557	16698
907.674	16607
907.79	16702
907.907	16634
908.023	16733
908.139	16717
908.256	16679
908.372	16519
908.488	16519
908.604	16405
908.72	16333
908.836	16455
908.952	16352
909.068	16432
909.184	16596
909.3	16394
909.415	16379
909.531	16329
909.647	16181
909.762	16040
909.878	16074
909.993	16040
910.108	16135
910.224	16097
910.339	16086
910.454	15960
910.57	15960
910.685	15884
910.8	16021
910.915	16093
911.03	15861
911.145	15774
911.259	15770
911.374	15751
911.489	15705
911.604	15603
911.718	15553
911.833	15523
911.947	15325
912.062	15287
912.176	15405
912.291	15386
912.405	15351
912.519	15610
912.633	15610
912.748	15507
912.862	15359
912.976	15241
913.09	15157
913.204	15184
913.318	15351
913.431	15332
913.545	15310
913.659	15386
913.772	15260
913.886	15028
914	15009
914.113	15169
914.226	15150
914.34	15161
914.453	15001
914.566	15180
914.68	15066
914.793	14975
914.906	14857
915.019	14735
915.132	14651
915.245	14651
915.358	14686
915.47	14629
915.583	14743
915.696	14739
915.809	14777
915.921	14750
916.034	14682
916.146	14613
916.259	14590
916.371	14583
916.483	14697
916.595	14545
916.708	14610
916.82	14556
916.932	14556
917.044	14549
917.156	14507
917.268	14473
917.38	14358
917.491	14339
917.603	14362
917.715	14457
917.826	14511
917.938	14332
918.049	14252
918.161	14393
918.272	14461
918.384	14431
918.495	14343
918.606	14191
918.717	14119
918.828	14092
918.939	14191
919.05	14107
919.161	14115
919.272	13959
919.383	14001
919.494	14271
919.604	14339
919.715	14119
919.826	14069
919.936	14073
920.047	14153
920.157	14123
920.267	14324
920.378	14115
920.488	14062
920.598	14233
920.708	14526
920.818	14267
920.928	14320
921.038	14339
921.148	14328
921.258	13967
921.368	14012
921.477	13883
921.587	13852
921.697	13731
921.806	13944
921.916	13750
922.025	13563
922.134	13575
922.244	13430
922.353	13518
922.462	13388
922.571	13339
922.68	13225
922.789	13133
922.898	13168
923.007	13031
923.116	13137
923.224	13251
923.333	13118
923.442	13069
923.55	13034
923.659	12996
923.767	13046
923.876	12962
923.984	12962
924.092	12909
924.201	12958
924.309	12943
924.417	12951
924.525	12776
924.633	12806
924.741	13685
924.849	12726
924.956	12776
925.064	12589
925.172	12471
925.279	12658
925.387	12601
925.494	12616
925.602	12779
925.709	12642
925.816	12551
925.924	12460
926.031	12597
926.138	12536
926.245	12616
926.352	12509
926.459	12578
926.566	12570
926.673	12429
926.779	12372
926.886	12308
926.993	12235
927.099	12197
927.206	12144
927.312	12041
927.419	12296
927.525	12152
927.631	12178
927.737	12133
927.843	11996
927.95	11965
928.056	12076
928.162	12022
928.267	11977
928.373	12707
928.479	12106
928.585	11775
928.69	12003
928.796	11950
928.901	11863
929.007	11707
929.112	11859
929.218	11809
929.323	11805
929.428	11741
929.533	11874
929.638	11741
929.743	11642
929.848	11611
929.953	11619
930.058	11585
930.163	11379
930.267	11417
930.372	11592
930.477	11414
930.581	11646
930.685	11452
930.79	11318
930.894	11379
930.998	11231
931.103	11414
931.207	11071
931.311	10953
931.415	10919
931.519	10672
931.623	10683
