Data from test_V78500241_1075.txt Node
Date: Fri Mar 25 15:17:20 CST 2022
User: usil
Spectrometer: V785-0024
Trigger mode: 0
Integration Time (sec): 4.000000E-1
Scans to average: 1
Nonlinearity correction enabled: false
Boxcar width: 0
Storing dark spectrum: false
XAxis mode: Wavelengths
Number of Pixels in Spectrum: 1024
>>>>>Begin Spectral Data<<<<<
801.071	28124
801.214	27987
801.356	27724
801.499	27667
801.641	27591
801.783	27705
801.926	27671
802.068	27583
802.211	27530
802.353	27500
802.496	27306
802.638	27176
802.78	27374
802.923	27370
803.065	27332
803.208	27207
803.35	27241
803.492	27477
803.635	27553
803.777	27386
803.919	27523
804.061	27770
804.204	27564
804.346	27359
804.488	27492
804.63	27530
804.773	27504
804.915	27538
805.057	27663
805.199	27682
805.341	27618
805.483	27759
805.626	27690
805.768	27473
805.91	27515
806.052	27785
806.194	27526
806.336	27774
806.478	27739
806.62	27717
806.762	27922
806.904	27835
807.046	28109
807.188	28177
807.33	27983
807.472	27979
807.614	28154
807.756	27903
807.898	27918
808.04	27880
808.182	27930
808.324	27983
808.465	27911
808.607	28276
808.749	28181
808.891	28432
809.033	28481
809.174	28481
809.316	28367
809.458	28379
809.6	28276
809.741	28466
809.883	28447
810.025	28588
810.166	28546
810.308	28550
810.45	28557
810.591	28489
810.733	28413
810.875	28291
811.016	28150
811.158	28192
811.299	28348
811.441	28565
811.582	28478
811.724	28287
811.865	28268
812.007	28325
812.148	28421
812.29	28360
812.431	28478
812.573	28634
812.714	28793
812.855	28820
812.997	28999
813.138	29140
813.279	29003
813.421	28904
813.562	28904
813.703	28691
813.845	28637
813.986	28234
814.127	28242
814.268	27979
814.41	28101
814.551	27918
814.692	28135
814.833	28006
814.974	27956
815.115	27960
815.256	27880
815.397	27960
815.539	27888
815.68	27789
815.821	27835
815.962	27861
816.103	27873
816.244	27732
816.385	27682
816.526	27641
816.666	27408
816.807	27332
816.948	27351
817.089	27462
817.23	27427
817.371	27405
817.512	27268
817.653	27325
817.793	27332
817.934	27351
818.075	27431
818.216	27279
818.356	27321
818.497	27374
818.638	27085
818.778	27119
818.919	27058
819.06	27157
819.2	27230
819.341	27313
819.481	27329
819.622	27534
819.762	27606
819.903	27675
820.043	27641
820.184	27564
820.324	27408
820.465	27542
820.605	27443
820.746	27458
820.886	27351
821.026	27302
821.167	27313
821.307	27466
821.447	27526
821.588	27275
821.728	27169
821.868	27009
822.008	26838
822.149	26815
822.289	26845
822.429	26689
822.569	26511
822.709	26617
822.849	26377
822.99	26355
823.13	26248
823.27	26130
823.41	26301
823.55	25917
823.69	26259
823.83	26199
823.97	26088
824.11	25978
824.25	25909
824.389	26008
824.529	26259
824.669	26081
824.809	26168
824.949	26149
825.089	26122
825.228	25989
825.368	25883
825.508	25822
825.648	25849
825.787	25974
825.927	25925
826.067	25898
826.206	25708
826.346	25849
826.485	25951
826.625	25887
826.765	26103
826.904	25811
827.044	25643
827.183	25620
827.323	25674
827.462	25582
827.601	25632
827.741	25594
827.88	25586
828.02	25540
828.159	25624
828.298	25529
828.437	25651
828.577	25483
828.716	25807
828.855	25483
828.994	25240
829.134	25358
829.273	25221
829.412	25335
829.551	25183
829.69	25209
829.829	25308
829.968	25350
830.107	25468
830.246	25282
830.385	25198
830.524	25156
830.663	25145
830.802	24935
830.941	24962
831.08	24977
831.219	24973
831.357	24985
831.496	25209
831.635	25038
831.774	24867
831.913	24856
832.051	24669
832.19	24673
832.329	24840
832.467	24764
832.606	24509
832.744	24589
832.883	24521
833.022	24578
833.16	24646
833.299	24673
833.437	24688
833.576	24642
833.714	24688
833.852	24688
833.991	24730
834.129	24829
834.267	24932
834.406	24700
834.544	24677
834.682	24604
834.821	24669
834.959	24760
835.097	24616
835.235	24677
835.373	24498
835.511	24696
835.65	24616
835.788	24612
835.926	24410
836.064	24262
836.202	24342
836.34	24677
836.478	24604
836.615	24426
836.753	24509
836.891	24604
837.029	24509
837.167	24521
837.305	24467
837.443	24365
837.58	24357
837.718	24494
837.856	24281
837.993	24197
838.131	24239
838.269	24106
838.406	24239
838.544	24007
838.681	24022
838.819	24007
838.956	23836
839.094	23767
839.231	23950
839.369	23916
839.506	24209
839.643	24095
839.781	23874
839.918	23726
840.055	23779
840.193	23668
840.33	23790
840.467	23783
840.604	23752
840.742	23885
840.879	23649
841.016	23714
841.153	23653
841.29	23878
841.427	23710
841.564	23737
841.701	23714
841.838	23608
841.975	23562
842.112	23573
842.249	23452
842.385	23417
842.522	23847
842.659	23653
842.796	23653
842.933	23478
843.069	23440
843.206	23402
843.343	23589
843.479	23592
843.616	23471
843.752	23467
843.889	23322
844.025	23410
844.162	23124
844.298	23372
844.435	23318
844.571	23288
844.708	23341
844.844	23322
844.98	23455
845.117	23414
845.253	23330
845.389	23098
845.525	23121
845.661	22991
845.798	23003
845.934	23121
846.07	23060
846.206	23025
846.342	23075
846.478	22949
846.614	22774
846.75	22660
846.886	22725
847.022	22816
847.158	22778
847.294	22649
847.429	22782
847.565	22637
847.701	22972
847.837	22375
847.972	22318
848.108	22500
848.244	22565
848.379	22405
848.515	22363
848.65	22226
848.786	22432
848.921	22314
849.057	22413
849.192	22440
849.328	22371
849.463	22405
849.598	22215
849.734	22200
849.869	22040
850.004	22120
850.14	22097
850.275	22067
850.41	21968
850.545	21991
850.68	22093
850.815	22154
850.95	21991
851.085	22272
851.22	22310
851.355	22173
851.49	22063
851.625	22109
851.76	22021
851.895	22048
852.03	21945
852.165	21998
852.299	22082
852.434	22101
852.569	22143
852.703	22150
852.838	22158
852.973	22154
853.107	22276
853.242	21987
853.376	21979
853.511	21778
853.645	21899
853.78	22002
853.914	21918
854.048	21899
854.183	21926
854.317	21972
854.451	22013
854.585	21899
854.72	21831
854.854	21964
854.988	21831
855.122	21949
855.256	21755
855.39	21854
855.524	22013
855.658	21945
855.792	22029
855.926	21972
856.06	21892
856.194	21899
856.327	21827
856.461	21823
856.595	21865
856.729	21774
856.862	22025
856.996	21960
857.13	21888
857.263	21953
857.397	21998
857.53	21823
857.664	22006
857.797	21888
857.931	21953
858.064	21808
858.197	22051
858.331	21983
858.464	21884
858.597	21762
858.731	21831
858.864	21895
858.997	21854
859.13	21907
859.263	21915
859.396	21907
859.529	21979
859.662	21975
859.795	21797
859.928	21907
860.061	22093
860.194	22063
860.327	21888
860.46	21854
860.592	22029
860.725	21991
860.858	21983
860.99	22017
861.123	21831
861.256	21827
861.388	21899
861.521	22546
861.653	21816
861.786	21720
861.918	21854
862.05	21759
862.183	21793
862.315	21789
862.447	21861
862.58	21941
862.712	21633
862.844	21561
862.976	21736
863.108	21652
863.24	22040
863.372	21549
863.504	21618
863.636	21580
863.768	21534
863.9	21610
864.032	21568
864.164	21583
864.296	21519
864.428	21766
864.559	21717
864.691	21682
864.823	21595
864.954	21564
865.086	21553
865.217	21526
865.349	21458
865.48	21439
865.612	21618
865.743	21610
865.875	21557
866.006	21428
866.137	21530
866.269	21466
866.4	21519
866.531	21462
866.662	21378
866.793	21439
866.924	21515
867.055	21507
867.186	21412
867.317	21382
867.448	21370
867.579	21454
867.71	21481
867.841	21340
867.972	21397
868.103	21367
868.233	21382
868.364	21439
868.495	21435
868.625	21663
868.756	21835
868.886	21523
869.017	21701
869.147	21675
869.278	21793
869.408	21720
869.539	21698
869.669	21846
869.799	21797
869.929	21739
870.06	21808
870.19	22021
870.32	21979
870.45	21945
870.58	22048
870.71	22078
870.84	22188
870.97	21991
871.1	22124
871.23	22192
871.36	22177
871.489	22249
871.619	22276
871.749	22333
871.879	22246
872.008	22215
872.138	22230
872.267	22280
872.397	22249
872.526	22109
872.656	22044
872.785	22078
872.915	22204
873.044	22390
873.173	22230
873.303	22325
873.432	22322
873.561	22291
873.69	22291
873.819	22329
873.948	22284
874.077	22295
874.206	22234
874.335	22310
874.464	22428
874.593	22497
874.722	22489
874.851	22485
874.979	22394
875.108	22432
875.237	22417
875.365	22462
875.494	22611
875.623	22493
875.751	22436
875.88	22489
876.008	22618
876.136	22672
876.265	22824
876.393	22927
876.521	22949
876.65	23060
876.778	22828
876.906	22615
877.034	22782
877.162	22805
877.29	22668
877.418	22790
877.546	22896
877.674	22908
877.802	22801
877.93	22828
878.058	22710
878.185	22725
878.313	22790
878.441	22729
878.568	22717
878.696	22729
878.824	22740
878.951	22953
879.079	22919
879.206	23258
879.333	23102
879.461	22850
879.588	22877
879.715	22946
879.842	23174
879.97	22908
880.097	22710
880.224	22668
880.351	22672
880.478	22626
880.605	22694
880.732	22626
880.859	22850
880.986	22771
881.112	22664
881.239	22447
881.366	22428
881.493	22246
881.619	22246
881.746	22181
881.872	22268
881.999	22112
882.125	22105
882.252	22249
882.378	22295
882.505	22352
882.631	22105
882.757	22010
882.883	21983
883.01	21930
883.136	21907
883.262	21774
883.388	21797
883.514	21934
883.64	22055
883.766	21850
883.892	21648
884.018	21698
884.143	21808
884.269	21979
884.395	21587
884.52	21469
884.646	21591
884.772	21466
884.897	21443
885.023	21492
885.148	21694
885.274	21599
885.399	21705
885.524	21511
885.65	21686
885.775	21519
885.9	21545
886.025	21667
886.15	21507
886.275	21526
886.4	21504
886.525	21553
886.65	21519
886.775	21431
886.9	21572
887.025	21785
887.149	21485
887.274	21252
887.399	21317
887.523	21378
887.648	21233
887.773	21291
887.897	21462
888.021	21218
888.146	21119
888.27	21462
888.395	21363
888.519	21325
888.643	21230
888.767	21363
888.891	21237
889.015	21131
889.139	21169
889.263	21135
889.387	21142
889.511	21310
889.635	21241
889.759	21161
889.883	21096
890.006	21104
890.13	21138
890.254	20944
890.377	20971
890.501	20781
890.624	20918
890.748	21005
890.871	20727
890.995	20746
891.118	20617
891.241	20727
891.364	20674
891.488	20804
891.611	20678
891.734	20629
891.857	20804
891.98	20514
892.103	20701
892.226	20625
892.349	20659
892.471	20552
892.594	20667
892.717	20568
892.839	20568
892.962	20507
893.085	20674
893.207	20545
893.33	20480
893.452	20518
893.575	20526
893.697	20495
893.819	20712
893.941	20765
894.064	20754
894.186	20514
894.308	20434
894.43	20545
894.552	20697
894.674	20587
894.796	20412
894.918	20571
895.04	20488
895.161	20590
895.283	20686
895.405	20537
895.526	20708
895.648	20495
895.769	20530
895.891	20495
896.012	20674
896.134	20625
896.255	20651
896.376	20533
896.498	20533
896.619	20651
896.74	20564
896.861	20598
896.982	20853
897.103	20998
897.224	20918
897.345	20849
897.466	20640
897.587	20758
897.708	20845
897.828	20781
897.949	20644
898.07	20556
898.19	20659
898.311	20906
898.431	20743
898.552	20712
898.672	20807
898.792	20777
898.913	20743
899.033	20621
899.153	20556
899.273	20381
899.393	20499
899.513	20423
899.633	20511
899.753	20514
899.873	20476
899.993	20488
900.113	20313
900.232	20454
900.352	20351
900.472	20206
900.591	20218
900.711	20237
900.83	20225
900.95	20298
901.069	20313
901.189	20290
901.308	19974
901.427	19822
901.546	19856
901.665	19822
901.784	19826
901.904	19620
902.023	19616
902.141	19339
902.26	19293
902.379	19354
902.498	19327
902.617	19369
902.735	19373
902.854	19232
902.973	19202
903.091	18977
903.21	18928
903.328	19019
903.446	18970
903.565	18890
903.683	18817
903.801	18658
903.919	18844
904.038	18776
904.156	18601
904.274	18692
904.392	18604
904.51	18540
904.627	18513
904.745	18684
904.863	18745
904.981	18464
905.098	18285
905.216	18262
905.334	18247
905.451	18243
905.569	18228
905.686	18262
905.803	18171
905.921	18019
906.038	18171
906.155	18190
906.272	17961
906.389	17965
906.506	17786
906.623	17855
906.74	17821
906.857	17741
906.974	17699
907.091	17783
907.208	17878
907.324	17802
907.441	17604
907.557	17440
907.674	17501
907.79	17444
907.907	17501
908.023	17528
908.139	17493
908.256	17516
908.372	17379
908.488	17467
908.604	17261
908.72	17170
908.836	17193
908.952	17231
909.068	17143
909.184	17261
909.3	17155
909.415	17239
909.531	17212
909.647	16930
909.762	16881
909.878	16873
909.993	16968
910.108	16900
910.224	16843
910.339	16900
910.454	16786
910.57	16740
910.685	16656
910.8	16980
910.915	16805
911.03	16740
911.145	16542
911.259	16569
911.374	16577
911.489	16504
911.604	16382
911.718	16310
911.833	16291
911.947	16021
912.062	16128
912.176	16253
912.291	16166
912.405	16238
912.519	16508
912.633	16409
912.748	16325
912.862	16223
912.976	16071
913.09	15972
913.204	15949
913.318	16086
913.431	16162
913.545	16158
913.659	16082
913.772	16040
913.886	15823
914	15831
914.113	15991
914.226	15945
914.34	15945
914.453	15660
914.566	15778
914.68	15671
914.793	15739
914.906	15507
915.019	15511
915.132	15386
915.245	15405
915.358	15511
915.47	15416
915.583	15507
915.696	15450
915.809	15580
915.921	15496
916.034	15397
916.146	15321
916.259	15294
916.371	15401
916.483	15405
916.595	15245
916.708	15245
916.82	15211
916.932	15291
917.044	15252
917.156	15233
917.268	15093
917.38	15119
917.491	14990
917.603	15077
917.715	15161
917.826	15188
917.938	14975
918.049	14941
918.161	15028
918.272	15123
918.384	15207
918.495	15112
918.606	14819
918.717	14765
918.828	14891
918.939	14883
919.05	14697
919.161	14853
919.272	14659
919.383	14640
919.494	14845
919.604	14975
919.715	14857
919.826	14720
919.936	14769
920.047	14811
920.157	14758
920.267	15043
920.378	14861
920.488	14750
920.598	14998
920.708	15146
920.818	14994
920.928	14914
921.038	15028
921.148	14956
921.258	14754
921.368	14712
921.477	14488
921.587	14511
921.697	14377
921.806	14507
921.916	14324
922.025	14271
922.134	14180
922.244	14168
922.353	14278
922.462	13989
922.571	14050
922.68	13772
922.789	13860
922.898	13780
923.007	13811
923.116	13826
923.224	13856
923.333	13791
923.442	13734
923.55	13643
923.659	13590
923.767	13731
923.876	13556
923.984	13712
924.092	13559
924.201	13540
924.309	13571
924.417	13662
924.525	13445
924.633	13381
924.741	14393
924.849	13255
924.956	13396
925.064	13335
925.172	13206
925.279	13209
925.387	13232
925.494	13259
925.602	13247
925.709	13129
925.816	13027
925.924	13190
926.031	13289
926.138	13149
926.245	13213
926.352	13038
926.459	13088
926.566	13171
926.673	13076
926.779	12932
926.886	12932
926.993	12787
927.099	12760
927.206	12745
927.312	12696
927.419	12837
927.525	12757
927.631	12753
927.737	12642
927.843	12517
927.95	12403
928.056	12555
928.162	12578
928.267	12650
928.373	13198
928.479	12642
928.585	12418
928.69	12483
928.796	12635
928.901	12429
929.007	12292
929.112	12395
929.218	12418
929.323	12300
929.428	12232
929.533	12441
929.638	12144
929.743	12167
929.848	12262
929.953	12254
930.058	12072
930.163	11992
930.267	12072
930.372	12175
930.477	11984
930.581	12117
930.685	11999
930.79	11851
930.894	11851
930.998	11882
931.103	11908
931.207	11535
931.311	11425
931.415	11463
931.519	11220
931.623	11220
