Data from test_V78500241_3098.txt Node
Date: Fri Mar 25 15:31:25 CST 2022
User: usil
Spectrometer: V785-0024
Trigger mode: 0
Integration Time (sec): 4.000000E-1
Scans to average: 1
Nonlinearity correction enabled: false
Boxcar width: 0
Storing dark spectrum: false
XAxis mode: Wavelengths
Number of Pixels in Spectrum: 1024
>>>>>Begin Spectral Data<<<<<
801.071	26648
801.214	26427
801.356	26347
801.499	26229
801.641	26256
801.783	26122
801.926	26153
802.068	26164
802.211	26012
802.353	26005
802.496	25833
802.638	25727
802.78	25731
802.923	25643
803.065	25613
803.208	25582
803.35	25655
803.492	25693
803.635	25818
803.777	25818
803.919	25807
804.061	26157
804.204	25898
804.346	25693
804.488	25753
804.63	25803
804.773	25830
804.915	25856
805.057	25925
805.199	25833
805.341	25830
805.483	26027
805.626	25921
805.768	25837
805.91	25811
806.052	26012
806.194	25738
806.336	25982
806.478	26043
806.62	25932
806.762	26012
806.904	26176
807.046	26571
807.188	26404
807.33	26298
807.472	26385
807.614	26324
807.756	26164
807.898	26134
808.04	26164
808.182	26073
808.324	26035
808.465	26210
808.607	26336
808.749	26381
808.891	26533
809.033	26724
809.174	26564
809.316	26473
809.458	26370
809.6	26488
809.741	26473
809.883	26514
810.025	26743
810.166	26708
810.308	26682
810.45	26758
810.591	26663
810.733	26469
810.875	26499
811.016	26400
811.158	26332
811.299	26549
811.441	26545
811.582	26758
811.724	26389
811.865	26427
812.007	26298
812.148	26412
812.29	26484
812.431	26571
812.573	26743
812.714	26895
812.855	26899
812.997	27032
813.138	27131
813.279	26982
813.421	26918
813.562	26777
813.703	26785
813.845	26644
813.986	26442
814.127	26229
814.268	26081
814.41	26164
814.551	26012
814.692	26084
814.833	25986
814.974	26031
815.115	26069
815.256	25997
815.397	25925
815.539	25955
815.68	25746
815.821	25742
815.962	25875
816.103	25822
816.244	25704
816.385	25438
816.526	25655
816.666	25403
816.807	25304
816.948	25297
817.089	25540
817.23	25289
817.371	25304
817.512	25228
817.653	25232
817.793	25259
817.934	25327
818.075	25346
818.216	25331
818.356	25171
818.497	25122
818.638	24947
818.778	25038
818.919	25034
819.06	25164
819.2	25164
819.341	25312
819.481	25251
819.622	25377
819.762	25567
819.903	25559
820.043	25422
820.184	25449
820.324	25407
820.465	25502
820.605	25320
820.746	25426
820.886	25171
821.026	25213
821.167	25350
821.307	25430
821.447	25255
821.588	25251
821.728	25091
821.868	24844
822.008	24772
822.149	24848
822.289	24768
822.429	24486
822.569	24403
822.709	24391
822.849	24136
822.99	24205
823.13	24254
823.27	24144
823.41	24117
823.55	23889
823.69	24144
823.83	24030
823.97	24110
824.11	23821
824.25	23794
824.389	23752
824.529	23920
824.669	23859
824.809	23999
824.949	24136
825.089	23954
825.228	23969
825.368	23824
825.508	23695
825.648	23672
825.787	23707
825.927	23699
826.067	23554
826.206	23699
826.346	23691
826.485	23729
826.625	23779
826.765	23901
826.904	23802
827.044	23554
827.183	23512
827.323	23383
827.462	23558
827.601	23474
827.741	23391
827.88	23326
828.02	23269
828.159	23482
828.298	23406
828.437	23535
828.577	23356
828.716	23528
828.855	23292
828.994	23018
829.134	23170
829.273	23102
829.412	23155
829.551	23113
829.69	23113
829.829	23239
829.968	23212
830.107	23208
830.246	23334
830.385	23121
830.524	23067
830.663	22965
830.802	22862
830.941	22683
831.08	22634
831.219	22725
831.357	22900
831.496	22873
831.635	22710
831.774	22527
831.913	22603
832.051	22485
832.19	22577
832.329	22550
832.467	22390
832.606	22394
832.744	22500
832.883	22314
833.022	22413
833.16	22413
833.299	22478
833.437	22440
833.576	22424
833.714	22432
833.852	22580
833.991	22577
834.129	22611
834.267	22512
834.406	22523
834.544	22577
834.682	22497
834.821	22470
834.959	22748
835.097	22325
835.235	22527
835.373	22580
835.511	22459
835.65	22291
835.788	22375
835.926	22181
836.064	22013
836.202	22181
836.34	22287
836.478	22379
836.615	22314
836.753	22409
836.891	22481
837.029	22249
837.167	22306
837.305	22234
837.443	22139
837.58	22211
837.718	22230
837.856	22150
837.993	22040
838.131	22192
838.269	22109
838.406	22150
838.544	22021
838.681	21876
838.819	21709
838.956	21641
839.094	21701
839.231	21675
839.369	21797
839.506	21987
839.643	21926
839.781	21618
839.918	21568
840.055	21755
840.193	21618
840.33	21572
840.467	21644
840.604	21610
840.742	21949
840.879	21542
841.016	21656
841.153	21393
841.29	21690
841.427	21591
841.564	21713
841.701	21583
841.838	21466
841.975	21572
842.112	21485
842.249	21420
842.385	21473
842.522	21625
842.659	21511
842.796	21469
842.933	21340
843.069	21287
843.206	21241
843.343	21412
843.479	21348
843.616	21386
843.752	21108
843.889	21062
844.025	21199
844.162	21165
844.298	21157
844.435	21058
844.571	20994
844.708	21192
844.844	21302
844.98	21329
845.117	21180
845.253	20990
845.389	21047
845.525	20975
845.661	21013
845.798	21001
845.934	20956
846.07	20842
846.206	20849
846.342	21024
846.478	20918
846.614	20682
846.75	20712
846.886	20682
847.022	20640
847.158	20530
847.294	20636
847.429	20545
847.565	20648
847.701	20842
847.837	20400
847.972	20317
848.108	20507
848.244	20415
848.379	20339
848.515	20225
848.65	20233
848.786	20389
848.921	20065
849.057	20343
849.192	20263
849.328	20275
849.463	20157
849.598	20122
849.734	20138
849.869	20229
850.004	20062
850.14	20058
850.275	20024
850.41	19868
850.545	19879
850.68	19944
850.815	20039
850.95	19875
851.085	20134
851.22	20088
851.355	19986
851.49	19978
851.625	19845
851.76	19887
851.895	19849
852.03	19936
852.165	20016
852.299	20016
852.434	20058
852.569	20001
852.703	19925
852.838	20027
852.973	20233
853.107	19970
853.242	19997
853.376	19830
853.511	19818
853.645	19719
853.78	19947
853.914	19890
854.048	19784
854.183	19765
854.317	19822
854.451	19963
854.585	19811
854.72	19765
854.854	19833
854.988	19662
855.122	19693
855.256	19742
855.39	19765
855.524	19925
855.658	19871
855.792	19788
855.926	19795
856.06	19902
856.194	19963
856.327	19727
856.461	19662
856.595	19719
856.729	19890
856.862	20020
856.996	19769
857.13	19925
857.263	19837
857.397	19852
857.53	19795
857.664	19944
857.797	19822
857.931	19883
858.064	19795
858.197	19845
858.331	19731
858.464	19837
858.597	19715
858.731	19852
858.864	19791
858.997	19826
859.13	19765
859.263	19822
859.396	19856
859.529	19826
859.662	19799
859.795	19803
859.928	19849
860.061	19936
860.194	20119
860.327	19917
860.46	20005
860.592	19978
860.725	19997
860.858	19841
860.99	19753
861.123	19826
861.256	19719
861.388	19856
861.521	20362
861.653	19689
861.786	19597
861.918	19647
862.05	19643
862.183	19784
862.315	19818
862.447	19769
862.58	19822
862.712	19502
862.844	19537
862.976	19658
863.108	19597
863.24	19989
863.372	19483
863.504	19430
863.636	19499
863.768	19521
863.9	19483
864.032	19449
864.164	19403
864.296	19563
864.428	19635
864.559	19704
864.691	19658
864.823	19567
864.954	19483
865.086	19544
865.217	19529
865.349	19426
865.48	19468
865.612	19468
865.743	19609
865.875	19514
866.006	19445
866.137	19430
866.269	19430
866.4	19400
866.531	19377
866.662	19392
866.793	19422
866.924	19327
867.055	19426
867.186	19525
867.317	19426
867.448	19324
867.579	19377
867.71	19403
867.841	19304
867.972	19308
868.103	19308
868.233	19377
868.364	19388
868.495	19544
868.625	19632
868.756	19647
868.886	19635
869.017	19708
869.147	19799
869.278	19670
869.408	19514
869.539	19518
869.669	19791
869.799	19689
869.929	19784
870.06	19670
870.19	19963
870.32	19852
870.45	19940
870.58	20035
870.71	20225
870.84	20183
870.97	20035
871.1	20058
871.23	20298
871.36	20233
871.489	20062
871.619	20153
871.749	20298
871.879	20282
872.008	20370
872.138	20248
872.267	20259
872.397	20134
872.526	20142
872.656	20145
872.785	20111
872.915	20313
873.044	20298
873.173	20237
873.303	20210
873.432	20389
873.561	20366
873.69	20282
873.819	20298
873.948	20286
874.077	20199
874.206	20244
874.335	20351
874.464	20336
874.593	20518
874.722	20438
874.851	20537
874.979	20594
875.108	20617
875.237	20381
875.365	20476
875.494	20514
875.623	20602
875.751	20499
875.88	20613
876.008	20590
876.136	20743
876.265	21013
876.393	21020
876.521	21043
876.65	21001
876.778	20948
876.906	20899
877.034	20864
877.162	20887
877.29	20800
877.418	20773
877.546	20910
877.674	20937
877.802	20937
877.93	20891
878.058	20826
878.185	20796
878.313	20731
878.441	20842
878.568	20731
878.696	20826
878.824	20929
878.951	20944
879.079	21116
879.206	21180
879.333	21116
879.461	20849
879.588	20933
879.715	21039
879.842	21336
879.97	20971
880.097	20686
880.224	20716
880.351	20693
880.478	20781
880.605	20568
880.732	20587
880.859	20807
880.986	20670
881.112	20724
881.239	20712
881.366	20549
881.493	20358
881.619	20317
881.746	20370
881.872	20259
881.999	20252
882.125	20195
882.252	20298
882.378	20294
882.505	20362
882.631	20244
882.757	20077
882.883	20142
883.01	20100
883.136	19997
883.262	19803
883.388	19864
883.514	20031
883.64	20005
883.766	19974
883.892	19780
884.018	19803
884.143	19959
884.269	20096
884.395	19769
884.52	19632
884.646	19750
884.772	19651
884.897	19590
885.023	19677
885.148	19799
885.274	19833
885.399	19788
885.524	19674
885.65	19704
885.775	19731
885.9	19727
886.025	19658
886.15	19731
886.275	19540
886.4	19575
886.525	19727
886.65	19556
886.775	19514
886.9	19772
887.025	19967
887.149	19582
887.274	19468
887.399	19411
887.523	19419
887.648	19400
887.773	19373
887.897	19499
888.021	19537
888.146	19373
888.27	19556
888.395	19567
888.519	19441
888.643	19449
888.767	19514
888.891	19392
889.015	19228
889.139	19411
889.263	19365
889.387	19365
889.511	19510
889.635	19358
889.759	19228
889.883	19263
890.006	19377
890.13	19384
890.254	19179
890.377	19278
890.501	18977
890.624	19004
890.748	19019
890.871	18996
890.995	18821
891.118	18840
891.241	18920
891.364	18996
891.488	18993
891.611	18924
891.734	18859
891.857	18867
891.98	18993
892.103	18943
892.226	18890
892.349	18745
892.471	18833
892.594	18795
892.717	18829
892.839	18798
892.962	18791
893.085	18939
893.207	18825
893.33	18707
893.452	18779
893.575	18810
893.697	18825
893.819	19004
893.941	18973
894.064	18943
894.186	18707
894.308	18795
894.43	18871
894.552	18985
894.674	18996
894.796	18719
894.918	18730
895.04	18894
895.161	18954
895.283	18829
895.405	18810
895.526	18795
895.648	18894
895.769	18840
895.891	18943
896.012	18973
896.134	18814
896.255	18837
896.376	18817
896.498	18726
896.619	18837
896.74	18840
896.861	18890
896.982	19259
897.103	19266
897.224	19133
897.345	19000
897.466	19118
897.587	19069
897.708	19232
897.828	19061
897.949	19107
898.07	18958
898.19	19004
898.311	19255
898.431	19126
898.552	19099
898.672	19084
898.792	19175
898.913	19126
899.033	18951
899.153	19046
899.273	18715
899.393	18947
899.513	18852
899.633	18924
899.753	18795
899.873	18802
899.993	18890
900.113	18734
900.232	18837
900.352	18650
900.472	18719
900.591	18528
900.711	18692
900.83	18608
900.95	18757
901.069	18772
901.189	18547
901.308	18372
901.427	18178
901.546	18289
901.665	18292
901.784	18228
901.904	18182
902.023	18041
902.141	17935
902.26	17870
902.379	17878
902.498	17733
902.617	17775
902.735	17783
902.854	17745
902.973	17657
903.091	17501
903.21	17585
903.328	17501
903.446	17322
903.565	17318
903.683	17356
903.801	17090
903.919	17269
904.038	17269
904.156	17170
904.274	17170
904.392	17071
904.51	17121
904.627	17056
904.745	17014
904.863	17098
904.981	16881
905.098	16744
905.216	16752
905.334	16706
905.451	16729
905.569	16656
905.686	16656
905.803	16679
905.921	16519
906.038	16694
906.155	16630
906.272	16428
906.389	16447
906.506	16284
906.623	16284
906.74	16341
906.857	16162
906.974	16215
907.091	16291
907.208	16432
907.324	16287
907.441	16124
907.557	16036
907.674	15953
907.79	15926
907.907	15907
908.023	15994
908.139	16040
908.256	15975
908.372	15979
908.488	15846
908.604	15778
908.72	15743
908.836	15751
908.952	15705
909.068	15747
909.184	15884
909.3	15827
909.415	15774
909.531	15705
909.647	15523
909.762	15523
909.878	15439
909.993	15439
910.108	15321
910.224	15382
910.339	15519
910.454	15310
910.57	15344
910.685	15260
910.8	15443
910.915	15386
911.03	15313
911.145	15013
911.259	15112
911.374	15100
911.489	14963
911.604	14925
911.718	14845
911.833	14883
911.947	14701
912.062	14705
912.176	14895
912.291	14868
912.405	14883
912.519	14971
912.633	15047
912.748	14876
912.862	14796
912.976	14807
913.09	14507
913.204	14575
913.318	14537
913.431	14762
913.545	14697
913.659	14743
913.772	14602
913.886	14610
914	14427
914.113	14526
914.226	14503
914.34	14541
914.453	14282
914.566	14473
914.68	14324
914.793	14252
914.906	14218
915.019	14168
915.132	14046
915.245	14039
915.358	14058
915.47	14077
915.583	14016
915.696	14237
915.809	14172
915.921	14259
916.034	14073
916.146	14043
916.259	13955
916.371	14027
916.483	14138
916.595	13963
916.708	13887
916.82	13921
916.932	13986
917.044	13909
917.156	13845
917.268	13731
917.38	13845
917.491	13765
917.603	13708
917.715	13928
917.826	13818
917.938	13780
918.049	13578
918.161	13738
918.272	13921
918.384	13906
918.495	13761
918.606	13636
918.717	13521
918.828	13499
918.939	13521
919.05	13525
919.161	13537
919.272	13282
919.383	13396
919.494	13594
919.604	13780
919.715	13567
919.826	13502
919.936	13563
920.047	13613
920.157	13514
920.267	13689
920.378	13499
920.488	13601
920.598	13674
920.708	13868
920.818	13681
920.928	13601
921.038	13871
921.148	13795
921.258	13464
921.368	13377
921.477	13297
921.587	13339
921.697	13171
921.806	13244
921.916	13122
922.025	13027
922.134	12920
922.244	12901
922.353	13012
922.462	12882
922.571	12772
922.68	12669
922.789	12582
922.898	12631
923.007	12627
923.116	12700
923.224	12658
923.333	12559
923.442	12471
923.55	12471
923.659	12521
923.767	12445
923.876	12388
923.984	12563
924.092	12319
924.201	12437
924.309	12414
924.417	12399
924.525	12365
924.633	12357
924.741	13137
924.849	12167
924.956	12254
925.064	12133
925.172	12095
925.279	12011
925.387	12220
925.494	12053
925.602	12171
925.709	12102
925.816	11996
925.924	12068
926.031	12125
926.138	12072
926.245	12091
926.352	11984
926.459	12045
926.566	12125
926.673	12022
926.779	11889
926.886	11798
926.993	11771
927.099	11733
927.206	11646
927.312	11691
927.419	11748
927.525	11672
927.631	11718
927.737	11630
927.843	11520
927.95	11573
928.056	11436
928.162	11543
928.267	11589
928.373	12190
928.479	11547
928.585	11395
928.69	11455
928.796	11471
928.901	11376
929.007	11254
929.112	11398
929.218	11337
929.323	11353
929.428	11246
929.533	11334
929.638	11254
929.743	11269
929.848	11349
929.953	11231
930.058	11151
930.163	10961
930.267	10999
930.372	11140
930.477	10987
930.581	11140
930.685	11052
930.79	10919
930.894	10908
930.998	10892
931.103	11010
931.207	10778
931.311	10603
931.415	10470
931.519	10303
931.623	10318
