Data from test_V78500241_2287.txt Node
Date: Fri Mar 25 15:25:46 CST 2022
User: usil
Spectrometer: V785-0024
Trigger mode: 0
Integration Time (sec): 4.000000E-1
Scans to average: 1
Nonlinearity correction enabled: false
Boxcar width: 0
Storing dark spectrum: false
XAxis mode: Wavelengths
Number of Pixels in Spectrum: 1024
>>>>>Begin Spectral Data<<<<<
801.071	27759
801.214	27728
801.356	27405
801.499	27424
801.641	27199
801.783	27389
801.926	27317
802.068	27237
802.211	27135
802.353	27180
802.496	26937
802.638	27009
802.78	26823
802.923	26842
803.065	26758
803.208	26819
803.35	27001
803.492	27036
803.635	27013
803.777	27154
803.919	27165
804.061	27507
804.204	27218
804.346	27096
804.488	26857
804.63	27150
804.773	27036
804.915	27116
805.057	27146
805.199	27218
805.341	27123
805.483	27317
805.626	27298
805.768	27112
805.91	27218
806.052	27340
806.194	27199
806.336	27351
806.478	27279
806.62	27218
806.762	27355
806.904	27424
807.046	27739
807.188	27599
807.33	27720
807.472	27595
807.614	27709
807.756	27576
807.898	27637
808.04	27473
808.182	27545
808.324	27523
808.465	27542
808.607	27759
808.749	27991
808.891	28032
809.033	28086
809.174	27934
809.316	27797
809.458	27774
809.6	27880
809.741	27914
809.883	27956
810.025	28154
810.166	28082
810.308	28112
810.45	28055
810.591	28109
810.733	27827
810.875	27838
811.016	27751
811.158	27515
811.299	27972
811.441	27914
811.582	27899
811.724	27785
811.865	27831
812.007	27850
812.148	27873
812.29	27869
812.431	27949
812.573	28082
812.714	28253
812.855	28375
812.997	28451
813.138	28637
813.279	28546
813.421	28432
813.562	28253
813.703	28135
813.845	28078
813.986	27785
814.127	27717
814.268	27644
814.41	27576
814.551	27443
814.692	27644
814.833	27431
814.974	27713
815.115	27492
815.256	27348
815.397	27378
815.539	27359
815.68	27260
815.821	27192
815.962	27241
816.103	27405
816.244	27104
816.385	27108
816.526	27195
816.666	26849
816.807	26727
816.948	26861
817.089	26876
817.23	26864
817.371	26842
817.512	26857
817.653	26887
817.793	26640
817.934	26735
818.075	26838
818.216	26845
818.356	26868
818.497	26792
818.638	26598
818.778	26419
818.919	26552
819.06	26659
819.2	26606
819.341	26674
819.481	26743
819.622	26937
819.762	27009
819.903	27085
820.043	26990
820.184	27009
820.324	27017
820.465	27028
820.605	26918
820.746	26982
820.886	26670
821.026	26963
821.167	26899
821.307	26921
821.447	26826
821.588	26693
821.728	26541
821.868	26461
822.008	26183
822.149	26183
822.289	26309
822.429	26119
822.569	25966
822.709	25879
822.849	25658
822.99	25772
823.13	25689
823.27	25624
823.41	25613
823.55	25499
823.69	25681
823.83	25609
823.97	25495
824.11	25464
824.25	25278
824.389	25403
824.529	25422
824.669	25464
824.809	25483
824.949	25449
825.089	25499
825.228	25346
825.368	25251
825.508	25282
825.648	25274
825.787	25282
825.927	25365
826.067	25236
826.206	25247
826.346	25350
826.485	25198
826.625	25251
826.765	25308
826.904	25255
827.044	25069
827.183	24958
827.323	24909
827.462	24981
827.601	25091
827.741	25076
827.88	24943
828.02	24939
828.159	24932
828.298	24966
828.437	25015
828.577	24863
828.716	24962
828.855	25023
828.994	24589
829.134	24719
829.273	24669
829.412	24536
829.551	24654
829.69	24623
829.829	24604
829.968	24852
830.107	24684
830.246	24764
830.385	24684
830.524	24585
830.663	24479
830.802	24323
830.941	24186
831.08	24205
831.219	24422
831.357	24365
831.496	24338
831.635	24296
831.774	24072
831.913	24228
832.051	24011
832.19	24030
832.329	24083
832.467	24038
832.606	23923
832.744	23954
832.883	23847
833.022	23878
833.16	23961
833.299	24022
833.437	24022
833.576	23996
833.714	23958
833.852	24083
833.991	24251
834.129	24060
834.267	24167
834.406	23961
834.544	23992
834.682	23912
834.821	23988
834.959	24285
835.097	23874
835.235	24015
835.373	24022
835.511	24140
835.65	23798
835.788	23901
835.926	23790
836.064	23695
836.202	23718
836.34	23863
836.478	23889
836.615	23840
836.753	23786
836.891	23843
837.029	23874
837.167	23646
837.305	23710
837.443	23722
837.58	23767
837.718	23809
837.856	23726
837.993	23672
838.131	23668
838.269	23600
838.406	23653
838.544	23539
838.681	23292
838.819	23356
838.956	23147
839.094	23197
839.231	23117
839.369	23147
839.506	23581
839.643	23482
839.781	23162
839.918	23010
840.055	23083
840.193	22999
840.33	23044
840.467	23079
840.604	23071
840.742	23322
840.879	23117
841.016	23029
841.153	22980
841.29	23250
841.427	23140
841.564	23037
841.701	23067
841.838	22873
841.975	22984
842.112	23044
842.249	22908
842.385	22725
842.522	23014
842.659	22877
842.796	22767
842.933	22774
843.069	22801
843.206	22805
843.343	22854
843.479	22839
843.616	22755
843.752	22603
843.889	22641
844.025	22664
844.162	22596
844.298	22622
844.435	22584
844.571	22523
844.708	22599
844.844	22729
844.98	22755
845.117	22645
845.253	22626
845.389	22443
845.525	22413
845.661	22421
845.798	22413
845.934	22402
846.07	22333
846.206	22310
846.342	22409
846.478	22409
846.614	22162
846.75	22006
846.886	22135
847.022	22261
847.158	22002
847.294	22112
847.429	22036
847.565	22017
847.701	22192
847.837	21778
847.972	21854
848.108	21911
848.244	21717
848.379	21747
848.515	21671
848.65	21633
848.786	21759
848.921	21603
849.057	21701
849.192	21743
849.328	21663
849.463	21534
849.598	21526
849.734	21587
849.869	21564
850.004	21538
850.14	21458
850.275	21428
850.41	21321
850.545	21218
850.68	21412
850.815	21466
850.95	21416
851.085	21679
851.22	21511
851.355	21412
851.49	21359
851.625	21348
851.76	21374
851.895	21283
852.03	21249
852.165	21416
852.299	21393
852.434	21507
852.569	21450
852.703	21389
852.838	21443
852.973	21641
853.107	21477
853.242	21382
853.376	21306
853.511	21268
853.645	21154
853.78	21420
853.914	21344
854.048	21218
854.183	21222
854.317	21370
854.451	21462
854.585	21291
854.72	21283
854.854	21264
854.988	21264
855.122	21279
855.256	21192
855.39	21279
855.524	21351
855.658	21310
855.792	21184
855.926	21325
856.06	21260
856.194	21275
856.327	21249
856.461	21188
856.595	21135
856.729	21199
856.862	21420
856.996	21165
857.13	21317
857.263	21351
857.397	21203
857.53	21218
857.664	21264
857.797	21298
857.931	21272
858.064	21306
858.197	21283
858.331	21207
858.464	21150
858.597	21230
858.731	21317
858.864	21157
858.997	21112
859.13	21195
859.263	21283
859.396	21336
859.529	21214
859.662	21127
859.795	21211
859.928	21214
860.061	21245
860.194	21458
860.327	21382
860.46	21325
860.592	21344
860.725	21317
860.858	21374
860.99	21226
861.123	21154
861.256	21233
861.388	21283
861.521	21949
861.653	21214
861.786	20994
861.918	21070
862.05	21138
862.183	21028
862.315	21176
862.447	21245
862.58	21192
862.712	21017
862.844	20960
862.976	21058
863.108	21093
863.24	21348
863.372	20990
863.504	20876
863.636	20982
863.768	20952
863.9	20918
864.032	21001
864.164	20914
864.296	20986
864.428	21058
864.559	20979
864.691	21055
864.823	20929
864.954	20979
865.086	21051
865.217	20979
865.349	20727
865.48	20830
865.612	20868
865.743	21036
865.875	20788
866.006	20781
866.137	20834
866.269	20941
866.4	20804
866.531	20720
866.662	20788
866.793	20659
866.924	20807
867.055	20826
867.186	20773
867.317	20876
867.448	20651
867.579	20777
867.71	20667
867.841	20644
867.972	20773
868.103	20754
868.233	20758
868.364	20678
868.495	20845
868.625	20891
868.756	21135
868.886	20899
869.017	21070
869.147	21096
869.278	21138
869.408	21085
869.539	20948
869.669	21070
869.799	21047
869.929	21131
870.06	21211
870.19	21256
870.32	21184
870.45	21329
870.58	21359
870.71	21511
870.84	21466
870.97	21549
871.1	21447
871.23	21568
871.36	21572
871.489	21462
871.619	21663
871.749	21622
871.879	21629
872.008	21785
872.138	21675
872.267	21625
872.397	21488
872.526	21363
872.656	21523
872.785	21523
872.915	21656
873.044	21705
873.173	21641
873.303	21633
873.432	21743
873.561	21713
873.69	21591
873.819	21701
873.948	21709
874.077	21614
874.206	21629
874.335	21671
874.464	21846
874.593	21804
874.722	21766
874.851	21934
874.979	21823
875.108	21991
875.237	21751
875.365	21701
875.494	21895
875.623	21835
875.751	21778
875.88	21907
876.008	22048
876.136	22021
876.265	22257
876.393	22405
876.521	22295
876.65	22299
876.778	22276
876.906	22185
877.034	22344
877.162	22280
877.29	22204
877.418	22242
877.546	22188
877.674	22124
877.802	22109
877.93	22177
878.058	22131
878.185	22090
878.313	22143
878.441	22147
878.568	22097
878.696	22162
878.824	22169
878.951	22223
879.079	22428
879.206	22451
879.333	22314
879.461	22284
879.588	22295
879.715	22284
879.842	22516
879.97	22337
880.097	22044
880.224	22036
880.351	22143
880.478	22002
880.605	22067
880.732	22044
880.859	22200
880.986	22188
881.112	22040
881.239	21972
881.366	21720
881.493	21656
881.619	21686
881.746	21587
881.872	21671
881.999	21583
882.125	21557
882.252	21667
882.378	21591
882.505	21641
882.631	21374
882.757	21367
882.883	21351
883.01	21401
883.136	21367
883.262	21188
883.388	21165
883.514	21397
883.64	21272
883.766	21313
883.892	21096
884.018	21039
884.143	21230
884.269	21336
884.395	21108
884.52	21001
884.646	20963
884.772	20857
884.897	20785
885.023	20986
885.148	21009
885.274	21104
885.399	21039
885.524	20933
885.65	21028
885.775	20902
885.9	21036
886.025	21036
886.15	21135
886.275	21036
886.4	20777
886.525	20990
886.65	20918
886.775	20868
886.9	21108
887.025	21203
887.149	20929
887.274	20754
887.399	20788
887.523	20804
887.648	20727
887.773	20648
887.897	20872
888.021	20868
888.146	20705
888.27	20731
888.395	20864
888.519	20830
888.643	20655
888.767	20815
888.891	20587
889.015	20545
889.139	20598
889.263	20629
889.387	20674
889.511	20659
889.635	20689
889.759	20476
889.883	20526
890.006	20575
890.13	20731
890.254	20450
890.377	20503
890.501	20298
890.624	20237
890.748	20309
890.871	20244
890.995	20229
891.118	20043
891.241	20088
891.364	20058
891.488	20206
891.611	20062
891.734	20081
891.857	20119
891.98	20005
892.103	20149
892.226	20058
892.349	20043
892.471	19875
892.594	20062
892.717	20111
892.839	19986
892.962	20062
893.085	20065
893.207	19947
893.33	19818
893.452	19822
893.575	20065
893.697	19944
893.819	20107
893.941	20240
894.064	20161
894.186	19974
894.308	19925
894.43	20176
894.552	20180
894.674	20069
894.796	19909
894.918	19944
895.04	20008
895.161	20058
895.283	20020
895.405	19875
895.526	20088
895.648	20024
895.769	20062
895.891	20035
896.012	20031
896.134	20005
896.255	20020
896.376	19944
896.498	20084
896.619	20024
896.74	20058
896.861	20065
896.982	20256
897.103	20423
897.224	20320
897.345	20130
897.466	20073
897.587	20168
897.708	20415
897.828	20191
897.949	19993
898.07	20024
898.19	20103
898.311	20172
898.431	20244
898.552	20240
898.672	20324
898.792	20339
898.913	20271
899.033	20012
899.153	19989
899.273	19940
899.393	20005
899.513	20027
899.633	19989
899.753	20012
899.873	19944
899.993	20027
900.113	19932
900.232	19826
900.352	19898
900.472	19708
900.591	19605
900.711	19811
900.83	19708
900.95	19864
901.069	19830
901.189	19674
901.308	19460
901.427	19293
901.546	19301
901.665	19396
901.784	19282
901.904	19285
902.023	19183
902.141	18996
902.26	18970
902.379	19023
902.498	18844
902.617	18856
902.735	18878
902.854	18829
902.973	18791
903.091	18639
903.21	18479
903.328	18639
903.446	18418
903.565	18334
903.683	18342
903.801	18239
903.919	18334
904.038	18327
904.156	18167
904.274	18247
904.392	17958
904.51	18045
904.627	18129
904.745	18140
904.863	18072
904.981	17942
905.098	17680
905.216	17882
905.334	17824
905.451	17866
905.569	17695
905.686	17866
905.803	17726
905.921	17467
906.038	17653
906.155	17589
906.272	17528
906.389	17463
906.506	17376
906.623	17349
906.74	17277
906.857	17269
906.974	17208
907.091	17455
907.208	17406
907.324	17292
907.441	17197
907.557	17018
907.674	17090
907.79	17014
907.907	16976
908.023	17045
908.139	17041
908.256	16965
908.372	17029
908.488	16877
908.604	16702
908.72	16801
908.836	16805
908.952	16759
909.068	16828
909.184	16892
909.3	16816
909.415	16691
909.531	16744
909.647	16554
909.762	16424
909.878	16428
909.993	16432
910.108	16356
910.224	16360
910.339	16386
910.454	16306
910.57	16276
910.685	16211
910.8	16485
910.915	16356
911.03	16306
911.145	16109
911.259	16074
911.374	15994
911.489	15979
911.604	15937
911.718	15865
911.833	15770
911.947	15812
912.062	15625
912.176	15812
912.291	15804
912.405	15732
912.519	15930
912.633	15998
912.748	15831
912.862	15713
912.976	15652
913.09	15530
913.204	15568
913.318	15603
913.431	15747
913.545	15709
913.659	15785
913.772	15568
913.886	15473
914	15386
914.113	15515
914.226	15526
914.34	15492
914.453	15302
914.566	15454
914.68	15420
914.793	15252
914.906	15089
915.019	14982
915.132	14952
915.245	14929
915.358	15138
915.47	14975
915.583	14948
915.696	15047
915.809	15058
915.921	15074
916.034	14887
916.146	14979
916.259	14914
916.371	15020
916.483	14990
916.595	14918
916.708	14819
916.82	14792
916.932	14807
917.044	14800
917.156	14720
917.268	14731
917.38	14613
917.491	14602
917.603	14663
917.715	14697
917.826	14682
917.938	14678
918.049	14556
918.161	14644
918.272	14777
918.384	14724
918.495	14598
918.606	14587
918.717	14381
918.828	14423
918.939	14454
919.05	14358
919.161	14404
919.272	14149
919.383	14157
919.494	14408
919.604	14598
919.715	14370
919.826	14309
919.936	14370
920.047	14381
920.157	14377
920.267	14587
920.378	14377
920.488	14328
920.598	14511
920.708	14682
920.818	14492
920.928	14469
921.038	14590
921.148	14648
921.258	14442
921.368	14199
921.477	14218
921.587	14187
921.697	13940
921.806	14153
921.916	13936
922.025	13849
922.134	13814
922.244	13712
922.353	13791
922.462	13696
922.571	13525
922.68	13441
922.789	13441
922.898	13548
923.007	13373
923.116	13468
923.224	13377
923.333	13430
923.442	13247
923.55	13206
923.659	13320
923.767	13339
923.876	13278
923.984	13316
924.092	13244
924.201	13152
924.309	13164
924.417	13217
924.525	13228
924.633	13122
924.741	13856
924.849	12924
924.956	13080
925.064	12810
925.172	12745
925.279	12806
925.387	12886
925.494	12924
925.602	12970
925.709	12954
925.816	12783
925.924	12863
926.031	12871
926.138	12833
926.245	12783
926.352	12650
926.459	12817
926.566	12859
926.673	12726
926.779	12601
926.886	12673
926.993	12506
927.099	12460
927.206	12372
927.312	12365
927.419	12384
927.525	12369
927.631	12391
927.737	12292
927.843	12216
927.95	12209
928.056	12163
928.162	12251
928.267	12300
928.373	12814
928.479	12342
928.585	12076
928.69	12216
928.796	12281
928.901	12076
929.007	11961
929.112	12114
929.218	12106
929.323	11988
929.428	11935
929.533	12125
929.638	11950
929.743	11961
929.848	12079
929.953	11901
930.058	11847
930.163	11703
930.267	11608
930.372	11840
930.477	11642
930.581	11836
930.685	11798
930.79	11486
930.894	11493
930.998	11524
931.103	11566
931.207	11368
931.311	11159
931.415	11064
931.519	10923
931.623	11006
