Data from test_V78500241_227.txt Node
Date: Fri Mar 25 15:11:26 CST 2022
User: usil
Spectrometer: V785-0024
Trigger mode: 0
Integration Time (sec): 4.000000E-1
Scans to average: 1
Nonlinearity correction enabled: false
Boxcar width: 0
Storing dark spectrum: false
XAxis mode: Wavelengths
Number of Pixels in Spectrum: 1024
>>>>>Begin Spectral Data<<<<<
801.071	27739
801.214	27743
801.356	27603
801.499	27447
801.641	27367
801.783	27393
801.926	27504
802.068	27424
802.211	27218
802.353	27287
802.496	26979
802.638	27077
802.78	27116
802.923	26914
803.065	26952
803.208	27173
803.35	26933
803.492	27157
803.635	27161
803.777	26975
803.919	27116
804.061	27443
804.204	27256
804.346	27085
804.488	27108
804.63	27032
804.773	26849
804.915	27024
805.057	27135
805.199	27081
805.341	27077
805.483	27279
805.626	27249
805.768	27032
805.91	27005
806.052	27340
806.194	27230
806.336	27275
806.478	27218
806.62	27047
806.762	27439
806.904	27393
807.046	27606
807.188	27447
807.33	27580
807.472	27694
807.614	27462
807.756	27564
807.898	27291
808.04	27458
808.182	27416
808.324	27351
808.465	27264
808.607	27622
808.749	27667
808.891	27983
809.033	27903
809.174	27865
809.316	27717
809.458	27797
809.6	27667
809.741	27880
809.883	27960
810.025	27987
810.166	28040
810.308	28063
810.45	28044
810.591	27888
810.733	27701
810.875	27625
811.016	27644
811.158	27568
811.299	27827
811.441	27884
811.582	27869
811.724	27603
811.865	27781
812.007	27580
812.148	27652
812.29	27724
812.431	27888
812.573	27964
812.714	28040
812.855	28253
812.997	28333
813.138	28303
813.279	28314
813.421	28177
813.562	28181
813.703	28109
813.845	27987
813.986	27644
814.127	27443
814.268	27393
814.41	27439
814.551	27340
814.692	27306
814.833	27431
814.974	27332
815.115	27344
815.256	27173
815.397	27230
815.539	27165
815.68	27093
815.821	27089
815.962	27127
816.103	27096
816.244	27020
816.385	26868
816.526	26842
816.666	26773
816.807	26575
816.948	26659
817.089	26792
817.23	26568
817.371	26568
817.512	26568
817.653	26476
817.793	26488
817.934	26575
818.075	26469
818.216	26609
818.356	26492
818.497	26355
818.638	26221
818.778	26263
818.919	26180
819.06	26248
819.2	26537
819.341	26518
819.481	26362
819.622	26564
819.762	26861
819.903	26705
820.043	26667
820.184	26503
820.324	26636
820.465	26621
820.605	26514
820.746	26621
820.886	26438
821.026	26613
821.167	26495
821.307	26651
821.447	26526
821.588	26434
821.728	26248
821.868	26084
822.008	25898
822.149	25894
822.289	25864
822.429	25761
822.569	25575
822.709	25693
822.849	25369
822.99	25495
823.13	25350
823.27	25343
823.41	25259
823.55	25164
823.69	25168
823.83	25198
823.97	25187
824.11	25057
824.25	25065
824.389	25038
824.529	25190
824.669	25053
824.809	25190
824.949	25183
825.089	25042
825.228	24966
825.368	24905
825.508	24829
825.648	24924
825.787	24951
825.927	24928
826.067	24935
826.206	24741
826.346	24916
826.485	24882
826.625	24939
826.765	24932
826.904	24875
827.044	24673
827.183	24623
827.323	24452
827.462	24677
827.601	24536
827.741	24513
827.88	24528
828.02	24490
828.159	24452
828.298	24505
828.437	24540
828.577	24563
828.716	24620
828.855	24407
828.994	24338
829.134	24330
829.273	24346
829.412	24091
829.551	24235
829.69	24342
829.829	24220
829.968	24467
830.107	24205
830.246	24117
830.385	24235
830.524	24197
830.663	24079
830.802	23908
830.941	23828
831.08	23836
831.219	23912
831.357	24038
831.496	23935
831.635	23851
831.774	23646
831.913	23733
832.051	23676
832.19	23570
832.329	23680
832.467	23486
832.606	23562
832.744	23425
832.883	23486
833.022	23459
833.16	23608
833.299	23543
833.437	23566
833.576	23748
833.714	23551
833.852	23585
833.991	23703
834.129	23668
834.267	23493
834.406	23543
834.544	23516
834.682	23486
834.821	23490
834.959	23646
835.097	23452
835.235	23573
835.373	23509
835.511	23433
835.65	23307
835.788	23440
835.926	23284
836.064	23128
836.202	23166
836.34	23292
836.478	23334
836.615	23239
836.753	23337
836.891	23459
837.029	23429
837.167	23364
837.305	23223
837.443	23250
837.58	23185
837.718	23292
837.856	23056
837.993	23132
838.131	23185
838.269	23052
838.406	23098
838.544	23029
838.681	22736
838.819	22759
838.956	22755
839.094	22763
839.231	22626
839.369	22892
839.506	22953
839.643	22896
839.781	22523
839.918	22516
840.055	22554
840.193	22694
840.33	22569
840.467	22588
840.604	22637
840.742	22790
840.879	22390
841.016	22516
841.153	22432
841.29	22607
841.427	22413
841.564	22500
841.701	22474
841.838	22497
841.975	22462
842.112	22478
842.249	22344
842.385	22303
842.522	22497
842.659	22405
842.796	22265
842.933	22291
843.069	22154
843.206	22249
843.343	22462
843.479	22322
843.616	22276
843.752	22097
843.889	22131
844.025	22112
844.162	21979
844.298	22242
844.435	22124
844.571	22109
844.708	22063
844.844	22200
844.98	22120
845.117	22154
845.253	21941
845.389	21816
845.525	21934
845.661	21854
845.798	21781
845.934	21865
846.07	21701
846.206	21785
846.342	21838
846.478	21743
846.614	21644
846.75	21412
846.886	21477
847.022	21759
847.158	21557
847.294	21572
847.429	21530
847.565	21374
847.701	21789
847.837	21226
847.972	21142
848.108	21344
848.244	21306
848.379	21131
848.515	21085
848.65	21184
848.786	21108
848.921	21081
849.057	21116
849.192	21211
849.328	21028
849.463	21032
849.598	21024
849.734	20910
849.869	20918
850.004	20811
850.14	20842
850.275	20781
850.41	20575
850.545	20773
850.68	20750
850.815	20705
850.95	20891
851.085	20975
851.22	20895
851.355	20853
851.49	20815
851.625	20899
851.76	20762
851.895	20655
852.03	20727
852.165	20796
852.299	20727
852.434	20895
852.569	20765
852.703	20830
852.838	20807
852.973	20872
853.107	21009
853.242	20815
853.376	20587
853.511	20537
853.645	20575
853.78	20663
853.914	20587
854.048	20587
854.183	20667
854.317	20716
854.451	20773
854.585	20629
854.72	20511
854.854	20617
854.988	20545
855.122	20556
855.256	20393
855.39	20552
855.524	20609
855.658	20659
855.792	20617
855.926	20686
856.06	20716
856.194	20674
856.327	20571
856.461	20579
856.595	20678
856.729	20632
856.862	20667
856.996	20613
857.13	20629
857.263	20697
857.397	20663
857.53	20556
857.664	20705
857.797	20533
857.931	20750
858.064	20640
858.197	20739
858.331	20629
858.464	20575
858.597	20473
858.731	20530
858.864	20617
858.997	20503
859.13	20568
859.263	20689
859.396	20640
859.529	20522
859.662	20590
859.795	20514
859.928	20617
860.061	20587
860.194	20708
860.327	20765
860.46	20568
860.592	20686
860.725	20659
860.858	20568
860.99	20678
861.123	20537
861.256	20522
861.388	20541
861.521	21272
861.653	20454
861.786	20347
861.918	20556
862.05	20389
862.183	20583
862.315	20640
862.447	20701
862.58	20522
862.712	20339
862.844	20240
862.976	20320
863.108	20336
863.24	20819
863.372	20286
863.504	20309
863.636	20267
863.768	20396
863.9	20221
864.032	20240
864.164	20347
864.296	20301
864.428	20347
864.559	20343
864.691	20339
864.823	20294
864.954	20381
865.086	20271
865.217	20263
865.349	20126
865.48	20111
865.612	20069
865.743	20187
865.875	20210
866.006	20164
866.137	20168
866.269	20221
866.4	20214
866.531	20221
866.662	20031
866.793	20103
866.924	20126
867.055	20176
867.186	20176
867.317	20001
867.448	20138
867.579	20008
867.71	20008
867.841	20008
867.972	20142
868.103	20107
868.233	20092
868.364	20100
868.495	20263
868.625	20358
868.756	20503
868.886	20313
869.017	20423
869.147	20381
869.278	20514
869.408	20343
869.539	20442
869.669	20423
869.799	20469
869.929	20480
870.06	20533
870.19	20750
870.32	20621
870.45	20594
870.58	20777
870.71	20891
870.84	20823
870.97	20785
871.1	20743
871.23	20979
871.36	21001
871.489	20845
871.619	20910
871.749	21005
871.879	20944
872.008	21055
872.138	20857
872.267	20975
872.397	20686
872.526	20743
872.656	20838
872.785	20689
872.915	20967
873.044	20960
873.173	20982
873.303	20921
873.432	21051
873.561	21055
873.69	20933
873.819	20899
873.948	21074
874.077	20990
874.206	20975
874.335	20872
874.464	21184
874.593	21294
874.722	21116
874.851	21310
874.979	21287
875.108	21336
875.237	21203
875.365	21188
875.494	21127
875.623	21230
875.751	21180
875.88	21294
876.008	21397
876.136	21466
876.265	21595
876.393	21694
876.521	21747
876.65	21762
876.778	21648
876.906	21530
877.034	21564
877.162	21724
877.29	21587
877.418	21633
877.546	21542
877.674	21709
877.802	21652
877.93	21595
878.058	21641
878.185	21515
878.313	21572
878.441	21572
878.568	21481
878.696	21435
878.824	21542
878.951	21667
879.079	21739
879.206	21861
879.333	21644
879.461	21534
879.588	21648
879.715	21816
879.842	21918
879.97	21679
880.097	21378
880.224	21466
880.351	21329
880.478	21367
880.605	21447
880.732	21374
880.859	21660
880.986	21355
881.112	21378
881.239	21355
881.366	21070
881.493	20937
881.619	20956
881.746	21005
881.872	20998
881.999	20971
882.125	20899
882.252	20998
882.378	21009
882.505	21062
882.631	21066
882.757	20644
882.883	20800
883.01	20765
883.136	20609
883.262	20469
883.388	20488
883.514	20670
883.64	20678
883.766	20609
883.892	20495
884.018	20606
884.143	20708
884.269	20682
884.395	20400
884.52	20301
884.646	20343
884.772	20343
884.897	20244
885.023	20320
885.148	20499
885.274	20461
885.399	20488
885.524	20450
885.65	20393
885.775	20442
885.9	20347
886.025	20560
886.15	20484
886.275	20282
886.4	20237
886.525	20214
886.65	20244
886.775	20244
886.9	20514
887.025	20511
887.149	20336
887.274	20130
887.399	20084
887.523	20168
887.648	20020
887.773	19993
887.897	20282
888.021	20138
888.146	20119
888.27	20218
888.395	20145
888.519	20271
888.643	20138
888.767	20195
888.891	19989
889.015	20035
889.139	20065
889.263	19921
889.387	19978
889.511	20172
889.635	20050
889.759	19887
889.883	19936
890.006	19944
890.13	19947
890.254	19928
890.377	19890
890.501	19651
890.624	19594
890.748	19700
890.871	19533
890.995	19438
891.118	19426
891.241	19559
891.364	19487
891.488	19556
891.611	19525
891.734	19438
891.857	19464
891.98	19521
892.103	19548
892.226	19441
892.349	19346
892.471	19293
892.594	19453
892.717	19430
892.839	19445
892.962	19407
893.085	19422
893.207	19441
893.33	19335
893.452	19270
893.575	19514
893.697	19453
893.819	19502
893.941	19556
894.064	19483
894.186	19407
894.308	19339
894.43	19438
894.552	19704
894.674	19487
894.796	19255
894.918	19392
895.04	19282
895.161	19506
895.283	19346
895.405	19255
895.526	19392
895.648	19445
895.769	19453
895.891	19457
896.012	19537
896.134	19400
896.255	19373
896.376	19487
896.498	19445
896.619	19476
896.74	19369
896.861	19620
896.982	19772
897.103	19871
897.224	19742
897.345	19677
897.466	19734
897.587	19757
897.708	19822
897.828	19689
897.949	19635
898.07	19559
898.19	19643
898.311	19723
898.431	19620
898.552	19590
898.672	19814
898.792	19826
898.913	19556
899.033	19537
899.153	19453
899.273	19339
899.393	19400
899.513	19400
899.633	19381
899.753	19460
899.873	19278
899.993	19384
900.113	19339
900.232	19434
900.352	19251
900.472	19308
900.591	19148
900.711	19179
900.83	19076
900.95	19225
901.069	19247
901.189	19137
901.308	18901
901.427	18726
901.546	18734
901.665	18844
901.784	18825
901.904	18654
902.023	18563
902.141	18292
902.26	18289
902.379	18384
902.498	18285
902.617	18289
902.735	18330
902.854	18270
902.973	18266
903.091	18022
903.21	17988
903.328	17954
903.446	17729
903.565	17707
903.683	17771
903.801	17573
903.919	17608
904.038	17733
904.156	17395
904.274	17570
904.392	17577
904.51	17547
904.627	17562
904.745	17573
904.863	17562
904.981	17315
905.098	17239
905.216	17273
905.334	17200
905.451	17265
905.569	17090
905.686	17277
905.803	17159
905.921	17056
906.038	17166
906.155	17117
906.272	16980
906.389	16896
906.506	16790
906.623	16752
906.74	16618
906.857	16615
906.974	16729
907.091	16755
907.208	16866
907.324	16850
907.441	16630
907.557	16542
907.674	16382
907.79	16459
907.907	16443
908.023	16535
908.139	16478
908.256	16402
908.372	16284
908.488	16238
908.604	16265
908.72	16196
908.836	16265
908.952	16135
909.068	16299
909.184	16272
909.3	16139
909.415	16295
909.531	16158
909.647	15876
909.762	15899
909.878	15846
909.993	15892
910.108	15770
910.224	15861
910.339	15800
910.454	15793
910.57	15656
910.685	15648
910.8	15823
910.915	15838
911.03	15629
911.145	15526
911.259	15561
911.374	15401
911.489	15397
911.604	15393
911.718	15180
911.833	15222
911.947	15176
912.062	14982
912.176	15211
912.291	15222
912.405	15165
912.519	15268
912.633	15340
912.748	15184
912.862	15123
912.976	15047
913.09	15032
913.204	14937
913.318	14956
913.431	15146
913.545	15020
913.659	15138
913.772	15085
913.886	14883
914	14815
914.113	14910
914.226	14902
914.34	14925
914.453	14811
914.566	14876
914.68	14716
914.793	14731
914.906	14446
915.019	14404
915.132	14404
915.245	14571
915.358	14556
915.47	14511
915.583	14461
915.696	14507
915.809	14526
915.921	14537
916.034	14442
916.146	14400
916.259	14305
916.371	14434
916.483	14370
916.595	14328
916.708	14294
916.82	14389
916.932	14191
917.044	14301
917.156	14278
917.268	14149
917.38	14119
917.491	14145
917.603	14130
917.715	14210
917.826	14168
917.938	14039
918.049	13993
918.161	14100
918.272	14195
918.384	14294
918.495	14043
918.606	13879
918.717	13841
918.828	13917
918.939	13826
919.05	13830
919.161	13841
919.272	13734
919.383	13761
919.494	13963
919.604	14157
919.715	13944
919.826	13746
919.936	13909
920.047	14005
920.157	13989
920.267	14005
920.378	13822
920.488	13921
920.598	14054
920.708	14191
920.818	14062
920.928	13967
921.038	14077
921.148	14039
921.258	13849
921.368	13685
921.477	13685
921.587	13597
921.697	13487
921.806	13696
921.916	13441
922.025	13400
922.134	13308
922.244	13149
922.353	13152
922.462	13141
922.571	13046
922.68	12962
922.789	12825
922.898	12909
923.007	12840
923.116	12859
923.224	12859
923.333	12970
923.442	12844
923.55	12768
923.659	12749
923.767	12802
923.876	12726
923.984	12730
924.092	12612
924.201	12772
924.309	12677
924.417	12669
924.525	12650
924.633	12642
924.741	13339
924.849	12422
924.956	12566
925.064	12437
925.172	12277
925.279	12369
925.387	12372
925.494	12338
925.602	12521
925.709	12350
925.816	12220
925.924	12327
926.031	12346
926.138	12300
926.245	12403
926.352	12323
926.459	12372
926.566	12350
926.673	12308
926.779	12144
926.886	12133
926.993	11965
927.099	12041
927.206	11954
927.312	11866
927.419	11885
927.525	11901
927.631	11916
927.737	11878
927.843	11828
927.95	11649
928.056	11733
928.162	11805
928.267	11783
928.373	12273
928.479	11794
928.585	11642
928.69	11676
928.796	11756
928.901	11710
929.007	11505
929.112	11554
929.218	11589
929.323	11505
929.428	11524
929.533	11596
929.638	11497
929.743	11490
929.848	11436
929.953	11505
930.058	11345
930.163	11231
930.267	11273
930.372	11372
930.477	11128
930.581	11463
930.685	11231
930.79	11029
930.894	11109
930.998	11121
931.103	11201
931.207	10831
931.311	10774
931.415	10778
931.519	10451
931.623	10508
