Data from test_V78500241_2945.txt Node
Date: Fri Mar 25 15:30:22 CST 2022
User: usil
Spectrometer: V785-0024
Trigger mode: 0
Integration Time (sec): 4.000000E-1
Scans to average: 1
Nonlinearity correction enabled: false
Boxcar width: 0
Storing dark spectrum: false
XAxis mode: Wavelengths
Number of Pixels in Spectrum: 1024
>>>>>Begin Spectral Data<<<<<
801.071	26956
801.214	26933
801.356	26758
801.499	26648
801.641	26530
801.783	26575
801.926	26518
802.068	26507
802.211	26450
802.353	26431
802.496	26244
802.638	26195
802.78	26172
802.923	26035
803.065	26100
803.208	26107
803.35	26206
803.492	26286
803.635	26419
803.777	26256
803.919	26412
804.061	26632
804.204	26267
804.346	26320
804.488	26275
804.63	26282
804.773	26180
804.915	26271
805.057	26339
805.199	26381
805.341	26499
805.483	26408
805.626	26389
805.768	26259
805.91	26480
806.052	26571
806.194	26237
806.336	26537
806.478	26385
806.62	26374
806.762	26530
806.904	26533
807.046	26982
807.188	26849
807.33	26781
807.472	26864
807.614	26781
807.756	26800
807.898	26762
808.04	26636
808.182	26552
808.324	26731
808.465	26781
808.607	26944
808.749	26933
808.891	26994
809.033	27066
809.174	27173
809.316	27100
809.458	27032
809.6	27036
809.741	27146
809.883	27123
810.025	27283
810.166	27249
810.308	27431
810.45	27173
810.591	27249
810.733	27001
810.875	27028
811.016	26834
811.158	26883
811.299	27047
811.441	27096
811.582	27256
811.724	26929
811.865	26952
812.007	26914
812.148	27119
812.29	26902
812.431	27051
812.573	27393
812.714	27481
812.855	27420
812.997	27523
813.138	27542
813.279	27561
813.421	27511
813.562	27317
813.703	27165
813.845	27116
813.986	26887
814.127	26781
814.268	26682
814.41	26644
814.551	26609
814.692	26712
814.833	26545
814.974	26579
815.115	26583
815.256	26499
815.397	26533
815.539	26552
815.68	26362
815.821	26328
815.962	26442
816.103	26328
816.244	26404
816.385	26134
816.526	26229
816.666	26069
816.807	25868
816.948	25951
817.089	25913
817.23	25734
817.371	25982
817.512	25811
817.653	25871
817.793	25776
817.934	25871
818.075	25803
818.216	25890
818.356	25788
818.497	25780
818.638	25624
818.778	25693
818.919	25563
819.06	25704
819.2	25753
819.341	25814
819.481	25951
819.622	26096
819.762	26294
819.903	26077
820.043	26016
820.184	25986
820.324	26005
820.465	26020
820.605	25913
820.746	25959
820.886	25750
821.026	25925
821.167	25852
821.307	25928
821.447	25982
821.588	25822
821.728	25639
821.868	25441
822.008	25335
822.149	25327
822.289	25270
822.429	25069
822.569	24992
822.709	25027
822.849	24787
822.99	24875
823.13	24700
823.27	24814
823.41	24551
823.55	24646
823.69	24642
823.83	24627
823.97	24582
824.11	24422
824.25	24395
824.389	24426
824.529	24536
824.669	24414
824.809	24616
824.949	24559
825.089	24551
825.228	24460
825.368	24338
825.508	24330
825.648	24327
825.787	24372
825.927	24433
826.067	24311
826.206	24391
826.346	24418
826.485	24418
826.625	24213
826.765	24403
826.904	24391
827.044	24079
827.183	24148
827.323	24076
827.462	24049
827.601	23904
827.741	23927
827.88	24038
828.02	23920
828.159	23935
828.298	24068
828.437	24026
828.577	23958
828.716	24053
828.855	23893
828.994	23619
829.134	23684
829.273	23942
829.412	23756
829.551	23695
829.69	23783
829.829	23748
829.968	23847
830.107	23771
830.246	23604
830.385	23684
830.524	23642
830.663	23512
830.802	23356
830.941	23406
831.08	23341
831.219	23452
831.357	23425
831.496	23512
831.635	23235
831.774	23155
831.913	23277
832.051	23003
832.19	23029
832.329	23147
832.467	23044
832.606	22942
832.744	22904
832.883	22919
833.022	22957
833.16	22892
833.299	22991
833.437	23044
833.576	23048
833.714	23067
833.852	23083
833.991	23204
834.129	23037
834.267	23140
834.406	23113
834.544	23071
834.682	22991
834.821	22953
834.959	23311
835.097	22953
835.235	23052
835.373	22976
835.511	23003
835.65	22881
835.788	22801
835.926	22782
836.064	22649
836.202	22710
836.34	22843
836.478	22961
836.615	22786
836.753	22847
836.891	22946
837.029	22748
837.167	22733
837.305	22930
837.443	22729
837.58	22573
837.718	22793
837.856	22683
837.993	22622
838.131	22656
838.269	22656
838.406	22664
838.544	22375
838.681	22462
838.819	22341
838.956	22219
839.094	22223
839.231	22192
839.369	22322
839.506	22664
839.643	22436
839.781	22131
839.918	22139
840.055	22154
840.193	22139
840.33	22109
840.467	22192
840.604	22154
840.742	22409
840.879	22070
841.016	21918
841.153	22074
841.29	22158
841.427	22154
841.564	22154
841.701	22177
841.838	22147
841.975	21857
842.112	22082
842.249	21979
842.385	21918
842.522	22147
842.659	22025
842.796	21831
842.933	21899
843.069	21755
843.206	21816
843.343	21884
843.479	21873
843.616	21827
843.752	21675
843.889	21606
844.025	21762
844.162	21736
844.298	21876
844.435	21618
844.571	21572
844.708	21759
844.844	21842
844.98	21728
845.117	21759
845.253	21682
845.389	21496
845.525	21606
845.661	21488
845.798	21424
845.934	21466
846.07	21450
846.206	21348
846.342	21454
846.478	21443
846.614	21199
846.75	21089
846.886	20994
847.022	21272
847.158	21169
847.294	21207
847.429	21123
847.565	21135
847.701	21325
847.837	20914
847.972	20800
848.108	20925
848.244	20929
848.379	20762
848.515	20792
848.65	20785
848.786	20773
848.921	20743
849.057	20929
849.192	20834
849.328	20887
849.463	20887
849.598	20644
849.734	20651
849.869	20590
850.004	20480
850.14	20465
850.275	20511
850.41	20461
850.545	20492
850.68	20469
850.815	20590
850.95	20446
851.085	20724
851.22	20545
851.355	20480
851.49	20571
851.625	20450
851.76	20415
851.895	20446
852.03	20434
852.165	20461
852.299	20396
852.434	20629
852.569	20518
852.703	20492
852.838	20583
852.973	20598
853.107	20564
853.242	20431
853.376	20313
853.511	20294
853.645	20313
853.78	20480
853.914	20374
854.048	20347
854.183	20263
854.317	20366
854.451	20552
854.585	20305
854.72	20351
854.854	20347
854.988	20248
855.122	20313
855.256	20020
855.39	20301
855.524	20408
855.658	20427
855.792	20317
855.926	20355
856.06	20423
856.194	20465
856.327	20176
856.461	20343
856.595	20317
856.729	20313
856.862	20518
856.996	20332
857.13	20377
857.263	20393
857.397	20374
857.53	20271
857.664	20404
857.797	20347
857.931	20370
858.064	20347
858.197	20431
858.331	20381
858.464	20267
858.597	20256
858.731	20328
858.864	20415
858.997	20119
859.13	20233
859.263	20278
859.396	20511
859.529	20244
859.662	20343
859.795	20221
859.928	20237
860.061	20461
860.194	20552
860.327	20495
860.46	20438
860.592	20412
860.725	20465
860.858	20431
860.99	20240
861.123	20214
861.256	20351
861.388	20187
861.521	20921
861.653	20164
861.786	20020
861.918	20191
862.05	20214
862.183	20206
862.315	20191
862.447	20225
862.58	20202
862.712	20001
862.844	20035
862.976	20107
863.108	20043
863.24	20412
863.372	20001
863.504	20031
863.636	20008
863.768	19978
863.9	20088
864.032	20058
864.164	20031
864.296	20073
864.428	20130
864.559	20122
864.691	20126
864.823	19959
864.954	20199
865.086	19963
865.217	19902
865.349	19906
865.48	19849
865.612	19993
865.743	20164
865.875	19982
866.006	19887
866.137	19917
866.269	19959
866.4	19959
866.531	19913
866.662	19841
866.793	19913
866.924	19902
867.055	19959
867.186	19902
867.317	19803
867.448	19845
867.579	19830
867.71	19780
867.841	19807
867.972	19989
868.103	19913
868.233	19868
868.364	19932
868.495	20035
868.625	20111
868.756	20115
868.886	20103
869.017	20176
869.147	20278
869.278	20229
869.408	20092
869.539	20233
869.669	20233
869.799	20149
869.929	20294
870.06	20263
870.19	20431
870.32	20393
870.45	20492
870.58	20476
870.71	20609
870.84	20579
870.97	20442
871.1	20492
871.23	20571
871.36	20701
871.489	20670
871.619	20693
871.749	20773
871.879	20724
872.008	20819
872.138	20640
872.267	20701
872.397	20590
872.526	20476
872.656	20549
872.785	20602
872.915	20807
873.044	20872
873.173	20720
873.303	20838
873.432	20785
873.561	20792
873.69	20819
873.819	20705
873.948	20796
874.077	20883
874.206	20609
874.335	20792
874.464	20845
874.593	20880
874.722	20929
874.851	21032
874.979	21028
875.108	20990
875.237	21039
875.365	20891
875.494	21020
875.623	21043
875.751	20963
875.88	20971
876.008	21173
876.136	21188
876.265	21416
876.393	21519
876.521	21553
876.65	21519
876.778	21458
876.906	21336
877.034	21355
877.162	21279
877.29	21431
877.418	21367
877.546	21363
877.674	21348
877.802	21310
877.93	21233
878.058	21306
878.185	21169
878.313	21256
878.441	21272
878.568	21135
878.696	21272
878.824	21302
878.951	21325
879.079	21492
879.206	21492
879.333	21500
879.461	21428
879.588	21386
879.715	21622
879.842	21545
879.97	21397
880.097	21230
880.224	21275
880.351	21184
880.478	21157
880.605	21138
880.732	21119
880.859	21412
880.986	21119
881.112	21184
881.239	21131
881.366	20914
881.493	20918
881.619	20834
881.746	20667
881.872	20811
881.999	20727
882.125	20670
882.252	20811
882.378	20720
882.505	20853
882.631	20598
882.757	20598
882.883	20575
883.01	20495
883.136	20533
883.262	20389
883.388	20267
883.514	20549
883.64	20571
883.766	20343
883.892	20233
884.018	20374
884.143	20298
884.269	20511
884.395	20248
884.52	20084
884.646	20153
884.772	20187
884.897	20039
885.023	20199
885.148	20343
885.274	20370
885.399	20172
885.524	20122
885.65	20115
885.775	20187
885.9	19989
886.025	20206
886.15	20103
886.275	20088
886.4	20008
886.525	20142
886.65	20145
886.775	20092
886.9	20168
887.025	20271
887.149	19997
887.274	19890
887.399	19830
887.523	19837
887.648	19879
887.773	19879
887.897	19898
888.021	19932
888.146	19875
888.27	20005
888.395	20016
888.519	20039
888.643	19917
888.767	19917
888.891	19788
889.015	19757
889.139	19769
889.263	19761
889.387	19833
889.511	19856
889.635	19784
889.759	19578
889.883	19750
890.006	19727
890.13	19746
890.254	19635
890.377	19681
890.501	19518
890.624	19460
890.748	19586
890.871	19381
890.995	19236
891.118	19312
891.241	19339
891.364	19251
891.488	19445
891.611	19316
891.734	19415
891.857	19400
891.98	19289
892.103	19293
892.226	19373
892.349	19289
892.471	19156
892.594	19282
892.717	19377
892.839	19285
892.962	19225
893.085	19369
893.207	19209
893.33	19217
893.452	19084
893.575	19217
893.697	19244
893.819	19400
893.941	19506
894.064	19362
894.186	19171
894.308	19137
894.43	19441
894.552	19426
894.674	19377
894.796	19236
894.918	19320
895.04	19236
895.161	19365
895.283	19324
895.405	19247
895.526	19228
895.648	19232
895.769	19320
895.891	19206
896.012	19392
896.134	19270
896.255	19343
896.376	19244
896.498	19377
896.619	19274
896.74	19365
896.861	19335
896.982	19639
897.103	19753
897.224	19559
897.345	19502
897.466	19362
897.587	19491
897.708	19693
897.828	19460
897.949	19392
898.07	19514
898.19	19476
898.311	19491
898.431	19480
898.552	19540
898.672	19502
898.792	19609
898.913	19563
899.033	19594
899.153	19373
899.273	19221
899.393	19304
899.513	19392
899.633	19282
899.753	19308
899.873	19270
899.993	19320
900.113	19179
900.232	19293
900.352	19202
900.472	19171
900.591	19050
900.711	19107
900.83	19088
900.95	19110
901.069	19110
901.189	18947
901.308	18787
901.427	18635
901.546	18711
901.665	18741
901.784	18798
901.904	18475
902.023	18315
902.141	18308
902.26	18224
902.379	18323
902.498	18163
902.617	18243
902.735	18350
902.854	18167
902.973	18060
903.091	17897
903.21	17897
903.328	17855
903.446	17931
903.565	17779
903.683	17699
903.801	17539
903.919	17718
904.038	17665
904.156	17493
904.274	17562
904.392	17433
904.51	17372
904.627	17490
904.745	17596
904.863	17581
904.981	17159
905.098	17098
905.216	17056
905.334	17086
905.451	17102
905.569	17132
905.686	17090
905.803	17105
905.921	16904
906.038	17022
906.155	16881
906.272	16774
906.389	16885
906.506	16645
906.623	16645
906.74	16626
906.857	16546
906.974	16599
907.091	16744
907.208	16767
907.324	16603
907.441	16611
907.557	16428
907.674	16474
907.79	16363
907.907	16451
908.023	16474
908.139	16390
908.256	16333
908.372	16291
908.488	16268
908.604	16135
908.72	16048
908.836	16150
908.952	16105
909.068	16029
909.184	16246
909.3	16204
909.415	16192
909.531	16139
909.647	15960
909.762	15945
909.878	15804
909.993	15850
910.108	15717
910.224	15705
910.339	15736
910.454	15705
910.57	15561
910.685	15572
910.8	15873
910.915	15804
911.03	15717
911.145	15595
911.259	15454
911.374	15397
911.489	15428
911.604	15405
911.718	15127
911.833	15211
911.947	15131
912.062	15081
912.176	15245
912.291	15332
912.405	15279
912.519	15469
912.633	15374
912.748	15272
912.862	15085
912.976	15074
913.09	14830
913.204	15028
913.318	15108
913.431	15089
913.545	15142
913.659	15085
913.772	14986
913.886	14811
914	14838
914.113	14982
914.226	15005
914.34	14800
914.453	14674
914.566	14849
914.68	14769
914.793	14712
914.906	14560
915.019	14442
915.132	14431
915.245	14480
915.358	14526
915.47	14484
915.583	14469
915.696	14507
915.809	14571
915.921	14632
916.034	14507
916.146	14286
916.259	14328
916.371	14396
916.483	14362
916.595	14366
916.708	14313
916.82	14275
916.932	14168
917.044	14305
917.156	14233
917.268	14107
917.38	14138
917.491	14092
917.603	14046
917.715	14168
917.826	14267
917.938	14103
918.049	14027
918.161	14001
918.272	14259
918.384	14164
918.495	14153
918.606	13982
918.717	13860
918.828	13959
918.939	14024
919.05	13826
919.161	13753
919.272	13658
919.383	13723
919.494	13849
919.604	14046
919.715	13970
919.826	13746
919.936	13898
920.047	14050
920.157	13947
920.267	14054
920.378	13894
920.488	13784
920.598	14031
920.708	14100
920.818	14024
920.928	13982
921.038	14183
921.148	14168
921.258	13807
921.368	13700
921.477	13731
921.587	13685
921.697	13491
921.806	13597
921.916	13495
922.025	13244
922.134	13327
922.244	13259
922.353	13274
922.462	13228
922.571	13137
922.68	12993
922.789	12913
922.898	12958
923.007	12890
923.116	12989
923.224	12886
923.333	12954
923.442	12738
923.55	12798
923.659	12802
923.767	12760
923.876	12696
923.984	12806
924.092	12749
924.201	12684
924.309	12715
924.417	12772
924.525	12593
924.633	12616
924.741	13464
924.849	12437
924.956	12544
925.064	12429
925.172	12342
925.279	12292
925.387	12361
925.494	12330
925.602	12509
925.709	12448
925.816	12281
925.924	12384
926.031	12334
926.138	12334
926.245	12292
926.352	12232
926.459	12369
926.566	12372
926.673	12239
926.779	12197
926.886	12201
926.993	11999
927.099	11969
927.206	12019
927.312	11950
927.419	12079
927.525	11912
927.631	11999
927.737	11828
927.843	11882
927.95	11722
928.056	11798
928.162	11832
928.267	11912
928.373	12418
928.479	11828
928.585	11657
928.69	11760
928.796	11794
928.901	11680
929.007	11554
929.112	11714
929.218	11589
929.323	11577
929.428	11512
929.533	11665
929.638	11551
929.743	11490
929.848	11551
929.953	11505
930.058	11417
930.163	11197
930.267	11242
930.372	11417
930.477	11261
930.581	11455
930.685	11315
930.79	11140
930.894	11197
930.998	11094
931.103	11288
931.207	10930
931.311	10927
931.415	10774
931.519	10607
931.623	10538
