Data from test_V78500241_1230.txt Node
Date: Fri Mar 25 15:18:25 CST 2022
User: usil
Spectrometer: V785-0024
Trigger mode: 0
Integration Time (sec): 4.000000E-1
Scans to average: 1
Nonlinearity correction enabled: false
Boxcar width: 0
Storing dark spectrum: false
XAxis mode: Wavelengths
Number of Pixels in Spectrum: 1024
>>>>>Begin Spectral Data<<<<<
801.071	28135
801.214	28036
801.356	27819
801.499	27846
801.641	27720
801.783	27652
801.926	27808
802.068	27610
802.211	27724
802.353	27618
802.496	27435
802.638	27249
802.78	27401
802.923	27294
803.065	27272
803.208	27256
803.35	27435
803.492	27447
803.635	27515
803.777	27256
803.919	27458
804.061	27812
804.204	27561
804.346	27629
804.488	27572
804.63	27534
804.773	27595
804.915	27576
805.057	27736
805.199	27447
805.341	27698
805.483	27888
805.626	27675
805.768	27656
805.91	27755
806.052	27671
806.194	27580
806.336	27892
806.478	27781
806.62	27804
806.762	27880
806.904	27884
807.046	28196
807.188	28143
807.33	28074
807.472	28173
807.614	28173
807.756	28207
807.898	28055
808.04	27907
808.182	28032
808.324	28051
808.465	28101
808.607	28204
808.749	28500
808.891	28470
809.033	28485
809.174	28436
809.316	28428
809.458	28405
809.6	28291
809.741	28485
809.883	28360
810.025	28622
810.166	28710
810.308	28626
810.45	28611
810.591	28664
810.733	28493
810.875	28413
811.016	28276
811.158	28280
811.299	28356
811.441	28508
811.582	28390
811.724	28394
811.865	28363
812.007	28440
812.148	28417
812.29	28348
812.431	28554
812.573	28687
812.714	28828
812.855	28896
812.997	28873
813.138	29029
813.279	29079
813.421	28957
813.562	28900
813.703	28752
813.845	28611
813.986	28447
814.127	28341
814.268	28055
814.41	28169
814.551	28063
814.692	28074
814.833	28063
814.974	28036
815.115	27941
815.256	28112
815.397	27937
815.539	27983
815.68	27975
815.821	27842
815.962	27888
816.103	27972
816.244	27812
816.385	27686
816.526	27724
816.666	27542
816.807	27427
816.948	27378
817.089	27526
817.23	27401
817.371	27488
817.512	27401
817.653	27325
817.793	27416
817.934	27367
818.075	27496
818.216	27302
818.356	27313
818.497	27321
818.638	27119
818.778	27096
818.919	27138
819.06	27260
819.2	27332
819.341	27317
819.481	27416
819.622	27580
819.762	27663
819.903	27648
820.043	27614
820.184	27427
820.324	27561
820.465	27450
820.605	27519
820.746	27515
820.886	27268
821.026	27374
821.167	27507
821.307	27629
821.447	27473
821.588	27275
821.728	27135
821.868	27051
822.008	26811
822.149	26838
822.289	26880
822.429	26667
822.569	26533
822.709	26457
822.849	26362
822.99	26229
823.13	26404
823.27	26404
823.41	26294
823.55	26065
823.69	26195
823.83	26206
823.97	26275
824.11	25921
824.25	26088
824.389	25978
824.529	26073
824.669	25887
824.809	26077
824.949	26088
825.089	26096
825.228	26100
825.368	25852
825.508	25875
825.648	26027
825.787	25921
825.927	25963
826.067	25837
826.206	25921
826.346	25788
826.485	25871
826.625	25826
826.765	25963
826.904	25791
827.044	25761
827.183	25620
827.323	25609
827.462	25552
827.601	25616
827.741	25533
827.88	25685
828.02	25521
828.159	25658
828.298	25635
828.437	25704
828.577	25738
828.716	25628
828.855	25502
828.994	25259
829.134	25304
829.273	25316
829.412	25247
829.551	25183
829.69	25388
829.829	25377
829.968	25407
830.107	25327
830.246	25346
830.385	25285
830.524	25088
830.663	25152
830.802	25129
830.941	24894
831.08	24745
831.219	25027
831.357	24981
831.496	25004
831.635	24916
831.774	24958
831.913	24700
832.051	24711
832.19	24791
832.329	24787
832.467	24677
832.606	24574
832.744	24490
832.883	24604
833.022	24665
833.16	24555
833.299	24620
833.437	24745
833.576	24673
833.714	24753
833.852	24658
833.991	24738
834.129	24787
834.267	24738
834.406	24635
834.544	24692
834.682	24669
834.821	24703
834.959	24753
835.097	24551
835.235	24654
835.373	24661
835.511	24684
835.65	24582
835.788	24464
835.926	24452
836.064	24338
836.202	24342
836.34	24505
836.478	24673
836.615	24418
836.753	24642
836.891	24555
837.029	24502
837.167	24498
837.305	24376
837.443	24380
837.58	24437
837.718	24330
837.856	24452
837.993	24239
838.131	24384
838.269	24228
838.406	24254
838.544	24201
838.681	24133
838.819	23973
838.956	23847
839.094	23882
839.231	23942
839.369	23958
839.506	24167
839.643	24121
839.781	23748
839.918	23634
840.055	23908
840.193	23794
840.33	23840
840.467	23691
840.604	23737
840.742	24110
840.879	23638
841.016	23642
841.153	23558
841.29	23817
841.427	23630
841.564	23748
841.701	23767
841.838	23710
841.975	23551
842.112	23596
842.249	23448
842.385	23596
842.522	23798
842.659	23707
842.796	23512
842.933	23429
843.069	23531
843.206	23334
843.343	23634
843.479	23322
843.616	23463
843.752	23330
843.889	23250
844.025	23353
844.162	23288
844.298	23318
844.435	23299
844.571	23208
844.708	23254
844.844	23531
844.98	23455
845.117	23372
845.253	23208
845.389	23227
845.525	23033
845.661	23208
845.798	22877
845.934	23136
846.07	22866
846.206	22961
846.342	23079
846.478	23041
846.614	22843
846.75	22752
846.886	22771
847.022	22831
847.158	22622
847.294	22763
847.429	22797
847.565	22653
847.701	22889
847.837	22519
847.972	22352
848.108	22592
848.244	22626
848.379	22455
848.515	22352
848.65	22325
848.786	22352
848.921	22303
849.057	22371
849.192	22405
849.328	22265
849.463	22265
849.598	22238
849.734	22280
849.869	22158
850.004	22078
850.14	22192
850.275	22082
850.41	22082
850.545	22013
850.68	22093
850.815	22143
850.95	22048
851.085	22253
851.22	22059
851.355	22048
851.49	22074
851.625	22105
851.76	21998
851.895	21953
852.03	21907
852.165	22006
852.299	22128
852.434	22177
852.569	22059
852.703	22074
852.838	22097
852.973	22124
853.107	22280
853.242	22010
853.376	21934
853.511	21713
853.645	21964
853.78	21918
853.914	21949
854.048	21819
854.183	21717
854.317	21888
854.451	22055
854.585	21808
854.72	21975
854.854	21956
854.988	21838
855.122	21823
855.256	21762
855.39	21903
855.524	21960
855.658	21922
855.792	21895
855.926	21903
856.06	21915
856.194	21945
856.327	21835
856.461	21831
856.595	21842
856.729	21907
856.862	22017
856.996	21960
857.13	21964
857.263	21918
857.397	22017
857.53	21808
857.664	21956
857.797	21949
857.931	21953
858.064	21972
858.197	22010
858.331	21968
858.464	21793
858.597	21705
858.731	21884
858.864	21892
858.997	21842
859.13	22093
859.263	21880
859.396	22029
859.529	21941
859.662	21945
859.795	21766
859.928	21835
860.061	22109
860.194	22147
860.327	21861
860.46	21945
860.592	21953
860.725	22101
860.858	21949
860.99	21892
861.123	21854
861.256	21736
861.388	21930
861.521	22580
861.653	21739
861.786	21637
861.918	21766
862.05	21747
862.183	21705
862.315	21808
862.447	21808
862.58	21778
862.712	21500
862.844	21625
862.976	21614
863.108	21644
863.24	21945
863.372	21481
863.504	21473
863.636	21606
863.768	21667
863.9	21568
864.032	21435
864.164	21469
864.296	21545
864.428	21652
864.559	21770
864.691	21587
864.823	21583
864.954	21572
865.086	21568
865.217	21469
865.349	21416
865.48	21652
865.612	21454
865.743	21603
865.875	21504
866.006	21526
866.137	21504
866.269	21488
866.4	21549
866.531	21363
866.662	21359
866.793	21424
866.924	21496
867.055	21439
867.186	21466
867.317	21424
867.448	21466
867.579	21340
867.71	21294
867.841	21485
867.972	21405
868.103	21313
868.233	21401
868.364	21412
868.495	21496
868.625	21526
868.756	21865
868.886	21641
869.017	21675
869.147	21686
869.278	21922
869.408	21686
869.539	21755
869.669	21660
869.799	21713
869.929	21816
870.06	21747
870.19	21956
870.32	21934
870.45	22006
870.58	22025
870.71	22124
870.84	22135
870.97	21998
871.1	22078
871.23	22112
871.36	22204
871.489	22158
871.619	22192
871.749	22230
871.879	22242
872.008	22230
872.138	22147
872.267	22219
872.397	22078
872.526	22051
872.656	22006
872.785	22059
872.915	22219
873.044	22379
873.173	22242
873.303	22280
873.432	22325
873.561	22303
873.69	22257
873.819	22284
873.948	22428
874.077	22306
874.206	22261
874.335	22226
874.464	22367
874.593	22424
874.722	22493
874.851	22432
874.979	22371
875.108	22531
875.237	22417
875.365	22440
875.494	22375
875.623	22512
875.751	22409
875.88	22489
876.008	22580
876.136	22679
876.265	22915
876.393	23037
876.521	22869
876.65	22957
876.778	22873
876.906	22805
877.034	22771
877.162	22774
877.29	22790
877.418	22915
877.546	22759
877.674	22744
877.802	22820
877.93	22752
878.058	22816
878.185	22675
878.313	22809
878.441	22759
878.568	22588
878.696	22752
878.824	22793
878.951	22873
879.079	23048
879.206	23075
879.333	23025
879.461	22843
879.588	22953
879.715	22866
879.842	23147
879.97	22892
880.097	22611
880.224	22645
880.351	22694
880.478	22641
880.605	22557
880.732	22653
880.859	22759
880.986	22588
881.112	22634
881.239	22451
881.366	22466
881.493	22291
881.619	22207
881.746	22238
881.872	22314
881.999	22234
882.125	22124
882.252	22143
882.378	22223
882.505	22272
882.631	22082
882.757	22029
882.883	22029
883.01	21838
883.136	21808
883.262	21774
883.388	21720
883.514	21816
883.64	22021
883.766	21720
883.892	21770
884.018	21751
884.143	21808
884.269	21876
884.395	21603
884.52	21534
884.646	21492
884.772	21591
884.897	21443
885.023	21545
885.148	21663
885.274	21553
885.399	21633
885.524	21359
885.65	21568
885.775	21557
885.9	21504
886.025	21515
886.15	21599
886.275	21355
886.4	21473
886.525	21534
886.65	21469
886.775	21317
886.9	21606
887.025	21568
887.149	21507
887.274	21256
887.399	21310
887.523	21268
887.648	21180
887.773	21230
887.897	21329
888.021	21317
888.146	21214
888.27	21264
888.395	21264
888.519	21230
888.643	21382
888.767	21374
888.891	21188
889.015	21093
889.139	21119
889.263	21039
889.387	21222
889.511	21310
889.635	21146
889.759	21009
889.883	21066
890.006	21123
890.13	21169
890.254	21066
890.377	20948
890.501	20746
890.624	20807
890.748	20941
890.871	20735
890.995	20575
891.118	20564
891.241	20629
891.364	20705
891.488	20800
891.611	20644
891.734	20735
891.857	20678
891.98	20613
892.103	20724
892.226	20621
892.349	20708
892.471	20473
892.594	20442
892.717	20492
892.839	20617
892.962	20564
893.085	20549
893.207	20560
893.33	20404
893.452	20427
893.575	20602
893.697	20560
893.819	20708
893.941	20587
894.064	20560
894.186	20419
894.308	20518
894.43	20552
894.552	20705
894.674	20609
894.796	20358
894.918	20556
895.04	20488
895.161	20583
895.283	20541
895.405	20526
895.526	20465
895.648	20389
895.769	20678
895.891	20640
896.012	20545
896.134	20552
896.255	20514
896.376	20587
896.498	20492
896.619	20495
896.74	20526
896.861	20670
896.982	20914
897.103	20887
897.224	20902
897.345	20758
897.466	20682
897.587	20640
897.708	20887
897.828	20659
897.949	20689
898.07	20492
898.19	20716
898.311	20746
898.431	20750
898.552	20682
898.672	20811
898.792	20849
898.913	20670
899.033	20609
899.153	20541
899.273	20381
899.393	20522
899.513	20427
899.633	20434
899.753	20415
899.873	20457
899.993	20404
900.113	20408
900.232	20457
900.352	20328
900.472	20286
900.591	20202
900.711	20256
900.83	20073
900.95	20275
901.069	20218
901.189	20084
901.308	19902
901.427	19700
901.546	19738
901.665	19696
901.784	19803
901.904	19674
902.023	19571
902.141	19460
902.26	19419
902.379	19312
902.498	19365
902.617	19362
902.735	19392
902.854	19324
902.973	19320
903.091	19023
903.21	18932
903.328	18989
903.446	18894
903.565	18802
903.683	18730
903.801	18783
903.919	18806
904.038	18783
904.156	18502
904.274	18661
904.392	18555
904.51	18544
904.627	18486
904.745	18601
904.863	18578
904.981	18361
905.098	18270
905.216	18235
905.334	18239
905.451	18220
905.569	18273
905.686	18232
905.803	18121
905.921	18007
906.038	18125
906.155	18098
906.272	17961
906.389	17923
906.506	17714
906.623	17710
906.74	17718
906.857	17589
906.974	17699
907.091	17840
907.208	17843
907.324	17798
907.441	17600
907.557	17570
907.674	17482
907.79	17391
907.907	17376
908.023	17577
908.139	17490
908.256	17486
908.372	17318
908.488	17414
908.604	17246
908.72	17204
908.836	17216
908.952	17159
909.068	17220
909.184	17353
909.3	17204
909.415	17174
909.531	17117
909.647	16919
909.762	16915
909.878	16885
909.993	16881
910.108	16881
910.224	16854
910.339	16828
910.454	16694
910.57	16824
910.685	16778
910.8	16885
910.915	16847
911.03	16694
911.145	16561
911.259	16481
911.374	16413
911.489	16459
911.604	16306
911.718	16211
911.833	16215
911.947	16112
912.062	16120
912.176	16219
912.291	16196
912.405	16226
912.519	16390
912.633	16371
912.748	16200
912.862	16185
912.976	16090
913.09	15930
913.204	16112
913.318	16074
913.431	16097
913.545	16177
913.659	16131
913.772	16055
913.886	15838
914	15854
914.113	15922
914.226	15953
914.34	15937
914.453	15770
914.566	15812
914.68	15709
914.793	15728
914.906	15469
915.019	15374
915.132	15492
915.245	15458
915.358	15428
915.47	15416
915.583	15424
915.696	15405
915.809	15530
915.921	15496
916.034	15367
916.146	15294
916.259	15310
916.371	15431
916.483	15325
916.595	15344
916.708	15211
916.82	15344
916.932	15214
917.044	15157
917.156	15161
917.268	15020
917.38	15017
917.491	15074
917.603	15001
917.715	15127
917.826	15074
917.938	15028
918.049	14880
918.161	15047
918.272	15195
918.384	15062
918.495	14899
918.606	14876
918.717	14708
918.828	14933
918.939	14830
919.05	14735
919.161	14785
919.272	14545
919.383	14716
919.494	14826
919.604	14952
919.715	14853
919.826	14602
919.936	14735
920.047	14857
920.157	14724
920.267	14952
920.378	14845
920.488	14663
920.598	14986
920.708	14979
920.818	14918
920.928	15001
921.038	15108
921.148	14975
921.258	14762
921.368	14655
921.477	14594
921.587	14495
921.697	14419
921.806	14606
921.916	14336
922.025	14145
922.134	14153
922.244	14081
922.353	14191
922.462	14054
922.571	13997
922.68	13822
922.789	13826
922.898	13803
923.007	13753
923.116	13856
923.224	13811
923.333	13769
923.442	13689
923.55	13620
923.659	13643
923.767	13689
923.876	13533
923.984	13567
924.092	13400
924.201	13487
924.309	13529
924.417	13624
924.525	13518
924.633	13441
924.741	14096
924.849	13266
924.956	13400
925.064	13164
925.172	13156
925.279	13156
925.387	13190
925.494	13145
925.602	13365
925.709	13282
925.816	13091
925.924	13099
926.031	13293
926.138	13141
926.245	13274
926.352	13080
926.459	13175
926.566	13095
926.673	13065
926.779	12939
926.886	13012
926.993	12833
927.099	12829
927.206	12707
927.312	12715
927.419	12882
927.525	12760
927.631	12814
927.737	12608
927.843	12555
927.95	12410
928.056	12551
928.162	12616
928.267	12631
928.373	13187
928.479	12715
928.585	12361
928.69	12521
928.796	12544
928.901	12448
929.007	12330
929.112	12448
929.218	12429
929.323	12285
929.428	12296
929.533	12384
929.638	12175
929.743	12178
929.848	12243
929.953	12247
930.058	12163
930.163	11980
930.267	12003
930.372	11984
930.477	11935
930.581	12140
930.685	11992
930.79	11821
930.894	11870
930.998	11882
931.103	11977
931.207	11532
931.311	11482
931.415	11349
931.519	11299
931.623	11235
