Data from test_V78500241_2784.txt Node
Date: Fri Mar 25 15:29:14 CST 2022
User: usil
Spectrometer: V785-0024
Trigger mode: 0
Integration Time (sec): 4.000000E-1
Scans to average: 1
Nonlinearity correction enabled: false
Boxcar width: 0
Storing dark spectrum: false
XAxis mode: Wavelengths
Number of Pixels in Spectrum: 1024
>>>>>Begin Spectral Data<<<<<
801.071	27203
801.214	27104
801.356	26914
801.499	26891
801.641	26708
801.783	26739
801.926	26727
802.068	26659
802.211	26598
802.353	26689
802.496	26442
802.638	26408
802.78	26362
802.923	26275
803.065	26259
803.208	26240
803.35	26358
803.492	26446
803.635	26518
803.777	26522
803.919	26389
804.061	26792
804.204	26522
804.346	26583
804.488	26396
804.63	26446
804.773	26351
804.915	26556
805.057	26651
805.199	26442
805.341	26495
805.483	26560
805.626	26712
805.768	26571
805.91	26670
806.052	26663
806.194	26579
806.336	26842
806.478	26651
806.62	26663
806.762	26541
806.904	26933
807.046	27230
807.188	27058
807.33	27142
807.472	27165
807.614	26956
807.756	26998
807.898	26925
808.04	26895
808.182	26712
808.324	26902
808.465	26880
808.607	27173
808.749	27135
808.891	27325
809.033	27439
809.174	27279
809.316	27173
809.458	27119
809.6	27260
809.741	27268
809.883	27367
810.025	27519
810.166	27477
810.308	27507
810.45	27279
810.591	27325
810.733	27237
810.875	27032
811.016	27005
811.158	27081
811.299	27245
811.441	27340
811.582	27283
811.724	27233
811.865	27100
812.007	27169
812.148	27131
812.29	27218
812.431	27294
812.573	27473
812.714	27507
812.855	27675
812.997	27869
813.138	27812
813.279	27804
813.421	27732
813.562	27660
813.703	27435
813.845	27336
813.986	27085
814.127	26788
814.268	26899
814.41	26746
814.551	26868
814.692	26746
814.833	26849
814.974	26819
815.115	26925
815.256	26769
815.397	26697
815.539	26674
815.68	26648
815.821	26621
815.962	26655
816.103	26606
816.244	26613
816.385	26507
816.526	26339
816.666	26252
816.807	26145
816.948	26084
817.089	26142
817.23	26164
817.371	26130
817.512	26081
817.653	26092
817.793	26035
817.934	26119
818.075	26107
818.216	26096
818.356	25944
818.497	25944
818.638	25856
818.778	25818
818.919	25734
819.06	25883
819.2	25993
819.341	26130
819.481	26016
819.622	26225
819.762	26457
819.903	26370
820.043	26214
820.184	26225
820.324	26046
820.465	26244
820.605	26161
820.746	26248
820.886	26107
821.026	26195
821.167	26168
821.307	26210
821.447	26065
821.588	26065
821.728	25928
821.868	25696
822.008	25502
822.149	25624
822.289	25510
822.429	25365
822.569	25285
822.709	25179
822.849	25053
822.99	25118
823.13	25015
823.27	24977
823.41	24989
823.55	24772
823.69	24852
823.83	24882
823.97	24901
824.11	24734
824.25	24661
824.389	24798
824.529	24844
824.669	24661
824.809	24863
824.949	24802
825.089	24837
825.228	24817
825.368	24460
825.508	24486
825.648	24574
825.787	24688
825.927	24525
826.067	24540
826.206	24479
826.346	24604
826.485	24715
826.625	24532
826.765	24700
826.904	24635
827.044	24315
827.183	24220
827.323	24209
827.462	24289
827.601	24361
827.741	24270
827.88	24247
828.02	24201
828.159	24228
828.298	24308
828.437	24384
828.577	24289
828.716	24346
828.855	24254
828.994	24034
829.134	24018
829.273	24087
829.412	23843
829.551	23901
829.69	23958
829.829	24030
829.968	24003
830.107	24057
830.246	24049
830.385	23775
830.524	23687
830.663	23760
830.802	23668
830.941	23600
831.08	23509
831.219	23665
831.357	23646
831.496	23676
831.635	23497
831.774	23505
831.913	23448
832.051	23288
832.19	23410
832.329	23311
832.467	23410
832.606	23166
832.744	23143
832.883	23261
833.022	23140
833.16	23254
833.299	23353
833.437	23269
833.576	23223
833.714	23254
833.852	23353
833.991	23349
834.129	23410
834.267	23372
834.406	23410
834.544	23478
834.682	23292
834.821	23307
834.959	23520
835.097	23208
835.235	23364
835.373	23341
835.511	23273
835.65	23242
835.788	23132
835.926	23124
836.064	23094
836.202	23170
836.34	23041
836.478	23258
836.615	23071
836.753	23185
836.891	23181
837.029	23162
837.167	23041
837.305	23181
837.443	23060
837.58	22961
837.718	22919
837.856	22976
837.993	22965
838.131	22930
838.269	22831
838.406	22824
838.544	22942
838.681	22653
838.819	22622
838.956	22516
839.094	22459
839.231	22573
839.369	22736
839.506	22793
839.643	22778
839.781	22447
839.918	22325
840.055	22493
840.193	22261
840.33	22322
840.467	22421
840.604	22436
840.742	22755
840.879	22337
841.016	22432
841.153	22185
841.29	22538
841.427	22360
841.564	22500
841.701	22329
841.838	22352
841.975	22287
842.112	22318
842.249	22219
842.385	22112
842.522	22318
842.659	22169
842.796	22139
842.933	22166
843.069	22192
843.206	22032
843.343	22188
843.479	22120
843.616	22154
843.752	21873
843.889	21968
844.025	22006
844.162	21888
844.298	22040
844.435	21918
844.571	21850
844.708	21975
844.844	22101
844.98	22059
845.117	22078
845.253	21838
845.389	21800
845.525	21808
845.661	21709
845.798	21603
845.934	21736
846.07	21637
846.206	21641
846.342	21812
846.478	21545
846.614	21481
846.75	21397
846.886	21336
847.022	21355
847.158	21462
847.294	21386
847.429	21367
847.565	21469
847.701	21587
847.837	21070
847.972	20979
848.108	21245
848.244	21188
848.379	21001
848.515	20929
848.65	21032
848.786	20990
848.921	21017
849.057	21077
849.192	21043
849.328	21017
849.463	21055
849.598	21017
849.734	20868
849.869	20743
850.004	20735
850.14	20716
850.275	20811
850.41	20743
850.545	20724
850.68	20708
850.815	20872
850.95	20655
851.085	20872
851.22	20834
851.355	20758
851.49	20708
851.625	20632
851.76	20670
851.895	20640
852.03	20663
852.165	20716
852.299	20857
852.434	20891
852.569	20807
852.703	20705
852.838	20788
852.973	20868
853.107	20864
853.242	20716
853.376	20609
853.511	20450
853.645	20541
853.78	20625
853.914	20526
854.048	20636
854.183	20613
854.317	20518
854.451	20739
854.585	20590
854.72	20571
854.854	20727
854.988	20537
855.122	20507
855.256	20465
855.39	20598
855.524	20708
855.658	20545
855.792	20568
855.926	20686
856.06	20648
856.194	20663
856.327	20587
856.461	20522
856.595	20636
856.729	20552
856.862	20651
856.996	20648
857.13	20686
857.263	20724
857.397	20701
857.53	20465
857.664	20609
857.797	20746
857.931	20651
858.064	20571
858.197	20575
858.331	20594
858.464	20590
858.597	20682
858.731	20522
858.864	20492
858.997	20579
859.13	20560
859.263	20545
859.396	20640
859.529	20583
859.662	20541
859.795	20564
859.928	20579
860.061	20773
860.194	20826
860.327	20667
860.46	20541
860.592	20636
860.725	20701
860.858	20682
860.99	20670
861.123	20541
861.256	20374
861.388	20549
861.521	21264
861.653	20590
861.786	20355
861.918	20450
862.05	20393
862.183	20412
862.315	20575
862.447	20621
862.58	20446
862.712	20233
862.844	20374
862.976	20457
863.108	20290
863.24	20785
863.372	20237
863.504	20351
863.636	20339
863.768	20294
863.9	20351
864.032	20237
864.164	20233
864.296	20305
864.428	20431
864.559	20385
864.691	20355
864.823	20332
864.954	20324
865.086	20252
865.217	20172
865.349	20058
865.48	20180
865.612	20157
865.743	20256
865.875	20199
866.006	20248
866.137	20180
866.269	20206
866.4	20218
866.531	20119
866.662	20130
866.793	20001
866.924	20142
867.055	20259
867.186	20202
867.317	20073
867.448	20058
867.579	20134
867.71	20050
867.841	20058
867.972	20168
868.103	20195
868.233	20237
868.364	20081
868.495	20309
868.625	20320
868.756	20427
868.886	20298
869.017	20324
869.147	20541
869.278	20511
869.408	20404
869.539	20507
869.669	20602
869.799	20320
869.929	20530
870.06	20530
870.19	20746
870.32	20727
870.45	20606
870.58	20834
870.71	20876
870.84	20815
870.97	20819
871.1	20674
871.23	20902
871.36	20899
871.489	20868
871.619	20956
871.749	20918
871.879	20952
872.008	21009
872.138	21028
872.267	20952
872.397	20902
872.526	20819
872.656	20918
872.785	20876
872.915	20990
873.044	21180
873.173	21020
873.303	21047
873.432	21036
873.561	21013
873.69	21058
873.819	20963
873.948	21039
874.077	20952
874.206	21024
874.335	20971
874.464	21154
874.593	21329
874.722	21233
874.851	21260
874.979	21260
875.108	21203
875.237	21249
875.365	21233
875.494	21226
875.623	21378
875.751	21252
875.88	21237
876.008	21382
876.136	21485
876.265	21549
876.393	21743
876.521	21808
876.65	21667
876.778	21656
876.906	21576
877.034	21637
877.162	21568
877.29	21549
877.418	21682
877.546	21629
877.674	21595
877.802	21572
877.93	21690
878.058	21530
878.185	21447
878.313	21663
878.441	21652
878.568	21473
878.696	21583
878.824	21614
878.951	21759
879.079	21770
879.206	21945
879.333	21838
879.461	21519
879.588	21797
879.715	21804
879.842	21804
879.97	21507
880.097	21412
880.224	21370
880.351	21397
880.478	21507
880.605	21306
880.732	21367
880.859	21576
880.986	21332
881.112	21466
881.239	21241
881.366	21188
881.493	21108
881.619	21165
881.746	21074
881.872	21077
881.999	20956
882.125	20853
882.252	21001
882.378	20967
882.505	21173
882.631	20823
882.757	20720
882.883	20659
883.01	20735
883.136	20659
883.262	20659
883.388	20629
883.514	20667
883.64	20876
883.766	20708
883.892	20526
884.018	20571
884.143	20743
884.269	20686
884.395	20438
884.52	20396
884.646	20465
884.772	20256
884.897	20290
885.023	20374
885.148	20495
885.274	20629
885.399	20617
885.524	20336
885.65	20366
885.775	20343
885.9	20294
886.025	20514
886.15	20488
886.275	20358
886.4	20191
886.525	20332
886.65	20385
886.775	20233
886.9	20541
887.025	20545
887.149	20362
887.274	20195
887.399	20157
887.523	20119
887.648	20058
887.773	20161
887.897	20206
888.021	20229
888.146	20077
888.27	20172
888.395	20183
888.519	20206
888.643	20107
888.767	20294
888.891	19974
889.015	19902
889.139	19978
889.263	20046
889.387	19982
889.511	20256
889.635	20050
889.759	19944
889.883	19932
890.006	20035
890.13	20020
890.254	19936
890.377	19803
890.501	19723
890.624	19685
890.748	19803
890.871	19689
890.995	19483
891.118	19445
891.241	19750
891.364	19605
891.488	19620
891.611	19643
891.734	19563
891.857	19590
891.98	19548
892.103	19578
892.226	19552
892.349	19499
892.471	19346
892.594	19422
892.717	19495
892.839	19388
892.962	19491
893.085	19559
893.207	19457
893.33	19396
893.452	19343
893.575	19594
893.697	19472
893.819	19449
893.941	19681
894.064	19662
894.186	19403
894.308	19304
894.43	19499
894.552	19586
894.674	19533
894.796	19381
894.918	19594
895.04	19278
895.161	19457
895.283	19457
895.405	19343
895.526	19411
895.648	19457
895.769	19495
895.891	19392
896.012	19514
896.134	19605
896.255	19415
896.376	19438
896.498	19388
896.619	19438
896.74	19411
896.861	19514
896.982	19845
897.103	19906
897.224	19807
897.345	19658
897.466	19578
897.587	19643
897.708	19822
897.828	19658
897.949	19746
898.07	19521
898.19	19666
898.311	19799
898.431	19575
898.552	19685
898.672	19909
898.792	19791
898.913	19712
899.033	19540
899.153	19449
899.273	19525
899.393	19457
899.513	19529
899.633	19445
899.753	19419
899.873	19335
899.993	19537
900.113	19491
900.232	19476
900.352	19312
900.472	19263
900.591	19145
900.711	19327
900.83	19194
900.95	19384
901.069	19206
901.189	19152
901.308	18932
901.427	18890
901.546	18722
901.665	18798
901.784	18840
901.904	18791
902.023	18684
902.141	18490
902.26	18410
902.379	18490
902.498	18509
902.617	18334
902.735	18384
902.854	18342
902.973	18300
903.091	18167
903.21	17988
903.328	17996
903.446	17984
903.565	17885
903.683	17916
903.801	17775
903.919	17726
904.038	17817
904.156	17604
904.274	17722
904.392	17638
904.51	17596
904.627	17630
904.745	17794
904.863	17554
904.981	17486
905.098	17311
905.216	17349
905.334	17288
905.451	17299
905.569	17189
905.686	17296
905.803	17292
905.921	17014
906.038	17250
906.155	17166
906.272	17041
906.389	16869
906.506	16908
906.623	16812
906.74	16869
906.857	16645
906.974	16679
907.091	16839
907.208	16900
907.324	16885
907.441	16752
907.557	16558
907.674	16580
907.79	16443
907.907	16341
908.023	16535
908.139	16519
908.256	16462
908.372	16474
908.488	16413
908.604	16265
908.72	16299
908.836	16386
908.952	16280
909.068	16280
909.184	16375
909.3	16173
909.415	16295
909.531	16299
909.647	15998
909.762	15964
909.878	15941
909.993	15964
910.108	16029
910.224	15861
910.339	15994
910.454	15747
910.57	15857
910.685	15739
910.8	15972
910.915	15876
911.03	15823
911.145	15694
911.259	15698
911.374	15622
911.489	15515
911.604	15500
911.718	15348
911.833	15351
911.947	15245
912.062	15203
912.176	15393
912.291	15397
912.405	15412
912.519	15603
912.633	15481
912.748	15355
912.862	15332
912.976	15131
913.09	15085
913.204	15074
913.318	15222
913.431	15325
913.545	15230
913.659	15351
913.772	15028
913.886	15085
914	14971
914.113	15005
914.226	15070
914.34	15047
914.453	14868
914.566	15028
914.68	14918
914.793	14788
914.906	14708
915.019	14629
915.132	14492
915.245	14518
915.358	14610
915.47	14610
915.583	14541
915.696	14579
915.809	14689
915.921	14697
916.034	14473
916.146	14526
916.259	14499
916.371	14571
916.483	14514
916.595	14385
916.708	14457
916.82	14469
916.932	14446
917.044	14374
917.156	14381
917.268	14320
917.38	14343
917.491	14256
917.603	14332
917.715	14320
917.826	14343
917.938	14229
918.049	14100
918.161	14214
918.272	14339
918.384	14324
918.495	14248
918.606	14164
918.717	13959
918.828	14100
918.939	14027
919.05	13906
919.161	13967
919.272	13769
919.383	13849
919.494	14062
919.604	14278
919.715	14065
919.826	13887
919.936	14016
920.047	14043
920.157	14001
920.267	14096
920.378	13970
920.488	14031
920.598	14210
920.708	14206
920.818	14191
920.928	14157
921.038	14240
921.148	14187
921.258	13932
921.368	13776
921.477	13780
921.587	13757
921.697	13658
921.806	13856
921.916	13487
922.025	13384
922.134	13381
922.244	13354
922.353	13472
922.462	13320
922.571	13213
922.68	13057
922.789	13034
922.898	13084
923.007	13034
923.116	13129
923.224	12935
923.333	12943
923.442	12935
923.55	12920
923.659	12867
923.767	12947
923.876	12920
923.984	12981
924.092	12783
924.201	12856
924.309	12764
924.417	12848
924.525	12795
924.633	12852
924.741	13582
924.849	12521
924.956	12665
925.064	12498
925.172	12448
925.279	12483
925.387	12490
925.494	12502
925.602	12692
925.709	12559
925.816	12433
925.924	12445
926.031	12452
926.138	12471
926.245	12410
926.352	12399
926.459	12494
926.566	12555
926.673	12429
926.779	12213
926.886	12251
926.993	12209
927.099	12114
927.206	12068
927.312	12011
927.419	12098
927.525	12106
927.631	12019
927.737	12003
927.843	11916
927.95	11847
928.056	11920
928.162	11939
928.267	11999
928.373	12471
928.479	11923
928.585	11745
928.69	11931
928.796	11882
928.901	11794
929.007	11592
929.112	11790
929.218	11726
929.323	11707
929.428	11615
929.533	11737
929.638	11630
929.743	11634
929.848	11668
929.953	11592
930.058	11501
930.163	11379
930.267	11349
930.372	11459
930.477	11356
930.581	11558
930.685	11356
930.79	11277
930.894	11307
930.998	11185
931.103	11360
931.207	10968
931.311	10889
931.415	10831
931.519	10630
931.623	10565
