Data from test_V78500241_846.txt Node
Date: Fri Mar 25 15:15:44 CST 2022
User: usil
Spectrometer: V785-0024
Trigger mode: 0
Integration Time (sec): 4.000000E-1
Scans to average: 1
Nonlinearity correction enabled: false
Boxcar width: 0
Storing dark spectrum: false
XAxis mode: Wavelengths
Number of Pixels in Spectrum: 1024
>>>>>Begin Spectral Data<<<<<
801.071	28105
801.214	28128
801.356	27922
801.499	27778
801.641	27652
801.783	27842
801.926	27800
802.068	27591
802.211	27774
802.353	27378
802.496	27275
802.638	27504
802.78	27435
802.923	27313
803.065	27435
803.208	27439
803.35	27408
803.492	27481
803.635	27576
803.777	27252
803.919	27610
804.061	27774
804.204	27648
804.346	27473
804.488	27492
804.63	27591
804.773	27397
804.915	27549
805.057	27694
805.199	27663
805.341	27736
805.483	27739
805.626	27797
805.768	27587
805.91	27766
806.052	27648
806.194	27610
806.336	27865
806.478	27846
806.62	27854
806.762	27918
806.904	27876
807.046	28238
807.188	28078
807.33	28185
807.472	28120
807.614	28036
807.756	28032
807.898	27899
808.04	27998
808.182	28135
808.324	27979
808.465	28169
808.607	28272
808.749	28451
808.891	28493
809.033	28481
809.174	28474
809.316	28363
809.458	28573
809.6	28341
809.741	28565
809.883	28497
810.025	28615
810.166	28557
810.308	28748
810.45	28470
810.591	28713
810.733	28607
810.875	28379
811.016	28360
811.158	28249
811.299	28455
811.441	28470
811.582	28455
811.724	28295
811.865	28379
812.007	28417
812.148	28535
812.29	28485
812.431	28588
812.573	28698
812.714	28740
812.855	29003
812.997	29067
813.138	29109
813.279	29022
813.421	28934
813.562	29022
813.703	28862
813.845	28748
813.986	28428
814.127	28272
814.268	28223
814.41	28147
814.551	28090
814.692	28230
814.833	28082
814.974	28048
815.115	28097
815.256	28135
815.397	28051
815.539	28051
815.68	27998
815.821	27869
815.962	27975
816.103	27812
816.244	27804
816.385	27690
816.526	27496
816.666	27622
816.807	27382
816.948	27454
817.089	27519
817.23	27473
817.371	27355
817.512	27485
817.653	27420
817.793	27249
817.934	27420
818.075	27519
818.216	27473
818.356	27386
818.497	27298
818.638	27135
818.778	27127
818.919	27161
819.06	27252
819.2	27359
819.341	27401
819.481	27310
819.622	27447
819.762	27728
819.903	27732
820.043	27633
820.184	27652
820.324	27610
820.465	27564
820.605	27629
820.746	27488
820.886	27340
821.026	27572
821.167	27397
821.307	27523
821.447	27374
821.588	27313
821.728	27279
821.868	26956
822.008	26845
822.149	26956
822.289	26861
822.429	26499
822.569	26587
822.709	26583
822.849	26278
822.99	26396
823.13	26400
823.27	26366
823.41	26191
823.55	26077
823.69	26237
823.83	26168
823.97	26149
824.11	25982
824.25	26088
824.389	25970
824.529	26077
824.669	26008
824.809	26176
824.949	26176
825.089	26164
825.228	26161
825.368	25913
825.508	25917
825.648	25982
825.787	25982
825.927	25898
826.067	25841
826.206	25864
826.346	26054
826.485	25951
826.625	25898
826.765	26012
826.904	25932
827.044	25727
827.183	25575
827.323	25472
827.462	25723
827.601	25635
827.741	25590
827.88	25601
828.02	25613
828.159	25635
828.298	25731
828.437	25620
828.577	25708
828.716	25734
828.855	25400
828.994	25369
829.134	25346
829.273	25449
829.412	25289
829.551	25350
829.69	25324
829.829	25335
829.968	25552
830.107	25396
830.246	25255
830.385	25270
830.524	25316
830.663	25126
830.802	25000
830.941	25000
831.08	24916
831.219	24901
831.357	25076
831.496	25145
831.635	24783
831.774	24935
831.913	24787
832.051	24745
832.19	24692
832.329	24776
832.467	24696
832.606	24772
832.744	24631
832.883	24525
833.022	24517
833.16	24760
833.299	24677
833.437	24631
833.576	24688
833.714	24783
833.852	24707
833.991	24738
834.129	24684
834.267	24783
834.406	24776
834.544	24783
834.682	24570
834.821	24681
834.959	24757
835.097	24559
835.235	24715
835.373	24616
835.511	24757
835.65	24536
835.788	24612
835.926	24353
836.064	24327
836.202	24372
836.34	24570
836.478	24551
836.615	24346
836.753	24536
836.891	24589
837.029	24547
837.167	24620
837.305	24471
837.443	24490
837.58	24452
837.718	24315
837.856	24410
837.993	24258
838.131	24346
838.269	24125
838.406	24300
838.544	24171
838.681	23980
838.819	23904
838.956	23836
839.094	23805
839.231	23935
839.369	24026
839.506	24194
839.643	24087
839.781	23832
839.918	23783
840.055	23676
840.193	23767
840.33	23726
840.467	23653
840.604	23661
840.742	24076
840.879	23703
841.016	23672
841.153	23493
841.29	23771
841.427	23707
841.564	23824
841.701	23615
841.838	23745
841.975	23547
842.112	23497
842.249	23509
842.385	23398
842.522	23619
842.659	23493
842.796	23512
842.933	23627
843.069	23322
843.206	23505
843.343	23592
843.479	23402
843.616	23512
843.752	23258
843.889	23265
844.025	23436
844.162	23292
844.298	23322
844.435	23246
844.571	23261
844.708	23239
844.844	23360
844.98	23326
845.117	23379
845.253	23235
845.389	23124
845.525	23174
845.661	23117
845.798	23006
845.934	23109
846.07	22995
846.206	22923
846.342	23102
846.478	22972
846.614	22778
846.75	22660
846.886	22725
847.022	22736
847.158	22660
847.294	22630
847.429	22702
847.565	22668
847.701	22869
847.837	22512
847.972	22390
848.108	22466
848.244	22573
848.379	22211
848.515	22360
848.65	22276
848.786	22249
848.921	22417
849.057	22371
849.192	22398
849.328	22375
849.463	22280
849.598	22219
849.734	22272
849.869	22204
850.004	22105
850.14	22063
850.275	22177
850.41	22044
850.545	21987
850.68	21953
850.815	21998
850.95	21975
851.085	22230
851.22	22215
851.355	22101
851.49	22109
851.625	22109
851.76	22036
851.895	21987
852.03	22010
852.165	21994
852.299	21994
852.434	22211
852.569	22059
852.703	21987
852.838	22131
852.973	22150
853.107	22238
853.242	22032
853.376	21991
853.511	21831
853.645	21755
853.78	21972
853.914	21922
854.048	21800
854.183	21838
854.317	21915
854.451	22006
854.585	21823
854.72	21861
854.854	21941
854.988	21880
855.122	21972
855.256	21682
855.39	21880
855.524	21869
855.658	21926
855.792	21880
855.926	21888
856.06	21926
856.194	22048
856.327	21884
856.461	21800
856.595	21842
856.729	21880
856.862	22090
856.996	21846
857.13	22006
857.263	21880
857.397	21880
857.53	21865
857.664	21964
857.797	21861
857.931	22044
858.064	21827
858.197	21926
858.331	21907
858.464	21835
858.597	21751
858.731	21876
858.864	21827
858.997	21926
859.13	21819
859.263	21770
859.396	21949
859.529	21865
859.662	21850
859.795	21937
859.928	21804
860.061	22040
860.194	21941
860.327	21850
860.46	21816
860.592	22074
860.725	21956
860.858	22002
860.99	21941
861.123	21869
861.256	21873
861.388	21842
861.521	22565
861.653	21812
861.786	21663
861.918	21682
862.05	21762
862.183	21778
862.315	21808
862.447	21850
862.58	21713
862.712	21663
862.844	21526
862.976	21705
863.108	21633
863.24	21903
863.372	21408
863.504	21679
863.636	21572
863.768	21614
863.9	21557
864.032	21485
864.164	21656
864.296	21618
864.428	21728
864.559	21648
864.691	21629
864.823	21698
864.954	21576
865.086	21515
865.217	21492
865.349	21428
865.48	21443
865.612	21504
865.743	21534
865.875	21466
866.006	21359
866.137	21504
866.269	21466
866.4	21515
866.531	21458
866.662	21275
866.793	21473
866.924	21462
867.055	21382
867.186	21473
867.317	21283
867.448	21367
867.579	21370
867.71	21306
867.841	21245
867.972	21401
868.103	21454
868.233	21321
868.364	21348
868.495	21454
868.625	21397
868.756	21812
868.886	21545
869.017	21709
869.147	21778
869.278	21698
869.408	21637
869.539	21663
869.669	21679
869.799	21660
869.929	21774
870.06	21812
870.19	21781
870.32	21960
870.45	21956
870.58	21983
870.71	22036
870.84	22086
870.97	22029
871.1	22067
871.23	22181
871.36	22215
871.489	22002
871.619	22265
871.749	22261
871.879	22158
872.008	22379
872.138	22200
872.267	22219
872.397	22109
872.526	22006
872.656	22177
872.785	22055
872.915	22280
873.044	22215
873.173	22348
873.303	22196
873.432	22257
873.561	22329
873.69	22287
873.819	22314
873.948	22386
874.077	22261
874.206	22234
874.335	22147
874.464	22386
874.593	22546
874.722	22512
874.851	22512
874.979	22363
875.108	22538
875.237	22447
875.365	22291
875.494	22428
875.623	22421
875.751	22432
875.88	22519
876.008	22580
876.136	22630
876.265	22881
876.393	22896
876.521	22987
876.65	22881
876.778	22797
876.906	22759
877.034	22702
877.162	22896
877.29	22660
877.418	22801
877.546	22752
877.674	22721
877.802	22755
877.93	22858
878.058	22805
878.185	22736
878.313	22771
878.441	22740
878.568	22706
878.696	22767
878.824	22850
878.951	22828
879.079	22908
879.206	23174
879.333	22900
879.461	22984
879.588	22908
879.715	22866
879.842	22999
879.97	22854
880.097	22759
880.224	22569
880.351	22596
880.478	22626
880.605	22561
880.732	22729
880.859	22736
880.986	22516
881.112	22580
881.239	22493
881.366	22272
881.493	22303
881.619	22204
881.746	22287
881.872	22154
881.999	22200
882.125	22120
882.252	22124
882.378	22131
882.505	22257
882.631	22040
882.757	21884
882.883	21956
883.01	21953
883.136	21956
883.262	21781
883.388	21576
883.514	21861
883.64	21876
883.766	21831
883.892	21827
884.018	21713
884.143	21793
884.269	21819
884.395	21538
884.52	21401
884.646	21511
884.772	21481
884.897	21428
885.023	21519
885.148	21553
885.274	21572
885.399	21599
885.524	21572
885.65	21526
885.775	21469
885.9	21435
886.025	21545
886.15	21572
886.275	21526
886.4	21439
886.525	21447
886.65	21492
886.775	21405
886.9	21675
887.025	21686
887.149	21439
887.274	21439
887.399	21214
887.523	21241
887.648	21241
887.773	21176
887.897	21306
888.021	21287
888.146	21195
888.27	21401
888.395	21332
888.519	21397
888.643	21363
888.767	21340
888.891	21207
889.015	21127
889.139	21077
889.263	21028
889.387	21165
889.511	21416
889.635	21173
889.759	21017
889.883	21188
890.006	21062
890.13	21135
890.254	21165
890.377	21077
890.501	20834
890.624	20754
890.748	20746
890.871	20796
890.995	20686
891.118	20606
891.241	20655
891.364	20708
891.488	20804
891.611	20765
891.734	20705
891.857	20750
891.98	20556
892.103	20724
892.226	20587
892.349	20621
892.471	20419
892.594	20606
892.717	20590
892.839	20579
892.962	20583
893.085	20575
893.207	20590
893.33	20450
893.452	20499
893.575	20655
893.697	20488
893.819	20739
893.941	20743
894.064	20689
894.186	20499
894.308	20518
894.43	20678
894.552	20663
894.674	20663
894.796	20434
894.918	20457
895.04	20514
895.161	20594
895.283	20663
895.405	20526
895.526	20454
895.648	20438
895.769	20537
895.891	20560
896.012	20648
896.134	20571
896.255	20678
896.376	20423
896.498	20492
896.619	20575
896.74	20446
896.861	20708
896.982	20944
897.103	21032
897.224	20682
897.345	20667
897.466	20632
897.587	20651
897.708	20929
897.828	20792
897.949	20735
898.07	20617
898.19	20617
898.311	20807
898.431	20693
898.552	20746
898.672	20845
898.792	20773
898.913	20731
899.033	20651
899.153	20518
899.273	20545
899.393	20385
899.513	20533
899.633	20507
899.753	20545
899.873	20431
899.993	20594
900.113	20446
900.232	20461
900.352	20358
900.472	20419
900.591	20161
900.711	20244
900.83	20248
900.95	20400
901.069	20339
901.189	20111
901.308	19928
901.427	19791
901.546	19837
901.665	19947
901.784	19913
901.904	19635
902.023	19552
902.141	19369
902.26	19533
902.379	19449
902.498	19354
902.617	19316
902.735	19335
902.854	19236
902.973	19221
903.091	19091
903.21	19053
903.328	19072
903.446	18989
903.565	18852
903.683	18856
903.801	18791
903.919	18776
904.038	18776
904.156	18574
904.274	18696
904.392	18494
904.51	18639
904.627	18570
904.745	18779
904.863	18612
904.981	18403
905.098	18342
905.216	18254
905.334	18357
905.451	18243
905.569	18220
905.686	18376
905.803	18311
905.921	18106
906.038	18178
906.155	18152
906.272	18011
906.389	17916
906.506	17904
906.623	17832
906.74	17802
906.857	17733
906.974	17634
907.091	17882
907.208	17859
907.324	17817
907.441	17672
907.557	17493
907.674	17547
907.79	17406
907.907	17532
908.023	17512
908.139	17512
908.256	17478
908.372	17471
908.488	17436
908.604	17246
908.72	17200
908.836	17254
908.952	17261
909.068	17200
909.184	17216
909.3	17200
909.415	17231
909.531	17090
909.647	16987
909.762	16946
909.878	16972
909.993	17094
910.108	16866
910.224	16835
910.339	16953
910.454	16828
910.57	16858
910.685	16577
910.8	16908
910.915	16790
911.03	16645
911.145	16622
911.259	16516
911.374	16554
911.489	16470
911.604	16413
911.718	16261
911.833	16268
911.947	16109
912.062	16032
912.176	16261
912.291	16318
912.405	16135
912.519	16451
912.633	16413
912.748	16348
912.862	16181
912.976	16048
913.09	15972
913.204	16082
913.318	16105
913.431	16059
913.545	16185
913.659	16147
913.772	16055
913.886	15880
914	15945
914.113	15960
914.226	15956
914.34	15972
914.453	15751
914.566	15934
914.68	15698
914.793	15728
914.906	15549
915.019	15481
915.132	15477
915.245	15439
915.358	15530
915.47	15447
915.583	15416
915.696	15473
915.809	15641
915.921	15530
916.034	15378
916.146	15348
916.259	15382
916.371	15431
916.483	15431
916.595	15264
916.708	15298
916.82	15272
916.932	15306
917.044	15268
917.156	15180
917.268	15074
917.38	15085
917.491	14998
917.603	15112
917.715	15199
917.826	15256
917.938	15047
918.049	14845
918.161	15005
918.272	15089
918.384	15154
918.495	15089
918.606	14883
918.717	14823
918.828	14811
918.939	14815
919.05	14758
919.161	14800
919.272	14689
919.383	14754
919.494	14823
919.604	15043
919.715	14861
919.826	14807
919.936	14868
920.047	14944
920.157	14845
920.267	14944
920.378	14864
920.488	14708
920.598	14971
920.708	15142
920.818	14963
920.928	14929
921.038	14990
921.148	15009
921.258	14857
921.368	14727
921.477	14541
921.587	14503
921.697	14408
921.806	14621
921.916	14469
922.025	14221
922.134	14252
922.244	14123
922.353	14229
922.462	14027
922.571	14008
922.68	13818
922.789	13883
922.898	13868
923.007	13788
923.116	13795
923.224	13826
923.333	13868
923.442	13647
923.55	13586
923.659	13674
923.767	13639
923.876	13601
923.984	13670
924.092	13578
924.201	13628
924.309	13575
924.417	13518
924.525	13472
924.633	13521
924.741	14206
924.849	13316
924.956	13422
925.064	13331
925.172	13225
925.279	13221
925.387	13202
925.494	13240
925.602	13308
925.709	13320
925.816	13084
925.924	13156
926.031	13228
926.138	13179
926.245	13194
926.352	13091
926.459	13240
926.566	13179
926.673	12973
926.779	13019
926.886	12981
926.993	12867
927.099	12837
927.206	12745
927.312	12734
927.419	12700
927.525	12798
927.631	12829
927.737	12669
927.843	12604
927.95	12517
928.056	12544
928.162	12623
928.267	12669
928.373	13122
928.479	12627
928.585	12555
928.69	12452
928.796	12563
928.901	12490
929.007	12357
929.112	12445
929.218	12452
929.323	12369
929.428	12262
929.533	12365
929.638	12224
929.743	12289
929.848	12285
929.953	12281
930.058	12182
930.163	12034
930.267	12053
930.372	12098
930.477	11908
930.581	12175
930.685	11999
930.79	11901
930.894	11855
930.998	11790
931.103	11965
931.207	11611
931.311	11596
931.415	11448
931.519	11246
931.623	11239
