Data from test_V78500241_20.txt Node
Date: Fri Mar 25 15:10:00 CST 2022
User: usil
Spectrometer: V785-0024
Trigger mode: 0
Integration Time (sec): 4.000000E-1
Scans to average: 1
Nonlinearity correction enabled: false
Boxcar width: 0
Storing dark spectrum: false
XAxis mode: Wavelengths
Number of Pixels in Spectrum: 1024
>>>>>Begin Spectral Data<<<<<
801.071	28105
801.214	28082
801.356	27800
801.499	27800
801.641	27698
801.783	27637
801.926	27648
802.068	27641
802.211	27492
802.353	27408
802.496	27176
802.638	27302
802.78	27272
802.923	27237
803.065	27211
803.208	27131
803.35	27070
803.492	27359
803.635	27154
803.777	27123
803.919	27443
804.061	27663
804.204	27363
804.346	27150
804.488	27264
804.63	27370
804.773	27020
804.915	27256
805.057	27332
805.199	27184
805.341	27264
805.483	27416
805.626	27233
805.768	27207
805.91	27408
806.052	27359
806.194	27142
806.336	27344
806.478	27340
806.62	27138
806.762	27291
806.904	27462
807.046	27717
807.188	27663
807.33	27648
807.472	27770
807.614	27656
807.756	27591
807.898	27458
808.04	27306
808.182	27393
808.324	27424
808.465	27382
808.607	27557
808.749	27667
808.891	27861
809.033	27895
809.174	27694
809.316	27759
809.458	27846
809.6	27671
809.741	27808
809.883	27861
810.025	27949
810.166	27991
810.308	27895
810.45	27869
810.591	27861
810.733	27709
810.875	27701
811.016	27587
811.158	27568
811.299	27724
811.441	27781
811.582	27804
811.724	27587
811.865	27568
812.007	27701
812.148	27690
812.29	27622
812.431	27876
812.573	27903
812.714	27930
812.855	28177
812.997	28242
813.138	28363
813.279	28314
813.421	28070
813.562	28025
813.703	27922
813.845	27675
813.986	27447
814.127	27412
814.268	27218
814.41	27211
814.551	27100
814.692	27294
814.833	27150
814.974	27165
815.115	27275
815.256	27058
815.397	27222
815.539	26975
815.68	26906
815.821	26925
815.962	27001
816.103	26925
816.244	26762
816.385	26750
816.526	26644
816.666	26419
816.807	26415
816.948	26480
817.089	26438
817.23	26408
817.371	26202
817.512	26301
817.653	26324
817.793	26237
817.934	26290
818.075	26229
818.216	26366
818.356	26161
818.497	26210
818.638	25879
818.778	26050
818.919	25944
819.06	26062
819.2	26145
819.341	26214
819.481	26358
819.622	26427
819.762	26484
819.903	26438
820.043	26396
820.184	26351
820.324	26256
820.465	26252
820.605	26290
820.746	26294
820.886	26176
821.026	26259
821.167	26244
821.307	26237
821.447	26252
821.588	26050
821.728	25932
821.868	25734
822.008	25635
822.149	25552
822.289	25620
822.429	25491
822.569	25308
822.709	25392
822.849	25160
822.99	25118
823.13	24981
823.27	25050
823.41	24928
823.55	24817
823.69	24814
823.83	24943
823.97	24844
824.11	24673
824.25	24688
824.389	24604
824.529	24745
824.669	24540
824.809	24856
824.949	24658
825.089	24779
825.228	24635
825.368	24467
825.508	24369
825.648	24532
825.787	24498
825.927	24445
826.067	24308
826.206	24372
826.346	24498
826.485	24418
826.625	24296
826.765	24452
826.904	24502
827.044	24167
827.183	24106
827.323	24182
827.462	24167
827.601	24057
827.741	24159
827.88	24003
828.02	23946
828.159	23912
828.298	23992
828.437	24102
828.577	24003
828.716	24018
828.855	23950
828.994	23851
829.134	23767
829.273	23878
829.412	23798
829.551	23657
829.69	23653
829.829	23866
829.968	23767
830.107	23771
830.246	23760
830.385	23627
830.524	23608
830.663	23471
830.802	23353
830.941	23273
831.08	23242
831.219	23341
831.357	23311
831.496	23463
831.635	23258
831.774	23318
831.913	23212
832.051	23079
832.19	23018
832.329	23033
832.467	22908
832.606	22812
832.744	22972
832.883	22786
833.022	22949
833.16	22934
833.299	22858
833.437	22938
833.576	23003
833.714	22797
833.852	22957
833.991	22987
834.129	23029
834.267	23037
834.406	22915
834.544	22843
834.682	22942
834.821	22793
834.959	23109
835.097	22801
835.235	22923
835.373	22831
835.511	22809
835.65	22748
835.788	22733
835.926	22630
836.064	22577
836.202	22497
836.34	22809
836.478	22748
836.615	22664
836.753	22824
836.891	22797
837.029	22755
837.167	22580
837.305	22630
837.443	22603
837.58	22603
837.718	22653
837.856	22565
837.993	22569
838.131	22641
838.269	22489
838.406	22516
838.544	22325
838.681	22230
838.819	22310
838.956	22154
839.094	22044
839.231	22188
839.369	22192
839.506	22421
839.643	22287
839.781	21972
839.918	22021
840.055	21998
840.193	21934
840.33	21918
840.467	21960
840.604	21816
840.742	22055
840.879	21701
841.016	21774
841.153	21660
841.29	21911
841.427	21808
841.564	21949
841.701	21800
841.838	21884
841.975	21701
842.112	21698
842.249	21682
842.385	21576
842.522	21842
842.659	21652
842.796	21603
842.933	21568
843.069	21614
843.206	21576
843.343	21667
843.479	21458
843.616	21515
843.752	21428
843.889	21321
844.025	21511
844.162	21268
844.298	21428
844.435	21294
844.571	21272
844.708	21298
844.844	21447
844.98	21523
845.117	21428
845.253	21195
845.389	21199
845.525	21176
845.661	21199
845.798	21108
845.934	21043
846.07	20982
846.206	21039
846.342	21074
846.478	21051
846.614	20807
846.75	20819
846.886	20735
847.022	20834
847.158	20781
847.294	20750
847.429	20746
847.565	20743
847.701	21108
847.837	20556
847.972	20381
848.108	20499
848.244	20511
848.379	20278
848.515	20313
848.65	20259
848.786	20263
848.921	20381
849.057	20385
849.192	20442
849.328	20336
849.463	20332
849.598	20252
849.734	20305
849.869	20103
850.004	20115
850.14	20084
850.275	20039
850.41	20016
850.545	19970
850.68	20008
850.815	20073
850.95	20046
851.085	20161
851.22	20077
851.355	20088
851.49	20062
851.625	20043
851.76	19928
851.895	19940
852.03	19811
852.165	19951
852.299	20084
852.434	20111
852.569	20012
852.703	19932
852.838	20065
852.973	20115
853.107	20172
853.242	20001
853.376	19830
853.511	19635
853.645	19761
853.78	19898
853.914	19833
854.048	19712
854.183	19765
854.317	19727
854.451	19982
854.585	19856
854.72	19963
854.854	19951
854.988	19712
855.122	19795
855.256	19712
855.39	19723
855.524	19868
855.658	19902
855.792	19837
855.926	19814
856.06	19917
856.194	19887
856.327	19830
856.461	19811
856.595	19742
856.729	19887
856.862	19894
856.996	19799
857.13	19830
857.263	19845
857.397	19849
857.53	19845
857.664	19830
857.797	19784
857.931	19932
858.064	19921
858.197	19928
858.331	19769
858.464	19734
858.597	19753
858.731	19750
858.864	19723
858.997	19719
859.13	19776
859.263	19723
859.396	19712
859.529	19662
859.662	19677
859.795	19696
859.928	19651
860.061	19860
860.194	19883
860.327	19715
860.46	19727
860.592	19849
860.725	19849
860.858	19845
860.99	19696
861.123	19616
861.256	19548
861.388	19689
861.521	20301
861.653	19628
861.786	19529
861.918	19639
862.05	19696
862.183	19807
862.315	19811
862.447	19913
862.58	19727
862.712	19559
862.844	19392
862.976	19594
863.108	19434
863.24	19993
863.372	19411
863.504	19480
863.636	19320
863.768	19407
863.9	19419
864.032	19354
864.164	19468
864.296	19403
864.428	19502
864.559	19567
864.691	19392
864.823	19419
864.954	19487
865.086	19434
865.217	19392
865.349	19362
865.48	19304
865.612	19396
865.743	19457
865.875	19362
866.006	19266
866.137	19377
866.269	19339
866.4	19403
866.531	19339
866.662	19285
866.793	19343
866.924	19259
867.055	19244
867.186	19282
867.317	19289
867.448	19236
867.579	19190
867.71	19236
867.841	19209
867.972	19240
868.103	19335
868.233	19365
868.364	19168
868.495	19350
868.625	19552
868.756	19586
868.886	19411
869.017	19575
869.147	19616
869.278	19658
869.408	19563
869.539	19525
869.669	19548
869.799	19537
869.929	19548
870.06	19601
870.19	19769
870.32	19772
870.45	19795
870.58	19917
870.71	19982
870.84	20020
870.97	19841
871.1	19860
871.23	19936
871.36	20073
871.489	19963
871.619	20031
871.749	20081
871.879	20126
872.008	20233
872.138	20126
872.267	20229
872.397	20077
872.526	19887
872.656	19921
872.785	19868
872.915	20149
873.044	20259
873.173	20065
873.303	20195
873.432	20202
873.561	20229
873.69	20256
873.819	20149
873.948	20191
874.077	20225
874.206	20077
874.335	20142
874.464	20119
874.593	20343
874.722	20317
874.851	20396
874.979	20434
875.108	20442
875.237	20408
875.365	20294
875.494	20393
875.623	20457
875.751	20290
875.88	20511
876.008	20446
876.136	20659
876.265	20777
876.393	20864
876.521	20842
876.65	20807
876.778	20826
876.906	20796
877.034	20769
877.162	20724
877.29	20720
877.418	20598
877.546	20697
877.674	20765
877.802	20735
877.93	20644
878.058	20750
878.185	20659
878.313	20693
878.441	20575
878.568	20541
878.696	20670
878.824	20659
878.951	20864
879.079	20994
879.206	21036
879.333	20826
879.461	20743
879.588	20880
879.715	21043
879.842	21051
879.97	20838
880.097	20655
880.224	20469
880.351	20625
880.478	20511
880.605	20594
880.732	20503
880.859	20826
880.986	20674
881.112	20659
881.239	20503
881.366	20332
881.493	20271
881.619	20259
881.746	20130
881.872	20214
881.999	20172
882.125	20187
882.252	20233
882.378	20195
882.505	20282
882.631	20088
882.757	19906
882.883	19993
883.01	20077
883.136	20024
883.262	19837
883.388	19803
883.514	19833
883.64	20008
883.766	19913
883.892	19750
884.018	19761
884.143	20050
884.269	20069
884.395	19651
884.52	19620
884.646	19502
884.772	19575
884.897	19415
885.023	19693
885.148	19715
885.274	19788
885.399	19708
885.524	19529
885.65	19571
885.775	19506
885.9	19491
886.025	19757
886.15	19597
886.275	19544
886.4	19457
886.525	19506
886.65	19559
886.775	19529
886.9	19605
887.025	19708
887.149	19647
887.274	19392
887.399	19320
887.523	19244
887.648	19187
887.773	19274
887.897	19346
888.021	19403
888.146	19240
888.27	19487
888.395	19464
888.519	19301
888.643	19331
888.767	19407
888.891	19293
889.015	19217
889.139	19118
889.263	19072
889.387	19206
889.511	19251
889.635	19270
889.759	19088
889.883	19126
890.006	19110
890.13	19194
890.254	19069
890.377	19110
890.501	18935
890.624	18817
890.748	19012
890.871	18779
890.995	18646
891.118	18673
891.241	18787
891.364	18650
891.488	18795
891.611	18700
891.734	18669
891.857	18760
891.98	18783
892.103	18764
892.226	18715
892.349	18646
892.471	18551
892.594	18646
892.717	18677
892.839	18578
892.962	18627
893.085	18722
893.207	18631
893.33	18555
893.452	18681
893.575	18604
893.697	18601
893.819	18783
893.941	18791
894.064	18795
894.186	18627
894.308	18513
894.43	18753
894.552	18856
894.674	18791
894.796	18582
894.918	18654
895.04	18688
895.161	18726
895.283	18681
895.405	18570
895.526	18585
895.648	18650
895.769	18665
895.891	18703
896.012	18791
896.134	18787
896.255	18684
896.376	18707
896.498	18764
896.619	18787
896.74	18753
896.861	18802
896.982	19133
897.103	19274
897.224	19034
897.345	18977
897.466	18863
897.587	18962
897.708	19080
897.828	18905
897.949	18848
898.07	18741
898.19	18833
898.311	19107
898.431	18901
898.552	18928
898.672	18897
898.792	19038
898.913	18859
899.033	18814
899.153	18719
899.273	18658
899.393	18616
899.513	18525
899.633	18681
899.753	18658
899.873	18467
899.993	18650
900.113	18734
900.232	18612
900.352	18513
900.472	18429
900.591	18361
900.711	18445
900.83	18475
900.95	18490
901.069	18650
901.189	18422
901.308	18182
901.427	18045
901.546	18038
901.665	18060
901.784	18079
901.904	17859
902.023	17885
902.141	17649
902.26	17733
902.379	17668
902.498	17433
902.617	17562
902.735	17592
902.854	17577
902.973	17539
903.091	17353
903.21	17227
903.328	17265
903.446	17136
903.565	17075
903.683	17071
903.801	16953
903.919	17124
904.038	17014
904.156	16896
904.274	16828
904.392	16873
904.51	16805
904.627	16862
904.745	16866
904.863	16877
904.981	16588
905.098	16497
905.216	16432
905.334	16565
905.451	16497
905.569	16478
905.686	16573
905.803	16558
905.921	16333
906.038	16409
906.155	16337
906.272	16246
906.389	16196
906.506	16093
906.623	16032
906.74	15994
906.857	15953
906.974	16029
907.091	16139
907.208	16154
907.324	16029
907.441	15945
907.557	15816
907.674	15842
907.79	15717
907.907	15778
908.023	15770
908.139	15751
908.256	15743
908.372	15663
908.488	15466
908.604	15485
908.72	15355
908.836	15401
908.952	15420
909.068	15439
909.184	15663
909.3	15401
909.415	15523
909.531	15443
909.647	15154
909.762	15165
909.878	15150
909.993	15100
910.108	15085
910.224	15165
910.339	15077
910.454	15093
910.57	14998
910.685	14956
910.8	15123
910.915	15138
911.03	14956
911.145	14750
911.259	14750
911.374	14765
911.489	14670
911.604	14598
911.718	14450
911.833	14495
911.947	14446
912.062	14286
912.176	14480
912.291	14533
912.405	14377
912.519	14629
912.633	14686
912.748	14533
912.862	14488
912.976	14294
913.09	14183
913.204	14225
913.318	14362
913.431	14393
913.545	14271
913.659	14465
913.772	14267
913.886	14115
914	14164
914.113	14278
914.226	14221
914.34	14313
914.453	14054
914.566	14168
914.68	13944
914.793	13967
914.906	13887
915.019	13845
915.132	13734
915.245	13738
915.358	13894
915.47	13883
915.583	13833
915.696	13837
915.809	13970
915.921	13940
916.034	13761
916.146	13772
916.259	13655
916.371	13803
916.483	13696
916.595	13651
916.708	13681
916.82	13677
916.932	13632
917.044	13639
917.156	13620
917.268	13419
917.38	13563
917.491	13518
917.603	13476
917.715	13552
917.826	13639
917.938	13537
918.049	13301
918.161	13457
918.272	13605
918.384	13544
918.495	13445
918.606	13354
918.717	13251
918.828	13308
918.939	13278
919.05	13240
919.161	13289
919.272	13000
919.383	13133
919.494	13388
919.604	13480
919.715	13270
919.826	13293
919.936	13168
920.047	13228
920.157	13259
920.267	13365
920.378	13396
920.488	13145
920.598	13403
920.708	13529
920.818	13365
920.928	13316
921.038	13540
921.148	13419
921.258	13114
921.368	13122
921.477	12973
921.587	12981
921.697	12920
921.806	13027
921.916	12783
922.025	12696
922.134	12620
922.244	12547
922.353	12654
922.462	12490
922.571	12353
922.68	12342
922.789	12243
922.898	12239
923.007	12178
923.116	12391
923.224	12308
923.333	12273
923.442	12140
923.55	12053
923.659	12186
923.767	12167
923.876	12057
923.984	12194
924.092	11996
924.201	12053
924.309	12072
924.417	11984
924.525	11935
924.633	11942
924.741	12673
924.849	11775
924.956	11954
925.064	11707
925.172	11733
925.279	11710
925.387	11771
925.494	11741
925.602	11859
925.709	11832
925.816	11714
925.924	11726
926.031	11843
926.138	11726
926.245	11794
926.352	11661
926.459	11771
926.566	11882
926.673	11684
926.779	11524
926.886	11532
926.993	11429
927.099	11353
927.206	11280
927.312	11322
927.419	11391
927.525	11433
927.631	11395
927.737	11315
927.843	11254
927.95	11075
928.056	11170
928.162	11181
928.267	11284
928.373	11950
928.479	11296
928.585	11071
928.69	11170
928.796	11178
928.901	11109
929.007	10991
929.112	11060
929.218	11052
929.323	10991
929.428	10984
929.533	11048
929.638	10873
929.743	10946
929.848	10896
929.953	10923
930.058	10801
930.163	10603
930.267	10687
930.372	10816
930.477	10630
930.581	10877
930.685	10672
930.79	10516
930.894	10637
930.998	10504
931.103	10630
931.207	10280
931.311	10253
931.415	10181
931.519	10055
931.623	9915
