Data from test_V78500241_663.txt Node
Date: Fri Mar 25 15:14:28 CST 2022
User: usil
Spectrometer: V785-0024
Trigger mode: 0
Integration Time (sec): 4.000000E-1
Scans to average: 1
Nonlinearity correction enabled: false
Boxcar width: 0
Storing dark spectrum: false
XAxis mode: Wavelengths
Number of Pixels in Spectrum: 1024
>>>>>Begin Spectral Data<<<<<
801.071	27838
801.214	27743
801.356	27523
801.499	27382
801.641	27420
801.783	27370
801.926	27572
802.068	27405
802.211	27211
802.353	27264
802.496	27074
802.638	26883
802.78	27055
802.923	26937
803.065	26990
803.208	26880
803.35	27024
803.492	26994
803.635	27180
803.777	27055
803.919	27146
804.061	27466
804.204	27081
804.346	27180
804.488	27051
804.63	27203
804.773	26990
804.915	27279
805.057	27397
805.199	27195
805.341	27272
805.483	27317
805.626	27427
805.768	27184
805.91	27184
806.052	27310
806.194	27043
806.336	27477
806.478	27447
806.62	27279
806.762	27511
806.904	27458
807.046	27869
807.188	27751
807.33	27739
807.472	27705
807.614	27652
807.756	27739
807.898	27477
808.04	27580
808.182	27629
808.324	27564
808.465	27717
808.607	27785
808.749	27998
808.891	27975
809.033	28010
809.174	28013
809.316	28044
809.458	28002
809.6	27975
809.741	28032
809.883	28131
810.025	28200
810.166	28341
810.308	28242
810.45	28257
810.591	28261
810.733	27953
810.875	27968
811.016	27949
811.158	27911
811.299	27979
811.441	28158
811.582	28124
811.724	27903
811.865	27907
812.007	28013
812.148	27762
812.29	27964
812.431	28051
812.573	28242
812.714	28424
812.855	28599
812.997	28577
813.138	28824
813.279	28672
813.421	28634
813.562	28478
813.703	28348
813.845	28207
813.986	28002
814.127	27770
814.268	27682
814.41	27854
814.551	27644
814.692	27736
814.833	27549
814.974	27549
815.115	27724
815.256	27504
815.397	27660
815.539	27568
815.68	27519
815.821	27462
815.962	27485
816.103	27348
816.244	27214
816.385	27329
816.526	27237
816.666	27001
816.807	27009
816.948	27055
817.089	27058
817.23	26944
817.371	27066
817.512	26868
817.653	26864
817.793	26823
817.934	27017
818.075	26982
818.216	26952
818.356	26975
818.497	26796
818.638	26720
818.778	26655
818.919	26693
819.06	26746
819.2	26800
819.341	26845
819.481	26807
819.622	27112
819.762	27344
819.903	27439
820.043	27283
820.184	27058
820.324	27062
820.465	27207
820.605	26998
820.746	27142
820.886	26902
821.026	27020
821.167	26960
821.307	27108
821.447	26963
821.588	26762
821.728	26724
821.868	26438
822.008	26469
822.149	26476
822.289	26412
822.429	26183
822.569	26107
822.709	25966
822.849	25959
822.99	25978
823.13	25902
823.27	25803
823.41	25696
823.55	25556
823.69	25712
823.83	25769
823.97	25723
824.11	25605
824.25	25518
824.389	25445
824.529	25696
824.669	25616
824.809	25670
824.949	25620
825.089	25609
825.228	25632
825.368	25369
825.508	25438
825.648	25411
825.787	25468
825.927	25578
826.067	25358
826.206	25540
826.346	25464
826.485	25552
826.625	25365
826.765	25586
826.904	25453
827.044	25145
827.183	25198
827.323	25126
827.462	25156
827.601	25225
827.741	25069
827.88	25152
828.02	25000
828.159	25175
828.298	25179
828.437	25069
828.577	25282
828.716	25255
828.855	25084
828.994	24848
829.134	24901
829.273	24837
829.412	24901
829.551	24825
829.69	24871
829.829	24958
829.968	24882
830.107	24897
830.246	24837
830.385	24635
830.524	24779
830.663	24677
830.802	24646
830.941	24483
831.08	24429
831.219	24467
831.357	24547
831.496	24749
831.635	24433
831.774	24388
831.913	24319
832.051	24281
832.19	24159
832.329	24232
832.467	24228
832.606	24034
832.744	24117
832.883	24098
833.022	24057
833.16	24057
833.299	24114
833.437	24030
833.576	24247
833.714	24239
833.852	24315
833.991	24357
834.129	24277
834.267	24327
834.406	24239
834.544	24239
834.682	24235
834.821	24148
834.959	24289
835.097	24232
835.235	24194
835.373	24167
835.511	24091
835.65	24030
835.788	24148
835.926	23969
836.064	23828
836.202	23870
836.34	24034
836.478	23927
836.615	24018
836.753	24045
836.891	24106
837.029	24095
837.167	24064
837.305	23847
837.443	23927
837.58	23920
837.718	23855
837.856	23889
837.993	23889
838.131	23904
838.269	23710
838.406	23805
838.544	23722
838.681	23299
838.819	23478
838.956	23372
839.094	23376
839.231	23493
839.369	23433
839.506	23695
839.643	23535
839.781	23254
839.918	23280
840.055	23341
840.193	23330
840.33	23261
840.467	23421
840.604	23417
840.742	23512
840.879	23124
841.016	23128
841.153	23174
841.29	23334
841.427	23178
841.564	23227
841.701	23433
841.838	23067
841.975	23151
842.112	23208
842.249	23071
842.385	22904
842.522	23140
842.659	23033
842.796	22984
842.933	23071
843.069	23003
843.206	22984
843.343	23155
843.479	23048
843.616	23014
843.752	22801
843.889	22752
844.025	22881
844.162	22774
844.298	22873
844.435	22839
844.571	22759
844.708	22831
844.844	22972
844.98	22854
845.117	22790
845.253	22626
845.389	22561
845.525	22672
845.661	22603
845.798	22497
845.934	22542
846.07	22462
846.206	22554
846.342	22622
846.478	22432
846.614	22337
846.75	22150
846.886	22223
847.022	22268
847.158	22261
847.294	22230
847.429	22341
847.565	22215
847.701	22493
847.837	22029
847.972	21926
848.108	22059
848.244	21915
848.379	22025
848.515	21827
848.65	21911
848.786	21835
848.921	21823
849.057	21983
849.192	21876
849.328	21869
849.463	21861
849.598	21747
849.734	21641
849.869	21660
850.004	21549
850.14	21652
850.275	21576
850.41	21553
850.545	21652
850.68	21572
850.815	21557
850.95	21549
851.085	21835
851.22	21762
851.355	21732
851.49	21553
851.625	21481
851.76	21660
851.895	21561
852.03	21530
852.165	21583
852.299	21641
852.434	21679
852.569	21652
852.703	21583
852.838	21751
852.973	21713
853.107	21774
853.242	21488
853.376	21576
853.511	21378
853.645	21389
853.78	21553
853.914	21538
854.048	21397
854.183	21294
854.317	21496
854.451	21549
854.585	21473
854.72	21378
854.854	21618
854.988	21416
855.122	21298
855.256	21230
855.39	21397
855.524	21393
855.658	21519
855.792	21488
855.926	21469
856.06	21450
856.194	21549
856.327	21454
856.461	21367
856.595	21412
856.729	21523
856.862	21618
856.996	21431
857.13	21553
857.263	21526
857.397	21450
857.53	21367
857.664	21389
857.797	21523
857.931	21583
858.064	21439
858.197	21428
858.331	21439
858.464	21348
858.597	21424
858.731	21389
858.864	21378
858.997	21462
859.13	21428
859.263	21367
859.396	21435
859.529	21492
859.662	21435
859.795	21454
859.928	21458
860.061	21629
860.194	21633
860.327	21378
860.46	21359
860.592	21633
860.725	21694
860.858	21583
860.99	21530
861.123	21348
861.256	21374
861.388	21359
861.521	22101
861.653	21249
861.786	21249
861.918	21207
862.05	21386
862.183	21306
862.315	21397
862.447	21557
862.58	21283
862.712	21112
862.844	21188
862.976	21264
863.108	21249
863.24	21705
863.372	21081
863.504	21150
863.636	21070
863.768	21100
863.9	20994
864.032	21230
864.164	21093
864.296	21138
864.428	21161
864.559	21157
864.691	21150
864.823	21116
864.954	21089
865.086	21036
865.217	20990
865.349	20994
865.48	21062
865.612	21066
865.743	21089
865.875	21066
866.006	20918
866.137	20971
866.269	20994
866.4	20975
866.531	20906
866.662	20929
866.793	20910
866.924	21013
867.055	21020
867.186	20956
867.317	20937
867.448	20864
867.579	20956
867.71	20948
867.841	20902
867.972	20982
868.103	20925
868.233	20956
868.364	20933
868.495	21077
868.625	21169
868.756	21321
868.886	21165
869.017	21180
869.147	21272
869.278	21252
869.408	21226
869.539	21146
869.669	21329
869.799	21298
869.929	21249
870.06	21321
870.19	21485
870.32	21488
870.45	21485
870.58	21603
870.71	21709
870.84	21671
870.97	21595
871.1	21591
871.23	21736
871.36	21766
871.489	21595
871.619	21804
871.749	21747
871.879	21739
872.008	21857
872.138	21747
872.267	21918
872.397	21694
872.526	21671
872.656	21648
872.785	21679
872.915	21854
873.044	21785
873.173	21831
873.303	21876
873.432	21899
873.561	22025
873.69	21838
873.819	21816
873.948	21869
874.077	21915
874.206	21793
874.335	21915
874.464	21926
874.593	22112
874.722	21915
874.851	22120
874.979	22147
875.108	22166
875.237	22006
875.365	22013
875.494	21884
875.623	22105
875.751	22078
875.88	22204
876.008	22139
876.136	22196
876.265	22360
876.393	22550
876.521	22417
876.65	22481
876.778	22436
876.906	22379
877.034	22413
877.162	22333
877.29	22466
877.418	22413
877.546	22432
877.674	22405
877.802	22432
877.93	22352
878.058	22371
878.185	22337
878.313	22344
878.441	22447
878.568	22261
878.696	22325
878.824	22462
878.951	22626
879.079	22577
879.206	22782
879.333	22603
879.461	22481
879.588	22493
879.715	22557
879.842	22615
879.97	22424
880.097	22257
880.224	22325
880.351	22265
880.478	22185
880.605	22253
880.732	22329
880.859	22428
880.986	22379
881.112	22223
881.239	22093
881.366	21937
881.493	21907
881.619	21835
881.746	21698
881.872	21800
881.999	21892
882.125	21656
882.252	21838
882.378	21751
882.505	21835
882.631	21705
882.757	21523
882.883	21641
883.01	21549
883.136	21485
883.262	21458
883.388	21351
883.514	21393
883.64	21439
883.766	21477
883.892	21245
884.018	21321
884.143	21443
884.269	21523
884.395	21306
884.52	21233
884.646	21241
884.772	21047
884.897	20937
885.023	21032
885.148	21207
885.274	21310
885.399	21310
885.524	21131
885.65	21146
885.775	21252
885.9	21131
886.025	21176
886.15	21161
886.275	21180
886.4	21032
886.525	21123
886.65	20963
886.775	21157
886.9	21256
887.025	21367
887.149	21100
887.274	20952
887.399	20952
887.523	20883
887.648	20910
887.773	20834
887.897	20876
888.021	20914
888.146	20902
888.27	21028
888.395	20971
888.519	20921
888.643	20929
888.767	20929
888.891	20743
889.015	20872
889.139	20739
889.263	20773
889.387	20872
889.511	20937
889.635	20853
889.759	20758
889.883	20663
890.006	20648
890.13	20819
890.254	20663
890.377	20651
890.501	20518
890.624	20442
890.748	20556
890.871	20404
890.995	20366
891.118	20225
891.241	20259
891.364	20362
891.488	20370
891.611	20301
891.734	20305
891.857	20199
891.98	20248
892.103	20339
892.226	20290
892.349	20244
892.471	20138
892.594	20256
892.717	20168
892.839	20214
892.962	20183
893.085	20206
893.207	20096
893.33	19997
893.452	20119
893.575	20259
893.697	20100
893.819	20438
893.941	20446
894.064	20366
894.186	20073
894.308	20111
894.43	20271
894.552	20374
894.674	20153
894.796	20100
894.918	20267
895.04	20122
895.161	20286
895.283	20161
895.405	20142
895.526	20214
895.648	20206
895.769	20164
895.891	20210
896.012	20229
896.134	20298
896.255	20195
896.376	20210
896.498	20233
896.619	20176
896.74	20199
896.861	20183
896.982	20503
897.103	20625
897.224	20541
897.345	20450
897.466	20400
897.587	20370
897.708	20579
897.828	20415
897.949	20290
898.07	20362
898.19	20347
898.311	20552
898.431	20313
898.552	20415
898.672	20374
898.792	20461
898.913	20362
899.033	20343
899.153	20263
899.273	20107
899.393	20164
899.513	20191
899.633	20096
899.753	20202
899.873	20081
899.993	20225
900.113	20012
900.232	20138
900.352	20161
900.472	20012
900.591	19883
900.711	20031
900.83	19913
900.95	19982
901.069	20084
901.189	19856
901.308	19567
901.427	19556
901.546	19567
901.665	19468
901.784	19529
901.904	19388
902.023	19445
902.141	19145
902.26	19061
902.379	19061
902.498	18954
902.617	19057
902.735	19133
902.854	18939
902.973	18852
903.091	18665
903.21	18688
903.328	18582
903.446	18517
903.565	18620
903.683	18429
903.801	18403
903.919	18437
904.038	18464
904.156	18186
904.274	18365
904.392	18171
904.51	18239
904.627	18243
904.745	18277
904.863	18330
904.981	18026
905.098	18038
905.216	18152
905.334	17912
905.451	18034
905.569	17954
905.686	17984
905.803	17923
905.921	17802
906.038	17847
906.155	17726
906.272	17653
906.389	17638
906.506	17482
906.623	17482
906.74	17421
906.857	17395
906.974	17383
907.091	17543
907.208	17585
907.324	17493
907.441	17376
907.557	17250
907.674	17189
907.79	17128
907.907	17151
908.023	17178
908.139	17189
908.256	17162
908.372	17170
908.488	17113
908.604	16984
908.72	16900
908.836	16976
908.952	16774
909.068	16923
909.184	17014
909.3	16869
909.415	16953
909.531	16889
909.647	16713
909.762	16641
909.878	16645
909.993	16580
910.108	16634
910.224	16462
910.339	16588
910.454	16405
910.57	16421
910.685	16329
910.8	16626
910.915	16687
911.03	16447
911.145	16154
911.259	16162
911.374	16181
911.489	16131
911.604	16051
911.718	16048
911.833	16029
911.947	15865
912.062	15842
912.176	15876
912.291	15873
912.405	15888
912.519	16124
912.633	15972
912.748	16006
912.862	15892
912.976	15797
913.09	15587
913.204	15652
913.318	15739
913.431	15785
913.545	15823
913.659	15846
913.772	15652
913.886	15652
914	15530
914.113	15614
914.226	15648
914.34	15614
914.453	15538
914.566	15652
914.68	15458
914.793	15408
914.906	15226
915.019	15230
915.132	15131
915.245	15241
915.358	15184
915.47	15184
915.583	15154
915.696	15264
915.809	15332
915.921	15317
916.034	15062
916.146	15100
916.259	15020
916.371	15207
916.483	15184
916.595	14971
916.708	15024
916.82	14918
916.932	15036
917.044	14929
917.156	14906
917.268	14895
917.38	14906
917.491	14861
917.603	14834
917.715	14918
917.826	14853
917.938	14731
918.049	14610
918.161	14708
918.272	14864
918.384	14834
918.495	14708
918.606	14663
918.717	14552
918.828	14587
918.939	14743
919.05	14625
919.161	14552
919.272	14385
919.383	14473
919.494	14663
919.604	14727
919.715	14594
919.826	14526
919.936	14541
920.047	14644
920.157	14518
920.267	14697
920.378	14568
920.488	14438
920.598	14731
920.708	14762
920.818	14659
920.928	14590
921.038	14815
921.148	14708
921.258	14473
921.368	14446
921.477	14294
921.587	14168
921.697	14168
921.806	14233
921.916	14176
922.025	14046
922.134	13852
922.244	13909
922.353	13940
922.462	13772
922.571	13715
922.68	13578
922.789	13597
922.898	13533
923.007	13483
923.116	13590
923.224	13571
923.333	13518
923.442	13483
923.55	13480
923.659	13331
923.767	13491
923.876	13354
923.984	13438
924.092	13270
924.201	13308
924.309	13285
924.417	13289
924.525	13266
924.633	13137
924.741	13940
924.849	13008
924.956	13183
925.064	13008
925.172	12970
925.279	13015
925.387	12962
925.494	12916
925.602	13122
925.709	13057
925.816	12848
925.924	12970
926.031	12916
926.138	12920
926.245	12973
926.352	12886
926.459	12916
926.566	12966
926.673	12825
926.779	12829
926.886	12730
926.993	12597
927.099	12544
927.206	12490
927.312	12540
927.419	12563
927.525	12517
927.631	12525
927.737	12403
927.843	12353
927.95	12262
928.056	12429
928.162	12380
928.267	12353
928.373	12939
928.479	12410
928.585	12095
928.69	12338
928.796	12369
928.901	12273
929.007	12167
929.112	12159
929.218	12167
929.323	12095
929.428	12026
929.533	12270
929.638	11992
929.743	12095
929.848	12083
929.953	11999
930.058	11904
930.163	11775
930.267	11809
930.372	11965
930.477	11817
930.581	11984
930.685	11691
930.79	11710
930.894	11745
930.998	11726
931.103	11809
931.207	11459
931.311	11322
931.415	11277
931.519	11071
931.623	11064
