Data from test_V78500241_106.txt Node
Date: Fri Mar 25 15:10:36 CST 2022
User: usil
Spectrometer: V785-0024
Trigger mode: 0
Integration Time (sec): 4.000000E-1
Scans to average: 1
Nonlinearity correction enabled: false
Boxcar width: 0
Storing dark spectrum: false
XAxis mode: Wavelengths
Number of Pixels in Spectrum: 1024
>>>>>Begin Spectral Data<<<<<
801.071	28310
801.214	28394
801.356	27956
801.499	27926
801.641	27873
801.783	27831
801.926	27899
802.068	27789
802.211	27751
802.353	27526
802.496	27443
802.638	27477
802.78	27363
802.923	27363
803.065	27199
803.208	27294
803.35	27485
803.492	27374
803.635	27458
803.777	27359
803.919	27443
804.061	27880
804.204	27523
804.346	27367
804.488	27427
804.63	27291
804.773	27283
804.915	27374
805.057	27492
805.199	27389
805.341	27408
805.483	27694
805.626	27557
805.768	27367
805.91	27424
806.052	27382
806.194	27389
806.336	27808
806.478	27450
806.62	27408
806.762	27485
806.904	27717
807.046	28006
807.188	27850
807.33	27686
807.472	27823
807.614	27869
807.756	27728
807.898	27778
808.04	27884
808.182	27599
808.324	27785
808.465	27701
808.607	27907
808.749	28036
808.891	28105
809.033	28128
809.174	28044
809.316	28105
809.458	28036
809.6	28021
809.741	28116
809.883	28021
810.025	28246
810.166	28325
810.308	28226
810.45	28261
810.591	28249
810.733	28036
810.875	27918
811.016	27907
811.158	27876
811.299	28029
811.441	28063
811.582	28086
811.724	27717
811.865	28013
812.007	27934
812.148	27949
812.29	27846
812.431	28097
812.573	28223
812.714	28356
812.855	28443
812.997	28390
813.138	28603
813.279	28432
813.421	28470
813.562	28512
813.703	28257
813.845	28143
813.986	27861
814.127	27679
814.268	27656
814.41	27728
814.551	27545
814.692	27770
814.833	27492
814.974	27382
815.115	27568
815.256	27416
815.397	27321
815.539	27268
815.68	27188
815.821	27283
815.962	27321
816.103	27245
816.244	27096
816.385	27024
816.526	27055
816.666	26815
816.807	26819
816.948	26834
817.089	26712
817.23	26788
817.371	26724
817.512	26689
817.653	26526
817.793	26571
817.934	26727
818.075	26697
818.216	26590
818.356	26594
818.497	26571
818.638	26499
818.778	26568
818.919	26507
819.06	26423
819.2	26503
819.341	26659
819.481	26598
819.622	26796
819.762	26937
819.903	26956
820.043	26830
820.184	26754
820.324	26556
820.465	26712
820.605	26781
820.746	26724
820.886	26579
821.026	26609
821.167	26594
821.307	26632
821.447	26594
821.588	26541
821.728	26389
821.868	26115
822.008	26020
822.149	25993
822.289	26027
822.429	25799
822.569	25571
822.709	25613
822.849	25586
822.99	25552
823.13	25609
823.27	25369
823.41	25312
823.55	25266
823.69	25381
823.83	25236
823.97	25339
824.11	25179
824.25	25069
824.389	25152
824.529	25175
824.669	25034
824.809	25274
824.949	25160
825.089	25304
825.228	25168
825.368	24856
825.508	25061
825.648	24992
825.787	24867
825.927	25034
826.067	24810
826.206	24947
826.346	24951
826.485	24981
826.625	24894
826.765	25057
826.904	24939
827.044	24700
827.183	24627
827.323	24646
827.462	24521
827.601	24669
827.741	24604
827.88	24631
828.02	24445
828.159	24467
828.298	24597
828.437	24505
828.577	24464
828.716	24612
828.855	24547
828.994	24342
829.134	24308
829.273	24266
829.412	24243
829.551	24144
829.69	24327
829.829	24338
829.968	24239
830.107	24410
830.246	24243
830.385	24289
830.524	24232
830.663	23996
830.802	23935
830.941	23817
831.08	23855
831.219	23794
831.357	23832
831.496	23908
831.635	23771
831.774	23729
831.913	23535
832.051	23531
832.19	23687
832.329	23600
832.467	23573
832.606	23284
832.744	23379
832.883	23516
833.022	23512
833.16	23452
833.299	23520
833.437	23531
833.576	23471
833.714	23433
833.852	23482
833.991	23478
834.129	23516
834.267	23592
834.406	23429
834.544	23501
834.682	23493
834.821	23596
834.959	23592
835.097	23471
835.235	23471
835.373	23524
835.511	23383
835.65	23258
835.788	23322
835.926	23315
836.064	23162
836.202	23170
836.34	23311
836.478	23440
836.615	23193
836.753	23273
836.891	23349
837.029	23322
837.167	23280
837.305	23223
837.443	23128
837.58	23083
837.718	23140
837.856	23098
837.993	23094
838.131	23155
838.269	22835
838.406	23006
838.544	22900
838.681	22740
838.819	22782
838.956	22668
839.094	22603
839.231	22596
839.369	22679
839.506	23022
839.643	22653
839.781	22474
839.918	22402
840.055	22592
840.193	22550
840.33	22398
840.467	22398
840.604	22432
840.742	22721
840.879	22276
841.016	22337
841.153	22219
841.29	22596
841.427	22443
841.564	22474
841.701	22367
841.838	22405
841.975	22226
842.112	22394
842.249	22181
842.385	22090
842.522	22371
842.659	22261
842.796	22139
842.933	22287
843.069	22147
843.206	22090
843.343	22185
843.479	22147
843.616	22120
843.752	21793
843.889	21937
844.025	22116
844.162	21778
844.298	21968
844.435	21838
844.571	21930
844.708	21880
844.844	22025
844.98	21892
845.117	21941
845.253	21934
845.389	21808
845.525	21739
845.661	21804
845.798	21686
845.934	21728
846.07	21549
846.206	21641
846.342	21720
846.478	21736
846.614	21355
846.75	21321
846.886	21363
847.022	21496
847.158	21443
847.294	21386
847.429	21397
847.565	21321
847.701	21603
847.837	21096
847.972	21058
848.108	21116
848.244	21051
848.379	20853
848.515	20830
848.65	20785
848.786	20823
848.921	20826
849.057	21058
849.192	20998
849.328	20838
849.463	20941
849.598	20804
849.734	20876
849.869	20887
850.004	20613
850.14	20743
850.275	20587
850.41	20438
850.545	20571
850.68	20632
850.815	20670
850.95	20697
851.085	20758
851.22	20796
851.355	20545
851.49	20667
851.625	20609
851.76	20583
851.895	20377
852.03	20480
852.165	20545
852.299	20651
852.434	20636
852.569	20651
852.703	20526
852.838	20693
852.973	20773
853.107	20819
853.242	20606
853.376	20351
853.511	20366
853.645	20351
853.78	20632
853.914	20473
854.048	20377
854.183	20415
854.317	20518
854.451	20587
854.585	20442
854.72	20396
854.854	20461
854.988	20294
855.122	20549
855.256	20351
855.39	20389
855.524	20389
855.658	20568
855.792	20412
855.926	20423
856.06	20450
856.194	20454
856.327	20495
856.461	20404
856.595	20332
856.729	20404
856.862	20396
856.996	20362
857.13	20484
857.263	20412
857.397	20442
857.53	20461
857.664	20434
857.797	20545
857.931	20476
858.064	20518
858.197	20583
858.331	20438
858.464	20351
858.597	20328
858.731	20332
858.864	20362
858.997	20431
859.13	20476
859.263	20362
859.396	20465
859.529	20393
859.662	20412
859.795	20259
859.928	20366
860.061	20400
860.194	20465
860.327	20396
860.46	20370
860.592	20507
860.725	20530
860.858	20438
860.99	20381
861.123	20358
861.256	20309
861.388	20267
861.521	20941
861.653	20206
861.786	20138
861.918	20191
862.05	20320
862.183	20461
862.315	20374
862.447	20450
862.58	20377
862.712	20183
862.844	20065
862.976	20294
863.108	20161
863.24	20579
863.372	20001
863.504	19967
863.636	20103
863.768	20058
863.9	20058
864.032	20016
864.164	20012
864.296	20111
864.428	20244
864.559	20134
864.691	20199
864.823	20035
864.954	20092
865.086	20039
865.217	19982
865.349	19921
865.48	19902
865.612	19875
865.743	20172
865.875	20012
866.006	19761
866.137	20058
866.269	19906
866.4	20054
866.531	19887
866.662	19932
866.793	19841
866.924	19940
867.055	19978
867.186	19978
867.317	19906
867.448	19776
867.579	19780
867.71	19803
867.841	19917
867.972	19944
868.103	19902
868.233	19814
868.364	19833
868.495	20005
868.625	20138
868.756	20294
868.886	20039
869.017	20062
869.147	20267
869.278	20244
869.408	20168
869.539	20088
869.669	20240
869.799	20161
869.929	20229
870.06	20259
870.19	20454
870.32	20282
870.45	20423
870.58	20636
870.71	20598
870.84	20594
870.97	20511
871.1	20526
871.23	20697
871.36	20670
871.489	20511
871.619	20678
871.749	20724
871.879	20762
872.008	20887
872.138	20686
872.267	20758
872.397	20568
872.526	20514
872.656	20625
872.785	20476
872.915	20834
873.044	20880
873.173	20861
873.303	20788
873.432	20792
873.561	20807
873.69	20724
873.819	20906
873.948	20876
874.077	20765
874.206	20735
874.335	20648
874.464	20895
874.593	21112
874.722	20986
874.851	21009
874.979	20963
875.108	21184
875.237	20910
875.365	20941
875.494	20960
875.623	21043
875.751	21058
875.88	21138
876.008	21066
876.136	21173
876.265	21477
876.393	21485
876.521	21466
876.65	21526
876.778	21523
876.906	21359
877.034	21420
877.162	21435
877.29	21492
877.418	21348
877.546	21401
877.674	21336
877.802	21450
877.93	21412
878.058	21264
878.185	21241
878.313	21340
878.441	21462
878.568	21192
878.696	21287
878.824	21447
878.951	21530
879.079	21504
879.206	21481
879.333	21568
879.461	21511
879.588	21641
879.715	21618
879.842	21671
879.97	21412
880.097	21256
880.224	21249
880.351	21291
880.478	21256
880.605	21089
880.732	21260
880.859	21561
880.986	21252
881.112	21176
881.239	21055
881.366	20937
881.493	20937
881.619	20849
881.746	20758
881.872	20857
881.999	20785
882.125	20735
882.252	20826
882.378	20815
882.505	20979
882.631	20693
882.757	20575
882.883	20564
883.01	20575
883.136	20393
883.262	20404
883.388	20328
883.514	20594
883.64	20609
883.766	20564
883.892	20278
884.018	20366
884.143	20393
884.269	20602
884.395	20275
884.52	20290
884.646	20240
884.772	20164
884.897	20043
885.023	20229
885.148	20214
885.274	20362
885.399	20286
885.524	20191
885.65	20195
885.775	20138
885.9	20176
886.025	20229
886.15	20267
886.275	20161
886.4	20035
886.525	20119
886.65	20050
886.775	20244
886.9	20271
887.025	20324
887.149	20142
887.274	19944
887.399	19856
887.523	19906
887.648	19944
887.773	19753
887.897	19970
888.021	20069
888.146	19932
888.27	19967
888.395	20065
888.519	19997
888.643	20096
888.767	19967
888.891	19845
889.015	19719
889.139	19791
889.263	19750
889.387	19868
889.511	20069
889.635	19879
889.759	19677
889.883	19586
890.006	19830
890.13	19757
890.254	19563
890.377	19681
890.501	19597
890.624	19506
890.748	19529
890.871	19384
890.995	19217
891.118	19251
891.241	19324
891.364	19324
891.488	19377
891.611	19438
891.734	19293
891.857	19392
891.98	19365
892.103	19457
892.226	19346
892.349	19297
892.471	19179
892.594	19247
892.717	19259
892.839	19198
892.962	19263
893.085	19358
893.207	19251
893.33	19209
893.452	19289
893.575	19202
893.697	19160
893.819	19373
893.941	19388
894.064	19350
894.186	19274
894.308	19175
894.43	19293
894.552	19285
894.674	19400
894.796	19095
894.918	19247
895.04	19308
895.161	19316
895.283	19247
895.405	19175
895.526	19324
895.648	19293
895.769	19324
895.891	19160
896.012	19278
896.134	19255
896.255	19301
896.376	19274
896.498	19381
896.619	19346
896.74	19388
896.861	19331
896.982	19708
897.103	19753
897.224	19594
897.345	19476
897.466	19480
897.587	19529
897.708	19632
897.828	19552
897.949	19358
898.07	19373
898.19	19438
898.311	19476
898.431	19464
898.552	19434
898.672	19518
898.792	19525
898.913	19472
899.033	19327
899.153	19282
899.273	19076
899.393	19187
899.513	19308
899.633	19312
899.753	19225
899.873	19103
899.993	19217
900.113	19053
900.232	19148
900.352	19160
900.472	19061
900.591	19000
900.711	19000
900.83	18954
900.95	19072
901.069	19141
901.189	19061
901.308	18642
901.427	18582
901.546	18646
901.665	18589
901.784	18623
901.904	18536
902.023	18479
902.141	18251
902.26	18163
902.379	18224
902.498	18102
902.617	18022
902.735	18076
902.854	18087
902.973	17988
903.091	17821
903.21	17832
903.328	17813
903.446	17805
903.565	17562
903.683	17573
903.801	17493
903.919	17585
904.038	17573
904.156	17448
904.274	17425
904.392	17356
904.51	17315
904.627	17269
904.745	17303
904.863	17334
904.981	17227
905.098	17045
905.216	17048
905.334	17056
905.451	17132
905.569	17060
905.686	17033
905.803	17041
905.921	16812
906.038	16965
906.155	16873
906.272	16653
906.389	16672
906.506	16710
906.623	16558
906.74	16523
906.857	16428
906.974	16489
907.091	16596
907.208	16748
907.324	16599
907.441	16455
907.557	16257
907.674	16261
907.79	16219
907.907	16253
908.023	16196
908.139	16211
908.256	16215
908.372	16101
908.488	16078
908.604	15865
908.72	15949
908.836	15941
908.952	15930
909.068	15983
909.184	16002
909.3	15949
909.415	15983
909.531	15937
909.647	15816
909.762	15663
909.878	15629
909.993	15720
910.108	15667
910.224	15682
910.339	15618
910.454	15561
910.57	15450
910.685	15473
910.8	15671
910.915	15694
911.03	15496
911.145	15272
911.259	15268
911.374	15226
911.489	15249
911.604	15127
911.718	14948
911.833	15055
911.947	14979
912.062	14864
912.176	14891
912.291	14960
912.405	14849
912.519	15119
912.633	15241
912.748	14899
912.862	15058
912.976	14864
913.09	14743
913.204	14815
913.318	14792
913.431	14876
913.545	14937
913.659	14853
913.772	14762
913.886	14689
914	14571
914.113	14724
914.226	14731
914.34	14739
914.453	14495
914.566	14659
914.68	14518
914.793	14537
914.906	14415
915.019	14286
915.132	14149
915.245	14271
915.358	14286
915.47	14351
915.583	14343
915.696	14320
915.809	14389
915.921	14427
916.034	14256
916.146	14202
916.259	14191
916.371	14343
916.483	14221
916.595	14142
916.708	14134
916.82	14191
916.932	14195
917.044	14103
917.156	14031
917.268	13879
917.38	13997
917.491	13970
917.603	13925
917.715	13944
917.826	13986
917.938	13769
918.049	13795
918.161	13955
918.272	14050
918.384	14012
918.495	13871
918.606	13715
918.717	13636
918.828	13784
918.939	13753
919.05	13639
919.161	13658
919.272	13438
919.383	13639
919.494	13765
919.604	13818
919.715	13864
919.826	13613
919.936	13658
920.047	13746
920.157	13651
920.267	13807
920.378	13647
920.488	13666
920.598	13742
920.708	14001
920.818	13757
920.928	13719
921.038	13978
921.148	13909
921.258	13605
921.368	13571
921.477	13415
921.587	13362
921.697	13244
921.806	13373
921.916	13103
922.025	13122
922.134	13031
922.244	12989
922.353	13050
922.462	12996
922.571	12901
922.68	12730
922.789	12734
922.898	12814
923.007	12673
923.116	12677
923.224	12681
923.333	12684
923.442	12623
923.55	12532
923.659	12585
923.767	12665
923.876	12483
923.984	12616
924.092	12464
924.201	12509
924.309	12475
924.417	12502
924.525	12369
924.633	12403
924.741	13175
924.849	12273
924.956	12342
925.064	12171
925.172	12129
925.279	12091
925.387	12148
925.494	12182
925.602	12384
925.709	12190
925.816	12102
925.924	12140
926.031	12296
926.138	12213
926.245	12186
926.352	12091
926.459	12175
926.566	12197
926.673	12045
926.779	11946
926.886	11958
926.993	11794
927.099	11771
927.206	11786
927.312	11733
927.419	11802
927.525	11756
927.631	11771
927.737	11665
927.843	11668
927.95	11501
928.056	11589
928.162	11646
928.267	11668
928.373	12201
928.479	11737
928.585	11322
928.69	11551
928.796	11562
928.901	11433
929.007	11353
929.112	11467
929.218	11558
929.323	11341
929.428	11326
929.533	11505
929.638	11246
929.743	11299
929.848	11334
929.953	11223
930.058	11140
930.163	11079
930.267	11010
930.372	11208
930.477	10987
930.581	11242
930.685	11079
930.79	10942
930.894	11045
930.998	10927
931.103	10987
931.207	10771
931.311	10558
931.415	10504
931.519	10344
931.623	10325
