Data from test_V78500241_151.txt Node
Date: Fri Mar 25 15:10:54 CST 2022
User: usil
Spectrometer: V785-0024
Trigger mode: 0
Integration Time (sec): 4.000000E-1
Scans to average: 1
Nonlinearity correction enabled: false
Boxcar width: 0
Storing dark spectrum: false
XAxis mode: Wavelengths
Number of Pixels in Spectrum: 1024
>>>>>Begin Spectral Data<<<<<
801.071	27914
801.214	28025
801.356	27728
801.499	27701
801.641	27591
801.783	27732
801.926	27717
802.068	27507
802.211	27629
802.353	27500
802.496	27169
802.638	27260
802.78	27233
802.923	27058
803.065	27119
803.208	27237
803.35	27195
803.492	27325
803.635	27313
803.777	27058
803.919	27359
804.061	27534
804.204	27291
804.346	27291
804.488	27195
804.63	27256
804.773	27135
804.915	27161
805.057	27355
805.199	27264
805.341	27329
805.483	27435
805.626	27336
805.768	27294
805.91	27298
806.052	27351
806.194	27222
806.336	27469
806.478	27241
806.62	27329
806.762	27370
806.904	27564
807.046	27793
807.188	27774
807.33	27694
807.472	27720
807.614	27538
807.756	27656
807.898	27603
808.04	27511
808.182	27504
808.324	27572
808.465	27492
808.607	27739
808.749	27751
808.891	27949
809.033	28032
809.174	27983
809.316	27987
809.458	28029
809.6	27895
809.741	28025
809.883	27926
810.025	28135
810.166	27918
810.308	28162
810.45	28032
810.591	27991
810.733	27964
810.875	27770
811.016	27606
811.158	27789
811.299	27793
811.441	27728
811.582	27895
811.724	27724
811.865	27774
812.007	27903
812.148	27842
812.29	27812
812.431	27953
812.573	28135
812.714	28181
812.855	28318
812.997	28394
813.138	28481
813.279	28295
813.421	28367
813.562	28188
813.703	28204
813.845	27991
813.986	27747
814.127	27656
814.268	27625
814.41	27496
814.551	27325
814.692	27466
814.833	27412
814.974	27264
815.115	27431
815.256	27298
815.397	27233
815.539	27226
815.68	27218
815.821	27093
815.962	27154
816.103	27013
816.244	27028
816.385	26914
816.526	26944
816.666	26754
816.807	26609
816.948	26754
817.089	26571
817.23	26682
817.371	26655
817.512	26670
817.653	26640
817.793	26560
817.934	26670
818.075	26625
818.216	26590
818.356	26541
818.497	26343
818.638	26229
818.778	26332
818.919	26290
819.06	26366
819.2	26305
819.341	26526
819.481	26324
819.622	26552
819.762	26857
819.903	26705
820.043	26602
820.184	26636
820.324	26560
820.465	26598
820.605	26579
820.746	26541
820.886	26362
821.026	26522
821.167	26476
821.307	26644
821.447	26336
821.588	26450
821.728	26256
821.868	26100
822.008	26001
822.149	25887
822.289	25959
822.429	25639
822.569	25521
822.709	25662
822.849	25457
822.99	25510
823.13	25343
823.27	25392
823.41	25278
823.55	25053
823.69	25164
823.83	25171
823.97	25137
824.11	24951
824.25	24958
824.389	25042
824.529	24992
824.669	24890
824.809	25160
824.949	25008
825.089	25027
825.228	24992
825.368	24878
825.508	24753
825.648	24814
825.787	24878
825.927	24787
826.067	24730
826.206	24776
826.346	24829
826.485	24764
826.625	24734
826.765	24890
826.904	24905
827.044	24639
827.183	24498
827.323	24536
827.462	24494
827.601	24509
827.741	24422
827.88	24574
828.02	24384
828.159	24486
828.298	24536
828.437	24494
828.577	24308
828.716	24650
828.855	24502
828.994	24254
829.134	24174
829.273	24304
829.412	24155
829.551	24178
829.69	24178
829.829	24102
829.968	24330
830.107	24308
830.246	24110
830.385	24079
830.524	24007
830.663	24030
830.802	23927
830.941	23783
831.08	23714
831.219	23767
831.357	23817
831.496	23973
831.635	23760
831.774	23668
831.913	23710
832.051	23421
832.19	23615
832.329	23600
832.467	23398
832.606	23246
832.744	23334
832.883	23490
833.022	23452
833.16	23478
833.299	23448
833.437	23379
833.576	23444
833.714	23471
833.852	23444
833.991	23440
834.129	23474
834.267	23505
834.406	23478
834.544	23448
834.682	23463
834.821	23391
834.959	23573
835.097	23292
835.235	23391
835.373	23235
835.511	23337
835.65	23223
835.788	23284
835.926	23083
836.064	23075
836.202	23041
836.34	23220
836.478	23345
836.615	23299
836.753	23261
836.891	23284
837.029	23178
837.167	23292
837.305	23075
837.443	23147
837.58	23067
837.718	23132
837.856	23067
837.993	23044
838.131	23136
838.269	22869
838.406	23022
838.544	22877
838.681	22740
838.819	22569
838.956	22500
839.094	22363
839.231	22634
839.369	22744
839.506	22896
839.643	22710
839.781	22607
839.918	22398
840.055	22531
840.193	22554
840.33	22516
840.467	22500
840.604	22409
840.742	22675
840.879	22253
841.016	22371
841.153	22253
841.29	22485
841.427	22325
841.564	22550
841.701	22504
841.838	22386
841.975	22356
842.112	22230
842.249	22257
842.385	22124
842.522	22261
842.659	22215
842.796	22139
842.933	22181
843.069	22173
843.206	22063
843.343	22150
843.479	22017
843.616	22272
843.752	21922
843.889	21911
844.025	22059
844.162	21899
844.298	21975
844.435	21953
844.571	21827
844.708	21865
844.844	22116
844.98	22025
845.117	21979
845.253	21785
845.389	21739
845.525	21846
845.661	21759
845.798	21660
845.934	21713
846.07	21519
846.206	21682
846.342	21857
846.478	21557
846.614	21325
846.75	21306
846.886	21310
847.022	21488
847.158	21336
847.294	21291
847.429	21310
847.565	21386
847.701	21477
847.837	21043
847.972	21085
848.108	21161
848.244	21184
848.379	20933
848.515	20918
848.65	20929
848.786	20914
848.921	20998
849.057	20994
849.192	20971
849.328	20872
849.463	20990
849.598	20899
849.734	20731
849.869	20762
850.004	20632
850.14	20640
850.275	20636
850.41	20541
850.545	20651
850.68	20583
850.815	20655
850.95	20720
851.085	20746
851.22	20773
851.355	20602
851.49	20686
851.625	20621
851.76	20476
851.895	20537
852.03	20522
852.165	20689
852.299	20651
852.434	20708
852.569	20590
852.703	20632
852.838	20640
852.973	20823
853.107	20674
853.242	20564
853.376	20568
853.511	20370
853.645	20419
853.78	20587
853.914	20450
854.048	20488
854.183	20503
854.317	20400
854.451	20606
854.585	20522
854.72	20514
854.854	20571
854.988	20259
855.122	20457
855.256	20278
855.39	20419
855.524	20450
855.658	20442
855.792	20568
855.926	20484
856.06	20613
856.194	20461
856.327	20328
856.461	20389
856.595	20309
856.729	20434
856.862	20480
856.996	20412
857.13	20488
857.263	20617
857.397	20571
857.53	20305
857.664	20442
857.797	20564
857.931	20552
858.064	20404
858.197	20454
858.331	20351
858.464	20294
858.597	20259
858.731	20336
858.864	20317
858.997	20332
859.13	20393
859.263	20339
859.396	20511
859.529	20419
859.662	20328
859.795	20385
859.928	20214
860.061	20495
860.194	20530
860.327	20438
860.46	20408
860.592	20545
860.725	20522
860.858	20480
860.99	20282
861.123	20290
861.256	20309
861.388	20400
861.521	21055
861.653	20214
861.786	20267
861.918	20225
862.05	20339
862.183	20400
862.315	20358
862.447	20476
862.58	20290
862.712	20142
862.844	20103
862.976	20153
863.108	20058
863.24	20469
863.372	20046
863.504	20187
863.636	20092
863.768	20168
863.9	20111
864.032	20035
864.164	19982
864.296	20092
864.428	20138
864.559	20149
864.691	20130
864.823	20119
864.954	20046
865.086	20050
865.217	20119
865.349	19883
865.48	19978
865.612	20024
865.743	20103
865.875	19967
866.006	19841
866.137	20031
866.269	20069
866.4	20065
866.531	20073
866.662	19894
866.793	19997
866.924	19913
867.055	19978
867.186	20012
867.317	19921
867.448	19753
867.579	19925
867.71	19845
867.841	19913
867.972	19997
868.103	19959
868.233	19928
868.364	19986
868.495	19997
868.625	20100
868.756	20309
868.886	20062
869.017	20077
869.147	20263
869.278	20214
869.408	20168
869.539	20126
869.669	20183
869.799	20221
869.929	20275
870.06	20286
870.19	20454
870.32	20404
870.45	20511
870.58	20514
870.71	20617
870.84	20777
870.97	20469
871.1	20587
871.23	20693
871.36	20701
871.489	20651
871.619	20705
871.749	20762
871.879	20765
872.008	20674
872.138	20750
872.267	20678
872.397	20640
872.526	20545
872.656	20549
872.785	20594
872.915	20720
873.044	20781
873.173	20727
873.303	20921
873.432	20807
873.561	20845
873.69	20663
873.819	20876
873.948	20887
874.077	20712
874.206	20731
874.335	20693
874.464	20895
874.593	21032
874.722	20994
874.851	21093
874.979	21096
875.108	21077
875.237	20979
875.365	20899
875.494	21051
875.623	21119
875.751	20941
875.88	21039
876.008	21230
876.136	21104
876.265	21310
876.393	21545
876.521	21481
876.65	21462
876.778	21450
876.906	21382
877.034	21405
877.162	21477
877.29	21405
877.418	21439
877.546	21287
877.674	21397
877.802	21401
877.93	21378
878.058	21397
878.185	21378
878.313	21348
878.441	21405
878.568	21127
878.696	21363
878.824	21363
878.951	21450
879.079	21515
879.206	21717
879.333	21545
879.461	21443
879.588	21587
879.715	21538
879.842	21614
879.97	21507
880.097	21199
880.224	21211
880.351	21306
880.478	21249
880.605	21294
880.732	21237
880.859	21374
880.986	21252
881.112	21279
881.239	21039
881.366	20861
881.493	20956
881.619	20785
881.746	20834
881.872	20739
881.999	20735
882.125	20743
882.252	20842
882.378	20689
882.505	20876
882.631	20667
882.757	20415
882.883	20648
883.01	20457
883.136	20503
883.262	20381
883.388	20343
883.514	20564
883.64	20545
883.766	20473
883.892	20214
884.018	20347
884.143	20446
884.269	20579
884.395	20286
884.52	20202
884.646	20240
884.772	20115
884.897	20122
885.023	20172
885.148	20294
885.274	20309
885.399	20282
885.524	20172
885.65	20157
885.775	20058
885.9	20115
886.025	20298
886.15	20278
886.275	20210
886.4	20107
886.525	20039
886.65	20058
886.775	20176
886.9	20195
887.025	20347
887.149	20092
887.274	20008
887.399	19986
887.523	19959
887.648	19868
887.773	19814
887.897	20020
888.021	20054
888.146	19849
888.27	19982
888.395	19955
888.519	19921
888.643	19883
888.767	19970
888.891	20005
889.015	19761
889.139	19807
889.263	19700
889.387	19814
889.511	19909
889.635	19860
889.759	19635
889.883	19753
890.006	19696
890.13	19841
890.254	19575
890.377	19605
890.501	19430
890.624	19381
890.748	19582
890.871	19381
890.995	19270
891.118	19247
891.241	19415
891.364	19308
891.488	19540
891.611	19400
891.734	19335
891.857	19400
891.98	19232
892.103	19346
892.226	19453
892.349	19259
892.471	19129
892.594	19206
892.717	19209
892.839	19263
892.962	19270
893.085	19316
893.207	19175
893.33	19126
893.452	19156
893.575	19232
893.697	19168
893.819	19388
893.941	19358
894.064	19297
894.186	19213
894.308	19107
894.43	19316
894.552	19411
894.674	19289
894.796	19194
894.918	19209
895.04	19187
895.161	19324
895.283	19274
895.405	19198
895.526	19293
895.648	19141
895.769	19270
895.891	19247
896.012	19316
896.134	19297
896.255	19255
896.376	19240
896.498	19244
896.619	19400
896.74	19206
896.861	19396
896.982	19693
897.103	19830
897.224	19499
897.345	19476
897.466	19407
897.587	19571
897.708	19753
897.828	19495
897.949	19480
898.07	19312
898.19	19449
898.311	19605
898.431	19434
898.552	19480
898.672	19529
898.792	19578
898.913	19506
899.033	19343
899.153	19327
899.273	19232
899.393	19217
899.513	19270
899.633	19156
899.753	19179
899.873	19122
899.993	19232
900.113	19145
900.232	19225
900.352	19266
900.472	19072
900.591	18848
900.711	19171
900.83	18985
900.95	19141
901.069	19095
901.189	19004
901.308	18802
901.427	18585
901.546	18635
901.665	18661
901.784	18604
901.904	18464
902.023	18330
902.141	18232
902.26	18232
902.379	18197
902.498	18152
902.617	18045
902.735	18064
902.854	18102
902.973	18011
903.091	17809
903.21	17794
903.328	17680
903.446	17745
903.565	17649
903.683	17661
903.801	17497
903.919	17463
904.038	17554
904.156	17379
904.274	17353
904.392	17376
904.51	17440
904.627	17379
904.745	17383
904.863	17509
904.981	17124
905.098	17003
905.216	17060
905.334	16987
905.451	17124
905.569	16968
905.686	17006
905.803	17086
905.921	16854
906.038	16839
906.155	16854
906.272	16767
906.389	16801
906.506	16592
906.623	16523
906.74	16649
906.857	16428
906.974	16554
907.091	16641
907.208	16675
907.324	16592
907.441	16497
907.557	16413
907.674	16291
907.79	16223
907.907	16177
908.023	16265
908.139	16337
908.256	16169
908.372	16185
908.488	16055
908.604	15960
908.72	15953
908.836	15941
908.952	15949
909.068	16063
909.184	16059
909.3	16010
909.415	16032
909.531	16013
909.647	15724
909.762	15705
909.878	15652
909.993	15755
910.108	15720
910.224	15728
910.339	15660
910.454	15580
910.57	15504
910.685	15412
910.8	15778
910.915	15682
911.03	15393
911.145	15252
911.259	15226
911.374	15249
911.489	15176
911.604	15116
911.718	15085
911.833	15058
911.947	14796
912.062	14895
912.176	15005
912.291	15028
912.405	14963
912.519	15112
912.633	15279
912.748	15097
912.862	14952
912.976	14876
913.09	14724
913.204	14819
913.318	14864
913.431	14948
913.545	14830
913.659	14872
913.772	14861
913.886	14625
914	14648
914.113	14697
914.226	14670
914.34	14765
914.453	14507
914.566	14754
914.68	14583
914.793	14568
914.906	14393
915.019	14275
915.132	14126
915.245	14210
915.358	14282
915.47	14244
915.583	14237
915.696	14362
915.809	14454
915.921	14355
916.034	14191
916.146	14294
916.259	14142
916.371	14305
916.483	14229
916.595	14191
916.708	14111
916.82	14088
916.932	14134
917.044	14111
917.156	14020
917.268	13928
917.38	13997
917.491	13894
917.603	13993
917.715	14130
917.826	14077
917.938	13947
918.049	13830
918.161	13940
918.272	14027
918.384	14062
918.495	13833
918.606	13818
918.717	13651
918.828	13811
918.939	13750
919.05	13552
919.161	13723
919.272	13460
919.383	13681
919.494	13871
919.604	13936
919.715	13704
919.826	13647
919.936	13689
920.047	13750
920.157	13746
920.267	13826
920.378	13674
920.488	13651
920.598	13856
920.708	14012
920.818	13898
920.928	13807
921.038	13986
921.148	13906
921.258	13601
921.368	13556
921.477	13525
921.587	13415
921.697	13335
921.806	13464
921.916	13369
922.025	13137
922.134	13072
922.244	13122
922.353	13171
922.462	12973
922.571	12928
922.68	12749
922.789	12707
922.898	12711
923.007	12673
923.116	12753
923.224	12715
923.333	12684
923.442	12616
923.55	12547
923.659	12544
923.767	12593
923.876	12547
923.984	12563
924.092	12467
924.201	12509
924.309	12426
924.417	12525
924.525	12448
924.633	12426
924.741	13175
924.849	12228
924.956	12445
925.064	12190
925.172	12098
925.279	12197
925.387	12262
925.494	12186
925.602	12334
925.709	12277
925.816	12155
925.924	12247
926.031	12281
926.138	12239
926.245	12190
926.352	12117
926.459	12167
926.566	12224
926.673	12110
926.779	12015
926.886	11965
926.993	11843
927.099	11764
927.206	11726
927.312	11805
927.419	11885
927.525	11794
927.631	11847
927.737	11691
927.843	11615
927.95	11532
928.056	11619
928.162	11676
928.267	11680
928.373	12239
928.479	11737
928.585	11482
928.69	11600
928.796	11668
928.901	11532
929.007	11356
929.112	11398
929.218	11421
929.323	11459
929.428	11421
929.533	11547
929.638	11353
929.743	11258
929.848	11383
929.953	11387
930.058	11181
930.163	11079
930.267	11136
930.372	11227
930.477	11018
930.581	11269
930.685	11098
930.79	10976
930.894	10968
930.998	10873
931.103	11056
931.207	10717
931.311	10611
931.415	10508
931.519	10348
931.623	10352
