Data from test_V78500241_2292.txt Node
Date: Fri Mar 25 15:25:49 CST 2022
User: usil
Spectrometer: V785-0024
Trigger mode: 0
Integration Time (sec): 4.000000E-1
Scans to average: 1
Nonlinearity correction enabled: false
Boxcar width: 0
Storing dark spectrum: false
XAxis mode: Wavelengths
Number of Pixels in Spectrum: 1024
>>>>>Begin Spectral Data<<<<<
801.071	27816
801.214	27679
801.356	27378
801.499	27367
801.641	27203
801.783	27336
801.926	27310
802.068	27260
802.211	27287
802.353	27119
802.496	27058
802.638	26956
802.78	26845
802.923	26849
803.065	26746
803.208	26845
803.35	26720
803.492	26986
803.635	27096
803.777	26834
803.919	27173
804.061	27260
804.204	27226
804.346	27119
804.488	27108
804.63	27085
804.773	27005
804.915	27074
805.057	27226
805.199	27028
805.341	27154
805.483	27256
805.626	27192
805.768	27336
805.91	27214
806.052	27192
806.194	27275
806.336	27412
806.478	27252
806.62	27184
806.762	27302
806.904	27313
807.046	27800
807.188	27663
807.33	27751
807.472	27709
807.614	27629
807.756	27568
807.898	27382
808.04	27466
808.182	27370
808.324	27507
808.465	27576
808.607	27618
808.749	27819
808.891	27846
809.033	28036
809.174	28010
809.316	27819
809.458	27823
809.6	27956
809.741	27972
809.883	28013
810.025	28265
810.166	28097
810.308	28162
810.45	27934
810.591	28017
810.733	27808
810.875	27819
811.016	27724
811.158	27766
811.299	27991
811.441	27911
811.582	27987
811.724	27945
811.865	27797
812.007	27960
812.148	27941
812.29	27793
812.431	27991
812.573	28093
812.714	28257
812.855	28268
812.997	28474
813.138	28561
813.279	28428
813.421	28398
813.562	28265
813.703	28086
813.845	28101
813.986	27663
814.127	27739
814.268	27549
814.41	27622
814.551	27561
814.692	27580
814.833	27568
814.974	27500
815.115	27622
815.256	27401
815.397	27363
815.539	27386
815.68	27336
815.821	27256
815.962	27439
816.103	27249
816.244	27241
816.385	27230
816.526	26994
816.666	26937
816.807	26826
816.948	26834
817.089	26906
817.23	26853
817.371	26781
817.512	26834
817.653	26804
817.793	26785
817.934	26857
818.075	26883
818.216	26781
818.356	26826
818.497	26594
818.638	26442
818.778	26689
818.919	26689
819.06	26674
819.2	26697
819.341	26849
819.481	26834
819.622	26891
819.762	27169
819.903	27024
820.043	26921
820.184	26861
820.324	26804
820.465	27020
820.605	26998
820.746	26937
820.886	26823
821.026	26921
821.167	26792
821.307	26914
821.447	26731
821.588	26670
821.728	26632
821.868	26328
822.008	26305
822.149	26225
822.289	26145
822.429	26058
822.569	25898
822.709	25837
822.849	25628
822.99	25814
823.13	25936
823.27	25757
823.41	25586
823.55	25479
823.69	25658
823.83	25693
823.97	25601
824.11	25365
824.25	25358
824.389	25316
824.529	25556
824.669	25392
824.809	25499
824.949	25384
825.089	25479
825.228	25403
825.368	25350
825.508	25148
825.648	25335
825.787	25415
825.927	25339
826.067	25209
826.206	25285
826.346	25407
826.485	25415
826.625	25190
826.765	25362
826.904	25377
827.044	25084
827.183	25145
827.323	24989
827.462	25095
827.601	24973
827.741	24996
827.88	24909
828.02	24981
828.159	25000
828.298	24958
828.437	25114
828.577	24897
828.716	25126
828.855	24951
828.994	24814
829.134	24738
829.273	24700
829.412	24589
829.551	24741
829.69	24711
829.829	24684
829.968	24856
830.107	24745
830.246	24582
830.385	24688
830.524	24601
830.663	24532
830.802	24414
830.941	24296
831.08	24285
831.219	24372
831.357	24350
831.496	24521
831.635	24395
831.774	24262
831.913	24216
832.051	24106
832.19	24068
832.329	24163
832.467	23939
832.606	24079
832.744	23996
832.883	24136
833.022	23942
833.16	24022
833.299	24064
833.437	24072
833.576	24057
833.714	23961
833.852	24167
833.991	24152
834.129	24079
834.267	24087
834.406	24068
834.544	24079
834.682	24072
834.821	23965
834.959	24239
835.097	24060
835.235	24041
835.373	24003
835.511	24087
835.65	23874
835.788	23790
835.926	23786
836.064	23771
836.202	23703
836.34	23893
836.478	23824
836.615	23980
836.753	23870
836.891	23885
837.029	23977
837.167	23851
837.305	23771
837.443	23840
837.58	23718
837.718	23832
837.856	23760
837.993	23737
838.131	23775
838.269	23429
838.406	23775
838.544	23630
838.681	23360
838.819	23467
838.956	23208
839.094	23174
839.231	23261
839.369	23410
839.506	23551
839.643	23459
839.781	23246
839.918	23143
840.055	23216
840.193	23128
840.33	23041
840.467	23204
840.604	23170
840.742	23265
840.879	22915
841.016	23010
841.153	23060
841.29	23265
841.427	23124
841.564	23117
841.701	23075
841.838	23094
841.975	22991
842.112	22900
842.249	22896
842.385	22797
842.522	22991
842.659	22965
842.796	22805
842.933	22797
843.069	22885
843.206	22896
843.343	22995
843.479	22915
843.616	22866
843.752	22687
843.889	22527
844.025	22717
844.162	22710
844.298	22717
844.435	22569
844.571	22656
844.708	22603
844.844	22793
844.98	22946
845.117	22733
845.253	22497
845.389	22542
845.525	22626
845.661	22546
845.798	22261
845.934	22398
846.07	22379
846.206	22382
846.342	22497
846.478	22360
846.614	22166
846.75	22036
846.886	22044
847.022	22169
847.158	22204
847.294	22097
847.429	22063
847.565	22097
847.701	22363
847.837	21918
847.972	21759
848.108	21979
848.244	21842
848.379	21816
848.515	21641
848.65	21759
848.786	21675
848.921	21656
849.057	21819
849.192	21743
849.328	21774
849.463	21675
849.598	21614
849.734	21599
849.869	21561
850.004	21561
850.14	21443
850.275	21492
850.41	21439
850.545	21428
850.68	21428
850.815	21511
850.95	21435
851.085	21534
851.22	21591
851.355	21515
851.49	21458
851.625	21359
851.76	21428
851.895	21359
852.03	21386
852.165	21389
852.299	21458
852.434	21568
852.569	21439
852.703	21393
852.838	21652
852.973	21534
853.107	21580
853.242	21408
853.376	21279
853.511	21306
853.645	21199
853.78	21359
853.914	21272
854.048	21214
854.183	21313
854.317	21264
854.451	21450
854.585	21359
854.72	21374
854.854	21393
854.988	21176
855.122	21195
855.256	21138
855.39	21214
855.524	21408
855.658	21408
855.792	21135
855.926	21298
856.06	21283
856.194	21317
856.327	21279
856.461	21154
856.595	21306
856.729	21203
856.862	21538
856.996	21374
857.13	21306
857.263	21355
857.397	21408
857.53	21237
857.664	21336
857.797	21382
857.931	21458
858.064	21226
858.197	21477
858.331	21367
858.464	21119
858.597	21241
858.731	21283
858.864	21214
858.997	21146
859.13	21260
859.263	21279
859.396	21412
859.529	21211
859.662	21355
859.795	21199
859.928	21344
860.061	21431
860.194	21435
860.327	21389
860.46	21294
860.592	21477
860.725	21382
860.858	21389
860.99	21424
861.123	21222
861.256	21146
861.388	21195
861.521	21865
861.653	21077
861.786	21024
861.918	21150
862.05	21245
862.183	21173
862.315	21275
862.447	21199
862.58	21176
862.712	21013
862.844	20975
862.976	21039
863.108	20910
863.24	21275
863.372	20887
863.504	20910
863.636	20948
863.768	21077
863.9	20979
864.032	20975
864.164	20887
864.296	20982
864.428	21013
864.559	21070
864.691	21123
864.823	21058
864.954	20929
865.086	20986
865.217	20876
865.349	20804
865.48	20861
865.612	20902
865.743	20880
865.875	20921
866.006	20918
866.137	20990
866.269	20918
866.4	20906
866.531	20933
866.662	20731
866.793	20705
866.924	20727
867.055	20876
867.186	20861
867.317	20785
867.448	20659
867.579	20773
867.71	20811
867.841	20670
867.972	20811
868.103	20754
868.233	20849
868.364	20807
868.495	20937
868.625	21024
868.756	21176
868.886	20910
869.017	21036
869.147	21195
869.278	21157
869.408	21093
869.539	20971
869.669	21218
869.799	21108
869.929	21336
870.06	21173
870.19	21397
870.32	21214
870.45	21420
870.58	21294
870.71	21500
870.84	21633
870.97	21397
871.1	21370
871.23	21641
871.36	21644
871.489	21496
871.619	21580
871.749	21614
871.879	21629
872.008	21762
872.138	21629
872.267	21644
872.397	21473
872.526	21557
872.656	21416
872.785	21583
872.915	21553
873.044	21660
873.173	21675
873.303	21622
873.432	21686
873.561	21857
873.69	21648
873.819	21587
873.948	21766
874.077	21698
874.206	21606
874.335	21606
874.464	21766
874.593	21895
874.722	21873
874.851	21895
874.979	21899
875.108	21899
875.237	21930
875.365	21800
875.494	21869
875.623	21972
875.751	21857
875.88	21915
876.008	22040
876.136	22090
876.265	22341
876.393	22390
876.521	22215
876.65	22341
876.778	22303
876.906	22306
877.034	22242
877.162	22238
877.29	22143
877.418	22181
877.546	22169
877.674	22234
877.802	22192
877.93	22097
878.058	22169
878.185	22082
878.313	22211
878.441	22223
878.568	21949
878.696	22188
878.824	22287
878.951	22363
879.079	22371
879.206	22474
879.333	22371
879.461	22284
879.588	22284
879.715	22291
879.842	22436
879.97	22242
880.097	21918
880.224	22067
880.351	22147
880.478	22086
880.605	22017
880.732	22032
880.859	22272
880.986	22017
881.112	22078
881.239	21766
881.366	21819
881.493	21675
881.619	21606
881.746	21736
881.872	21572
881.999	21564
882.125	21629
882.252	21663
882.378	21568
882.505	21739
882.631	21447
882.757	21370
882.883	21496
883.01	21317
883.136	21340
883.262	21161
883.388	21207
883.514	21268
883.64	21454
883.766	21256
883.892	21066
884.018	21096
884.143	21374
884.269	21367
884.395	21017
884.52	20971
884.646	20986
884.772	20956
884.897	20788
885.023	21070
885.148	21047
885.274	21096
885.399	21081
885.524	20906
885.65	21055
885.775	20990
885.9	20906
886.025	21085
886.15	20998
886.275	20925
886.4	20819
886.525	20937
886.65	20914
886.775	20891
886.9	21081
887.025	21214
887.149	20986
887.274	20830
887.399	20834
887.523	20712
887.648	20701
887.773	20731
887.897	20739
888.021	20682
888.146	20727
888.27	20872
888.395	20781
888.519	20777
888.643	20705
888.767	20845
888.891	20735
889.015	20670
889.139	20602
889.263	20560
889.387	20625
889.511	20697
889.635	20689
889.759	20522
889.883	20503
890.006	20705
890.13	20648
890.254	20533
890.377	20423
890.501	20305
890.624	20400
890.748	20332
890.871	20145
890.995	20054
891.118	20122
891.241	20240
891.364	20149
891.488	20282
891.611	20107
891.734	20153
891.857	20271
891.98	20054
892.103	20202
892.226	20103
892.349	20092
892.471	19887
892.594	19997
892.717	20020
892.839	19925
892.962	19997
893.085	20153
893.207	19982
893.33	19864
893.452	19928
893.575	20122
893.697	19864
893.819	20176
893.941	20271
894.064	20092
894.186	19947
894.308	19947
894.43	20096
894.552	20142
894.674	20046
894.796	19887
894.918	20103
895.04	19978
895.161	20107
895.283	20153
895.405	20008
895.526	20027
895.648	19993
895.769	19989
895.891	20134
896.012	20031
896.134	20046
896.255	20058
896.376	19963
896.498	20027
896.619	20111
896.74	20058
896.861	20035
896.982	20324
897.103	20442
897.224	20355
897.345	20199
897.466	20248
897.587	20267
897.708	20347
897.828	20256
897.949	20229
898.07	20100
898.19	20122
898.311	20248
898.431	20290
898.552	20286
898.672	20324
898.792	20377
898.913	20263
899.033	20218
899.153	20046
899.273	20062
899.393	19955
899.513	20069
899.633	20043
899.753	19947
899.873	19887
899.993	19955
900.113	20031
900.232	19951
900.352	19887
900.472	19925
900.591	19849
900.711	19811
900.83	19632
900.95	19791
901.069	19799
901.189	19632
901.308	19499
901.427	19407
901.546	19327
901.665	19346
901.784	19426
901.904	19198
902.023	19069
902.141	19061
902.26	18947
902.379	19076
902.498	18924
902.617	18875
902.735	18947
902.854	18882
902.973	18757
903.091	18429
903.21	18479
903.328	18521
903.446	18479
903.565	18391
903.683	18361
903.801	18182
903.919	18239
904.038	18315
904.156	18125
904.274	18239
904.392	18148
904.51	18095
904.627	18064
904.745	18163
904.863	18140
904.981	17832
905.098	17809
905.216	17813
905.334	17790
905.451	17764
905.569	17710
905.686	17710
905.803	17741
905.921	17653
906.038	17672
906.155	17558
906.272	17497
906.389	17512
906.506	17220
906.623	17292
906.74	17303
906.857	17208
906.974	17261
907.091	17482
907.208	17372
907.324	17387
907.441	17181
907.557	17143
907.674	17121
907.79	17037
907.907	17048
908.023	17079
908.139	17052
908.256	16984
908.372	16961
908.488	16843
908.604	16793
908.72	16752
908.836	16660
908.952	16797
909.068	16889
909.184	16881
909.3	16820
909.415	16809
909.531	16713
909.647	16535
909.762	16493
909.878	16527
909.993	16489
910.108	16367
910.224	16455
910.339	16428
910.454	16287
910.57	16314
910.685	16226
910.8	16459
910.915	16455
911.03	16158
911.145	15987
911.259	16173
911.374	16074
911.489	16093
911.604	15915
911.718	15732
911.833	15717
911.947	15762
912.062	15610
912.176	15709
912.291	15762
912.405	15785
912.519	16029
912.633	15979
912.748	15804
912.862	15732
912.976	15644
913.09	15466
913.204	15564
913.318	15694
913.431	15675
913.545	15770
913.659	15808
913.772	15610
913.886	15374
914	15405
914.113	15466
914.226	15561
914.34	15557
914.453	15291
914.566	15473
914.68	15237
914.793	15233
914.906	15032
915.019	15097
915.132	14998
915.245	14963
915.358	14994
915.47	15017
915.583	15100
915.696	15005
915.809	15127
915.921	15108
916.034	15058
916.146	15032
916.259	14899
916.371	15043
916.483	15039
916.595	14872
916.708	14891
916.82	14941
916.932	14758
917.044	14777
917.156	14758
917.268	14655
917.38	14636
917.491	14746
917.603	14682
917.715	14689
917.826	14735
917.938	14568
918.049	14613
918.161	14674
918.272	14758
918.384	14720
918.495	14590
918.606	14488
918.717	14438
918.828	14431
918.939	14423
919.05	14301
919.161	14476
919.272	14267
919.383	14332
919.494	14549
919.604	14705
919.715	14442
919.826	14351
919.936	14438
920.047	14446
920.157	14446
920.267	14575
920.378	14461
920.488	14442
920.598	14549
920.708	14659
920.818	14564
920.928	14530
921.038	14674
921.148	14648
921.258	14442
921.368	14153
921.477	14172
921.587	14077
921.697	14039
921.806	14115
921.916	14043
922.025	13894
922.134	13742
922.244	13704
922.353	13734
922.462	13628
922.571	13632
922.68	13369
922.789	13460
922.898	13441
923.007	13407
923.116	13407
923.224	13381
923.333	13369
923.442	13297
923.55	13285
923.659	13190
923.767	13354
923.876	13202
923.984	13293
924.092	13149
924.201	13343
924.309	13198
924.417	13247
924.525	13076
924.633	13259
924.741	13887
924.849	12966
924.956	13023
925.064	12871
925.172	12840
925.279	12833
925.387	12916
925.494	12882
925.602	12973
925.709	12837
925.816	12821
925.924	12802
926.031	12878
926.138	12783
926.245	12817
926.352	12696
926.459	12844
926.566	12875
926.673	12696
926.779	12566
926.886	12612
926.993	12525
927.099	12483
927.206	12319
927.312	12399
927.419	12441
927.525	12433
927.631	12456
927.737	12346
927.843	12304
927.95	12228
928.056	12365
928.162	12209
928.267	12270
928.373	12764
928.479	12361
928.585	12007
928.69	12209
928.796	12285
928.901	12034
929.007	12045
929.112	12038
929.218	12129
929.323	11965
929.428	11988
929.533	12053
929.638	11821
929.743	11935
929.848	11969
929.953	11958
930.058	11836
930.163	11707
930.267	11657
930.372	11794
930.477	11573
930.581	11851
930.685	11733
930.79	11615
930.894	11570
930.998	11520
931.103	11585
931.207	11379
931.311	11277
931.415	11178
931.519	10919
931.623	10919
