Data from test_V78500241_280.txt Node
Date: Fri Mar 25 15:11:48 CST 2022
User: usil
Spectrometer: V785-0024
Trigger mode: 0
Integration Time (sec): 4.000000E-1
Scans to average: 1
Nonlinearity correction enabled: false
Boxcar width: 0
Storing dark spectrum: false
XAxis mode: Wavelengths
Number of Pixels in Spectrum: 1024
>>>>>Begin Spectral Data<<<<<
801.071	27526
801.214	27686
801.356	27359
801.499	27462
801.641	27291
801.783	27169
801.926	27241
802.068	27150
802.211	27005
802.353	27001
802.496	26990
802.638	26880
802.78	26914
802.923	26796
803.065	26819
803.208	26773
803.35	26800
803.492	26906
803.635	27047
803.777	26940
803.919	26979
804.061	27283
804.204	27028
804.346	26857
804.488	26670
804.63	27001
804.773	26670
804.915	26872
805.057	27131
805.199	26914
805.341	26925
805.483	27062
805.626	27085
805.768	27005
805.91	26944
806.052	27150
806.194	26921
806.336	27180
806.478	27070
806.62	27241
806.762	27264
806.904	27317
807.046	27526
807.188	27485
807.33	27427
807.472	27637
807.614	27313
807.756	27256
807.898	27176
808.04	27154
808.182	27252
808.324	27310
808.465	27367
808.607	27386
808.749	27549
808.891	27720
809.033	27732
809.174	27797
809.316	27705
809.458	27656
809.6	27686
809.741	27884
809.883	27652
810.025	27930
810.166	27816
810.308	27918
810.45	27770
810.591	27728
810.733	27652
810.875	27561
811.016	27580
811.158	27389
811.299	27701
811.441	27759
811.582	27606
811.724	27644
811.865	27549
812.007	27606
812.148	27488
812.29	27637
812.431	27755
812.573	27747
812.714	27964
812.855	28139
812.997	28253
813.138	28253
813.279	28215
813.421	28204
813.562	28181
813.703	27838
813.845	27808
813.986	27530
814.127	27374
814.268	27374
814.41	27192
814.551	27154
814.692	27336
814.833	27233
814.974	27306
815.115	27264
815.256	27005
815.397	27066
815.539	27081
815.68	26906
815.821	27047
815.962	27032
816.103	27070
816.244	26724
816.385	26834
816.526	26769
816.666	26602
816.807	26457
816.948	26469
817.089	26446
817.23	26351
817.371	26377
817.512	26507
817.653	26377
817.793	26518
817.934	26332
818.075	26423
818.216	26579
818.356	26488
818.497	26370
818.638	26172
818.778	26161
818.919	26126
819.06	26195
819.2	26370
819.341	26191
819.481	26499
819.622	26625
819.762	26739
819.903	26640
820.043	26564
820.184	26461
820.324	26511
820.465	26450
820.605	26556
820.746	26427
820.886	26317
821.026	26419
821.167	26476
821.307	26469
821.447	26317
821.588	26221
821.728	26142
821.868	26012
822.008	25750
822.149	25704
822.289	25776
822.429	25495
822.569	25472
822.709	25491
822.849	25365
822.99	25460
823.13	25232
823.27	25278
823.41	25107
823.55	24989
823.69	25095
823.83	25145
823.97	25126
824.11	24970
824.25	24848
824.389	24962
824.529	25061
824.669	24977
824.809	25148
824.949	25027
825.089	24966
825.228	24916
825.368	24871
825.508	24791
825.648	24730
825.787	24859
825.927	24878
826.067	24840
826.206	24696
826.346	24867
826.485	24760
826.625	24726
826.765	24833
826.904	24935
827.044	24677
827.183	24532
827.323	24532
827.462	24502
827.601	24498
827.741	24544
827.88	24597
828.02	24448
828.159	24483
828.298	24521
828.437	24418
828.577	24388
828.716	24525
828.855	24311
828.994	24334
829.134	24125
829.273	24254
829.412	24148
829.551	24216
829.69	24174
829.829	24216
829.968	24369
830.107	24285
830.246	24068
830.385	24178
830.524	24106
830.663	23996
830.802	23923
830.941	23676
831.08	23687
831.219	23783
831.357	23817
831.496	24026
831.635	23840
831.774	23684
831.913	23687
832.051	23554
832.19	23573
832.329	23543
832.467	23528
832.606	23455
832.744	23425
832.883	23391
833.022	23467
833.16	23539
833.299	23474
833.437	23478
833.576	23646
833.714	23528
833.852	23566
833.991	23509
834.129	23573
834.267	23486
834.406	23440
834.544	23463
834.682	23547
834.821	23448
834.959	23634
835.097	23589
835.235	23642
835.373	23482
835.511	23589
835.65	23261
835.788	23410
835.926	23204
836.064	23200
836.202	23220
836.34	23299
836.478	23356
836.615	23277
836.753	23269
836.891	23505
837.029	23296
837.167	23334
837.305	23189
837.443	23223
837.58	23280
837.718	23318
837.856	23227
837.993	23140
838.131	23140
838.269	23132
838.406	23090
838.544	23041
838.681	22850
838.819	22858
838.956	22664
839.094	22675
839.231	22588
839.369	22824
839.506	22927
839.643	22908
839.781	22615
839.918	22554
840.055	22721
840.193	22683
840.33	22550
840.467	22577
840.604	22645
840.742	22698
840.879	22440
841.016	22561
841.153	22481
841.29	22683
841.427	22481
841.564	22516
841.701	22603
841.838	22398
841.975	22451
842.112	22535
842.249	22360
842.385	22318
842.522	22443
842.659	22344
842.796	22314
842.933	22291
843.069	22223
843.206	22223
843.343	22333
843.479	22257
843.616	22139
843.752	22036
843.889	22112
844.025	22192
844.162	22032
844.298	22040
844.435	21941
844.571	22097
844.708	22143
844.844	22242
844.98	22158
845.117	22059
845.253	21949
845.389	21812
845.525	21922
845.661	22006
845.798	21736
845.934	21789
846.07	21595
846.206	21785
846.342	21865
846.478	21778
846.614	21701
846.75	21526
846.886	21462
847.022	21599
847.158	21557
847.294	21603
847.429	21572
847.565	21542
847.701	21698
847.837	21367
847.972	21169
848.108	21317
848.244	21340
848.379	21138
848.515	21150
848.65	21017
848.786	21165
848.921	21108
849.057	21146
849.192	21241
849.328	21230
849.463	21142
849.598	20998
849.734	21135
849.869	20941
850.004	20906
850.14	20876
850.275	20899
850.41	20804
850.545	20811
850.68	20830
850.815	20921
850.95	20705
851.085	20982
851.22	21119
851.355	20819
851.49	20899
851.625	20773
851.76	20838
851.895	20826
852.03	20750
852.165	20834
852.299	20830
852.434	20933
852.569	20918
852.703	20845
852.838	21017
852.973	20971
853.107	20982
853.242	20773
853.376	20689
853.511	20473
853.645	20606
853.78	20861
853.914	20655
854.048	20583
854.183	20587
854.317	20636
854.451	20792
854.585	20526
854.72	20674
854.854	20750
854.988	20609
855.122	20575
855.256	20552
855.39	20598
855.524	20731
855.658	20739
855.792	20735
855.926	20667
856.06	20823
856.194	20682
856.327	20629
856.461	20606
856.595	20663
856.729	20674
856.862	20746
856.996	20674
857.13	20670
857.263	20769
857.397	20746
857.53	20640
857.664	20625
857.797	20788
857.931	20712
858.064	20625
858.197	20674
858.331	20750
858.464	20492
858.597	20442
858.731	20655
858.864	20712
858.997	20480
859.13	20670
859.263	20678
859.396	20655
859.529	20556
859.662	20526
859.795	20533
859.928	20621
860.061	20823
860.194	20785
860.327	20644
860.46	20583
860.592	20788
860.725	20686
860.858	20735
860.99	20480
861.123	20503
861.256	20457
861.388	20587
861.521	21275
861.653	20484
861.786	20450
861.918	20537
862.05	20587
862.183	20651
862.315	20556
862.447	20655
862.58	20579
862.712	20427
862.844	20358
862.976	20507
863.108	20309
863.24	20834
863.372	20199
863.504	20320
863.636	20278
863.768	20271
863.9	20320
864.032	20343
864.164	20275
864.296	20328
864.428	20511
864.559	20313
864.691	20457
864.823	20332
864.954	20229
865.086	20332
865.217	20343
865.349	20161
865.48	20233
865.612	20191
865.743	20351
865.875	20195
866.006	20183
866.137	20244
866.269	20199
866.4	20256
866.531	20122
866.662	20164
866.793	20107
866.924	20180
867.055	20202
867.186	20195
867.317	20199
867.448	20096
867.579	20115
867.71	19989
867.841	20046
867.972	20142
868.103	20062
868.233	20180
868.364	20199
868.495	20339
868.625	20454
868.756	20438
868.886	20332
869.017	20412
869.147	20575
869.278	20503
869.408	20313
869.539	20377
869.669	20465
869.799	20469
869.929	20537
870.06	20648
870.19	20629
870.32	20716
870.45	20712
870.58	20823
870.71	20971
870.84	20937
870.97	20807
871.1	20682
871.23	20971
871.36	20899
871.489	20769
871.619	20925
871.749	20937
871.879	21154
872.008	21116
872.138	20982
872.267	20998
872.397	20883
872.526	20769
872.656	20842
872.785	20804
872.915	21123
873.044	21020
873.173	20971
873.303	21055
873.432	20941
873.561	21157
873.69	20971
873.819	21058
873.948	21138
874.077	20956
874.206	20864
874.335	20998
874.464	21157
874.593	21184
874.722	21218
874.851	21218
874.979	21405
875.108	21348
875.237	21252
875.365	21233
875.494	21268
875.623	21485
875.751	21138
875.88	21348
876.008	21443
876.136	21515
876.265	21759
876.393	21785
876.521	21808
876.65	21895
876.778	21583
876.906	21580
877.034	21454
877.162	21705
877.29	21595
877.418	21599
877.546	21549
877.674	21580
877.802	21648
877.93	21561
878.058	21557
878.185	21420
878.313	21614
878.441	21682
878.568	21450
878.696	21564
878.824	21595
878.951	21686
879.079	21686
879.206	21975
879.333	21743
879.461	21682
879.588	21701
879.715	21972
879.842	21895
879.97	21610
880.097	21443
880.224	21462
880.351	21580
880.478	21519
880.605	21420
880.732	21336
880.859	21682
880.986	21447
881.112	21416
881.239	21332
881.366	21195
881.493	21077
881.619	20941
881.746	20914
881.872	21020
881.999	21032
882.125	20952
882.252	21089
882.378	20986
882.505	21157
882.631	20937
882.757	20834
882.883	20834
883.01	20792
883.136	20731
883.262	20606
883.388	20651
883.514	20765
883.64	20640
883.766	20590
883.892	20454
884.018	20705
884.143	20678
884.269	20693
884.395	20457
884.52	20336
884.646	20256
884.772	20298
884.897	20320
885.023	20259
885.148	20434
885.274	20522
885.399	20526
885.524	20457
885.65	20461
885.775	20442
885.9	20381
886.025	20541
886.15	20476
886.275	20408
886.4	20317
886.525	20301
886.65	20328
886.775	20423
886.9	20499
887.025	20511
887.149	20362
887.274	20210
887.399	20069
887.523	20161
887.648	20134
887.773	20077
887.897	20180
888.021	20244
888.146	20069
888.27	20259
888.395	20298
888.519	20206
888.643	20286
888.767	20157
888.891	20043
889.015	19986
889.139	20100
889.263	19890
889.387	20031
889.511	20244
889.635	20077
889.759	19879
889.883	19921
890.006	19917
890.13	19967
890.254	19803
890.377	19868
890.501	19658
890.624	19693
890.748	19731
890.871	19712
890.995	19540
891.118	19533
891.241	19533
891.364	19499
891.488	19677
891.611	19476
891.734	19457
891.857	19616
891.98	19476
892.103	19601
892.226	19377
892.349	19476
892.471	19403
892.594	19472
892.717	19563
892.839	19445
892.962	19415
893.085	19472
893.207	19514
893.33	19198
893.452	19480
893.575	19419
893.697	19415
893.819	19616
893.941	19601
894.064	19525
894.186	19430
894.308	19358
894.43	19480
894.552	19616
894.674	19457
894.796	19301
894.918	19544
895.04	19430
895.161	19449
895.283	19499
895.405	19426
895.526	19358
895.648	19460
895.769	19487
895.891	19495
896.012	19506
896.134	19476
896.255	19556
896.376	19510
896.498	19521
896.619	19476
896.74	19438
896.861	19552
896.982	19803
897.103	19890
897.224	19738
897.345	19670
897.466	19613
897.587	19674
897.708	19761
897.828	19860
897.949	19643
898.07	19597
898.19	19525
898.311	19799
898.431	19597
898.552	19624
898.672	19742
898.792	19719
898.913	19731
899.033	19616
899.153	19506
899.273	19354
899.393	19365
899.513	19483
899.633	19506
899.753	19407
899.873	19438
899.993	19457
900.113	19388
900.232	19403
900.352	19304
900.472	19270
900.591	19259
900.711	19289
900.83	19202
900.95	19346
901.069	19247
901.189	19217
901.308	18833
901.427	18871
901.546	18909
901.665	18825
901.784	18932
901.904	18627
902.023	18620
902.141	18426
902.26	18350
902.379	18437
902.498	18365
902.617	18220
902.735	18311
902.854	18357
902.973	18254
903.091	18095
903.21	18053
903.328	18015
903.446	17813
903.565	17745
903.683	17832
903.801	17623
903.919	17642
904.038	17874
904.156	17547
904.274	17684
904.392	17566
904.51	17535
904.627	17497
904.745	17638
904.863	17653
904.981	17417
905.098	17216
905.216	17273
905.334	17254
905.451	17379
905.569	17242
905.686	17231
905.803	17220
905.921	17037
906.038	17155
906.155	17113
906.272	16835
906.389	17052
906.506	16850
906.623	16736
906.74	16793
906.857	16687
906.974	16782
907.091	16801
907.208	16923
907.324	16793
907.441	16797
907.557	16550
907.674	16428
907.79	16466
907.907	16386
908.023	16512
908.139	16523
908.256	16455
908.372	16421
908.488	16417
908.604	16234
908.72	16207
908.836	16173
908.952	16207
909.068	16276
909.184	16238
909.3	16257
909.415	16287
909.531	16211
909.647	15907
909.762	15918
909.878	15842
909.993	15884
910.108	16006
910.224	15827
910.339	15816
910.454	15778
910.57	15747
910.685	15629
910.8	15945
910.915	15918
911.03	15762
911.145	15633
911.259	15488
911.374	15587
911.489	15485
911.604	15397
911.718	15298
911.833	15306
911.947	15169
912.062	15058
912.176	15123
912.291	15180
912.405	15279
912.519	15458
912.633	15428
912.748	15405
912.862	15268
912.976	15108
913.09	14956
913.204	15066
913.318	15146
913.431	15085
913.545	15169
913.659	15097
913.772	14975
913.886	14891
914	14861
914.113	15020
914.226	15062
914.34	15017
914.453	14811
914.566	14918
914.68	14781
914.793	14769
914.906	14522
915.019	14541
915.132	14518
915.245	14484
915.358	14568
915.47	14526
915.583	14469
915.696	14552
915.809	14598
915.921	14621
916.034	14442
916.146	14389
916.259	14408
916.371	14457
916.483	14446
916.595	14267
916.708	14320
916.82	14347
916.932	14362
917.044	14282
917.156	14377
917.268	14187
917.38	14187
917.491	14157
917.603	14168
917.715	14240
917.826	14393
917.938	14218
918.049	13997
918.161	14062
918.272	14313
918.384	14328
918.495	14248
918.606	13959
918.717	13944
918.828	13947
918.939	13947
919.05	13940
919.161	13944
919.272	13788
919.383	13765
919.494	13925
919.604	14199
919.715	13928
919.826	13906
919.936	13959
920.047	14008
920.157	13932
920.267	14164
920.378	13887
920.488	13970
920.598	14092
920.708	14218
920.818	14065
920.928	14077
921.038	14259
921.148	14092
921.258	13951
921.368	13837
921.477	13700
921.587	13681
921.697	13506
921.806	13734
921.916	13499
922.025	13403
922.134	13263
922.244	13225
922.353	13388
922.462	13179
922.571	13156
922.68	12939
922.789	12958
922.898	12970
923.007	12840
923.116	12973
923.224	12890
923.333	12833
923.442	12863
923.55	12810
923.659	12859
923.767	12863
923.876	12814
923.984	12738
924.092	12662
924.201	12665
924.309	12734
924.417	12646
924.525	12684
924.633	12677
924.741	13472
924.849	12365
924.956	12654
925.064	12490
925.172	12350
925.279	12319
925.387	12399
925.494	12346
925.602	12490
925.709	12456
925.816	12399
925.924	12403
926.031	12479
926.138	12361
926.245	12369
926.352	12300
926.459	12426
926.566	12479
926.673	12292
926.779	12087
926.886	12239
926.993	12053
927.099	11961
927.206	11946
927.312	11946
927.419	12034
927.525	12026
927.631	12041
927.737	11927
927.843	11851
927.95	11783
928.056	11878
928.162	11748
928.267	11866
928.373	12460
928.479	11866
928.585	11608
928.69	11733
928.796	11878
928.901	11691
929.007	11581
929.112	11752
929.218	11638
929.323	11570
929.428	11585
929.533	11726
929.638	11573
929.743	11562
929.848	11455
929.953	11539
930.058	11337
930.163	11265
930.267	11277
930.372	11353
930.477	11254
930.581	11482
930.685	11299
930.79	11201
930.894	11246
930.998	11185
931.103	11162
931.207	10908
931.311	10828
931.415	10725
931.519	10481
931.623	10573
