Data from test_V78500241_992.txt Node
Date: Fri Mar 25 15:16:45 CST 2022
User: usil
Spectrometer: V785-0024
Trigger mode: 0
Integration Time (sec): 4.000000E-1
Scans to average: 1
Nonlinearity correction enabled: false
Boxcar width: 0
Storing dark spectrum: false
XAxis mode: Wavelengths
Number of Pixels in Spectrum: 1024
>>>>>Begin Spectral Data<<<<<
801.071	28405
801.214	28337
801.356	28120
801.499	28036
801.641	27751
801.783	27861
801.926	28002
802.068	27861
802.211	27835
802.353	27739
802.496	27675
802.638	27572
802.78	27534
802.923	27515
803.065	27553
803.208	27393
803.35	27447
803.492	27701
803.635	27713
803.777	27591
803.919	27694
804.061	28032
804.204	27808
804.346	27743
804.488	27641
804.63	27774
804.773	27648
804.915	27827
805.057	27949
805.199	27861
805.341	27964
805.483	27865
805.626	27899
805.768	27892
805.91	27865
806.052	27907
806.194	27835
806.336	28006
806.478	27960
806.62	27972
806.762	28150
806.904	28078
807.046	28485
807.188	28295
807.33	28287
807.472	28341
807.614	28333
807.756	28325
807.898	28253
808.04	28124
808.182	28230
808.324	28154
808.465	28371
808.607	28421
808.749	28508
808.891	28500
809.033	28820
809.174	28580
809.316	28550
809.458	28645
809.6	28596
809.741	28664
809.883	28816
810.025	28972
810.166	28934
810.308	28968
810.45	28721
810.591	28740
810.733	28596
810.875	28489
811.016	28508
811.158	28478
811.299	28641
811.441	28717
811.582	28713
811.724	28516
811.865	28462
812.007	28599
812.148	28649
812.29	28615
812.431	28869
812.573	28824
812.714	29014
812.855	29296
812.997	29250
813.138	29318
813.279	29231
813.421	29136
813.562	29086
813.703	28980
813.845	28763
813.986	28569
814.127	28531
814.268	28459
814.41	28447
814.551	28177
814.692	28329
814.833	28325
814.974	28299
815.115	28325
815.256	28147
815.397	28284
815.539	28242
815.68	28029
815.821	28135
815.962	28185
816.103	28048
816.244	28013
816.385	27895
816.526	27884
816.666	27682
816.807	27770
816.948	27694
817.089	27743
817.23	27739
817.371	27797
817.512	27606
817.653	27606
817.793	27523
817.934	27667
818.075	27614
818.216	27709
818.356	27618
818.497	27481
818.638	27420
818.778	27447
818.919	27325
819.06	27557
819.2	27420
819.341	27671
819.481	27637
819.622	27774
819.762	27869
819.903	27903
820.043	27789
820.184	27728
820.324	27675
820.465	27876
820.605	27568
820.746	27652
820.886	27542
821.026	27713
821.167	27747
821.307	27816
821.447	27682
821.588	27526
821.728	27329
821.868	27256
822.008	27192
822.149	27154
822.289	27123
822.429	26792
822.569	26823
822.709	26940
822.849	26629
822.99	26587
823.13	26765
823.27	26579
823.41	26545
823.55	26313
823.69	26522
823.83	26488
823.97	26389
824.11	26278
824.25	26377
824.389	26278
824.529	26267
824.669	26290
824.809	26438
824.949	26427
825.089	26457
825.228	26294
825.368	26084
825.508	26142
825.648	26172
825.787	26027
825.927	26248
826.067	26282
826.206	26130
826.346	26176
826.485	26126
826.625	26191
826.765	26278
826.904	26172
827.044	26016
827.183	25970
827.323	25898
827.462	25894
827.601	25890
827.741	25917
827.88	25951
828.02	25803
828.159	25727
828.298	25879
828.437	25959
828.577	25894
828.716	25997
828.855	25852
828.994	25624
829.134	25700
829.273	25605
829.412	25624
829.551	25510
829.69	25655
829.829	25616
829.968	25837
830.107	25712
830.246	25594
830.385	25506
830.524	25472
830.663	25445
830.802	25270
830.941	25297
831.08	25324
831.219	25217
831.357	25232
831.496	25476
831.635	25099
831.774	25160
831.913	25034
832.051	25129
832.19	25110
832.329	25065
832.467	24958
832.606	24901
832.744	24962
832.883	24973
833.022	24711
833.16	24897
833.299	24852
833.437	24844
833.576	24977
833.714	24939
833.852	25019
833.991	24875
834.129	24966
834.267	25133
834.406	25122
834.544	24962
834.682	25122
834.821	25034
834.959	25076
835.097	24856
835.235	25038
835.373	25023
835.511	25072
835.65	24798
835.788	24844
835.926	24715
836.064	24684
836.202	24623
836.34	24772
836.478	24924
836.615	24795
836.753	24897
836.891	24867
837.029	24856
837.167	24730
837.305	24623
837.443	24631
837.58	24665
837.718	24749
837.856	24574
837.993	24585
838.131	24703
838.269	24456
838.406	24544
838.544	24502
838.681	24342
838.819	24232
838.956	24171
839.094	24091
839.231	24152
839.369	24209
839.506	24448
839.643	24232
839.781	24102
839.918	24011
840.055	24083
840.193	24182
840.33	23999
840.467	24041
840.604	24034
840.742	24186
840.879	23813
841.016	23847
841.153	23813
841.29	24079
841.427	23950
841.564	24136
841.701	23988
841.838	23843
841.975	23927
842.112	23965
842.249	23786
842.385	23764
842.522	23984
842.659	23771
842.796	23775
842.933	23771
843.069	23764
843.206	23809
843.343	23718
843.479	23779
843.616	23802
843.752	23623
843.889	23554
844.025	23737
844.162	23653
844.298	23497
844.435	23353
844.571	23509
844.708	23539
844.844	23707
844.98	23733
845.117	23608
845.253	23482
845.389	23524
845.525	23463
845.661	23376
845.798	23246
845.934	23330
846.07	23261
846.206	23356
846.342	23379
846.478	23212
846.614	23014
846.75	23003
846.886	23044
847.022	22957
847.158	23014
847.294	22991
847.429	23029
847.565	23014
847.701	23288
847.837	22736
847.972	22774
848.108	22904
848.244	22828
848.379	22561
848.515	22535
848.65	22615
848.786	22618
848.921	22592
849.057	22687
849.192	22596
849.328	22630
849.463	22694
849.598	22542
849.734	22580
849.869	22421
850.004	22421
850.14	22303
850.275	22375
850.41	22363
850.545	22348
850.68	22325
850.815	22322
850.95	22493
851.085	22527
851.22	22474
851.355	22424
851.49	22230
851.625	22318
851.76	22246
851.895	22310
852.03	22306
852.165	22207
852.299	22344
852.434	22538
852.569	22519
852.703	22440
852.838	22322
852.973	22508
853.107	22527
853.242	22272
853.376	22230
853.511	22048
853.645	22166
853.78	22382
853.914	22246
854.048	22181
854.183	22219
854.317	22223
854.451	22246
854.585	22128
854.72	22154
854.854	22371
854.988	22070
855.122	22074
855.256	21987
855.39	22124
855.524	22287
855.658	22337
855.792	22276
855.926	22135
856.06	22226
856.194	22207
856.327	22097
856.461	22055
856.595	22192
856.729	22090
856.862	22314
856.996	22116
857.13	22341
857.263	22234
857.397	22284
857.53	22196
857.664	22116
857.797	22284
857.931	22337
858.064	22200
858.197	22147
858.331	22223
858.464	22131
858.597	22002
858.731	22154
858.864	22055
858.997	21926
859.13	22188
859.263	22032
859.396	22219
859.529	22215
859.662	22109
859.795	22124
859.928	22135
860.061	22318
860.194	22318
860.327	22211
860.46	22196
860.592	22325
860.725	22356
860.858	22436
860.99	22139
861.123	22002
861.256	22162
861.388	22116
861.521	22843
861.653	21953
861.786	22040
861.918	22082
862.05	22162
862.183	22143
862.315	22010
862.447	22181
862.58	22021
862.712	21903
862.844	21736
862.976	22013
863.108	22010
863.24	22276
863.372	21865
863.504	21762
863.636	21816
863.768	21850
863.9	21903
864.032	21778
864.164	21865
864.296	21831
864.428	22025
864.559	21994
864.691	21895
864.823	21793
864.954	21960
865.086	21846
865.217	21800
865.349	21717
865.48	21682
865.612	21747
865.743	21972
865.875	21709
866.006	21591
866.137	21865
866.269	21732
866.4	21804
866.531	21545
866.662	21671
866.793	21603
866.924	21728
867.055	21778
867.186	21686
867.317	21644
867.448	21641
867.579	21690
867.71	21622
867.841	21667
867.972	21709
868.103	21660
868.233	21774
868.364	21797
868.495	21724
868.625	21857
868.756	22048
868.886	21808
869.017	21907
869.147	21979
869.278	21998
869.408	22002
869.539	21941
869.669	21991
869.799	21941
869.929	22025
870.06	21975
870.19	22166
870.32	22169
870.45	22314
870.58	22257
870.71	22516
870.84	22432
870.97	22310
871.1	22337
871.23	22440
871.36	22508
871.489	22367
871.619	22462
871.749	22470
871.879	22592
872.008	22611
872.138	22455
872.267	22424
872.397	22382
872.526	22299
872.656	22325
872.785	22398
872.915	22580
873.044	22531
873.173	22424
873.303	22637
873.432	22596
873.561	22592
873.69	22580
873.819	22546
873.948	22569
874.077	22512
874.206	22504
874.335	22402
874.464	22584
874.593	22611
874.722	22687
874.851	22771
874.979	22782
875.108	22702
875.237	22710
875.365	22664
875.494	22782
875.623	22767
875.751	22767
875.88	22801
876.008	22934
876.136	22968
876.265	23193
876.393	23231
876.521	23193
876.65	23204
876.778	23113
876.906	23098
877.034	23022
877.162	23056
877.29	23029
877.418	23151
877.546	23162
877.674	23151
877.802	23162
877.93	23075
878.058	23048
878.185	23204
878.313	23086
878.441	23113
878.568	22938
878.696	23071
878.824	23079
878.951	23071
879.079	23250
879.206	23395
879.333	23303
879.461	23064
879.588	23166
879.715	23212
879.842	23535
879.97	23170
880.097	22919
880.224	22911
880.351	23037
880.478	22919
880.605	22797
880.732	22900
880.859	23003
880.986	22911
881.112	22877
881.239	22706
881.366	22615
881.493	22561
881.619	22573
881.746	22573
881.872	22500
881.999	22466
882.125	22344
882.252	22455
882.378	22451
882.505	22474
882.631	22303
882.757	22246
882.883	22261
883.01	22223
883.136	22128
883.262	22120
883.388	21998
883.514	22025
883.64	22169
883.766	22067
883.892	21831
884.018	21930
884.143	22074
884.269	22230
884.395	21774
884.52	21679
884.646	21846
884.772	21743
884.897	21717
885.023	21701
885.148	21895
885.274	21926
885.399	21854
885.524	21819
885.65	21808
885.775	21720
885.9	21736
886.025	21930
886.15	21888
886.275	21774
886.4	21732
886.525	21705
886.65	21732
886.775	21732
886.9	21861
887.025	21987
887.149	21831
887.274	21622
887.399	21534
887.523	21595
887.648	21629
887.773	21408
887.897	21610
888.021	21652
888.146	21454
888.27	21572
888.395	21610
888.519	21576
888.643	21504
888.767	21576
888.891	21397
889.015	21401
889.139	21287
889.263	21294
889.387	21393
889.511	21496
889.635	21450
889.759	21378
889.883	21283
890.006	21294
890.13	21291
890.254	21165
890.377	21096
890.501	21028
890.624	21154
890.748	21142
890.871	20994
890.995	20891
891.118	20902
891.241	20849
891.364	20937
891.488	20883
891.611	20979
891.734	20864
891.857	20933
891.98	20887
892.103	21032
892.226	20944
892.349	20826
892.471	20686
892.594	20883
892.717	20845
892.839	20670
892.962	20857
893.085	20948
893.207	20697
893.33	20583
893.452	20785
893.575	20868
893.697	20788
893.819	20891
893.941	20956
894.064	20937
894.186	20849
894.308	20667
894.43	20895
894.552	20952
894.674	20842
894.796	20598
894.918	20731
895.04	20762
895.161	20811
895.283	20777
895.405	20758
895.526	20712
895.648	20746
895.769	20834
895.891	20800
896.012	20773
896.134	20853
896.255	20823
896.376	20708
896.498	20811
896.619	20826
896.74	20773
896.861	20902
896.982	21112
897.103	21161
897.224	21055
897.345	20914
897.466	20887
897.587	20941
897.708	21108
897.828	21043
897.949	21001
898.07	20918
898.19	20963
898.311	21093
898.431	21028
898.552	21001
898.672	20937
898.792	21100
898.913	21062
899.033	20963
899.153	20769
899.273	20613
899.393	20682
899.513	20765
899.633	20705
899.753	20762
899.873	20769
899.993	20853
900.113	20594
900.232	20689
900.352	20686
900.472	20602
900.591	20511
900.711	20427
900.83	20446
900.95	20594
901.069	20495
901.189	20362
901.308	20043
901.427	20062
901.546	20005
901.665	20062
901.784	20164
901.904	19967
902.023	19826
902.141	19594
902.26	19651
902.379	19674
902.498	19518
902.617	19609
902.735	19571
902.854	19685
902.973	19468
903.091	19381
903.21	19282
903.328	19407
903.446	19156
903.565	19053
903.683	19065
903.801	18966
903.919	18958
904.038	18962
904.156	18840
904.274	18977
904.392	18825
904.51	18745
904.627	18772
904.745	18859
904.863	18894
904.981	18574
905.098	18414
905.216	18467
905.334	18593
905.451	18445
905.569	18452
905.686	18521
905.803	18471
905.921	18289
906.038	18521
906.155	18311
906.272	18201
906.389	18232
906.506	18106
906.623	18068
906.74	17984
906.857	17954
906.974	17958
907.091	18034
907.208	18163
907.324	18076
907.441	17908
907.557	17615
907.674	17756
907.79	17756
907.907	17699
908.023	17630
908.139	17684
908.256	17638
908.372	17619
908.488	17547
908.604	17562
908.72	17448
908.836	17501
908.952	17387
909.068	17535
909.184	17520
909.3	17478
909.415	17391
909.531	17421
909.647	17181
909.762	17105
909.878	17090
909.993	17155
910.108	17178
910.224	17113
910.339	17155
910.454	16934
910.57	16923
910.685	16881
910.8	17086
910.915	17094
911.03	16892
911.145	16744
911.259	16771
911.374	16733
911.489	16721
911.604	16577
911.718	16535
911.833	16493
911.947	16371
912.062	16356
912.176	16390
912.291	16386
912.405	16470
912.519	16622
912.633	16649
912.748	16474
912.862	16417
912.976	16272
913.09	16238
913.204	16249
913.318	16276
913.431	16398
913.545	16341
913.659	16337
913.772	16284
913.886	15937
914	16059
914.113	16200
914.226	16131
914.34	16173
914.453	15918
914.566	16063
914.68	15991
914.793	15804
914.906	15732
915.019	15675
915.132	15629
915.245	15739
915.358	15682
915.47	15667
915.583	15534
915.696	15686
915.809	15766
915.921	15690
916.034	15557
916.146	15584
916.259	15523
916.371	15526
916.483	15629
916.595	15481
916.708	15435
916.82	15408
916.932	15447
917.044	15370
917.156	15424
917.268	15325
917.38	15310
917.491	15302
917.603	15325
917.715	15397
917.826	15321
917.938	15176
918.049	15135
918.161	15150
918.272	15401
918.384	15363
918.495	15306
918.606	14960
918.717	15036
918.828	14986
918.939	15039
919.05	14971
919.161	15032
919.272	14838
919.383	14918
919.494	15058
919.604	15264
919.715	14990
919.826	14929
919.936	14979
920.047	15138
920.157	15028
920.267	15226
920.378	14948
920.488	14990
920.598	15222
920.708	15230
920.818	15070
920.928	15074
921.038	15184
921.148	15150
921.258	14925
921.368	14876
921.477	14815
921.587	14739
921.697	14549
921.806	14750
921.916	14499
922.025	14385
922.134	14309
922.244	14252
922.353	14328
922.462	14275
922.571	14138
922.68	14084
922.789	13951
922.898	14024
923.007	13913
923.116	13974
923.224	13978
923.333	14001
923.442	13894
923.55	13852
923.659	13871
923.767	13856
923.876	13864
923.984	13769
924.092	13677
924.201	13780
924.309	13704
924.417	13666
924.525	13647
924.633	13666
924.741	14648
924.849	13601
924.956	13590
925.064	13407
925.172	13373
925.279	13453
925.387	13415
925.494	13403
925.602	13434
925.709	13411
925.816	13278
925.924	13327
926.031	13476
926.138	13266
926.245	13365
926.352	13293
926.459	13346
926.566	13354
926.673	13244
926.779	13213
926.886	13171
926.993	12989
927.099	12928
927.206	12920
927.312	12875
927.419	12954
927.525	12852
927.631	12924
927.737	12791
927.843	12817
927.95	12642
928.056	12859
928.162	12722
928.267	12715
928.373	13259
928.479	12859
928.585	12566
928.69	12677
928.796	12753
928.901	12582
929.007	12464
929.112	12597
929.218	12544
929.323	12486
929.428	12536
929.533	12563
929.638	12452
929.743	12429
929.848	12407
929.953	12433
930.058	12315
930.163	12148
930.267	12194
930.372	12262
930.477	12079
930.581	12346
930.685	12247
930.79	11992
930.894	11999
930.998	12007
931.103	12171
931.207	11752
931.311	11741
931.415	11608
931.519	11414
931.623	11356
