Data from test_V78500241_3368.txt Node
Date: Fri Mar 25 15:33:18 CST 2022
User: usil
Spectrometer: V785-0024
Trigger mode: 0
Integration Time (sec): 4.000000E-1
Scans to average: 1
Nonlinearity correction enabled: false
Boxcar width: 0
Storing dark spectrum: false
XAxis mode: Wavelengths
Number of Pixels in Spectrum: 1024
>>>>>Begin Spectral Data<<<<<
801.071	27237
801.214	27192
801.356	26921
801.499	26876
801.641	26648
801.783	26743
801.926	26712
802.068	26826
802.211	26739
802.353	26625
802.496	26423
802.638	26366
802.78	26339
802.923	26298
803.065	26252
803.208	26377
803.35	26309
803.492	26476
803.635	26579
803.777	26473
803.919	26518
804.061	26773
804.204	26735
804.346	26461
804.488	26374
804.63	26442
804.773	26469
804.915	26598
805.057	26625
805.199	26537
805.341	26526
805.483	26648
805.626	26598
805.768	26473
805.91	26648
806.052	26701
806.194	26499
806.336	26762
806.478	26663
806.62	26594
806.762	26644
806.904	26853
807.046	27154
807.188	26994
807.33	26929
807.472	27036
807.614	26998
807.756	26929
807.898	26804
808.04	26792
808.182	26872
808.324	26727
808.465	27013
808.607	27001
808.749	27211
808.891	27272
809.033	27393
809.174	27351
809.316	27085
809.458	27142
809.6	27093
809.741	27245
809.883	27408
810.025	27439
810.166	27447
810.308	27466
810.45	27576
810.591	27401
810.733	27176
810.875	27169
811.016	27096
811.158	27058
811.299	27427
811.441	27370
811.582	27256
811.724	27203
811.865	26990
812.007	27241
812.148	27157
812.29	27222
812.431	27355
812.573	27370
812.714	27660
812.855	27610
812.997	27842
813.138	27956
813.279	27816
813.421	27686
813.562	27701
813.703	27511
813.845	27340
813.986	27173
814.127	26967
814.268	26925
814.41	26830
814.551	26883
814.692	26899
814.833	26804
814.974	26800
815.115	26674
815.256	26705
815.397	26773
815.539	26731
815.68	26640
815.821	26450
815.962	26640
816.103	26526
816.244	26457
816.385	26313
816.526	26286
816.666	26229
816.807	26221
816.948	26100
817.089	26119
817.23	26122
817.371	26206
817.512	26100
817.653	26111
817.793	26092
817.934	26214
818.075	26062
818.216	26240
818.356	25974
818.497	25909
818.638	25868
818.778	25814
818.919	25795
819.06	26016
819.2	25932
819.341	25978
819.481	26005
819.622	26332
819.762	26377
819.903	26324
820.043	26225
820.184	26271
820.324	26092
820.465	26256
820.605	26191
820.746	26263
820.886	26012
821.026	26084
821.167	26138
821.307	26218
821.447	26100
821.588	26039
821.728	25932
821.868	25837
822.008	25635
822.149	25632
822.289	25601
822.429	25327
822.569	25190
822.709	25232
822.849	25069
822.99	25076
823.13	25107
823.27	25034
823.41	24920
823.55	24760
823.69	24970
823.83	24844
823.97	24871
824.11	24650
824.25	24585
824.389	24787
824.529	24757
824.669	24696
824.809	24703
824.949	24734
825.089	24696
825.228	24768
825.368	24555
825.508	24456
825.648	24551
825.787	24589
825.927	24547
826.067	24547
826.206	24502
826.346	24604
826.485	24684
826.625	24544
826.765	24635
826.904	24566
827.044	24399
827.183	24498
827.323	24251
827.462	24273
827.601	24292
827.741	24391
827.88	24213
828.02	24296
828.159	24292
828.298	24251
828.437	24395
828.577	24247
828.716	24346
828.855	24228
828.994	24079
829.134	24041
829.273	24018
829.412	23897
829.551	23988
829.69	24091
829.829	23942
829.968	24003
830.107	24064
830.246	24003
830.385	24022
830.524	24018
830.663	23882
830.802	23699
830.941	23497
831.08	23604
831.219	23710
831.357	23615
831.496	23863
831.635	23619
831.774	23581
831.913	23406
832.051	23387
832.19	23372
832.329	23269
832.467	23311
832.606	23296
832.744	23307
832.883	23318
833.022	23155
833.16	23258
833.299	23231
833.437	23277
833.576	23402
833.714	23410
833.852	23448
833.991	23448
834.129	23490
834.267	23387
834.406	23452
834.544	23383
834.682	23566
834.821	23372
834.959	23364
835.097	23250
835.235	23414
835.373	23307
835.511	23284
835.65	23140
835.788	23200
835.926	23109
836.064	22995
836.202	23003
836.34	23189
836.478	23383
836.615	23143
836.753	23246
836.891	23303
837.029	23337
837.167	23212
837.305	23086
837.443	23223
837.58	23094
837.718	23193
837.856	23132
837.993	22953
838.131	23052
838.269	22957
838.406	23113
838.544	22991
838.681	22702
838.819	22744
838.956	22557
839.094	22607
839.231	22622
839.369	22801
839.506	22847
839.643	22793
839.781	22584
839.918	22535
840.055	22691
840.193	22561
840.33	22493
840.467	22599
840.604	22599
840.742	22721
840.879	22352
841.016	22344
841.153	22375
841.29	22569
841.427	22409
841.564	22557
841.701	22512
841.838	22485
841.975	22466
842.112	22443
842.249	22352
842.385	22333
842.522	22523
842.659	22344
842.796	22211
842.933	22226
843.069	22310
843.206	22268
843.343	22314
843.479	22333
843.616	22211
843.752	22109
843.889	21998
844.025	22158
844.162	21972
844.298	22097
844.435	22044
844.571	22090
844.708	22048
844.844	22169
844.98	22185
845.117	22223
845.253	21994
845.389	21926
845.525	21972
845.661	21964
845.798	21823
845.934	21800
846.07	21800
846.206	21911
846.342	21934
846.478	21724
846.614	21587
846.75	21477
846.886	21595
847.022	21526
847.158	21583
847.294	21523
847.429	21511
847.565	21545
847.701	21755
847.837	21245
847.972	21195
848.108	21504
848.244	21332
848.379	21203
848.515	21169
848.65	21089
848.786	21085
848.921	21192
849.057	21188
849.192	21325
849.328	21173
849.463	21230
849.598	21051
849.734	20975
849.869	21005
850.004	20944
850.14	20868
850.275	20963
850.41	20811
850.545	20777
850.68	20857
850.815	20975
850.95	20906
851.085	21013
851.22	21013
851.355	20819
851.49	20925
851.625	20872
851.76	20864
851.895	20765
852.03	20788
852.165	20830
852.299	20921
852.434	20925
852.569	20918
852.703	20906
852.838	20960
852.973	21043
853.107	20986
853.242	20777
853.376	20689
853.511	20617
853.645	20575
853.78	20830
853.914	20773
854.048	20644
854.183	20609
854.317	20693
854.451	20956
854.585	20693
854.72	20636
854.854	20754
854.988	20594
855.122	20682
855.256	20598
855.39	20693
855.524	20823
855.658	20727
855.792	20765
855.926	20739
856.06	20765
856.194	20773
856.327	20625
856.461	20640
856.595	20682
856.729	20754
856.862	20807
856.996	20754
857.13	20788
857.263	20686
857.397	20807
857.53	20686
857.664	20750
857.797	20746
857.931	20895
858.064	20769
858.197	20773
858.331	20663
858.464	20659
858.597	20579
858.731	20773
858.864	20724
858.997	20762
859.13	20678
859.263	20663
859.396	20708
859.529	20716
859.662	20815
859.795	20686
859.928	20693
860.061	20899
860.194	20868
860.327	20807
860.46	20769
860.592	20887
860.725	20842
860.858	20735
860.99	20693
861.123	20602
861.256	20632
861.388	20701
861.521	21412
861.653	20575
861.786	20552
861.918	20598
862.05	20655
862.183	20556
862.315	20514
862.447	20762
862.58	20613
862.712	20366
862.844	20419
862.976	20518
863.108	20598
863.24	20727
863.372	20423
863.504	20518
863.636	20480
863.768	20469
863.9	20446
864.032	20282
864.164	20332
864.296	20370
864.428	20495
864.559	20503
864.691	20381
864.823	20381
864.954	20450
865.086	20259
865.217	20332
865.349	20225
865.48	20461
865.612	20374
865.743	20571
865.875	20240
866.006	20320
866.137	20271
866.269	20248
866.4	20320
866.531	20199
866.662	20278
866.793	20282
866.924	20275
867.055	20347
867.186	20248
867.317	20191
867.448	20275
867.579	20351
867.71	20305
867.841	20225
867.972	20199
868.103	20168
868.233	20290
868.364	20336
868.495	20324
868.625	20469
868.756	20545
868.886	20408
869.017	20568
869.147	20670
869.278	20587
869.408	20526
869.539	20480
869.669	20564
869.799	20495
869.929	20617
870.06	20530
870.19	20849
870.32	20804
870.45	20952
870.58	20849
870.71	20994
870.84	20986
870.97	20921
871.1	20998
871.23	21062
871.36	21135
871.489	21032
871.619	21013
871.749	21093
871.879	21081
872.008	21218
872.138	21214
872.267	21154
872.397	20960
872.526	21055
872.656	20960
872.785	21081
872.915	21154
873.044	21272
873.173	21123
873.303	21226
873.432	21317
873.561	21256
873.69	21169
873.819	21123
873.948	21241
874.077	21146
874.206	21081
874.335	21192
874.464	21283
874.593	21306
874.722	21386
874.851	21348
874.979	21393
875.108	21496
875.237	21264
875.365	21325
875.494	21313
875.623	21435
875.751	21298
875.88	21344
876.008	21420
876.136	21572
876.265	21644
876.393	21846
876.521	21835
876.65	21873
876.778	21846
876.906	21778
877.034	21762
877.162	21759
877.29	21732
877.418	21759
877.546	21778
877.674	21701
877.802	21595
877.93	21728
878.058	21679
878.185	21564
878.313	21583
878.441	21633
878.568	21652
878.696	21755
878.824	21637
878.951	21800
879.079	21926
879.206	21869
879.333	21899
879.461	21766
879.588	21797
879.715	22006
879.842	22025
879.97	21869
880.097	21603
880.224	21591
880.351	21538
880.478	21618
880.605	21545
880.732	21447
880.859	21732
880.986	21587
881.112	21595
881.239	21332
881.366	21325
881.493	21203
881.619	21104
881.746	21157
881.872	21294
881.999	21089
882.125	21070
882.252	21138
882.378	21104
882.505	21313
882.631	21089
882.757	20921
882.883	20967
883.01	20895
883.136	20800
883.262	20720
883.388	20670
883.514	20819
883.64	20883
883.766	20739
883.892	20545
884.018	20632
884.143	20708
884.269	20944
884.395	20545
884.52	20503
884.646	20606
884.772	20389
884.897	20442
885.023	20514
885.148	20511
885.274	20727
885.399	20632
885.524	20511
885.65	20594
885.775	20594
885.9	20419
886.025	20537
886.15	20518
886.275	20469
886.4	20377
886.525	20412
886.65	20366
886.775	20366
886.9	20552
887.025	20587
887.149	20442
887.274	20362
887.399	20320
887.523	20221
887.648	20244
887.773	20199
887.897	20267
888.021	20271
888.146	20218
888.27	20294
888.395	20400
888.519	20362
888.643	20301
888.767	20309
888.891	20206
889.015	20176
889.139	20149
889.263	20138
889.387	20012
889.511	20119
889.635	20294
889.759	20035
889.883	20065
890.006	20062
890.13	20183
890.254	20046
890.377	20058
890.501	19772
890.624	19822
890.748	19898
890.871	19700
890.995	19685
891.118	19563
891.241	19571
891.364	19582
891.488	19719
891.611	19639
891.734	19563
891.857	19658
891.98	19609
892.103	19681
892.226	19655
892.349	19700
892.471	19597
892.594	19628
892.717	19647
892.839	19472
892.962	19571
893.085	19529
893.207	19559
893.33	19480
893.452	19426
893.575	19582
893.697	19502
893.819	19784
893.941	19761
894.064	19799
894.186	19487
894.308	19518
894.43	19609
894.552	19776
894.674	19651
894.796	19430
894.918	19499
895.04	19460
895.161	19685
895.283	19529
895.405	19441
895.526	19495
895.648	19495
895.769	19586
895.891	19715
896.012	19658
896.134	19605
896.255	19597
896.376	19601
896.498	19639
896.619	19647
896.74	19529
896.861	19632
896.982	19955
897.103	19993
897.224	19860
897.345	19685
897.466	19757
897.587	19784
897.708	19864
897.828	19841
897.949	19670
898.07	19693
898.19	19693
898.311	19841
898.431	19704
898.552	19750
898.672	19799
898.792	19841
898.913	19852
899.033	19571
899.153	19609
899.273	19647
899.393	19544
899.513	19632
899.633	19533
899.753	19487
899.873	19552
899.993	19548
900.113	19483
900.232	19468
900.352	19491
900.472	19453
900.591	19282
900.711	19221
900.83	19369
900.95	19377
901.069	19460
901.189	19221
901.308	18973
901.427	18928
901.546	18909
901.665	19019
901.784	18962
901.904	18890
902.023	18654
902.141	18525
902.26	18388
902.379	18483
902.498	18502
902.617	18350
902.735	18506
902.854	18441
902.973	18357
903.091	18182
903.21	18038
903.328	18186
903.446	18049
903.565	17950
903.683	17897
903.801	17859
903.919	17916
904.038	17912
904.156	17695
904.274	17859
904.392	17729
904.51	17695
904.627	17642
904.745	17805
904.863	17657
904.981	17467
905.098	17353
905.216	17372
905.334	17288
905.451	17387
905.569	17280
905.686	17360
905.803	17307
905.921	17200
906.038	17261
906.155	17162
906.272	17064
906.389	17060
906.506	16984
906.623	17037
906.74	16999
906.857	16790
906.974	16984
907.091	17033
907.208	17022
907.324	16984
907.441	16675
907.557	16729
907.674	16664
907.79	16535
907.907	16580
908.023	16508
908.139	16740
908.256	16694
908.372	16634
908.488	16470
908.604	16371
908.72	16390
908.836	16417
908.952	16306
909.068	16329
909.184	16386
909.3	16386
909.415	16344
909.531	16356
909.647	16166
909.762	16029
909.878	16105
909.993	16059
910.108	16051
910.224	16109
910.339	16112
910.454	16002
910.57	15892
910.685	15854
910.8	16109
910.915	15968
911.03	15838
911.145	15667
911.259	15576
911.374	15728
911.489	15652
911.604	15587
911.718	15408
911.833	15443
911.947	15401
912.062	15264
912.176	15481
912.291	15572
912.405	15431
912.519	15717
912.633	15591
912.748	15443
912.862	15481
912.976	15241
913.09	15256
913.204	15184
913.318	15298
913.431	15272
913.545	15332
913.659	15405
913.772	15233
913.886	15074
914	15051
914.113	15112
914.226	15135
914.34	15108
914.453	14982
914.566	15089
914.68	14864
914.793	14929
914.906	14724
915.019	14575
915.132	14659
915.245	14610
915.358	14765
915.47	14648
915.583	14621
915.696	14701
915.809	14792
915.921	14781
916.034	14655
916.146	14533
916.259	14594
916.371	14659
916.483	14598
916.595	14537
916.708	14526
916.82	14571
916.932	14469
917.044	14347
917.156	14446
917.268	14408
917.38	14465
917.491	14446
917.603	14351
917.715	14408
917.826	14381
917.938	14347
918.049	14229
918.161	14252
918.272	14427
918.384	14362
918.495	14221
918.606	14153
918.717	14123
918.828	14172
918.939	14221
919.05	13989
919.161	14142
919.272	13959
919.383	13951
919.494	14153
919.604	14278
919.715	14065
919.826	14073
919.936	14081
920.047	14130
920.157	14100
920.267	14278
920.378	14157
920.488	14084
920.598	14248
920.708	14381
920.818	14267
920.928	14199
921.038	14423
921.148	14385
921.258	13928
921.368	13940
921.477	13868
921.587	13868
921.697	13594
921.806	13879
921.916	13712
922.025	13613
922.134	13525
922.244	13422
922.353	13449
922.462	13343
922.571	13263
922.68	13126
922.789	13183
922.898	13107
923.007	13084
923.116	13183
923.224	13129
923.333	13023
923.442	12962
923.55	12924
923.659	12966
923.767	13019
923.876	12993
923.984	12905
924.092	12886
924.201	12943
924.309	12909
924.417	12810
924.525	12749
924.633	12798
924.741	13734
924.849	12665
924.956	12760
925.064	12608
925.172	12563
925.279	12555
925.387	12662
925.494	12585
925.602	12658
925.709	12635
925.816	12422
925.924	12475
926.031	12623
926.138	12566
926.245	12544
926.352	12498
926.459	12521
926.566	12578
926.673	12445
926.779	12311
926.886	12338
926.993	12144
927.099	12098
927.206	12136
927.312	12159
927.419	12098
927.525	12121
927.631	12110
927.737	12034
927.843	12003
927.95	11866
928.056	11935
928.162	11988
928.267	12030
928.373	12582
928.479	12106
928.585	11813
928.69	11950
928.796	11973
928.901	11824
929.007	11710
929.112	11859
929.218	11767
929.323	11718
929.428	11733
929.533	11748
929.638	11672
929.743	11665
929.848	11726
929.953	11581
930.058	11581
930.163	11353
930.267	11387
930.372	11512
930.477	11410
930.581	11604
930.685	11421
930.79	11284
930.894	11330
930.998	11334
931.103	11501
931.207	11003
931.311	11018
931.415	10911
931.519	10675
931.623	10736
