Data from test_V78500241_3007.txt Node
Date: Fri Mar 25 15:30:47 CST 2022
User: usil
Spectrometer: V785-0024
Trigger mode: 0
Integration Time (sec): 4.000000E-1
Scans to average: 1
Nonlinearity correction enabled: false
Boxcar width: 0
Storing dark spectrum: false
XAxis mode: Wavelengths
Number of Pixels in Spectrum: 1024
>>>>>Begin Spectral Data<<<<<
801.071	27298
801.214	27188
801.356	26887
801.499	26906
801.641	26861
801.783	26712
801.926	26857
802.068	26796
802.211	26613
802.353	26670
802.496	26526
802.638	26442
802.78	26408
802.923	26465
803.065	26324
803.208	26237
803.35	26427
803.492	26545
803.635	26552
803.777	26423
803.919	26427
804.061	26823
804.204	26518
804.346	26453
804.488	26438
804.63	26663
804.773	26484
804.915	26541
805.057	26617
805.199	26579
805.341	26659
805.483	26826
805.626	26682
805.768	26670
805.91	26716
806.052	26746
806.194	26686
806.336	26609
806.478	26663
806.62	26613
806.762	26807
806.904	26918
807.046	27161
807.188	27214
807.33	27268
807.472	27116
807.614	27028
807.756	27039
807.898	26872
808.04	26853
808.182	26975
808.324	26906
808.465	26975
808.607	27165
808.749	27245
808.891	27233
809.033	27481
809.174	27321
809.316	27211
809.458	27294
809.6	27283
809.741	27313
809.883	27408
810.025	27686
810.166	27462
810.308	27504
810.45	27591
810.591	27378
810.733	27256
810.875	27123
811.016	27093
811.158	27074
811.299	27412
811.441	27401
811.582	27401
811.724	27291
811.865	26967
812.007	27226
812.148	27329
812.29	27294
812.431	27481
812.573	27515
812.714	27637
812.855	27679
812.997	27842
813.138	27953
813.279	28032
813.421	27808
813.562	27701
813.703	27641
813.845	27374
813.986	27154
814.127	26940
814.268	26792
814.41	26979
814.551	26830
814.692	26998
814.833	26811
814.974	26982
815.115	26906
815.256	26849
815.397	26731
815.539	26712
815.68	26640
815.821	26594
815.962	26701
816.103	26663
816.244	26533
816.385	26537
816.526	26442
816.666	26309
816.807	26054
816.948	26157
817.089	26400
817.23	26263
817.371	26206
817.512	26172
817.653	26149
817.793	26054
817.934	26214
818.075	26282
818.216	26221
818.356	26092
818.497	25906
818.638	25925
818.778	25913
818.919	26039
819.06	26027
819.2	26119
819.341	26164
819.481	26164
819.622	26180
819.762	26609
819.903	26328
820.043	26271
820.184	26396
820.324	26244
820.465	26313
820.605	26278
820.746	26267
820.886	26058
821.026	26218
821.167	26103
821.307	26351
821.447	26221
821.588	26073
821.728	25883
821.868	25818
822.008	25628
822.149	25563
822.289	25666
822.429	25346
822.569	25293
822.709	25354
822.849	25107
822.99	25099
823.13	25187
823.27	25053
823.41	24981
823.55	24825
823.69	24951
823.83	24996
823.97	24840
824.11	24703
824.25	24646
824.389	24700
824.529	24795
824.669	24802
824.809	24962
824.949	24741
825.089	24730
825.228	24878
825.368	24696
825.508	24547
825.648	24631
825.787	24566
825.927	24696
826.067	24635
826.206	24593
826.346	24711
826.485	24677
826.625	24620
826.765	24798
826.904	24757
827.044	24372
827.183	24327
827.323	24289
827.462	24467
827.601	24254
827.741	24224
827.88	24342
828.02	24292
828.159	24277
828.298	24327
828.437	24422
828.577	24369
828.716	24388
828.855	24182
828.994	24110
829.134	23996
829.273	24026
829.412	23992
829.551	23977
829.69	24038
829.829	24022
829.968	24049
830.107	24072
830.246	24018
830.385	23916
830.524	23912
830.663	23737
830.802	23691
830.941	23600
831.08	23596
831.219	23657
831.357	23691
831.496	23904
831.635	23596
831.774	23516
831.913	23482
832.051	23326
832.19	23387
832.329	23421
832.467	23299
832.606	23185
832.744	23296
832.883	23185
833.022	23208
833.16	23307
833.299	23299
833.437	23387
833.576	23246
833.714	23311
833.852	23410
833.991	23543
834.129	23372
834.267	23421
834.406	23417
834.544	23326
834.682	23311
834.821	23292
834.959	23436
835.097	23353
835.235	23360
835.373	23330
835.511	23269
835.65	23223
835.788	23280
835.926	23246
836.064	23056
836.202	23029
836.34	23162
836.478	23216
836.615	23174
836.753	23330
836.891	23258
837.029	23151
837.167	23174
837.305	23170
837.443	23018
837.58	22980
837.718	23064
837.856	23006
837.993	23010
838.131	23094
838.269	22850
838.406	22934
838.544	22900
838.681	22725
838.819	22577
838.956	22489
839.094	22527
839.231	22554
839.369	22706
839.506	22869
839.643	22858
839.781	22489
839.918	22443
840.055	22500
840.193	22443
840.33	22493
840.467	22398
840.604	22409
840.742	22687
840.879	22303
841.016	22341
841.153	22291
841.29	22519
841.427	22531
841.564	22318
841.701	22440
841.838	22265
841.975	22329
842.112	22440
842.249	22249
842.385	22287
842.522	22417
842.659	22257
842.796	22249
842.933	22162
843.069	22131
843.206	22070
843.343	22318
843.479	22207
843.616	22173
843.752	22032
843.889	21876
844.025	22070
844.162	21987
844.298	22021
844.435	21854
844.571	21854
844.708	21991
844.844	22173
844.98	22093
845.117	22036
845.253	21945
845.389	21876
845.525	21865
845.661	21911
845.798	21785
845.934	21785
846.07	21736
846.206	21732
846.342	21838
846.478	21606
846.614	21428
846.75	21458
846.886	21450
847.022	21542
847.158	21450
847.294	21557
847.429	21538
847.565	21355
847.701	21663
847.837	21302
847.972	21180
848.108	21256
848.244	21237
848.379	21214
848.515	21039
848.65	20990
848.786	21112
848.921	20975
849.057	21066
849.192	21230
849.328	21184
849.463	21017
849.598	21036
849.734	20906
849.869	20864
850.004	20849
850.14	20937
850.275	20826
850.41	20743
850.545	20720
850.68	20796
850.815	20785
850.95	20724
851.085	20963
851.22	20849
851.355	20826
851.49	20743
851.625	20758
851.76	20891
851.895	20708
852.03	20701
852.165	20743
852.299	20838
852.434	20819
852.569	20788
852.703	20727
852.838	20807
852.973	20956
853.107	21009
853.242	20682
853.376	20594
853.511	20568
853.645	20587
853.78	20769
853.914	20629
854.048	20594
854.183	20648
854.317	20579
854.451	20796
854.585	20609
854.72	20617
854.854	20621
854.988	20579
855.122	20636
855.256	20549
855.39	20796
855.524	20773
855.658	20655
855.792	20587
855.926	20587
856.06	20545
856.194	20743
856.327	20587
856.461	20590
856.595	20549
856.729	20632
856.862	20693
856.996	20583
857.13	20746
857.263	20880
857.397	20670
857.53	20625
857.664	20659
857.797	20746
857.931	20705
858.064	20575
858.197	20720
858.331	20583
858.464	20533
858.597	20590
858.731	20560
858.864	20640
858.997	20602
859.13	20640
859.263	20533
859.396	20663
859.529	20632
859.662	20670
859.795	20552
859.928	20750
860.061	20754
860.194	20788
860.327	20651
860.46	20682
860.592	20811
860.725	20773
860.858	20724
860.99	20644
861.123	20571
861.256	20564
861.388	20602
861.521	21230
861.653	20469
861.786	20446
861.918	20457
862.05	20571
862.183	20606
862.315	20598
862.447	20640
862.58	20602
862.712	20370
862.844	20355
862.976	20473
863.108	20571
863.24	20902
863.372	20161
863.504	20271
863.636	20355
863.768	20309
863.9	20294
864.032	20183
864.164	20282
864.296	20400
864.428	20457
864.559	20298
864.691	20240
864.823	20263
864.954	20347
865.086	20233
865.217	20320
865.349	20142
865.48	20259
865.612	20244
865.743	20473
865.875	20187
866.006	20164
866.137	20290
866.269	20290
866.4	20267
866.531	20164
866.662	20134
866.793	20107
866.924	20180
867.055	20138
867.186	20183
867.317	20100
867.448	20191
867.579	20202
867.71	20122
867.841	20126
867.972	20149
868.103	20183
868.233	20111
868.364	20081
868.495	20290
868.625	20374
868.756	20568
868.886	20298
869.017	20358
869.147	20480
869.278	20533
869.408	20450
869.539	20427
869.669	20469
869.799	20499
869.929	20689
870.06	20594
870.19	20887
870.32	20724
870.45	20826
870.58	20811
870.71	20834
870.84	20880
870.97	20811
871.1	20788
871.23	20971
871.36	21051
871.489	20933
871.619	21013
871.749	21005
871.879	20982
872.008	21249
872.138	21001
872.267	21081
872.397	20933
872.526	20948
872.656	20807
872.785	20872
872.915	21066
873.044	21131
873.173	21074
873.303	20994
873.432	20990
873.561	21051
873.69	21039
873.819	20979
873.948	21184
874.077	21024
874.206	21001
874.335	21005
874.464	21313
874.593	21431
874.722	21313
874.851	21211
874.979	21249
875.108	21256
875.237	21310
875.365	21249
875.494	21233
875.623	21374
875.751	21142
875.88	21382
876.008	21466
876.136	21507
876.265	21538
876.393	21755
876.521	21774
876.65	21823
876.778	21720
876.906	21637
877.034	21564
877.162	21625
877.29	21603
877.418	21705
877.546	21595
877.674	21671
877.802	21622
877.93	21580
878.058	21591
878.185	21492
878.313	21618
878.441	21603
878.568	21443
878.696	21644
878.824	21736
878.951	21625
879.079	21755
879.206	21861
879.333	21800
879.461	21618
879.588	21850
879.715	21827
879.842	21907
879.97	21751
880.097	21450
880.224	21443
880.351	21450
880.478	21572
880.605	21389
880.732	21549
880.859	21648
880.986	21469
881.112	21576
881.239	21344
881.366	21310
881.493	21119
881.619	20906
881.746	20994
881.872	21142
881.999	21093
882.125	21123
882.252	21020
882.378	21058
882.505	21150
882.631	20849
882.757	20842
882.883	20853
883.01	20967
883.136	20697
883.262	20667
883.388	20613
883.514	20689
883.64	20739
883.766	20716
883.892	20408
884.018	20651
884.143	20724
884.269	20693
884.395	20530
884.52	20431
884.646	20355
884.772	20351
884.897	20305
885.023	20374
885.148	20701
885.274	20522
885.399	20499
885.524	20385
885.65	20332
885.775	20571
885.9	20385
886.025	20514
886.15	20442
886.275	20427
886.4	20286
886.525	20377
886.65	20431
886.775	20301
886.9	20583
887.025	20549
887.149	20393
887.274	20233
887.399	20153
887.523	20107
887.648	20191
887.773	20172
887.897	20351
888.021	20225
888.146	20180
888.27	20256
888.395	20278
888.519	20164
888.643	20278
888.767	20275
888.891	20126
889.015	19989
889.139	20031
889.263	19978
889.387	20058
889.511	20172
889.635	20164
889.759	19982
889.883	20054
890.006	19925
890.13	20077
890.254	19967
890.377	19852
890.501	19723
890.624	19772
890.748	19906
890.871	19700
890.995	19419
891.118	19514
891.241	19601
891.364	19575
891.488	19586
891.611	19601
891.734	19567
891.857	19597
891.98	19575
892.103	19525
892.226	19548
892.349	19590
892.471	19324
892.594	19457
892.717	19533
892.839	19510
892.962	19495
893.085	19514
893.207	19487
893.33	19365
893.452	19460
893.575	19563
893.697	19396
893.819	19613
893.941	19681
894.064	19658
894.186	19483
894.308	19483
894.43	19567
894.552	19685
894.674	19590
894.796	19434
894.918	19388
895.04	19430
895.161	19605
895.283	19464
895.405	19384
895.526	19533
895.648	19586
895.769	19552
895.891	19445
896.012	19548
896.134	19468
896.255	19552
896.376	19521
896.498	19464
896.619	19575
896.74	19438
896.861	19563
896.982	19769
897.103	19940
897.224	19750
897.345	19723
897.466	19616
897.587	19734
897.708	19883
897.828	19734
897.949	19723
898.07	19521
898.19	19772
898.311	19906
898.431	19685
898.552	19655
898.672	19704
898.792	19799
898.913	19628
899.033	19567
899.153	19540
899.273	19472
899.393	19502
899.513	19449
899.633	19438
899.753	19605
899.873	19521
899.993	19609
900.113	19441
900.232	19445
900.352	19346
900.472	19381
900.591	19266
900.711	19266
900.83	19194
900.95	19403
901.069	19411
901.189	19004
901.308	18973
901.427	18932
901.546	18882
901.665	18867
901.784	18810
901.904	18749
902.023	18707
902.141	18525
902.26	18410
902.379	18467
902.498	18285
902.617	18334
902.735	18559
902.854	18365
902.973	18243
903.091	18057
903.21	18053
903.328	18057
903.446	18022
903.565	17874
903.683	17935
903.801	17836
903.919	17836
904.038	17760
904.156	17619
904.274	17729
904.392	17695
904.51	17653
904.627	17634
904.745	17676
904.863	17653
904.981	17474
905.098	17250
905.216	17364
905.334	17322
905.451	17349
905.569	17261
905.686	17360
905.803	17299
905.921	17136
906.038	17326
906.155	17147
906.272	17033
906.389	17105
906.506	16866
906.623	16828
906.74	16839
906.857	16687
906.974	16847
907.091	16942
907.208	16965
907.324	16965
907.441	16778
907.557	16649
907.674	16504
907.79	16489
907.907	16607
908.023	16580
908.139	16580
908.256	16550
908.372	16413
908.488	16508
908.604	16386
908.72	16329
908.836	16363
908.952	16268
909.068	16363
909.184	16421
909.3	16284
909.415	16276
909.531	16246
909.647	16105
909.762	15892
909.878	16025
909.993	15991
910.108	16055
910.224	15926
910.339	16017
910.454	15945
910.57	15861
910.685	15755
910.8	16051
910.915	15953
911.03	15789
911.145	15660
911.259	15614
911.374	15603
911.489	15603
911.604	15568
911.718	15275
911.833	15355
911.947	15256
912.062	15279
912.176	15382
912.291	15424
912.405	15355
912.519	15705
912.633	15511
912.748	15424
912.862	15401
912.976	15275
913.09	15123
913.204	15142
913.318	15188
913.431	15283
913.545	15329
913.659	15313
913.772	15161
913.886	14990
914	15036
914.113	15024
914.226	15066
914.34	15070
914.453	14914
914.566	15058
914.68	14933
914.793	14899
914.906	14708
915.019	14590
915.132	14583
915.245	14640
915.358	14625
915.47	14663
915.583	14610
915.696	14644
915.809	14739
915.921	14765
916.034	14579
916.146	14492
916.259	14469
916.371	14560
916.483	14621
916.595	14461
916.708	14423
916.82	14484
916.932	14423
917.044	14385
917.156	14389
917.268	14343
917.38	14423
917.491	14069
917.603	14286
917.715	14408
917.826	14408
917.938	14298
918.049	14172
918.161	14256
918.272	14393
918.384	14381
918.495	14183
918.606	14043
918.717	14027
918.828	14054
918.939	14164
919.05	13982
919.161	14012
919.272	13818
919.383	13898
919.494	14092
919.604	14294
919.715	13997
919.826	13875
919.936	13906
920.047	14092
920.157	14058
920.267	14180
920.378	14081
920.488	14016
920.598	14214
920.708	14282
920.818	14218
920.928	14218
921.038	14275
921.148	14282
921.258	13970
921.368	13814
921.477	13856
921.587	13788
921.697	13666
921.806	13765
921.916	13674
922.025	13559
922.134	13480
922.244	13365
922.353	13457
922.462	13365
922.571	13198
922.68	13164
922.789	13118
922.898	13133
923.007	13034
923.116	13175
923.224	13004
923.333	13053
923.442	12943
923.55	12909
923.659	13015
923.767	13042
923.876	12840
923.984	12871
924.092	12814
924.201	12802
924.309	12894
924.417	12798
924.525	12749
924.633	12833
924.741	13506
924.849	12483
924.956	12711
925.064	12517
925.172	12475
925.279	12475
925.387	12555
925.494	12528
925.602	12555
925.709	12544
925.816	12403
925.924	12513
926.031	12608
926.138	12452
926.245	12395
926.352	12346
926.459	12513
926.566	12589
926.673	12422
926.779	12342
926.886	12319
926.993	12155
927.099	12106
927.206	12064
927.312	12026
927.419	12148
927.525	12095
927.631	12178
927.737	12057
927.843	11973
927.95	11779
928.056	11897
928.162	12011
928.267	11946
928.373	12513
928.479	12057
928.585	11752
928.69	11821
928.796	11954
928.901	11737
929.007	11798
929.112	11710
929.218	11771
929.323	11745
929.428	11695
929.533	11843
929.638	11573
929.743	11703
929.848	11718
929.953	11634
930.058	11478
930.163	11444
930.267	11303
930.372	11433
930.477	11330
930.581	11573
930.685	11486
930.79	11277
930.894	11220
930.998	11208
931.103	11360
931.207	11033
931.311	10919
931.415	10805
931.519	10668
931.623	10607
