Data from test_V78500241_1800.txt Node
Date: Fri Mar 25 15:22:23 CST 2022
User: usil
Spectrometer: V785-0024
Trigger mode: 0
Integration Time (sec): 4.000000E-1
Scans to average: 1
Nonlinearity correction enabled: false
Boxcar width: 0
Storing dark spectrum: false
XAxis mode: Wavelengths
Number of Pixels in Spectrum: 1024
>>>>>Begin Spectral Data<<<<<
801.071	27960
801.214	27713
801.356	27652
801.499	27427
801.641	27405
801.783	27435
801.926	27469
802.068	27329
802.211	27287
802.353	27230
802.496	27096
802.638	27169
802.78	27070
802.923	26906
803.065	26990
803.208	26933
803.35	27020
803.492	27077
803.635	27306
803.777	27188
803.919	27203
804.061	27408
804.204	27245
804.346	27279
804.488	27233
804.63	27397
804.773	27264
804.915	27192
805.057	27348
805.199	27154
805.341	27302
805.483	27363
805.626	27534
805.768	27287
805.91	27294
806.052	27287
806.194	27199
806.336	27641
806.478	27192
806.62	27389
806.762	27481
806.904	27610
807.046	27914
807.188	27895
807.33	27690
807.472	27880
807.614	27686
807.756	27793
807.898	27808
808.04	27515
808.182	27488
808.324	27690
808.465	27732
808.607	27861
808.749	27953
808.891	28055
809.033	28109
809.174	27918
809.316	27972
809.458	27964
809.6	27899
809.741	28139
809.883	28204
810.025	28196
810.166	28226
810.308	28215
810.45	28276
810.591	28150
810.733	27968
810.875	28101
811.016	27804
811.158	27682
811.299	27914
811.441	28116
811.582	28150
811.724	27945
811.865	27930
812.007	27972
812.148	28032
812.29	28010
812.431	28112
812.573	28276
812.714	28401
812.855	28379
812.997	28481
813.138	28706
813.279	28497
813.421	28500
813.562	28432
813.703	28280
813.845	28128
813.986	27941
814.127	27751
814.268	27808
814.41	27644
814.551	27652
814.692	27732
814.833	27690
814.974	27724
815.115	27675
815.256	27603
815.397	27564
815.539	27408
815.68	27443
815.821	27443
815.962	27332
816.103	27488
816.244	27367
816.385	27363
816.526	27154
816.666	26944
816.807	26914
816.948	27013
817.089	27108
817.23	26963
817.371	26944
817.512	26937
817.653	26925
817.793	26899
817.934	26963
818.075	26902
818.216	26956
818.356	26906
818.497	26891
818.638	26769
818.778	26777
818.919	26727
819.06	26811
819.2	26769
819.341	26921
819.481	26982
819.622	27017
819.762	27359
819.903	27291
820.043	27074
820.184	27032
820.324	27074
820.465	27085
820.605	27055
820.746	27226
820.886	26979
821.026	27173
821.167	26967
821.307	27138
821.447	26998
821.588	26940
821.728	26849
821.868	26602
822.008	26583
822.149	26446
822.289	26499
822.429	26199
822.569	26180
822.709	26164
822.849	25883
822.99	26031
823.13	25993
823.27	25982
823.41	25917
823.55	25822
823.69	25894
823.83	25841
823.97	25605
824.11	25491
824.25	25597
824.389	25559
824.529	25563
824.669	25734
824.809	25624
824.949	25662
825.089	25677
825.228	25597
825.368	25616
825.508	25521
825.648	25415
825.787	25521
825.927	25605
826.067	25392
826.206	25384
826.346	25540
826.485	25552
826.625	25457
826.765	25510
826.904	25559
827.044	25304
827.183	25343
827.323	25209
827.462	25285
827.601	25354
827.741	25179
827.88	25145
828.02	25148
828.159	25316
828.298	25278
828.437	25259
828.577	25019
828.716	25270
828.855	25080
828.994	24852
829.134	24909
829.273	24829
829.412	24825
829.551	24833
829.69	24875
829.829	24935
829.968	24962
830.107	24977
830.246	25019
830.385	24970
830.524	24806
830.663	24703
830.802	24692
830.941	24452
831.08	24566
831.219	24612
831.357	24661
831.496	24802
831.635	24494
831.774	24372
831.913	24372
832.051	24372
832.19	24254
832.329	24281
832.467	24152
832.606	24205
832.744	24201
832.883	24079
833.022	24190
833.16	24235
833.299	24353
833.437	24270
833.576	24205
833.714	24323
833.852	24330
833.991	24357
834.129	24376
834.267	24213
834.406	24376
834.544	24243
834.682	24201
834.821	24022
834.959	24395
835.097	24266
835.235	24327
835.373	24342
835.511	24281
835.65	24057
835.788	24228
835.926	23904
836.064	23882
836.202	23927
836.34	24155
836.478	24163
836.615	23954
836.753	24129
836.891	24129
837.029	24076
837.167	24148
837.305	24045
837.443	24091
837.58	24076
837.718	23958
837.856	23901
837.993	23847
838.131	24049
838.269	23935
838.406	23790
838.544	23794
838.681	23577
838.819	23638
838.956	23360
839.094	23436
839.231	23334
839.369	23623
839.506	23878
839.643	23703
839.781	23463
839.918	23421
840.055	23391
840.193	23433
840.33	23425
840.467	23379
840.604	23459
840.742	23756
840.879	23170
841.016	23349
841.153	23223
841.29	23414
841.427	23398
841.564	23349
841.701	23318
841.838	23280
841.975	23155
842.112	23246
842.249	23136
842.385	23090
842.522	23212
842.659	23185
842.796	23041
842.933	23109
843.069	23075
843.206	23151
843.343	23109
843.479	23220
843.616	23121
843.752	22972
843.889	22850
844.025	23128
844.162	22900
844.298	23048
844.435	22961
844.571	23018
844.708	22869
844.844	22987
844.98	22957
845.117	22968
845.253	22915
845.389	22771
845.525	22755
845.661	22759
845.798	22607
845.934	22721
846.07	22622
846.206	22656
846.342	22740
846.478	22641
846.614	22542
846.75	22310
846.886	22306
847.022	22398
847.158	22379
847.294	22405
847.429	22440
847.565	22299
847.701	22542
847.837	22105
847.972	22097
848.108	22196
848.244	22166
848.379	22021
848.515	21934
848.65	21918
848.786	21854
848.921	22021
849.057	22078
849.192	22048
849.328	21941
849.463	22059
849.598	21816
849.734	21827
849.869	21789
850.004	21660
850.14	21785
850.275	21766
850.41	21728
850.545	21656
850.68	21717
850.815	21739
850.95	21591
851.085	21915
851.22	21751
851.355	21724
851.49	21660
851.625	21701
851.76	21622
851.895	21610
852.03	21625
852.165	21595
852.299	21739
852.434	21778
852.569	21774
852.703	21637
852.838	21759
852.973	21895
853.107	21778
853.242	21511
853.376	21500
853.511	21450
853.645	21553
853.78	21591
853.914	21538
854.048	21564
854.183	21496
854.317	21511
854.451	21652
854.585	21488
854.72	21580
854.854	21530
854.988	21382
855.122	21523
855.256	21557
855.39	21447
855.524	21553
855.658	21618
855.792	21583
855.926	21530
856.06	21660
856.194	21580
856.327	21534
856.461	21473
856.595	21561
856.729	21424
856.862	21534
856.996	21580
857.13	21568
857.263	21663
857.397	21618
857.53	21519
857.664	21519
857.797	21641
857.931	21667
858.064	21542
858.197	21561
858.331	21591
858.464	21378
858.597	21431
858.731	21435
858.864	21435
858.997	21477
859.13	21420
859.263	21424
859.396	21526
859.529	21462
859.662	21523
859.795	21462
859.928	21698
860.061	21675
860.194	21751
860.327	21633
860.46	21572
860.592	21633
860.725	21785
860.858	21614
860.99	21526
861.123	21454
861.256	21523
861.388	21667
861.521	22124
861.653	21389
861.786	21378
861.918	21351
862.05	21359
862.183	21519
862.315	21408
862.447	21583
862.58	21401
862.712	21127
862.844	21241
862.976	21245
863.108	21325
863.24	21625
863.372	21218
863.504	21230
863.636	21157
863.768	21260
863.9	21161
864.032	21119
864.164	21287
864.296	21283
864.428	21336
864.559	21184
864.691	21306
864.823	21306
864.954	21195
865.086	21112
865.217	21207
865.349	20986
865.48	21081
865.612	21138
865.743	21454
865.875	21135
866.006	21119
866.137	21127
866.269	21093
866.4	21116
866.531	21047
866.662	20956
866.793	21074
866.924	21123
867.055	21051
867.186	20933
867.317	21020
867.448	21058
867.579	20986
867.71	20937
867.841	20971
867.972	21062
868.103	21017
868.233	21009
868.364	21051
868.495	21233
868.625	21233
868.756	21500
868.886	21192
869.017	21241
869.147	21408
869.278	21397
869.408	21351
869.539	21374
869.669	21363
869.799	21397
869.929	21424
870.06	21439
870.19	21583
870.32	21568
870.45	21564
870.58	21641
870.71	21766
870.84	21850
870.97	21701
871.1	21614
871.23	21865
871.36	21941
871.489	21880
871.619	21865
871.749	21808
871.879	21911
872.008	22029
872.138	21781
872.267	21835
872.397	21831
872.526	21755
872.656	21762
872.785	21785
872.915	21960
873.044	21998
873.173	21934
873.303	21975
873.432	21956
873.561	22181
873.69	21964
873.819	21968
873.948	21888
874.077	22059
874.206	21846
874.335	21899
874.464	22010
874.593	22181
874.722	22200
874.851	22051
874.979	22143
875.108	22211
875.237	22093
875.365	22067
875.494	22090
875.623	22147
875.751	22040
875.88	22074
876.008	22131
876.136	22325
876.265	22527
876.393	22641
876.521	22478
876.65	22432
876.778	22660
876.906	22531
877.034	22409
877.162	22417
877.29	22417
877.418	22493
877.546	22466
877.674	22417
877.802	22474
877.93	22519
878.058	22402
878.185	22329
878.313	22409
878.441	22531
878.568	22284
878.696	22417
878.824	22592
878.951	22592
879.079	22622
879.206	22869
879.333	22706
879.461	22417
879.588	22577
879.715	22691
879.842	22736
879.97	22470
880.097	22371
880.224	22367
880.351	22356
880.478	22325
880.605	22299
880.732	22169
880.859	22618
880.986	22253
881.112	22341
881.239	22234
881.366	21983
881.493	21812
881.619	21827
881.746	21857
881.872	21880
881.999	21861
882.125	21816
882.252	21819
882.378	21953
882.505	22051
882.631	21797
882.757	21679
882.883	21717
883.01	21618
883.136	21526
883.262	21408
883.388	21348
883.514	21625
883.64	21732
883.766	21660
883.892	21321
884.018	21355
884.143	21549
884.269	21603
884.395	21291
884.52	21226
884.646	21279
884.772	21089
884.897	21180
885.023	21329
885.148	21264
885.274	21367
885.399	21378
885.524	21237
885.65	21226
885.775	21298
885.9	21256
886.025	21329
886.15	21272
886.275	21192
886.4	21100
886.525	21203
886.65	21058
886.775	21146
886.9	21214
887.025	21332
887.149	21165
887.274	20967
887.399	20944
887.523	20960
887.648	20918
887.773	20891
887.897	20967
888.021	20963
888.146	20956
888.27	21028
888.395	21001
888.519	20994
888.643	20918
888.767	20906
888.891	20883
889.015	20796
889.139	20845
889.263	20735
889.387	20785
889.511	21062
889.635	20929
889.759	20731
889.883	20727
890.006	20785
890.13	20960
890.254	20670
890.377	20686
890.501	20465
890.624	20450
890.748	20655
890.871	20415
890.995	20237
891.118	20233
891.241	20381
891.364	20309
891.488	20362
891.611	20355
891.734	20328
891.857	20351
891.98	20275
892.103	20393
892.226	20366
892.349	20320
892.471	20183
892.594	20180
892.717	20320
892.839	20263
892.962	20221
893.085	20355
893.207	20256
893.33	20206
893.452	20092
893.575	20320
893.697	20214
893.819	20393
893.941	20343
894.064	20400
894.186	20278
894.308	20225
894.43	20301
894.552	20408
894.674	20355
894.796	20020
894.918	20294
895.04	20233
895.161	20290
895.283	20385
895.405	20119
895.526	20191
895.648	20183
895.769	20218
895.891	20294
896.012	20336
896.134	20275
896.255	20233
896.376	20183
896.498	20157
896.619	20149
896.74	20187
896.861	20267
896.982	20571
897.103	20644
897.224	20408
897.345	20434
897.466	20343
897.587	20419
897.708	20514
897.828	20492
897.949	20480
898.07	20294
898.19	20423
898.311	20564
898.431	20438
898.552	20442
898.672	20499
898.792	20541
898.913	20431
899.033	20275
899.153	20256
899.273	20088
899.393	20195
899.513	20221
899.633	20252
899.753	20180
899.873	20107
899.993	20256
900.113	20111
900.232	20096
900.352	20176
900.472	20043
900.591	19871
900.711	19856
900.83	19753
900.95	20027
901.069	20084
901.189	19788
901.308	19655
901.427	19582
901.546	19567
901.665	19597
901.784	19578
901.904	19449
902.023	19308
902.141	19145
902.26	19114
902.379	19061
902.498	19179
902.617	19031
902.735	19137
902.854	18909
902.973	18943
903.091	18798
903.21	18650
903.328	18734
903.446	18654
903.565	18532
903.683	18589
903.801	18403
903.919	18467
904.038	18486
904.156	18330
904.274	18388
904.392	18209
904.51	18330
904.627	18190
904.745	18422
904.863	18205
904.981	18060
905.098	18007
905.216	17946
905.334	18049
905.451	17999
905.569	17874
905.686	18034
905.803	17954
905.921	17752
906.038	17760
906.155	17764
906.272	17581
906.389	17570
906.506	17512
906.623	17512
906.74	17528
906.857	17467
906.974	17444
907.091	17581
907.208	17570
907.324	17471
907.441	17307
907.557	17284
907.674	17303
907.79	17124
907.907	17204
908.023	17246
908.139	17258
908.256	17037
908.372	17147
908.488	17109
908.604	16957
908.72	16953
908.836	16930
908.952	16877
909.068	16965
909.184	16976
909.3	17029
909.415	16995
909.531	16839
909.647	16752
909.762	16580
909.878	16599
909.993	16618
910.108	16630
910.224	16584
910.339	16569
910.454	16485
910.57	16516
910.685	16402
910.8	16584
910.915	16603
911.03	16512
911.145	16295
911.259	16303
911.374	16196
911.489	16207
911.604	16158
911.718	15979
911.833	16017
911.947	15819
912.062	15827
912.176	15869
912.291	15934
912.405	16021
912.519	16093
912.633	16169
912.748	15991
912.862	16040
912.976	15739
913.09	15671
913.204	15823
913.318	15850
913.431	15892
913.545	15823
913.659	15926
913.772	15724
913.886	15667
914	15500
914.113	15778
914.226	15804
914.34	15610
914.453	15481
914.566	15564
914.68	15447
914.793	15336
914.906	15378
915.019	15294
915.132	15199
915.245	15188
915.358	15252
915.47	15226
915.583	15165
915.696	15192
915.809	15272
915.921	15325
916.034	15161
916.146	15112
916.259	15173
916.371	15127
916.483	15150
916.595	15020
916.708	15020
916.82	15017
916.932	15039
917.044	14883
917.156	14937
917.268	14819
917.38	14861
917.491	14788
917.603	14826
917.715	14887
917.826	14906
917.938	14849
918.049	14651
918.161	14880
918.272	14876
918.384	14842
918.495	14781
918.606	14552
918.717	14606
918.828	14587
918.939	14625
919.05	14454
919.161	14579
919.272	14415
919.383	14533
919.494	14545
919.604	14720
919.715	14541
919.826	14461
919.936	14560
920.047	14583
920.157	14571
920.267	14781
920.378	14518
920.488	14526
920.598	14682
920.708	14891
920.818	14773
920.928	14716
921.038	14883
921.148	14819
921.258	14545
921.368	14366
921.477	14301
921.587	14301
921.697	14240
921.806	14286
921.916	14172
922.025	13909
922.134	13951
922.244	13906
922.353	14020
922.462	13791
922.571	13693
922.68	13613
922.789	13624
922.898	13616
923.007	13487
923.116	13613
923.224	13628
923.333	13594
923.442	13419
923.55	13430
923.659	13403
923.767	13487
923.876	13354
923.984	13529
924.092	13339
924.201	13320
924.309	13373
924.417	13206
924.525	13198
924.633	13183
924.741	14088
924.849	13053
924.956	13228
925.064	13038
925.172	12890
925.279	12966
925.387	12966
925.494	12985
925.602	13213
925.709	13053
925.816	12817
925.924	12981
926.031	13050
926.138	12844
926.245	12909
926.352	12863
926.459	12989
926.566	12954
926.673	12852
926.779	12734
926.886	12741
926.993	12555
927.099	12490
927.206	12410
927.312	12517
927.419	12551
927.525	12525
927.631	12631
927.737	12502
927.843	12372
927.95	12353
928.056	12414
928.162	12407
928.267	12391
928.373	12943
928.479	12365
928.585	12235
928.69	12315
928.796	12353
928.901	12254
929.007	12106
929.112	12201
929.218	12136
929.323	12060
929.428	12079
929.533	12209
929.638	11965
929.743	12121
929.848	12155
929.953	12038
930.058	11950
930.163	11821
930.267	11798
930.372	11939
930.477	11748
930.581	11992
930.685	11870
930.79	11672
930.894	11707
930.998	11562
931.103	11771
931.207	11474
931.311	11425
931.415	11269
931.519	11014
931.623	11079
