Data from test_V78500241_3454.txt Node
Date: Fri Mar 25 15:33:54 CST 2022
User: usil
Spectrometer: V785-0024
Trigger mode: 0
Integration Time (sec): 4.000000E-1
Scans to average: 1
Nonlinearity correction enabled: false
Boxcar width: 0
Storing dark spectrum: false
XAxis mode: Wavelengths
Number of Pixels in Spectrum: 1024
>>>>>Begin Spectral Data<<<<<
801.071	27374
801.214	27173
801.356	26921
801.499	26963
801.641	26629
801.783	26773
801.926	26883
802.068	26811
802.211	26899
802.353	26739
802.496	26530
802.638	26514
802.78	26328
802.923	26343
803.065	26389
803.208	26412
803.35	26393
803.492	26663
803.635	26708
803.777	26492
803.919	26545
804.061	26986
804.204	26743
804.346	26556
804.488	26434
804.63	26648
804.773	26621
804.915	26659
805.057	26655
805.199	26499
805.341	26617
805.483	26716
805.626	26606
805.768	26545
805.91	26708
806.052	26788
806.194	26590
806.336	26960
806.478	26724
806.62	26708
806.762	26773
806.904	27001
807.046	27093
807.188	27165
807.33	27203
807.472	27150
807.614	27104
807.756	27089
807.898	26979
808.04	27020
808.182	26853
808.324	27009
808.465	26975
808.607	27112
808.749	27245
808.891	27294
809.033	27439
809.174	27496
809.316	27207
809.458	27237
809.6	27336
809.741	27393
809.883	27317
810.025	27477
810.166	27701
810.308	27644
810.45	27587
810.591	27473
810.733	27211
810.875	27291
811.016	27085
811.158	27268
811.299	27359
811.441	27515
811.582	27481
811.724	27389
811.865	27211
812.007	27233
812.148	27306
812.29	27355
812.431	27329
812.573	27671
812.714	27591
812.855	27876
812.997	27937
813.138	27960
813.279	27960
813.421	27717
813.562	27781
813.703	27473
813.845	27454
813.986	27165
814.127	27100
814.268	27036
814.41	26842
814.551	27020
814.692	27055
814.833	26883
814.974	27001
815.115	26918
815.256	26853
815.397	26739
815.539	26765
815.68	26796
815.821	26533
815.962	26849
816.103	26682
816.244	26590
816.385	26549
816.526	26362
816.666	26309
816.807	26183
816.948	26202
817.089	26434
817.23	26328
817.371	26229
817.512	26058
817.653	26237
817.793	26126
817.934	26092
818.075	26305
818.216	26157
818.356	26187
818.497	26145
818.638	25947
818.778	25913
818.919	26058
819.06	26043
819.2	26073
819.341	26229
819.481	26111
819.622	26358
819.762	26533
819.903	26480
820.043	26385
820.184	26252
820.324	26332
820.465	26351
820.605	26332
820.746	26290
820.886	26115
821.026	26298
821.167	26271
821.307	26271
821.447	26191
821.588	26172
821.728	26039
821.868	25769
822.008	25799
822.149	25651
822.289	25674
822.429	25476
822.569	25343
822.709	25217
822.849	25061
822.99	25152
823.13	25194
823.27	25160
823.41	24992
823.55	24916
823.69	24977
823.83	25103
823.97	24783
824.11	24703
824.25	24715
824.389	24840
824.529	24859
824.669	24757
824.809	24951
824.949	24939
825.089	24779
825.228	24700
825.368	24700
825.508	24768
825.648	24578
825.787	24768
825.927	24757
826.067	24650
826.206	24639
826.346	24696
826.485	24654
826.625	24620
826.765	24821
826.904	24700
827.044	24494
827.183	24460
827.323	24433
827.462	24544
827.601	24418
827.741	24395
827.88	24429
828.02	24235
828.159	24395
828.298	24418
828.437	24429
828.577	24334
828.716	24593
828.855	24292
828.994	24034
829.134	24045
829.273	24220
829.412	24224
829.551	24015
829.69	24228
829.829	24163
829.968	24224
830.107	24232
830.246	24087
830.385	23996
830.524	24125
830.663	24018
830.802	23969
830.941	23756
831.08	23851
831.219	23843
831.357	23908
831.496	24034
831.635	23710
831.774	23707
831.913	23668
832.051	23505
832.19	23592
832.329	23505
832.467	23436
832.606	23307
832.744	23376
832.883	23497
833.022	23383
833.16	23566
833.299	23493
833.437	23395
833.576	23562
833.714	23471
833.852	23573
833.991	23627
834.129	23547
834.267	23524
834.406	23531
834.544	23417
834.682	23505
834.821	23429
834.959	23600
835.097	23455
835.235	23528
835.373	23440
835.511	23539
835.65	23520
835.788	23337
835.926	23212
836.064	23197
836.202	23258
836.34	23299
836.478	23410
836.615	23433
836.753	23307
836.891	23421
837.029	23459
837.167	23307
837.305	23292
837.443	23147
837.58	23124
837.718	23242
837.856	23326
837.993	23189
838.131	23162
838.269	23033
838.406	23071
838.544	23044
838.681	22961
838.819	22885
838.956	22694
839.094	22618
839.231	22755
839.369	22965
839.506	23147
839.643	22904
839.781	22713
839.918	22603
840.055	22736
840.193	22702
840.33	22656
840.467	22672
840.604	22679
840.742	22782
840.879	22352
841.016	22542
841.153	22466
841.29	22675
841.427	22542
841.564	22607
841.701	22588
841.838	22596
841.975	22485
842.112	22489
842.249	22497
842.385	22363
842.522	22481
842.659	22504
842.796	22421
842.933	22344
843.069	22356
843.206	22276
843.343	22478
843.479	22348
843.616	22402
843.752	22124
843.889	22120
844.025	22249
844.162	22013
844.298	22196
844.435	22249
844.571	22166
844.708	22223
844.844	22131
844.98	22265
845.117	22291
845.253	22082
845.389	22025
845.525	22040
845.661	22048
845.798	21918
845.934	21991
846.07	21892
846.206	21968
846.342	22025
846.478	21835
846.614	21606
846.75	21595
846.886	21667
847.022	21762
847.158	21720
847.294	21652
847.429	21625
847.565	21739
847.701	21838
847.837	21382
847.972	21329
848.108	21424
848.244	21359
848.379	21272
848.515	21230
848.65	21211
848.786	21233
848.921	21203
849.057	21252
849.192	21310
849.328	21317
849.463	21207
849.598	21165
849.734	21165
849.869	21096
850.004	21024
850.14	21077
850.275	21009
850.41	20921
850.545	21005
850.68	20998
850.815	21020
850.95	20899
851.085	21165
851.22	21024
851.355	21039
851.49	20876
851.625	21001
851.76	21032
851.895	20880
852.03	20872
852.165	20998
852.299	20982
852.434	20990
852.569	20910
852.703	20975
852.838	20967
852.973	21104
853.107	21013
853.242	20982
853.376	20918
853.511	20720
853.645	20762
853.78	21005
853.914	20899
854.048	20830
854.183	20731
854.317	20861
854.451	21009
854.585	20804
854.72	20861
854.854	20743
854.988	20705
855.122	20929
855.256	20708
855.39	20762
855.524	20819
855.658	20769
855.792	20746
855.926	20807
856.06	20765
856.194	20921
856.327	20746
856.461	20735
856.595	20754
856.729	20773
856.862	20952
856.996	20883
857.13	20937
857.263	20876
857.397	20929
857.53	20781
857.664	20861
857.797	20868
857.931	20998
858.064	20807
858.197	20952
858.331	20811
858.464	20705
858.597	20632
858.731	20720
858.864	20807
858.997	20796
859.13	20727
859.263	20800
859.396	20861
859.529	20773
859.662	20823
859.795	20796
859.928	20754
860.061	20735
860.194	20952
860.327	20864
860.46	20765
860.592	20971
860.725	20914
860.858	20960
860.99	20899
861.123	20800
861.256	20788
861.388	20731
861.521	21542
861.653	20632
861.786	20503
861.918	20636
862.05	20682
862.183	20670
862.315	20659
862.447	20792
862.58	20735
862.712	20629
862.844	20530
862.976	20579
863.108	20667
863.24	21005
863.372	20545
863.504	20541
863.636	20419
863.768	20594
863.9	20419
864.032	20469
864.164	20434
864.296	20381
864.428	20640
864.559	20541
864.691	20568
864.823	20625
864.954	20393
865.086	20537
865.217	20507
865.349	20362
865.48	20377
865.612	20419
865.743	20514
865.875	20313
866.006	20408
866.137	20423
866.269	20480
866.4	20412
866.531	20339
866.662	20431
866.793	20377
866.924	20450
867.055	20454
867.186	20358
867.317	20237
867.448	20081
867.579	20290
867.71	20423
867.841	20275
867.972	20374
868.103	20240
868.233	20370
868.364	20438
868.495	20358
868.625	20526
868.756	20739
868.886	20636
869.017	20678
869.147	20693
869.278	20716
869.408	20617
869.539	20640
869.669	20629
869.799	20583
869.929	20796
870.06	20693
870.19	20956
870.32	20982
870.45	20941
870.58	21005
870.71	20979
870.84	20979
870.97	21005
871.1	21009
871.23	21192
871.36	21313
871.489	21135
871.619	21169
871.749	21161
871.879	21386
872.008	21313
872.138	21211
872.267	21245
872.397	21066
872.526	21013
872.656	20956
872.785	21096
872.915	21272
873.044	21294
873.173	21176
873.303	21256
873.432	21287
873.561	21355
873.69	21310
873.819	21173
873.948	21241
874.077	21275
874.206	21112
874.335	21317
874.464	21351
874.593	21435
874.722	21355
874.851	21458
874.979	21545
875.108	21443
875.237	21348
875.365	21492
875.494	21393
875.623	21580
875.751	21504
875.88	21424
876.008	21709
876.136	21629
876.265	21865
876.393	22067
876.521	21903
876.65	21991
876.778	21869
876.906	21835
877.034	21812
877.162	21778
877.29	21797
877.418	21907
877.546	21816
877.674	21934
877.802	21911
877.93	21838
878.058	21747
878.185	21663
878.313	21892
878.441	21831
878.568	21587
878.696	21641
878.824	21835
878.951	21991
879.079	21994
879.206	22147
879.333	21994
879.461	21876
879.588	21747
879.715	22013
879.842	22067
879.97	21934
880.097	21709
880.224	21629
880.351	21785
880.478	21701
880.605	21698
880.732	21717
880.859	21827
880.986	21728
881.112	21583
881.239	21507
881.366	21340
881.493	21279
881.619	21214
881.746	21131
881.872	21150
881.999	21226
882.125	21154
882.252	21150
882.378	21298
882.505	21233
882.631	21013
882.757	21036
882.883	20990
883.01	20979
883.136	20918
883.262	20842
883.388	20796
883.514	20979
883.64	20941
883.766	20941
883.892	20746
884.018	20716
884.143	20944
884.269	21062
884.395	20686
884.52	20469
884.646	20568
884.772	20541
884.897	20427
885.023	20522
885.148	20769
885.274	20743
885.399	20621
885.524	20549
885.65	20708
885.775	20583
885.9	20602
886.025	20644
886.15	20594
886.275	20594
886.4	20476
886.525	20530
886.65	20457
886.775	20511
886.9	20621
887.025	20750
887.149	20598
887.274	20431
887.399	20324
887.523	20396
887.648	20370
887.773	20278
887.897	20457
888.021	20385
888.146	20404
888.27	20537
888.395	20450
888.519	20282
888.643	20381
888.767	20438
888.891	20301
889.015	20134
889.139	20256
889.263	20202
889.387	20206
889.511	20218
889.635	20298
889.759	20210
889.883	20035
890.006	20168
890.13	20278
890.254	20069
890.377	20039
890.501	19913
890.624	19860
890.748	19928
890.871	19898
890.995	19685
891.118	19616
891.241	19940
891.364	19731
891.488	19788
891.611	19696
891.734	19750
891.857	19803
891.98	19791
892.103	19772
892.226	19761
892.349	19746
892.471	19548
892.594	19761
892.717	19597
892.839	19674
892.962	19689
893.085	19772
893.207	19651
893.33	19609
893.452	19563
893.575	19746
893.697	19590
893.819	19750
893.941	19909
894.064	19849
894.186	19575
894.308	19605
894.43	19757
894.552	19803
894.674	19780
894.796	19476
894.918	19674
895.04	19559
895.161	19696
895.283	19677
895.405	19495
895.526	19712
895.648	19556
895.769	19609
895.891	19731
896.012	19753
896.134	19731
896.255	19635
896.376	19685
896.498	19571
896.619	19609
896.74	19681
896.861	19719
896.982	19925
897.103	20149
897.224	19875
897.345	19902
897.466	19776
897.587	19921
897.708	20077
897.828	19986
897.949	19928
898.07	19780
898.19	19894
898.311	19970
898.431	19708
898.552	19890
898.672	19967
898.792	19997
898.913	19830
899.033	19738
899.153	19696
899.273	19552
899.393	19632
899.513	19620
899.633	19753
899.753	19639
899.873	19537
899.993	19578
900.113	19628
900.232	19567
900.352	19491
900.472	19567
900.591	19369
900.711	19365
900.83	19354
900.95	19594
901.069	19510
901.189	19343
901.308	19160
901.427	19072
901.546	18856
901.665	19050
901.784	19034
901.904	18821
902.023	18878
902.141	18555
902.26	18506
902.379	18612
902.498	18475
902.617	18460
902.735	18601
902.854	18506
902.973	18365
903.091	18308
903.21	18251
903.328	18254
903.446	18110
903.565	17999
903.683	18003
903.801	17874
903.919	17927
904.038	17916
904.156	17882
904.274	17923
904.392	17718
904.51	17828
904.627	17741
904.745	17874
904.863	17836
904.981	17497
905.098	17448
905.216	17490
905.334	17482
905.451	17387
905.569	17398
905.686	17516
905.803	17532
905.921	17250
906.038	17417
906.155	17307
906.272	17121
906.389	17273
906.506	16968
906.623	17056
906.74	17052
906.857	16938
906.974	16904
907.091	17109
907.208	17109
907.324	17048
907.441	16911
907.557	16828
907.674	16660
907.79	16592
907.907	16618
908.023	16710
908.139	16664
908.256	16793
908.372	16622
908.488	16493
908.604	16459
908.72	16402
908.836	16485
908.952	16379
909.068	16527
909.184	16584
909.3	16466
909.415	16508
909.531	16421
909.647	16207
909.762	16185
909.878	16143
909.993	16109
910.108	16093
910.224	16078
910.339	16173
910.454	16044
910.57	16116
910.685	15865
910.8	16268
910.915	16055
911.03	15968
911.145	15766
911.259	15819
911.374	15819
911.489	15724
911.604	15599
911.718	15519
911.833	15504
911.947	15534
912.062	15389
912.176	15507
912.291	15496
912.405	15443
912.519	15637
912.633	15682
912.748	15564
912.862	15496
912.976	15393
913.09	15279
913.204	15306
913.318	15268
913.431	15370
913.545	15416
913.659	15473
913.772	15222
913.886	15119
914	15184
914.113	15256
914.226	15291
914.34	15077
914.453	15051
914.566	15218
914.68	14994
914.793	15032
914.906	14880
915.019	14834
915.132	14571
915.245	14568
915.358	14842
915.47	14811
915.583	14765
915.696	14815
915.809	14861
915.921	14845
916.034	14644
916.146	14663
916.259	14716
916.371	14708
916.483	14731
916.595	14644
916.708	14617
916.82	14583
916.932	14575
917.044	14564
917.156	14396
917.268	14442
917.38	14446
917.491	14400
917.603	14476
917.715	14533
917.826	14469
917.938	14393
918.049	14298
918.161	14278
918.272	14423
918.384	14469
918.495	14225
918.606	14278
918.717	14107
918.828	14256
918.939	14123
919.05	14096
919.161	14145
919.272	13959
919.383	13928
919.494	14221
919.604	14328
919.715	14138
919.826	14005
919.936	14107
920.047	14309
920.157	14103
920.267	14313
920.378	14062
920.488	14107
920.598	14301
920.708	14545
920.818	14336
920.928	14294
921.038	14499
921.148	14377
921.258	14115
921.368	13986
921.477	13944
921.587	13921
921.697	13712
921.806	13803
921.916	13731
922.025	13575
922.134	13540
922.244	13460
922.353	13632
922.462	13483
922.571	13327
922.68	13217
922.789	13156
922.898	13183
923.007	13175
923.116	13175
923.224	13084
923.333	13145
923.442	13008
923.55	13057
923.659	13050
923.767	13023
923.876	13015
923.984	13080
924.092	12795
924.201	12985
924.309	12977
924.417	12954
924.525	12943
924.633	12875
924.741	13742
924.849	12677
924.956	12711
925.064	12578
925.172	12639
925.279	12608
925.387	12700
925.494	12536
925.602	12787
925.709	12707
925.816	12483
925.924	12509
926.031	12593
926.138	12551
926.245	12604
926.352	12506
926.459	12585
926.566	12635
926.673	12502
926.779	12433
926.886	12319
926.993	12220
927.099	12266
927.206	12076
927.312	12163
927.419	12239
927.525	12300
927.631	12224
927.737	12155
927.843	11996
927.95	11965
928.056	11965
928.162	12087
928.267	11988
928.373	12559
928.479	12034
928.585	11946
928.69	11958
928.796	12011
928.901	11912
929.007	11718
929.112	11813
929.218	11824
929.323	11866
929.428	11775
929.533	11904
929.638	11695
929.743	11699
929.848	11786
929.953	11733
930.058	11668
930.163	11455
930.267	11452
930.372	11657
930.477	11425
930.581	11699
930.685	11474
930.79	11242
930.894	11391
930.998	11311
931.103	11482
931.207	11143
931.311	10953
931.415	10972
931.519	10736
931.623	10771
