Data from test_V78500241_2025.txt Node
Date: Fri Mar 25 15:23:57 CST 2022
User: usil
Spectrometer: V785-0024
Trigger mode: 0
Integration Time (sec): 4.000000E-1
Scans to average: 1
Nonlinearity correction enabled: false
Boxcar width: 0
Storing dark spectrum: false
XAxis mode: Wavelengths
Number of Pixels in Spectrum: 1024
>>>>>Begin Spectral Data<<<<<
801.071	27964
801.214	27736
801.356	27656
801.499	27534
801.641	27458
801.783	27427
801.926	27488
802.068	27401
802.211	27450
802.353	27424
802.496	27165
802.638	27100
802.78	26929
802.923	27096
803.065	27020
803.208	26811
803.35	27131
803.492	27211
803.635	27302
803.777	27146
803.919	27321
804.061	27561
804.204	27340
804.346	27260
804.488	27173
804.63	27260
804.773	27256
804.915	27317
805.057	27359
805.199	27176
805.341	27344
805.483	27447
805.626	27393
805.768	27291
805.91	27458
806.052	27572
806.194	27321
806.336	27572
806.478	27393
806.62	27454
806.762	27511
806.904	27667
807.046	27930
807.188	27941
807.33	27907
807.472	27873
807.614	27739
807.756	27781
807.898	27595
808.04	27781
808.182	27568
808.324	27667
808.465	27743
808.607	27926
808.749	27968
808.891	28036
809.033	28173
809.174	27907
809.316	28006
809.458	28021
809.6	28048
809.741	28215
809.883	28090
810.025	28409
810.166	28367
810.308	28272
810.45	28352
810.591	28124
810.733	28177
810.875	27998
811.016	27888
811.158	27930
811.299	28131
811.441	28093
811.582	28131
811.724	28025
811.865	28048
812.007	28101
812.148	28082
812.29	27983
812.431	28234
812.573	28470
812.714	28493
812.855	28489
812.997	28618
813.138	28854
813.279	28733
813.421	28752
813.562	28535
813.703	28394
813.845	28272
813.986	27975
814.127	27835
814.268	27907
814.41	27838
814.551	27732
814.692	27762
814.833	27739
814.974	27652
815.115	27747
815.256	27667
815.397	27496
815.539	27682
815.68	27477
815.821	27500
815.962	27454
816.103	27469
816.244	27401
816.385	27317
816.526	27230
816.666	27096
816.807	26998
816.948	27062
817.089	27127
817.23	27108
817.371	26990
817.512	26986
817.653	26990
817.793	26899
817.934	27066
818.075	26902
818.216	26982
818.356	26960
818.497	26982
818.638	26788
818.778	26667
818.919	26743
819.06	26796
819.2	26826
819.341	27135
819.481	27032
819.622	27233
819.762	27329
819.903	27321
820.043	27146
820.184	27169
820.324	27051
820.465	27123
820.605	27142
820.746	27039
820.886	26880
821.026	27047
821.167	27039
821.307	27047
821.447	27013
821.588	26979
821.728	26853
821.868	26575
822.008	26511
822.149	26358
822.289	26541
822.429	26271
822.569	26187
822.709	26115
822.849	25970
822.99	26096
823.13	25944
823.27	26016
823.41	25883
823.55	25784
823.69	25788
823.83	25811
823.97	25693
824.11	25635
824.25	25616
824.389	25540
824.529	25837
824.669	25575
824.809	25761
824.949	25769
825.089	25731
825.228	25578
825.368	25533
825.508	25529
825.648	25514
825.787	25563
825.927	25518
826.067	25464
826.206	25499
826.346	25510
826.485	25525
826.625	25472
826.765	25548
826.904	25502
827.044	25206
827.183	25350
827.323	25274
827.462	25225
827.601	25228
827.741	25209
827.88	25213
828.02	25061
828.159	25198
828.298	25297
828.437	25259
828.577	25099
828.716	25335
828.855	25164
828.994	24897
829.134	24992
829.273	24920
829.412	24916
829.551	24787
829.69	24882
829.829	24935
829.968	25091
830.107	24897
830.246	25008
830.385	24897
830.524	24924
830.663	24665
830.802	24669
830.941	24585
831.08	24479
831.219	24696
831.357	24521
831.496	24677
831.635	24544
831.774	24407
831.913	24540
832.051	24384
832.19	24251
832.329	24403
832.467	24190
832.606	24178
832.744	24087
832.883	24121
833.022	24152
833.16	24182
833.299	24292
833.437	24186
833.576	24213
833.714	24319
833.852	24292
833.991	24300
834.129	24296
834.267	24300
834.406	24197
834.544	24319
834.682	24224
834.821	24205
834.959	24460
835.097	24258
835.235	24205
835.373	24361
835.511	24270
835.65	24159
835.788	24171
835.926	23954
836.064	23813
836.202	23946
836.34	24072
836.478	24102
836.615	24064
836.753	24110
836.891	24235
837.029	24129
837.167	23927
837.305	23969
837.443	24045
837.58	23870
837.718	24018
837.856	23950
837.993	23885
838.131	23992
838.269	23737
838.406	23889
838.544	23695
838.681	23600
838.819	23600
838.956	23379
839.094	23452
839.231	23440
839.369	23596
839.506	23809
839.643	23699
839.781	23356
839.918	23433
840.055	23398
840.193	23349
840.33	23334
840.467	23383
840.604	23307
840.742	23646
840.879	23174
841.016	23231
841.153	23193
841.29	23425
841.427	23235
841.564	23303
841.701	23318
841.838	23220
841.975	23166
842.112	23212
842.249	23094
842.385	23094
842.522	23280
842.659	23181
842.796	23071
842.933	23117
843.069	23117
843.206	23003
843.343	23128
843.479	23200
843.616	22991
843.752	22976
843.889	22828
844.025	22923
844.162	22953
844.298	22911
844.435	22790
844.571	22793
844.708	22854
844.844	22930
844.98	23071
845.117	22953
845.253	22759
845.389	22599
845.525	22683
845.661	22687
845.798	22535
845.934	22702
846.07	22478
846.206	22588
846.342	22645
846.478	22424
846.614	22363
846.75	22272
846.886	22337
847.022	22356
847.158	22257
847.294	22318
847.429	22322
847.565	22310
847.701	22512
847.837	22112
847.972	21972
848.108	22131
848.244	22246
848.379	21975
848.515	21865
848.65	21835
848.786	21915
848.921	21835
849.057	22013
849.192	21975
849.328	21930
849.463	21823
849.598	21732
849.734	21797
849.869	21709
850.004	21705
850.14	21523
850.275	21663
850.41	21534
850.545	21534
850.68	21701
850.815	21667
850.95	21690
851.085	21869
851.22	21797
851.355	21736
851.49	21625
851.625	21561
851.76	21656
851.895	21542
852.03	21500
852.165	21686
852.299	21660
852.434	21679
852.569	21713
852.703	21705
852.838	21682
852.973	21793
853.107	21850
853.242	21534
853.376	21416
853.511	21389
853.645	21450
853.78	21603
853.914	21530
854.048	21450
854.183	21485
854.317	21587
854.451	21682
854.585	21504
854.72	21420
854.854	21477
854.988	21511
855.122	21416
855.256	21310
855.39	21488
855.524	21538
855.658	21526
855.792	21549
855.926	21466
856.06	21397
856.194	21599
856.327	21340
856.461	21393
856.595	21477
856.729	21408
856.862	21515
856.996	21568
857.13	21519
857.263	21542
857.397	21553
857.53	21504
857.664	21561
857.797	21603
857.931	21667
858.064	21496
858.197	21450
858.331	21408
858.464	21496
858.597	21355
858.731	21469
858.864	21458
858.997	21454
859.13	21450
859.263	21496
859.396	21530
859.529	21504
859.662	21511
859.795	21439
859.928	21561
860.061	21682
860.194	21698
860.327	21389
860.46	21447
860.592	21606
860.725	21637
860.858	21625
860.99	21431
861.123	21450
861.256	21485
861.388	21603
861.521	22063
861.653	21344
861.786	21252
861.918	21218
862.05	21332
862.183	21393
862.315	21363
862.447	21534
862.58	21412
862.712	21272
862.844	21207
862.976	21184
863.108	21291
863.24	21686
863.372	21188
863.504	21256
863.636	21184
863.768	21241
863.9	21161
864.032	21100
864.164	21165
864.296	21249
864.428	21241
864.559	21214
864.691	21214
864.823	21184
864.954	21199
865.086	21161
865.217	21100
865.349	21055
865.48	20937
865.612	21104
865.743	21241
865.875	21085
866.006	21028
866.137	21062
866.269	21070
866.4	21013
866.531	20967
866.662	20979
866.793	20933
866.924	21028
867.055	20800
867.186	21070
867.317	20971
867.448	20876
867.579	21043
867.71	20933
867.841	20975
867.972	21100
868.103	20975
868.233	20963
868.364	21051
868.495	21108
868.625	21199
868.756	21291
868.886	21154
869.017	21332
869.147	21348
869.278	21386
869.408	21211
869.539	21355
869.669	21492
869.799	21340
869.929	21382
870.06	21424
870.19	21713
870.32	21504
870.45	21564
870.58	21694
870.71	21720
870.84	21698
870.97	21656
871.1	21720
871.23	21907
871.36	21895
871.489	21774
871.619	21880
871.749	21804
871.879	21823
872.008	21934
872.138	21880
872.267	21911
872.397	21797
872.526	21789
872.656	21686
872.785	21641
872.915	21816
873.044	21884
873.173	21899
873.303	21857
873.432	21956
873.561	21998
873.69	21854
873.819	21846
873.948	21895
874.077	21895
874.206	21911
874.335	21819
874.464	21968
874.593	22040
874.722	22070
874.851	22063
874.979	22116
875.108	22135
875.237	21964
875.365	22055
875.494	22032
875.623	22074
875.751	22036
875.88	22017
876.008	22188
876.136	22310
876.265	22344
876.393	22687
876.521	22481
876.65	22694
876.778	22413
876.906	22497
877.034	22322
877.162	22493
877.29	22329
877.418	22462
877.546	22519
877.674	22405
877.802	22451
877.93	22356
878.058	22280
878.185	22234
878.313	22417
878.441	22322
878.568	22276
878.696	22367
878.824	22535
878.951	22462
879.079	22637
879.206	22634
879.333	22580
879.461	22447
879.588	22588
879.715	22630
879.842	22702
879.97	22398
880.097	22181
880.224	22223
880.351	22295
880.478	22325
880.605	22238
880.732	22291
880.859	22462
880.986	22246
881.112	22268
881.239	22090
881.366	22109
881.493	21960
881.619	21842
881.746	21884
881.872	21911
881.999	21751
882.125	21846
882.252	21907
882.378	21770
882.505	21991
882.631	21667
882.757	21663
882.883	21629
883.01	21473
883.136	21450
883.262	21374
883.388	21313
883.514	21561
883.64	21488
883.766	21507
883.892	21321
884.018	21298
884.143	21481
884.269	21572
884.395	21154
884.52	21100
884.646	21233
884.772	21112
884.897	21058
885.023	21211
885.148	21306
885.274	21329
885.399	21348
885.524	21184
885.65	21249
885.775	21135
885.9	21131
886.025	21363
886.15	21249
886.275	21169
886.4	21039
886.525	21085
886.65	20979
886.775	21013
886.9	21294
887.025	21386
887.149	21081
887.274	21036
887.399	20986
887.523	20986
887.648	20902
887.773	20845
887.897	20937
888.021	20929
888.146	20823
888.27	20998
888.395	21039
888.519	21009
888.643	21017
888.767	20895
888.891	20902
889.015	20727
889.139	20826
889.263	20674
889.387	20807
889.511	20868
889.635	20914
889.759	20720
889.883	20716
890.006	20663
890.13	20826
890.254	20518
890.377	20674
890.501	20366
890.624	20457
890.748	20602
890.871	20438
890.995	20256
891.118	20294
891.241	20324
891.364	20427
891.488	20385
891.611	20309
891.734	20370
891.857	20381
891.98	20298
892.103	20419
892.226	20282
892.349	20134
892.471	20046
892.594	20176
892.717	20237
892.839	20214
892.962	20176
893.085	20275
893.207	20206
893.33	20077
893.452	20149
893.575	20244
893.697	20233
893.819	20419
893.941	20324
894.064	20336
894.186	20176
894.308	20122
894.43	20214
894.552	20366
894.674	20313
894.796	20050
894.918	20130
895.04	20176
895.161	20214
895.283	20267
895.405	20149
895.526	20206
895.648	20221
895.769	20172
895.891	20164
896.012	20233
896.134	20343
896.255	20237
896.376	20088
896.498	20199
896.619	20233
896.74	20263
896.861	20389
896.982	20545
897.103	20571
897.224	20606
897.345	20442
897.466	20343
897.587	20454
897.708	20415
897.828	20446
897.949	20336
898.07	20305
898.19	20294
898.311	20469
898.431	20370
898.552	20381
898.672	20377
898.792	20461
898.913	20415
899.033	20366
899.153	20214
899.273	20210
899.393	20122
899.513	20202
899.633	20214
899.753	20134
899.873	20084
899.993	20256
900.113	20012
900.232	20142
900.352	20107
900.472	20115
900.591	19890
900.711	20084
900.83	19913
900.95	20103
901.069	20043
901.189	19826
901.308	19578
901.427	19445
901.546	19502
901.665	19624
901.784	19552
901.904	19346
902.023	19293
902.141	19034
902.26	19031
902.379	19194
902.498	18973
902.617	18852
902.735	19019
902.854	18977
902.973	18985
903.091	18692
903.21	18722
903.328	18738
903.446	18612
903.565	18490
903.683	18547
903.801	18403
903.919	18509
904.038	18365
904.156	18338
904.274	18304
904.392	18209
904.51	18186
904.627	18319
904.745	18163
904.863	18330
904.981	18064
905.098	17878
905.216	17908
905.334	18026
905.451	17992
905.569	17866
905.686	17984
905.803	17828
905.921	17752
906.038	17897
906.155	17767
906.272	17627
906.389	17665
906.506	17402
906.623	17611
906.74	17448
906.857	17410
906.974	17353
907.091	17471
907.208	17543
907.324	17543
907.441	17474
907.557	17147
907.674	17143
907.79	17181
907.907	17079
908.023	17174
908.139	17121
908.256	17079
908.372	17098
908.488	16980
908.604	16961
908.72	16896
908.836	16816
908.952	16812
909.068	16972
909.184	17014
909.3	16934
909.415	16869
909.531	16885
909.647	16664
909.762	16694
909.878	16618
909.993	16660
910.108	16519
910.224	16565
910.339	16607
910.454	16561
910.57	16386
910.685	16386
910.8	16713
910.915	16630
911.03	16424
911.145	16223
911.259	16128
911.374	16238
911.489	16112
911.604	16013
911.718	15953
911.833	16013
911.947	15903
912.062	15873
912.176	15956
912.291	15899
912.405	15937
912.519	16181
912.633	16143
912.748	16029
912.862	15945
912.976	15732
913.09	15755
913.204	15663
913.318	15739
913.431	15934
913.545	15960
913.659	15895
913.772	15724
913.886	15625
914	15530
914.113	15599
914.226	15660
914.34	15671
914.453	15496
914.566	15591
914.68	15424
914.793	15397
914.906	15310
915.019	15214
915.132	15108
915.245	15131
915.358	15218
915.47	15195
915.583	15207
915.696	15154
915.809	15283
915.921	15332
916.034	15051
916.146	15039
916.259	15131
916.371	15154
916.483	15047
916.595	15005
916.708	15070
916.82	14906
916.932	14941
917.044	14921
917.156	14891
917.268	14864
917.38	14887
917.491	14811
917.603	14834
917.715	14883
917.826	14899
917.938	14781
918.049	14701
918.161	14758
918.272	14941
918.384	14834
918.495	14712
918.606	14629
918.717	14545
918.828	14629
918.939	14636
919.05	14484
919.161	14454
919.272	14309
919.383	14412
919.494	14507
919.604	14781
919.715	14526
919.826	14431
919.936	14507
920.047	14693
920.157	14579
920.267	14667
920.378	14522
920.488	14495
920.598	14659
920.708	14849
920.818	14598
920.928	14670
921.038	14899
921.148	14800
921.258	14492
921.368	14366
921.477	14233
921.587	14267
921.697	14191
921.806	14256
921.916	14130
922.025	13967
922.134	13906
922.244	13898
922.353	13894
922.462	13727
922.571	13738
922.68	13643
922.789	13578
922.898	13548
923.007	13552
923.116	13613
923.224	13556
923.333	13449
923.442	13453
923.55	13358
923.659	13373
923.767	13422
923.876	13411
923.984	13365
924.092	13365
924.201	13316
924.309	13354
924.417	13331
924.525	13278
924.633	13255
924.741	13944
924.849	13053
924.956	13103
925.064	12954
925.172	12962
925.279	13023
925.387	13023
925.494	12890
925.602	13179
925.709	12981
925.816	12890
925.924	12901
926.031	12981
926.138	12951
926.245	12939
926.352	12806
926.459	13008
926.566	13038
926.673	12829
926.779	12829
926.886	12635
926.993	12570
927.099	12570
927.206	12494
927.312	12441
927.419	12521
927.525	12517
927.631	12536
927.737	12467
927.843	12391
927.95	12296
928.056	12315
928.162	12437
928.267	12418
928.373	12928
928.479	12410
928.585	12243
928.69	12300
928.796	12258
928.901	12205
929.007	12129
929.112	12216
929.218	12091
929.323	12125
929.428	12140
929.533	12194
929.638	12053
929.743	12026
929.848	12038
929.953	12060
930.058	11927
930.163	11779
930.267	11870
930.372	11901
930.477	11756
930.581	11969
930.685	11832
930.79	11668
930.894	11672
930.998	11615
931.103	11756
931.207	11410
931.311	11345
931.415	11273
931.519	11109
931.623	10991
