Data from test_V78500241_941.txt Node
Date: Fri Mar 25 15:16:24 CST 2022
User: usil
Spectrometer: V785-0024
Trigger mode: 0
Integration Time (sec): 4.000000E-1
Scans to average: 1
Nonlinearity correction enabled: false
Boxcar width: 0
Storing dark spectrum: false
XAxis mode: Wavelengths
Number of Pixels in Spectrum: 1024
>>>>>Begin Spectral Data<<<<<
801.071	27739
801.214	27633
801.356	27477
801.499	27135
801.641	27169
801.783	27230
801.926	27329
802.068	27195
802.211	27169
802.353	27142
802.496	26918
802.638	26918
802.78	26868
802.923	26861
803.065	26773
803.208	26880
803.35	26705
803.492	27009
803.635	27009
803.777	26933
803.919	27036
804.061	27332
804.204	27089
804.346	26937
804.488	26940
804.63	27051
804.773	26921
804.915	27024
805.057	27165
805.199	26994
805.341	27123
805.483	27245
805.626	27062
805.768	27146
805.91	27043
806.052	27169
806.194	27142
806.336	27310
806.478	27203
806.62	27165
806.762	27237
806.904	27629
807.046	27785
807.188	27500
807.33	27500
807.472	27633
807.614	27488
807.756	27507
807.898	27481
808.04	27386
808.182	27542
808.324	27496
808.465	27481
808.607	27637
808.749	27865
808.891	27941
809.033	27987
809.174	27918
809.316	27793
809.458	27838
809.6	27709
809.741	28032
809.883	27941
810.025	28082
810.166	28116
810.308	28051
810.45	28002
810.591	27941
810.733	27808
810.875	27736
811.016	27705
811.158	27637
811.299	27724
811.441	27937
811.582	27979
811.724	27827
811.865	27884
812.007	27610
812.148	27865
812.29	27907
812.431	27960
812.573	28223
812.714	28284
812.855	28451
812.997	28535
813.138	28542
813.279	28417
813.421	28344
813.562	28200
813.703	28215
813.845	28166
813.986	27732
814.127	27580
814.268	27595
814.41	27519
814.551	27435
814.692	27606
814.833	27355
814.974	27302
815.115	27515
815.256	27260
815.397	27260
815.539	27427
815.68	27340
815.821	27389
815.962	27382
816.103	27249
816.244	27294
816.385	27055
816.526	26948
816.666	26956
816.807	26834
816.948	26902
817.089	27051
817.23	26868
817.371	26693
817.512	26826
817.653	26720
817.793	26667
817.934	26838
818.075	26864
818.216	26792
818.356	26792
818.497	26705
818.638	26587
818.778	26625
818.919	26606
819.06	26598
819.2	26788
819.341	26796
819.481	26925
819.622	26864
819.762	27024
819.903	27135
820.043	26902
820.184	26868
820.324	26891
820.465	27036
820.605	26933
820.746	26849
820.886	26648
821.026	26902
821.167	26895
821.307	27005
821.447	26720
821.588	26731
821.728	26514
821.868	26404
822.008	26366
822.149	26309
822.289	26092
822.429	26062
822.569	25951
822.709	25974
822.849	25814
822.99	25746
823.13	25670
823.27	25651
823.41	25559
823.55	25552
823.69	25662
823.83	25533
823.97	25544
824.11	25540
824.25	25422
824.389	25479
824.529	25544
824.669	25373
824.809	25677
824.949	25445
825.089	25628
825.228	25483
825.368	25278
825.508	25400
825.648	25289
825.787	25373
825.927	25449
826.067	25369
826.206	25213
826.346	25289
826.485	25350
826.625	25400
826.765	25358
826.904	25274
827.044	25133
827.183	25129
827.323	25000
827.462	25084
827.601	25027
827.741	24852
827.88	25080
828.02	24943
828.159	24935
828.298	25076
828.437	25038
828.577	24814
828.716	25099
828.855	24939
828.994	24749
829.134	24722
829.273	24677
829.412	24738
829.551	24681
829.69	24810
829.829	24787
829.968	24909
830.107	24795
830.246	24688
830.385	24726
830.524	24646
830.663	24547
830.802	24608
830.941	24292
831.08	24311
831.219	24509
831.357	24513
831.496	24635
831.635	24399
831.774	24281
831.913	24133
832.051	24190
832.19	24216
832.329	23984
832.467	24125
832.606	24053
832.744	24034
832.883	24087
833.022	23882
833.16	24018
833.299	24079
833.437	24003
833.576	24076
833.714	24049
833.852	24106
833.991	24087
834.129	24239
834.267	24060
834.406	24140
834.544	24117
834.682	24030
834.821	24045
834.959	24304
835.097	24060
835.235	24079
835.373	24026
835.511	24102
835.65	24034
835.788	24034
835.926	23767
836.064	23824
836.202	23874
836.34	23885
836.478	24026
836.615	23764
836.753	23851
836.891	24098
837.029	23942
837.167	23863
837.305	23775
837.443	23676
837.58	23707
837.718	23783
837.856	23767
837.993	23748
838.131	23676
838.269	23585
838.406	23619
838.544	23474
838.681	23277
838.819	23478
838.956	23140
839.094	23132
839.231	23239
839.369	23444
839.506	23627
839.643	23448
839.781	23155
839.918	23124
840.055	23208
840.193	23239
840.33	23159
840.467	23128
840.604	23223
840.742	23402
840.879	23010
841.016	23166
841.153	23105
841.29	23235
841.427	23166
841.564	23121
841.701	23117
841.838	23185
841.975	23128
842.112	23037
842.249	23067
842.385	22858
842.522	23071
842.659	22927
842.796	22847
842.933	22949
843.069	22972
843.206	22854
843.343	23025
843.479	22908
843.616	22869
843.752	22637
843.889	22653
844.025	22759
844.162	22675
844.298	22717
844.435	22649
844.571	22653
844.708	22869
844.844	22729
844.98	22721
845.117	22824
845.253	22554
845.389	22561
845.525	22645
845.661	22489
845.798	22390
845.934	22462
846.07	22310
846.206	22428
846.342	22531
846.478	22375
846.614	22215
846.75	22036
846.886	22139
847.022	22284
847.158	22223
847.294	22124
847.429	22112
847.565	22181
847.701	22390
847.837	21960
847.972	21903
848.108	21892
848.244	21975
848.379	21709
848.515	21747
848.65	21728
848.786	21705
848.921	21846
849.057	21888
849.192	21743
849.328	21804
849.463	21739
849.598	21739
849.734	21656
849.869	21644
850.004	21488
850.14	21500
850.275	21633
850.41	21511
850.545	21507
850.68	21378
850.815	21564
850.95	21568
851.085	21739
851.22	21637
851.355	21492
851.49	21485
851.625	21466
851.76	21511
851.895	21473
852.03	21492
852.165	21500
852.299	21591
852.434	21500
852.569	21481
852.703	21492
852.838	21481
852.973	21652
853.107	21641
853.242	21462
853.376	21283
853.511	21272
853.645	21230
853.78	21386
853.914	21431
854.048	21275
854.183	21367
854.317	21393
854.451	21481
854.585	21386
854.72	21374
854.854	21431
854.988	21298
855.122	21298
855.256	21268
855.39	21226
855.524	21363
855.658	21264
855.792	21321
855.926	21313
856.06	21233
856.194	21447
856.327	21283
856.461	21370
856.595	21184
856.729	21272
856.862	21424
856.996	21279
857.13	21431
857.263	21424
857.397	21389
857.53	21313
857.664	21260
857.797	21416
857.931	21351
858.064	21408
858.197	21355
858.331	21302
858.464	21214
858.597	21252
858.731	21310
858.864	21268
858.997	21203
859.13	21344
859.263	21378
859.396	21359
859.529	21298
859.662	21374
859.795	21340
859.928	21287
860.061	21367
860.194	21504
860.327	21428
860.46	21370
860.592	21507
860.725	21488
860.858	21530
860.99	21370
861.123	21195
861.256	21199
861.388	21374
861.521	21979
861.653	21173
861.786	21135
861.918	21268
862.05	21329
862.183	21336
862.315	21367
862.447	21226
862.58	21340
862.712	21024
862.844	21020
862.976	21112
863.108	21169
863.24	21633
863.372	21047
863.504	21116
863.636	21127
863.768	21028
863.9	21028
864.032	21085
864.164	20941
864.296	20986
864.428	21207
864.559	21096
864.691	21089
864.823	21127
864.954	20975
865.086	20891
865.217	20967
865.349	20800
865.48	21024
865.612	20944
865.743	21017
865.875	20979
866.006	20998
866.137	20918
866.269	21070
866.4	20864
866.531	20941
866.662	20769
866.793	20842
866.924	20914
867.055	20792
867.186	20872
867.317	20868
867.448	20819
867.579	20937
867.71	20720
867.841	20739
867.972	20948
868.103	20792
868.233	20777
868.364	20815
868.495	20937
868.625	21062
868.756	21089
868.886	20883
869.017	21070
869.147	21062
869.278	21195
869.408	21077
869.539	21062
869.669	21119
869.799	21146
869.929	21237
870.06	21233
870.19	21412
870.32	21389
870.45	21386
870.58	21420
870.71	21652
870.84	21682
870.97	21564
871.1	21580
871.23	21679
871.36	21751
871.489	21504
871.619	21720
871.749	21705
871.879	21823
872.008	21789
872.138	21606
872.267	21671
872.397	21511
872.526	21557
872.656	21538
872.785	21599
872.915	21713
873.044	21819
873.173	21705
873.303	21682
873.432	21789
873.561	21797
873.69	21728
873.819	21667
873.948	21797
874.077	21724
874.206	21553
874.335	21759
874.464	21812
874.593	21968
874.722	21934
874.851	21918
874.979	21857
875.108	21880
875.237	21972
875.365	21911
875.494	21979
875.623	21991
875.751	21895
875.88	21975
876.008	21949
876.136	22169
876.265	22402
876.393	22447
876.521	22462
876.65	22417
876.778	22356
876.906	22322
877.034	22158
877.162	22249
877.29	22211
877.418	22333
877.546	22402
877.674	22211
877.802	22215
877.93	22295
878.058	22196
878.185	22169
878.313	22200
878.441	22310
878.568	22120
878.696	22242
878.824	22333
878.951	22466
879.079	22432
879.206	22592
879.333	22504
879.461	22325
879.588	22455
879.715	22417
879.842	22588
879.97	22322
880.097	22162
880.224	22070
880.351	22036
880.478	22074
880.605	22211
880.732	22082
880.859	22402
880.986	22032
881.112	22158
881.239	21857
881.366	21816
881.493	21736
881.619	21713
881.746	21793
881.872	21648
881.999	21762
882.125	21614
882.252	21766
882.378	21652
882.505	21713
882.631	21618
882.757	21477
882.883	21447
883.01	21420
883.136	21321
883.262	21386
883.388	21112
883.514	21393
883.64	21458
883.766	21268
883.892	21199
884.018	21154
884.143	21435
884.269	21447
884.395	21169
884.52	21085
884.646	21100
884.772	20982
884.897	20998
885.023	21020
885.148	21230
885.274	21207
885.399	21093
885.524	21070
885.65	21131
885.775	21119
885.9	20933
886.025	21051
886.15	21085
886.275	20937
886.4	20864
886.525	20963
886.65	20952
886.775	20963
886.9	21142
887.025	21207
887.149	20998
887.274	20746
887.399	20758
887.523	20830
887.648	20788
887.773	20632
887.897	20857
888.021	20899
888.146	20758
888.27	20819
888.395	20842
888.519	20834
888.643	20941
888.767	20933
888.891	20777
889.015	20648
889.139	20815
889.263	20583
889.387	20697
889.511	20830
889.635	20682
889.759	20609
889.883	20598
890.006	20560
890.13	20693
890.254	20503
890.377	20575
890.501	20347
890.624	20336
890.748	20358
890.871	20202
890.995	20100
891.118	20065
891.241	20282
891.364	20320
891.488	20229
891.611	20286
891.734	20092
891.857	20138
891.98	20248
892.103	20157
892.226	20142
892.349	20149
892.471	20046
892.594	19955
892.717	20168
892.839	20020
892.962	20054
893.085	20115
893.207	19967
893.33	19944
893.452	19963
893.575	20191
893.697	19986
893.819	20172
893.941	20267
894.064	20225
894.186	19936
894.308	19959
894.43	20145
894.552	20172
894.674	20214
894.796	20020
894.918	20046
895.04	19925
895.161	20134
895.283	20084
895.405	19913
895.526	20031
895.648	20103
895.769	20046
895.891	20073
896.012	20122
896.134	20172
896.255	20164
896.376	20035
896.498	20008
896.619	20043
896.74	20016
896.861	20069
896.982	20294
897.103	20526
897.224	20324
897.345	20324
897.466	20199
897.587	20381
897.708	20385
897.828	20309
897.949	20237
898.07	20233
898.19	20149
898.311	20313
898.431	20278
898.552	20252
898.672	20320
898.792	20309
898.913	20278
899.033	20237
899.153	20024
899.273	19967
899.393	19993
899.513	19978
899.633	19993
899.753	20149
899.873	19879
899.993	20008
900.113	19997
900.232	20012
900.352	20016
900.472	19868
900.591	19788
900.711	19761
900.83	19791
900.95	19890
901.069	19765
901.189	19651
901.308	19571
901.427	19377
901.546	19472
901.665	19384
901.784	19308
901.904	19324
902.023	19247
902.141	19034
902.26	18909
902.379	18916
902.498	18958
902.617	18783
902.735	18943
902.854	18840
902.973	18787
903.091	18646
903.21	18570
903.328	18513
903.446	18513
903.565	18372
903.683	18399
903.801	18239
903.919	18262
904.038	18323
904.156	18266
904.274	18289
904.392	18144
904.51	18083
904.627	18125
904.745	18220
904.863	18083
904.981	17992
905.098	17798
905.216	17817
905.334	17863
905.451	17794
905.569	17786
905.686	17767
905.803	17897
905.921	17455
906.038	17771
906.155	17661
906.272	17543
906.389	17528
906.506	17406
906.623	17349
906.74	17311
906.857	17208
906.974	17254
907.091	17383
907.208	17463
907.324	17395
907.441	17265
907.557	17102
907.674	17064
907.79	17037
907.907	16923
908.023	17121
908.139	17048
908.256	17033
908.372	16938
908.488	16957
908.604	16911
908.72	16721
908.836	16900
908.952	16736
909.068	16869
909.184	16938
909.3	16774
909.415	16839
909.531	16752
909.647	16596
909.762	16516
909.878	16424
909.993	16622
910.108	16432
910.224	16573
910.339	16424
910.454	16318
910.57	16398
910.685	16272
910.8	16481
910.915	16512
911.03	16268
911.145	16147
911.259	16109
911.374	16128
911.489	15956
911.604	16063
911.718	15838
911.833	15876
911.947	15743
912.062	15720
912.176	15808
912.291	15880
912.405	15751
912.519	16029
912.633	16097
912.748	15907
912.862	15850
912.976	15743
913.09	15580
913.204	15557
913.318	15724
913.431	15846
913.545	15690
913.659	15739
913.772	15584
913.886	15515
914	15496
914.113	15526
914.226	15690
914.34	15477
914.453	15287
914.566	15397
914.68	15416
914.793	15218
914.906	15104
915.019	15097
915.132	15047
915.245	15058
915.358	15127
915.47	15066
915.583	15032
915.696	15074
915.809	15123
915.921	15157
916.034	15036
916.146	14891
916.259	15005
916.371	15013
916.483	15108
916.595	14853
916.708	14941
916.82	14800
916.932	14876
917.044	14785
917.156	14834
917.268	14686
917.38	14746
917.491	14758
917.603	14693
917.715	14746
917.826	14739
917.938	14625
918.049	14545
918.161	14689
918.272	14773
918.384	14849
918.495	14693
918.606	14526
918.717	14457
918.828	14469
918.939	14522
919.05	14446
919.161	14400
919.272	14324
919.383	14328
919.494	14427
919.604	14686
919.715	14419
919.826	14415
919.936	14358
920.047	14507
920.157	14450
920.267	14640
920.378	14495
920.488	14473
920.598	14640
920.708	14720
920.818	14648
920.928	14644
921.038	14686
921.148	14648
921.258	14320
921.368	14275
921.477	14164
921.587	14172
921.697	14024
921.806	14176
921.916	14054
922.025	13811
922.134	13856
922.244	13795
922.353	13871
922.462	13677
922.571	13655
922.68	13506
922.789	13422
922.898	13426
923.007	13358
923.116	13510
923.224	13441
923.333	13464
923.442	13350
923.55	13339
923.659	13365
923.767	13506
923.876	13339
923.984	13327
924.092	13190
924.201	13263
924.309	13304
924.417	13263
924.525	13046
924.633	13141
924.741	14119
924.849	12875
924.956	13042
925.064	12966
925.172	12928
925.279	12875
925.387	12776
925.494	12863
925.602	13015
925.709	12932
925.816	12821
925.924	12802
926.031	12894
926.138	12757
926.245	12814
926.352	12791
926.459	12886
926.566	12852
926.673	12681
926.779	12669
926.886	12681
926.993	12525
927.099	12437
927.206	12475
927.312	12403
927.419	12490
927.525	12536
927.631	12445
927.737	12289
927.843	12357
927.95	12201
928.056	12243
928.162	12270
928.267	12338
928.373	12920
928.479	12323
928.585	12087
928.69	12258
928.796	12361
928.901	12140
929.007	11969
929.112	12224
929.218	12114
929.323	12076
929.428	11958
929.533	12148
929.638	11961
929.743	11927
929.848	12045
929.953	11977
930.058	11904
930.163	11699
930.267	11703
930.372	11866
930.477	11653
930.581	11859
930.685	11745
930.79	11642
930.894	11699
930.998	11497
931.103	11741
931.207	11337
931.311	11242
931.415	11220
931.519	10987
931.623	10984
