Data from test_V78500241_3065.txt Node
Date: Fri Mar 25 15:31:12 CST 2022
User: usil
Spectrometer: V785-0024
Trigger mode: 0
Integration Time (sec): 4.000000E-1
Scans to average: 1
Nonlinearity correction enabled: false
Boxcar width: 0
Storing dark spectrum: false
XAxis mode: Wavelengths
Number of Pixels in Spectrum: 1024
>>>>>Begin Spectral Data<<<<<
801.071	27317
801.214	27256
801.356	27043
801.499	26872
801.641	26982
801.783	26788
801.926	26880
802.068	26925
802.211	26762
802.353	26758
802.496	26571
802.638	26465
802.78	26446
802.923	26389
803.065	26408
803.208	26461
803.35	26290
803.492	26522
803.635	26765
803.777	26579
803.919	26739
804.061	27104
804.204	26640
804.346	26442
804.488	26674
804.63	26511
804.773	26659
804.915	26469
805.057	26868
805.199	26537
805.341	26625
805.483	26796
805.626	26609
805.768	26667
805.91	26697
806.052	26762
806.194	26625
806.336	26750
806.478	26739
806.62	26788
806.762	26944
806.904	26910
807.046	27268
807.188	27176
807.33	27081
807.472	27119
807.614	27001
807.756	27176
807.898	26902
808.04	26918
808.182	26872
808.324	27032
808.465	26979
808.607	27192
808.749	27382
808.891	27416
809.033	27485
809.174	27458
809.316	27302
809.458	27424
809.6	27222
809.741	27507
809.883	27412
810.025	27545
810.166	27466
810.308	27580
810.45	27458
810.591	27511
810.733	27473
810.875	27397
811.016	27135
811.158	27291
811.299	27393
811.441	27427
811.582	27344
811.724	27302
811.865	27420
812.007	27230
812.148	27184
812.29	27310
812.431	27549
812.573	27500
812.714	27641
812.855	27644
812.997	27819
813.138	28059
813.279	27884
813.421	27903
813.562	27888
813.703	27709
813.845	27462
813.986	27237
814.127	27154
814.268	26979
814.41	26937
814.551	27039
814.692	27005
814.833	26880
814.974	27024
815.115	27062
815.256	26891
815.397	27005
815.539	26765
815.68	26807
815.821	26765
815.962	26819
816.103	26674
816.244	26575
816.385	26575
816.526	26473
816.666	26259
816.807	26107
816.948	26370
817.089	26256
817.23	26218
817.371	26294
817.512	26142
817.653	26221
817.793	26225
817.934	26252
818.075	26332
818.216	26294
818.356	26271
818.497	26062
818.638	25989
818.778	25868
818.919	25940
819.06	26142
819.2	26001
819.341	26191
819.481	26096
819.622	26495
819.762	26507
819.903	26575
820.043	26446
820.184	26332
820.324	26431
820.465	26453
820.605	26214
820.746	26244
820.886	26180
821.026	26172
821.167	26267
821.307	26362
821.447	26214
821.588	26202
821.728	25970
821.868	25799
822.008	25746
822.149	25670
822.289	25693
822.429	25377
822.569	25346
822.709	25278
822.849	25247
822.99	25209
823.13	25031
823.27	25129
823.41	25031
823.55	24863
823.69	25027
823.83	24985
823.97	25084
824.11	24833
824.25	24631
824.389	24753
824.529	24833
824.669	24859
824.809	24772
824.949	24867
825.089	24833
825.228	24700
825.368	24806
825.508	24650
825.648	24734
825.787	24776
825.927	24711
826.067	24681
826.206	24677
826.346	24726
826.485	24745
826.625	24719
826.765	24745
826.904	24814
827.044	24509
827.183	24414
827.323	24407
827.462	24418
827.601	24452
827.741	24365
827.88	24441
828.02	24194
828.159	24330
828.298	24338
828.437	24505
828.577	24319
828.716	24388
828.855	24239
828.994	24076
829.134	24091
829.273	24102
829.412	24197
829.551	24041
829.69	24049
829.829	24095
829.968	24209
830.107	24159
830.246	24087
830.385	24053
830.524	24060
830.663	23817
830.802	23760
830.941	23775
831.08	23604
831.219	23771
831.357	23783
831.496	23965
831.635	23676
831.774	23649
831.913	23718
832.051	23490
832.19	23463
832.329	23531
832.467	23467
832.606	23273
832.744	23311
832.883	23474
833.022	23223
833.16	23379
833.299	23433
833.437	23376
833.576	23436
833.714	23436
833.852	23573
833.991	23490
834.129	23627
834.267	23528
834.406	23455
834.544	23642
834.682	23516
834.821	23452
834.959	23722
835.097	23436
835.235	23474
835.373	23436
835.511	23353
835.65	23220
835.788	23372
835.926	23189
836.064	23113
836.202	23189
836.34	23242
836.478	23372
836.615	23189
836.753	23284
836.891	23330
837.029	23398
837.167	23204
837.305	23277
837.443	23250
837.58	23052
837.718	23151
837.856	23052
837.993	23014
838.131	23212
838.269	23105
838.406	23086
838.544	22980
838.681	22717
838.819	22805
838.956	22561
839.094	22637
839.231	22691
839.369	22824
839.506	22957
839.643	22892
839.781	22713
839.918	22478
840.055	22675
840.193	22546
840.33	22561
840.467	22618
840.604	22584
840.742	22854
840.879	22390
841.016	22398
841.153	22417
841.29	22634
841.427	22478
841.564	22554
841.701	22451
841.838	22542
841.975	22481
842.112	22478
842.249	22447
842.385	22386
842.522	22710
842.659	22459
842.796	22295
842.933	22337
843.069	22287
843.206	22158
843.343	22230
843.479	22341
843.616	22158
843.752	22173
843.889	21987
844.025	22173
844.162	22116
844.298	22112
844.435	22017
844.571	22120
844.708	22063
844.844	22207
844.98	22219
845.117	22112
845.253	21956
845.389	21964
845.525	21987
845.661	21994
845.798	21781
845.934	21842
846.07	21743
846.206	21812
846.342	21918
846.478	21755
846.614	21564
846.75	21367
846.886	21492
847.022	21538
847.158	21663
847.294	21530
847.429	21599
847.565	21553
847.701	21827
847.837	21279
847.972	21116
848.108	21256
848.244	21367
848.379	21241
848.515	21142
848.65	21074
848.786	21146
848.921	21165
849.057	21161
849.192	21237
849.328	21154
849.463	20990
849.598	20979
849.734	20994
849.869	21096
850.004	20933
850.14	20967
850.275	20891
850.41	20750
850.545	20842
850.68	20849
850.815	20929
850.95	20891
851.085	21100
851.22	21001
851.355	20921
851.49	20826
851.625	20899
851.76	20948
851.895	20834
852.03	20826
852.165	20921
852.299	20899
852.434	20914
852.569	20933
852.703	20781
852.838	21009
852.973	20971
853.107	21043
853.242	20826
853.376	20735
853.511	20651
853.645	20716
853.78	20925
853.914	20788
854.048	20697
854.183	20743
854.317	20792
854.451	20902
854.585	20693
854.72	20701
854.854	20777
854.988	20701
855.122	20686
855.256	20541
855.39	20819
855.524	20815
855.658	20842
855.792	20693
855.926	20861
856.06	20765
856.194	20921
856.327	20773
856.461	20746
856.595	20697
856.729	20712
856.862	20880
856.996	20773
857.13	20815
857.263	20796
857.397	20788
857.53	20648
857.664	20895
857.797	20845
857.931	20899
858.064	20712
858.197	20796
858.331	20750
858.464	20625
858.597	20682
858.731	20765
858.864	20674
858.997	20625
859.13	20765
859.263	20670
859.396	20765
859.529	20686
859.662	20655
859.795	20754
859.928	20785
860.061	20838
860.194	21047
860.327	20708
860.46	20788
860.592	20853
860.725	20952
860.858	20887
860.99	20750
861.123	20674
861.256	20705
861.388	20708
861.521	21279
861.653	20629
861.786	20518
861.918	20598
862.05	20625
862.183	20663
862.315	20613
862.447	20765
862.58	20625
862.712	20533
862.844	20484
862.976	20609
863.108	20484
863.24	20902
863.372	20377
863.504	20549
863.636	20355
863.768	20499
863.9	20530
864.032	20442
864.164	20461
864.296	20507
864.428	20545
864.559	20518
864.691	20461
864.823	20450
864.954	20434
865.086	20374
865.217	20374
865.349	20298
865.48	20320
865.612	20404
865.743	20530
865.875	20442
866.006	20446
866.137	20313
866.269	20434
866.4	20355
866.531	20309
866.662	20263
866.793	20244
866.924	20366
867.055	20244
867.186	20278
867.317	20328
867.448	20221
867.579	20263
867.71	20252
867.841	20229
867.972	20259
868.103	20301
868.233	20339
868.364	20374
868.495	20408
868.625	20625
868.756	20575
868.886	20511
869.017	20518
869.147	20708
869.278	20834
869.408	20507
869.539	20503
869.669	20644
869.799	20571
869.929	20811
870.06	20587
870.19	20773
870.32	20701
870.45	20842
870.58	20921
870.71	21104
870.84	21009
870.97	20899
871.1	20861
871.23	21112
871.36	21176
871.489	21089
871.619	21207
871.749	21199
871.879	21154
872.008	21313
872.138	21180
872.267	21066
872.397	20994
872.526	20948
872.656	20941
872.785	20937
872.915	21142
873.044	21237
873.173	21127
873.303	21146
873.432	21138
873.561	21249
873.69	21222
873.819	21230
873.948	21184
874.077	21184
874.206	21055
874.335	21138
874.464	21230
874.593	21340
874.722	21310
874.851	21420
874.979	21511
875.108	21496
875.237	21329
875.365	21294
875.494	21313
875.623	21405
875.751	21329
875.88	21386
876.008	21386
876.136	21622
876.265	21899
876.393	22032
876.521	21903
876.65	21899
876.778	21762
876.906	21618
877.034	21682
877.162	21656
877.29	21778
877.418	21785
877.546	21774
877.674	21804
877.802	21694
877.93	21732
878.058	21705
878.185	21595
878.313	21705
878.441	21774
878.568	21564
878.696	21667
878.824	21705
878.951	21945
879.079	21922
879.206	21953
879.333	21797
879.461	21770
879.588	21918
879.715	21911
879.842	21987
879.97	21819
880.097	21500
880.224	21534
880.351	21629
880.478	21694
880.605	21568
880.732	21534
880.859	21930
880.986	21622
881.112	21603
881.239	21416
881.366	21222
881.493	21325
881.619	21112
881.746	21131
881.872	20994
881.999	21184
882.125	21081
882.252	21203
882.378	21112
882.505	21207
882.631	20986
882.757	20872
882.883	20933
883.01	20758
883.136	20868
883.262	20651
883.388	20708
883.514	20819
883.64	20765
883.766	20746
883.892	20636
884.018	20712
884.143	20868
884.269	21005
884.395	20541
884.52	20537
884.646	20533
884.772	20317
884.897	20476
885.023	20583
885.148	20587
885.274	20571
885.399	20659
885.524	20484
885.65	20469
885.775	20522
885.9	20530
886.025	20568
886.15	20670
886.275	20594
886.4	20423
886.525	20476
886.65	20511
886.775	20473
886.9	20598
887.025	20651
887.149	20518
887.274	20229
887.399	20377
887.523	20290
887.648	20252
887.773	20233
887.897	20377
888.021	20366
888.146	20320
888.27	20355
888.395	20328
888.519	20256
888.643	20282
888.767	20336
888.891	20221
889.015	20119
889.139	20145
889.263	19963
889.387	20142
889.511	20278
889.635	20176
889.759	20054
889.883	20024
890.006	20005
890.13	20180
890.254	20016
890.377	20039
890.501	19803
890.624	19860
890.748	19856
890.871	19852
890.995	19594
891.118	19586
891.241	19708
891.364	19677
891.488	19746
891.611	19757
891.734	19674
891.857	19719
891.98	19628
892.103	19795
892.226	19689
892.349	19677
892.471	19540
892.594	19525
892.717	19567
892.839	19635
892.962	19670
893.085	19670
893.207	19540
893.33	19407
893.452	19552
893.575	19594
893.697	19563
893.819	19719
893.941	19738
894.064	19677
894.186	19502
894.308	19441
894.43	19666
894.552	19685
894.674	19677
894.796	19529
894.918	19575
895.04	19460
895.161	19647
895.283	19609
895.405	19468
895.526	19655
895.648	19620
895.769	19639
895.891	19578
896.012	19723
896.134	19597
896.255	19639
896.376	19590
896.498	19491
896.619	19624
896.74	19506
896.861	19632
896.982	19898
897.103	19970
897.224	19860
897.345	19780
897.466	19814
897.587	19791
897.708	19997
897.828	19925
897.949	19738
898.07	19719
898.19	19803
898.311	19856
898.431	19734
898.552	19849
898.672	19845
898.792	19753
898.913	19890
899.033	19738
899.153	19643
899.273	19449
899.393	19529
899.513	19575
899.633	19620
899.753	19666
899.873	19415
899.993	19590
900.113	19571
900.232	19540
900.352	19525
900.472	19430
900.591	19419
900.711	19419
900.83	19350
900.95	19518
901.069	19480
901.189	19285
901.308	19065
901.427	18909
901.546	18905
901.665	18996
901.784	18890
901.904	18837
902.023	18715
902.141	18540
902.26	18441
902.379	18517
902.498	18506
902.617	18433
902.735	18528
902.854	18414
902.973	18384
903.091	18201
903.21	18163
903.328	18038
903.446	18121
903.565	17908
903.683	18011
903.801	17889
903.919	17828
904.038	18011
904.156	17771
904.274	17802
904.392	17764
904.51	17741
904.627	17695
904.745	17855
904.863	17726
904.981	17478
905.098	17505
905.216	17337
905.334	17360
905.451	17539
905.569	17414
905.686	17421
905.803	17353
905.921	17223
906.038	17220
906.155	17128
906.272	17121
906.389	17136
906.506	16995
906.623	17029
906.74	16896
906.857	16873
906.974	16858
907.091	17052
907.208	17018
907.324	16961
907.441	16908
907.557	16698
907.674	16660
907.79	16569
907.907	16626
908.023	16717
908.139	16675
908.256	16588
908.372	16580
908.488	16561
908.604	16447
908.72	16367
908.836	16459
908.952	16360
909.068	16405
909.184	16508
909.3	16413
909.415	16519
909.531	16348
909.647	16177
909.762	16150
909.878	16036
909.993	16025
910.108	16109
910.224	16086
910.339	16074
910.454	15983
910.57	15972
910.685	15983
910.8	16097
910.915	16135
911.03	15804
911.145	15736
911.259	15622
911.374	15622
911.489	15641
911.604	15561
911.718	15584
911.833	15504
911.947	15313
912.062	15260
912.176	15504
912.291	15542
912.405	15447
912.519	15644
912.633	15637
912.748	15439
912.862	15389
912.976	15310
913.09	15058
913.204	15256
913.318	15325
913.431	15397
913.545	15393
913.659	15272
913.772	15279
913.886	15173
914	14967
914.113	15123
914.226	15150
914.34	15184
914.453	15043
914.566	15085
914.68	15020
914.793	14914
914.906	14678
915.019	14655
915.132	14667
915.245	14716
915.358	14731
915.47	14670
915.583	14701
915.696	14640
915.809	14914
915.921	14842
916.034	14674
916.146	14552
916.259	14602
916.371	14724
916.483	14568
916.595	14549
916.708	14533
916.82	14541
916.932	14537
917.044	14499
917.156	14450
917.268	14358
917.38	14377
917.491	14374
917.603	14358
917.715	14366
917.826	14473
917.938	14278
918.049	14286
918.161	14286
918.272	14442
918.384	14434
918.495	14339
918.606	14214
918.717	14081
918.828	14107
918.939	14153
919.05	13967
919.161	14092
919.272	13989
919.383	13940
919.494	14180
919.604	14408
919.715	14065
919.826	13963
919.936	14088
920.047	14161
920.157	14088
920.267	14271
920.378	14134
920.488	14062
920.598	14221
920.708	14336
920.818	14225
920.928	14286
921.038	14412
921.148	14393
921.258	14115
921.368	13978
921.477	13902
921.587	13757
921.697	13696
921.806	13890
921.916	13666
922.025	13620
922.134	13468
922.244	13453
922.353	13518
922.462	13434
922.571	13259
922.68	13129
922.789	13160
922.898	13141
923.007	13168
923.116	13164
923.224	13099
923.333	13183
923.442	13004
923.55	12977
923.659	13015
923.767	13050
923.876	12901
923.984	13076
924.092	12817
924.201	12882
924.309	12894
924.417	12878
924.525	12920
924.633	12867
924.741	13807
924.849	12692
924.956	12795
925.064	12692
925.172	12464
925.279	12662
925.387	12642
925.494	12635
925.602	12715
925.709	12555
925.816	12547
925.924	12494
926.031	12604
926.138	12528
926.245	12566
926.352	12509
926.459	12612
926.566	12551
926.673	12456
926.779	12327
926.886	12388
926.993	12232
927.099	12034
927.206	12045
927.312	12117
927.419	12247
927.525	12129
927.631	12186
927.737	12038
927.843	11992
927.95	11863
928.056	11999
928.162	11965
928.267	12038
928.373	12703
928.479	11980
928.585	11821
928.69	11954
928.796	11973
928.901	11927
929.007	11741
929.112	11798
929.218	11786
929.323	11748
929.428	11661
929.533	11889
929.638	11699
929.743	11729
929.848	11733
929.953	11691
930.058	11634
930.163	11478
930.267	11425
930.372	11577
930.477	11372
930.581	11615
930.685	11448
930.79	11376
930.894	11307
930.998	11303
931.103	11417
931.207	10999
931.311	11025
931.415	10938
931.519	10759
931.623	10694
