Data from test_V78500241_1633.txt Node
Date: Fri Mar 25 15:21:13 CST 2022
User: usil
Spectrometer: V785-0024
Trigger mode: 0
Integration Time (sec): 4.000000E-1
Scans to average: 1
Nonlinearity correction enabled: false
Boxcar width: 0
Storing dark spectrum: false
XAxis mode: Wavelengths
Number of Pixels in Spectrum: 1024
>>>>>Begin Spectral Data<<<<<
801.071	27785
801.214	27861
801.356	27488
801.499	27454
801.641	27462
801.783	27443
801.926	27431
802.068	27488
802.211	27344
802.353	27184
802.496	27123
802.638	27154
802.78	26921
802.923	26872
803.065	26918
803.208	26952
803.35	27066
803.492	27211
803.635	27173
803.777	27195
803.919	27272
804.061	27523
804.204	27218
804.346	27302
804.488	27119
804.63	27180
804.773	27214
804.915	27199
805.057	27416
805.199	27264
805.341	27359
805.483	27435
805.626	27412
805.768	27245
805.91	27431
806.052	27298
806.194	27294
806.336	27530
806.478	27435
806.62	27348
806.762	27576
806.904	27488
807.046	27922
807.188	27819
807.33	27762
807.472	27804
807.614	27682
807.756	27835
807.898	27766
808.04	27557
808.182	27610
808.324	27686
808.465	27720
808.607	27892
808.749	27945
808.891	28143
809.033	28116
809.174	28177
809.316	27888
809.458	27975
809.6	27922
809.741	28109
809.883	28166
810.025	28253
810.166	28329
810.308	28295
810.45	28226
810.591	28188
810.733	27960
810.875	27949
811.016	27895
811.158	27861
811.299	28063
811.441	28188
811.582	28090
811.724	28051
811.865	27914
812.007	28120
812.148	28112
812.29	28017
812.431	28143
812.573	28356
812.714	28462
812.855	28440
812.997	28641
813.138	28771
813.279	28706
813.421	28554
813.562	28672
813.703	28344
813.845	28162
813.986	28025
814.127	27865
814.268	27667
814.41	27800
814.551	27637
814.692	27648
814.833	27671
814.974	27633
815.115	27694
815.256	27427
815.397	27644
815.539	27538
815.68	27462
815.821	27439
815.962	27561
816.103	27519
816.244	27252
816.385	27275
816.526	27165
816.666	27058
816.807	27036
816.948	27089
817.089	27077
817.23	27036
817.371	27024
817.512	27077
817.653	26998
817.793	26895
817.934	26986
818.075	26876
818.216	26857
818.356	27032
818.497	26891
818.638	26659
818.778	26720
818.919	26804
819.06	26811
819.2	26914
819.341	27077
819.481	27013
819.622	27192
819.762	27332
819.903	27279
820.043	27260
820.184	27150
820.324	27024
820.465	27230
820.605	27161
820.746	27001
820.886	26952
821.026	27032
821.167	26971
821.307	27146
821.447	26971
821.588	26921
821.728	26731
821.868	26648
822.008	26480
822.149	26503
822.289	26396
822.429	26187
822.569	26180
822.709	26122
822.849	25982
822.99	25887
823.13	25917
823.27	25860
823.41	25734
823.55	25693
823.69	25864
823.83	25906
823.97	25681
824.11	25491
824.25	25552
824.389	25601
824.529	25624
824.669	25556
824.809	25624
824.949	25674
825.089	25738
825.228	25605
825.368	25556
825.508	25388
825.648	25514
825.787	25544
825.927	25518
826.067	25468
826.206	25499
826.346	25468
826.485	25487
826.625	25392
826.765	25533
826.904	25620
827.044	25202
827.183	25232
827.323	25148
827.462	25206
827.601	25183
827.741	25091
827.88	25263
828.02	25137
828.159	25118
828.298	25103
828.437	25221
828.577	25091
828.716	25255
828.855	25065
828.994	24920
829.134	24852
829.273	24905
829.412	24886
829.551	24776
829.69	24939
829.829	24928
829.968	24977
830.107	24981
830.246	24760
830.385	24802
830.524	24901
830.663	24623
830.802	24494
830.941	24479
831.08	24498
831.219	24665
831.357	24528
831.496	24677
831.635	24616
831.774	24483
831.913	24441
832.051	24361
832.19	24311
832.329	24311
832.467	24247
832.606	24201
832.744	24057
832.883	24125
833.022	24087
833.16	24136
833.299	24133
833.437	24224
833.576	24232
833.714	24247
833.852	24388
833.991	24308
834.129	24289
834.267	24243
834.406	24209
834.544	24315
834.682	24159
834.821	24140
834.959	24346
835.097	24220
835.235	24300
835.373	24155
835.511	24140
835.65	24182
835.788	23999
835.926	24038
836.064	23817
836.202	23977
836.34	24060
836.478	24281
836.615	23977
836.753	23984
836.891	24083
837.029	24053
837.167	24022
837.305	24038
837.443	23912
837.58	23874
837.718	24011
837.856	24095
837.993	23836
838.131	23923
838.269	23786
838.406	23794
838.544	23760
838.681	23570
838.819	23455
838.956	23391
839.094	23372
839.231	23425
839.369	23509
839.506	23760
839.643	23646
839.781	23315
839.918	23231
840.055	23315
840.193	23315
840.33	23200
840.467	23341
840.604	23288
840.742	23589
840.879	23124
841.016	23197
841.153	23185
841.29	23455
841.427	23239
841.564	23337
841.701	23364
841.838	23246
841.975	23132
842.112	23242
842.249	22968
842.385	23075
842.522	23220
842.659	22968
842.796	23006
842.933	23052
843.069	23029
843.206	22999
843.343	23140
843.479	22987
843.616	23033
843.752	22847
843.889	22850
844.025	23014
844.162	22744
844.298	22934
844.435	22816
844.571	22774
844.708	22809
844.844	23029
844.98	22820
845.117	22938
845.253	22679
845.389	22546
845.525	22774
845.661	22782
845.798	22584
845.934	22622
846.07	22318
846.206	22618
846.342	22641
846.478	22440
846.614	22196
846.75	22325
846.886	22413
847.022	22284
847.158	22409
847.294	22462
847.429	22314
847.565	22265
847.701	22478
847.837	22021
847.972	21941
848.108	22029
848.244	22299
848.379	21934
848.515	21934
848.65	21983
848.786	21861
848.921	21899
849.057	22029
849.192	21835
849.328	21854
849.463	21854
849.598	21762
849.734	21717
849.869	21720
850.004	21644
850.14	21679
850.275	21606
850.41	21595
850.545	21542
850.68	21660
850.815	21713
850.95	21603
851.085	21766
851.22	21827
851.355	21690
851.49	21641
851.625	21698
851.76	21648
851.895	21618
852.03	21500
852.165	21572
852.299	21561
852.434	21675
852.569	21663
852.703	21648
852.838	21690
852.973	21759
853.107	21686
853.242	21641
853.376	21412
853.511	21431
853.645	21313
853.78	21492
853.914	21473
854.048	21340
854.183	21397
854.317	21454
854.451	21641
854.585	21393
854.72	21466
854.854	21504
854.988	21405
855.122	21526
855.256	21214
855.39	21454
855.524	21496
855.658	21595
855.792	21530
855.926	21386
856.06	21424
856.194	21625
856.327	21435
856.461	21439
856.595	21351
856.729	21507
856.862	21473
856.996	21648
857.13	21469
857.263	21618
857.397	21515
857.53	21496
857.664	21294
857.797	21549
857.931	21591
858.064	21450
858.197	21564
858.331	21408
858.464	21370
858.597	21363
858.731	21332
858.864	21412
858.997	21389
859.13	21485
859.263	21458
859.396	21477
859.529	21542
859.662	21370
859.795	21504
859.928	21496
860.061	21606
860.194	21660
860.327	21515
860.46	21504
860.592	21393
860.725	21644
860.858	21599
860.99	21401
861.123	21287
861.256	21393
861.388	21469
861.521	22067
861.653	21332
861.786	21146
861.918	21161
862.05	21329
862.183	21374
862.315	21317
862.447	21435
862.58	21321
862.712	21070
862.844	21096
862.976	21272
863.108	21222
863.24	21477
863.372	21062
863.504	21173
863.636	21192
863.768	21116
863.9	21154
864.032	21020
864.164	21127
864.296	21195
864.428	21241
864.559	21298
864.691	21089
864.823	21268
864.954	21146
865.086	21093
865.217	21096
865.349	20914
865.48	21062
865.612	21142
865.743	21123
865.875	21055
866.006	21127
866.137	20998
866.269	21085
866.4	21001
866.531	21066
866.662	21119
866.793	20982
866.924	20960
867.055	20979
867.186	21108
867.317	20963
867.448	20975
867.579	20921
867.71	20853
867.841	20845
867.972	21028
868.103	21077
868.233	21074
868.364	21036
868.495	21051
868.625	21203
868.756	21279
868.886	21062
869.017	21173
869.147	21302
869.278	21389
869.408	21241
869.539	21260
869.669	21359
869.799	21214
869.929	21370
870.06	21325
870.19	21519
870.32	21507
870.45	21545
870.58	21736
870.71	21679
870.84	21679
870.97	21568
871.1	21667
871.23	21633
871.36	21922
871.489	21766
871.619	21751
871.749	21899
871.879	21888
872.008	21903
872.138	21823
872.267	21895
872.397	21557
872.526	21583
872.656	21686
872.785	21622
872.915	21960
873.044	21895
873.173	21911
873.303	21895
873.432	21892
873.561	21972
873.69	21816
873.819	21762
873.948	21956
874.077	21937
874.206	21804
874.335	21823
874.464	21994
874.593	22021
874.722	22055
874.851	22226
874.979	22059
875.108	22067
875.237	22143
875.365	21953
875.494	21922
875.623	22017
875.751	22074
875.88	22143
876.008	22166
876.136	22379
876.265	22523
876.393	22577
876.521	22577
876.65	22474
876.778	22402
876.906	22451
877.034	22379
877.162	22523
877.29	22413
877.418	22432
877.546	22417
877.674	22375
877.802	22428
877.93	22303
878.058	22405
878.185	22352
878.313	22348
878.441	22299
878.568	22177
878.696	22249
878.824	22375
878.951	22394
879.079	22481
879.206	22710
879.333	22493
879.461	22508
879.588	22561
879.715	22519
879.842	22599
879.97	22485
880.097	22177
880.224	22249
880.351	22200
880.478	22230
880.605	22166
880.732	22299
880.859	22478
880.986	22219
881.112	22242
881.239	22055
881.366	22013
881.493	21953
881.619	21781
881.746	21766
881.872	21819
881.999	21713
882.125	21709
882.252	21865
882.378	21823
882.505	21865
882.631	21694
882.757	21507
882.883	21587
883.01	21545
883.136	21507
883.262	21420
883.388	21321
883.514	21477
883.64	21416
883.766	21462
883.892	21317
884.018	21344
884.143	21473
884.269	21496
884.395	21294
884.52	21127
884.646	21104
884.772	21058
884.897	20944
885.023	21142
885.148	21283
885.274	21382
885.399	21233
885.524	21199
885.65	21058
885.775	21169
885.9	21142
886.025	21169
886.15	21218
886.275	21150
886.4	21150
886.525	21161
886.65	21081
886.775	21066
886.9	21291
887.025	21397
887.149	21146
887.274	20910
887.399	20902
887.523	20994
887.648	20792
887.773	20880
887.897	20982
888.021	20800
888.146	20826
888.27	20861
888.395	20986
888.519	21013
888.643	21032
888.767	20952
888.891	20804
889.015	20746
889.139	20743
889.263	20678
889.387	20933
889.511	20956
889.635	20925
889.759	20701
889.883	20731
890.006	20735
890.13	20765
890.254	20724
890.377	20792
890.501	20393
890.624	20473
890.748	20537
890.871	20309
890.995	20195
891.118	20168
891.241	20199
891.364	20328
891.488	20351
891.611	20263
891.734	20256
891.857	20366
891.98	20275
892.103	20305
892.226	20366
892.349	20256
892.471	20103
892.594	20206
892.717	20237
892.839	20210
892.962	20191
893.085	20218
893.207	20103
893.33	20001
893.452	20119
893.575	20244
893.697	20134
893.819	20317
893.941	20339
894.064	20438
894.186	20005
894.308	20031
894.43	20187
894.552	20370
894.674	20336
894.796	20081
894.918	20168
895.04	20035
895.161	20202
895.283	20225
895.405	20199
895.526	20256
895.648	20058
895.769	20172
895.891	20100
896.012	20275
896.134	20084
896.255	20259
896.376	20161
896.498	20088
896.619	20298
896.74	20157
896.861	20126
896.982	20503
897.103	20617
897.224	20511
897.345	20362
897.466	20301
897.587	20336
897.708	20579
897.828	20404
897.949	20358
898.07	20252
898.19	20263
898.311	20450
898.431	20412
898.552	20400
898.672	20480
898.792	20347
898.913	20400
899.033	20317
899.153	20301
899.273	20138
899.393	20092
899.513	20199
899.633	20065
899.753	20103
899.873	20096
899.993	20122
900.113	20157
900.232	20195
900.352	20012
900.472	19898
900.591	19871
900.711	19986
900.83	19902
900.95	20035
901.069	19955
901.189	19723
901.308	19552
901.427	19578
901.546	19499
901.665	19533
901.784	19495
901.904	19384
902.023	19221
902.141	19190
902.26	18962
902.379	19103
902.498	19042
902.617	19053
902.735	19042
902.854	18935
902.973	19031
903.091	18669
903.21	18707
903.328	18684
903.446	18540
903.565	18464
903.683	18460
903.801	18384
903.919	18445
904.038	18372
904.156	18186
904.274	18403
904.392	18159
904.51	18213
904.627	18258
904.745	18369
904.863	18289
904.981	18087
905.098	17939
905.216	18057
905.334	17977
905.451	17882
905.569	17901
905.686	17958
905.803	17973
905.921	17619
906.038	17783
906.155	17729
906.272	17547
906.389	17638
906.506	17520
906.623	17455
906.74	17509
906.857	17318
906.974	17406
907.091	17482
907.208	17570
907.324	17493
907.441	17277
907.557	17235
907.674	17254
907.79	17143
907.907	17200
908.023	17181
908.139	17193
908.256	17083
908.372	17136
908.488	17121
908.604	16938
908.72	16790
908.836	16889
908.952	16862
909.068	16976
909.184	16934
909.3	16854
909.415	16877
909.531	16858
909.647	16607
909.762	16725
909.878	16542
909.993	16645
910.108	16504
910.224	16573
910.339	16664
910.454	16493
910.57	16451
910.685	16371
910.8	16679
910.915	16561
911.03	16352
911.145	16211
911.259	16272
911.374	16242
911.489	16124
911.604	16074
911.718	15854
911.833	15888
911.947	15819
912.062	15842
912.176	15968
912.291	15956
912.405	15880
912.519	16044
912.633	16086
912.748	15930
912.862	15876
912.976	15755
913.09	15671
913.204	15690
913.318	15720
913.431	15797
913.545	15759
913.659	15907
913.772	15823
913.886	15519
914	15496
914.113	15709
914.226	15694
914.34	15625
914.453	15439
914.566	15572
914.68	15393
914.793	15386
914.906	15226
915.019	15157
915.132	14986
915.245	15256
915.358	15173
915.47	15093
915.583	15085
915.696	15180
915.809	15275
915.921	15306
916.034	15089
916.146	15116
916.259	15028
916.371	15116
916.483	15074
916.595	15001
916.708	15001
916.82	14960
916.932	14944
917.044	14948
917.156	14906
917.268	14815
917.38	14769
917.491	14758
917.603	14781
917.715	14800
917.826	14815
917.938	14804
918.049	14670
918.161	14746
918.272	14796
918.384	14853
918.495	14697
918.606	14495
918.717	14450
918.828	14705
918.939	14610
919.05	14503
919.161	14549
919.272	14278
919.383	14396
919.494	14720
919.604	14708
919.715	14659
919.826	14461
919.936	14499
920.047	14537
920.157	14503
920.267	14731
920.378	14537
920.488	14568
920.598	14651
920.708	14804
920.818	14689
920.928	14686
921.038	14746
921.148	14682
921.258	14533
921.368	14370
921.477	14286
921.587	14214
921.697	14210
921.806	14221
921.916	14107
922.025	13951
922.134	13845
922.244	13837
922.353	13894
922.462	13715
922.571	13734
922.68	13609
922.789	13499
922.898	13628
923.007	13556
923.116	13651
923.224	13582
923.333	13411
923.442	13411
923.55	13438
923.659	13460
923.767	13441
923.876	13289
923.984	13312
924.092	13228
924.201	13316
924.309	13228
924.417	13308
924.525	13240
924.633	13251
924.741	14172
924.849	12996
924.956	13168
925.064	12947
925.172	12871
925.279	12996
925.387	12962
925.494	12897
925.602	13076
925.709	13008
925.816	12837
925.924	12996
926.031	13084
926.138	12863
926.245	13015
926.352	12722
926.459	12973
926.566	12928
926.673	12844
926.779	12681
926.886	12730
926.993	12627
927.099	12570
927.206	12502
927.312	12429
927.419	12574
927.525	12422
927.631	12528
927.737	12376
927.843	12395
927.95	12327
928.056	12311
928.162	12365
928.267	12334
928.373	12996
928.479	12315
928.585	12148
928.69	12315
928.796	12403
928.901	12114
929.007	12038
929.112	12186
929.218	12175
929.323	12060
929.428	12049
929.533	12140
929.638	11992
929.743	12022
929.848	12148
929.953	11973
930.058	11916
930.163	11760
930.267	11847
930.372	11901
930.477	11786
930.581	11950
930.685	11874
930.79	11676
930.894	11714
930.998	11566
931.103	11707
931.207	11379
931.311	11379
931.415	11208
931.519	11056
931.623	11025
