Data from test_V78500241_2774.txt Node
Date: Fri Mar 25 15:29:10 CST 2022
User: usil
Spectrometer: V785-0024
Trigger mode: 0
Integration Time (sec): 4.000000E-1
Scans to average: 1
Nonlinearity correction enabled: false
Boxcar width: 0
Storing dark spectrum: false
XAxis mode: Wavelengths
Number of Pixels in Spectrum: 1024
>>>>>Begin Spectral Data<<<<<
801.071	27036
801.214	27051
801.356	26777
801.499	26693
801.641	26693
801.783	26609
801.926	26731
802.068	26602
802.211	26549
802.353	26533
802.496	26396
802.638	26244
802.78	26221
802.923	26225
803.065	26119
803.208	26077
803.35	26206
803.492	26221
803.635	26450
803.777	26328
803.919	26453
804.061	26708
804.204	26564
804.346	26366
804.488	26317
804.63	26389
804.773	26286
804.915	26396
805.057	26419
805.199	26339
805.341	26412
805.483	26408
805.626	26495
805.768	26404
805.91	26503
806.052	26434
806.194	26328
806.336	26663
806.478	26514
806.62	26503
806.762	26632
806.904	26899
807.046	27070
807.188	26857
807.33	27009
807.472	27013
807.614	26842
807.756	26864
807.898	26689
808.04	26659
808.182	26754
808.324	26769
808.465	26838
808.607	26990
808.749	27077
808.891	27081
809.033	27188
809.174	27116
809.316	27055
809.458	27051
809.6	26982
809.741	27161
809.883	27089
810.025	27367
810.166	27256
810.308	27348
810.45	27351
810.591	27268
810.733	26891
810.875	27207
811.016	26948
811.158	27024
811.299	27176
811.441	27218
811.582	27313
811.724	27104
811.865	27039
812.007	26971
812.148	27119
812.29	27055
812.431	27325
812.573	27363
812.714	27386
812.855	27618
812.997	27622
813.138	27842
813.279	27751
813.421	27553
813.562	27580
813.703	27386
813.845	27214
813.986	27138
814.127	26804
814.268	26659
814.41	26845
814.551	26861
814.692	26765
814.833	26754
814.974	26659
815.115	26735
815.256	26503
815.397	26606
815.539	26655
815.68	26587
815.821	26332
815.962	26609
816.103	26476
816.244	26347
816.385	26191
816.526	26225
816.666	26096
816.807	25871
816.948	25928
817.089	26020
817.23	26027
817.371	26046
817.512	26081
817.653	26005
817.793	25894
817.934	25951
818.075	25925
818.216	25955
818.356	25944
818.497	25807
818.638	25731
818.778	25712
818.919	25784
819.06	25879
819.2	25871
819.341	25875
819.481	26122
819.622	26157
819.762	26259
819.903	26195
820.043	26138
820.184	26183
820.324	26115
820.465	26122
820.605	26084
820.746	26103
820.886	26005
821.026	25913
821.167	26012
821.307	26069
821.447	26119
821.588	25909
821.728	25822
821.868	25662
822.008	25487
822.149	25529
822.289	25457
822.429	25168
822.569	25110
822.709	25168
822.849	24996
822.99	24996
823.13	24806
823.27	24829
823.41	24738
823.55	24802
823.69	24867
823.83	24772
823.97	24817
824.11	24555
824.25	24502
824.389	24517
824.529	24650
824.669	24608
824.809	24677
824.949	24563
825.089	24700
825.228	24601
825.368	24441
825.508	24445
825.648	24464
825.787	24414
825.927	24547
826.067	24384
826.206	24445
826.346	24525
826.485	24467
826.625	24391
826.765	24601
826.904	24433
827.044	24251
827.183	24110
827.323	24159
827.462	24205
827.601	24110
827.741	24140
827.88	24144
828.02	24064
828.159	24194
828.298	24091
828.437	24182
828.577	24072
828.716	24163
828.855	24053
828.994	23722
829.134	23882
829.273	23908
829.412	23840
829.551	23680
829.69	23889
829.829	23813
829.968	23828
830.107	23935
830.246	23878
830.385	23790
830.524	23722
830.663	23714
830.802	23486
830.941	23486
831.08	23444
831.219	23585
831.357	23467
831.496	23710
831.635	23493
831.774	23387
831.913	23220
832.051	23326
832.19	23231
832.329	23239
832.467	23048
832.606	23117
832.744	22953
832.883	23010
833.022	23056
833.16	23166
833.299	23170
833.437	23048
833.576	23212
833.714	23121
833.852	23193
833.991	23212
834.129	23368
834.267	23200
834.406	23200
834.544	23280
834.682	23258
834.821	23181
834.959	23421
835.097	23083
835.235	23277
835.373	23079
835.511	23143
835.65	23064
835.788	23079
835.926	22915
836.064	22885
836.202	22839
836.34	23003
836.478	23044
836.615	22911
836.753	22885
836.891	23178
837.029	23029
837.167	22984
837.305	23018
837.443	23048
837.58	22812
837.718	22805
837.856	22915
837.993	22873
838.131	22953
838.269	22752
838.406	22744
838.544	22755
838.681	22481
838.819	22592
838.956	22363
839.094	22265
839.231	22360
839.369	22588
839.506	22790
839.643	22569
839.781	22322
839.918	22432
840.055	22394
840.193	22284
840.33	22246
840.467	22382
840.604	22329
840.742	22557
840.879	22207
841.016	22162
841.153	22253
841.29	22322
841.427	22382
841.564	22291
841.701	22325
841.838	22154
841.975	22246
842.112	22154
842.249	22173
842.385	22078
842.522	22337
842.659	22070
842.796	22139
842.933	22021
843.069	22013
843.206	22051
843.343	22139
843.479	22059
843.616	22013
843.752	21774
843.889	21861
844.025	22078
844.162	21827
844.298	21880
844.435	21812
844.571	21720
844.708	21732
844.844	21941
844.98	21945
845.117	21979
845.253	21739
845.389	21732
845.525	21606
845.661	21724
845.798	21526
845.934	21564
846.07	21595
846.206	21523
846.342	21743
846.478	21599
846.614	21386
846.75	21291
846.886	21150
847.022	21275
847.158	21268
847.294	21085
847.429	21313
847.565	21184
847.701	21469
847.837	20956
847.972	20971
848.108	21135
848.244	21096
848.379	20883
848.515	20948
848.65	20925
848.786	20910
848.921	20952
849.057	20975
849.192	20914
849.328	20895
849.463	20849
849.598	20925
849.734	20750
849.869	20819
850.004	20606
850.14	20587
850.275	20754
850.41	20507
850.545	20575
850.68	20682
850.815	20632
850.95	20678
851.085	20838
851.22	20705
851.355	20689
851.49	20613
851.625	20674
851.76	20735
851.895	20606
852.03	20473
852.165	20724
852.299	20750
852.434	20693
852.569	20701
852.703	20697
852.838	20765
852.973	20804
853.107	20674
853.242	20689
853.376	20442
853.511	20503
853.645	20446
853.78	20640
853.914	20393
854.048	20511
854.183	20480
854.317	20427
854.451	20659
854.585	20473
854.72	20465
854.854	20594
854.988	20457
855.122	20571
855.256	20404
855.39	20499
855.524	20545
855.658	20499
855.792	20556
855.926	20499
856.06	20537
856.194	20609
856.327	20461
856.461	20408
856.595	20473
856.729	20419
856.862	20518
856.996	20484
857.13	20522
857.263	20556
857.397	20530
857.53	20381
857.664	20454
857.797	20640
857.931	20583
858.064	20495
858.197	20594
858.331	20499
858.464	20495
858.597	20229
858.731	20374
858.864	20545
858.997	20488
859.13	20518
859.263	20377
859.396	20575
859.529	20385
859.662	20374
859.795	20389
859.928	20545
860.061	20606
860.194	20659
860.327	20568
860.46	20583
860.592	20541
860.725	20678
860.858	20621
860.99	20434
861.123	20488
861.256	20492
861.388	20454
861.521	20960
861.653	20370
861.786	20282
861.918	20320
862.05	20374
862.183	20332
862.315	20324
862.447	20484
862.58	20412
862.712	20168
862.844	20210
862.976	20343
863.108	20294
863.24	20670
863.372	20157
863.504	20233
863.636	20180
863.768	20320
863.9	20100
864.032	20126
864.164	20199
864.296	20206
864.428	20332
864.559	20263
864.691	20313
864.823	20301
864.954	20183
865.086	20191
865.217	20081
865.349	20138
865.48	20008
865.612	20134
865.743	20221
865.875	20111
866.006	20008
866.137	20088
866.269	20084
866.4	20088
866.531	20130
866.662	20157
866.793	20024
866.924	20065
867.055	20164
867.186	20069
867.317	20050
867.448	19955
867.579	20115
867.71	19986
867.841	20054
867.972	20024
868.103	20062
868.233	20012
868.364	20168
868.495	20202
868.625	20324
868.756	20278
868.886	20142
869.017	20233
869.147	20552
869.278	20355
869.408	20313
869.539	20332
869.669	20336
869.799	20465
869.929	20412
870.06	20336
870.19	20514
870.32	20499
870.45	20644
870.58	20644
870.71	20731
870.84	20853
870.97	20788
871.1	20629
871.23	20811
871.36	20902
871.489	20739
871.619	20864
871.749	20963
871.879	20834
872.008	20925
872.138	20975
872.267	20872
872.397	20731
872.526	20693
872.656	20724
872.785	20682
872.915	20769
873.044	21055
873.173	20944
873.303	20899
873.432	20891
873.561	20960
873.69	20895
873.819	20876
873.948	20906
874.077	20967
874.206	20971
874.335	20933
874.464	20948
874.593	21112
874.722	21024
874.851	21119
874.979	21119
875.108	21195
875.237	21005
875.365	21131
875.494	21089
875.623	21211
875.751	21135
875.88	21237
876.008	21256
876.136	21351
876.265	21561
876.393	21686
876.521	21583
876.65	21819
876.778	21618
876.906	21454
877.034	21450
877.162	21553
877.29	21504
877.418	21485
877.546	21389
877.674	21485
877.802	21481
877.93	21408
878.058	21367
878.185	21256
878.313	21382
878.441	21576
878.568	21367
878.696	21523
878.824	21511
878.951	21629
879.079	21568
879.206	21781
879.333	21732
879.461	21500
879.588	21610
879.715	21701
879.842	21827
879.97	21633
880.097	21424
880.224	21249
880.351	21378
880.478	21325
880.605	21302
880.732	21237
880.859	21568
880.986	21447
881.112	21443
881.239	21226
881.366	21032
881.493	21081
881.619	20834
881.746	20979
881.872	20800
881.999	20910
882.125	20864
882.252	20941
882.378	20876
882.505	21032
882.631	20853
882.757	20667
882.883	20686
883.01	20727
883.136	20518
883.262	20533
883.388	20518
883.514	20594
883.64	20640
883.766	20537
883.892	20339
884.018	20305
884.143	20640
884.269	20621
884.395	20412
884.52	20271
884.646	20328
884.772	20366
884.897	20191
885.023	20172
885.148	20313
885.274	20389
885.399	20423
885.524	20275
885.65	20305
885.775	20248
885.9	20229
886.025	20294
886.15	20404
886.275	20317
886.4	20176
886.525	20328
886.65	20339
886.775	20164
886.9	20400
887.025	20374
887.149	20187
887.274	20153
887.399	20020
887.523	20043
887.648	19955
887.773	19925
887.897	20130
888.021	20024
888.146	20027
888.27	20100
888.395	20107
888.519	20062
888.643	19963
888.767	20005
888.891	19879
889.015	19902
889.139	19978
889.263	19864
889.387	19951
889.511	20065
889.635	19974
889.759	19894
889.883	19811
890.006	19940
890.13	19917
890.254	19795
890.377	19772
890.501	19670
890.624	19662
890.748	19670
890.871	19514
890.995	19388
891.118	19339
891.241	19578
891.364	19510
891.488	19529
891.611	19396
891.734	19441
891.857	19651
891.98	19403
892.103	19460
892.226	19403
892.349	19373
892.471	19266
892.594	19403
892.717	19293
892.839	19392
892.962	19411
893.085	19422
893.207	19293
893.33	19285
893.452	19293
893.575	19384
893.697	19232
893.819	19601
893.941	19556
894.064	19514
894.186	19327
894.308	19194
894.43	19578
894.552	19464
894.674	19407
894.796	19190
894.918	19388
895.04	19339
895.161	19381
895.283	19343
895.405	19232
895.526	19335
895.648	19293
895.769	19388
895.891	19388
896.012	19464
896.134	19434
896.255	19396
896.376	19316
896.498	19350
896.619	19403
896.74	19392
896.861	19453
896.982	19757
897.103	19841
897.224	19575
897.345	19651
897.466	19514
897.587	19575
897.708	19693
897.828	19632
897.949	19594
898.07	19434
898.19	19639
898.311	19655
898.431	19502
898.552	19738
898.672	19704
898.792	19685
898.913	19734
899.033	19499
899.153	19487
899.273	19320
899.393	19354
899.513	19449
899.633	19369
899.753	19373
899.873	19282
899.993	19255
900.113	19415
900.232	19358
900.352	19316
900.472	19164
900.591	19209
900.711	19187
900.83	19118
900.95	19327
901.069	19221
901.189	18996
901.308	18802
901.427	18738
901.546	18817
901.665	18760
901.784	18856
901.904	18593
902.023	18650
902.141	18437
902.26	18296
902.379	18319
902.498	18281
902.617	18281
902.735	18334
902.854	18197
902.973	18232
903.091	18038
903.21	17973
903.328	18041
903.446	17901
903.565	17756
903.683	17824
903.801	17691
903.919	17722
904.038	17722
904.156	17482
904.274	17718
904.392	17592
904.51	17482
904.627	17646
904.745	17573
904.863	17547
904.981	17463
905.098	17322
905.216	17204
905.334	17296
905.451	17151
905.569	17197
905.686	17166
905.803	17094
905.921	16953
906.038	17086
906.155	17075
906.272	16987
906.389	16908
906.506	16687
906.623	16691
906.74	16721
906.857	16645
906.974	16691
907.091	16744
907.208	16793
907.324	16755
907.441	16630
907.557	16569
907.674	16508
907.79	16398
907.907	16333
908.023	16489
908.139	16432
908.256	16421
908.372	16489
908.488	16363
908.604	16272
908.72	16207
908.836	16188
908.952	16105
909.068	16185
909.184	16135
909.3	16219
909.415	16265
909.531	16215
909.647	16078
909.762	15895
909.878	15865
909.993	15945
910.108	15857
910.224	15926
910.339	15903
910.454	15778
910.57	15671
910.685	15736
910.8	15937
910.915	15823
911.03	15812
911.145	15568
911.259	15561
911.374	15549
911.489	15454
911.604	15359
911.718	15211
911.833	15233
911.947	15192
912.062	15245
912.176	15317
912.291	15313
912.405	15298
912.519	15526
912.633	15454
912.748	15382
912.862	15283
912.976	15085
913.09	15032
913.204	15138
913.318	15211
913.431	15135
913.545	15180
913.659	15154
913.772	15047
913.886	14967
914	14902
914.113	14998
914.226	15032
914.34	14982
914.453	14842
914.566	14952
914.68	14781
914.793	14697
914.906	14484
915.019	14568
915.132	14438
915.245	14526
915.358	14552
915.47	14507
915.583	14526
915.696	14503
915.809	14632
915.921	14686
916.034	14438
916.146	14446
916.259	14423
916.371	14476
916.483	14503
916.595	14309
916.708	14351
916.82	14484
916.932	14385
917.044	14358
917.156	14278
917.268	14218
917.38	14282
917.491	14161
917.603	14248
917.715	14263
917.826	14313
917.938	14088
918.049	14062
918.161	14130
918.272	14195
918.384	14282
918.495	14233
918.606	13974
918.717	13917
918.828	13993
918.939	14054
919.05	13906
919.161	13913
919.272	13769
919.383	13906
919.494	13902
919.604	14153
919.715	13978
919.826	13864
919.936	13940
920.047	14043
920.157	13845
920.267	14195
920.378	13982
920.488	13894
920.598	14119
920.708	14298
920.818	14054
920.928	14145
921.038	14229
921.148	14126
921.258	13845
921.368	13822
921.477	13788
921.587	13727
921.697	13582
921.806	13734
921.916	13529
922.025	13365
922.134	13327
922.244	13251
922.353	13301
922.462	13244
922.571	13175
922.68	13004
922.789	13000
922.898	13053
923.007	13050
923.116	13061
923.224	12977
923.333	12985
923.442	12878
923.55	12817
923.659	12844
923.767	12916
923.876	12768
923.984	12878
924.092	12768
924.201	12825
924.309	12795
924.417	12757
924.525	12688
924.633	12688
924.741	13468
924.849	12498
924.956	12616
925.064	12532
925.172	12448
925.279	12426
925.387	12555
925.494	12517
925.602	12479
925.709	12540
925.816	12418
925.924	12395
926.031	12502
926.138	12502
926.245	12418
926.352	12410
926.459	12486
926.566	12517
926.673	12342
926.779	12258
926.886	12220
926.993	12114
927.099	12041
927.206	11969
927.312	12091
927.419	12129
927.525	12038
927.631	12049
927.737	11889
927.843	11908
927.95	11775
928.056	11866
928.162	11836
928.267	12060
928.373	12490
928.479	11927
928.585	11684
928.69	11802
928.796	11809
928.901	11718
929.007	11596
929.112	11786
929.218	11813
929.323	11657
929.428	11707
929.533	11733
929.638	11585
929.743	11604
929.848	11642
929.953	11547
930.058	11414
930.163	11345
930.267	11322
930.372	11547
930.477	11239
930.581	11554
930.685	11318
930.79	11223
930.894	11296
930.998	11269
931.103	11421
931.207	11010
931.311	10866
931.415	10793
931.519	10691
931.623	10603
