Data from test_V78500241_2499.txt Node
Date: Fri Mar 25 15:27:15 CST 2022
User: usil
Spectrometer: V785-0024
Trigger mode: 0
Integration Time (sec): 4.000000E-1
Scans to average: 1
Nonlinearity correction enabled: false
Boxcar width: 0
Storing dark spectrum: false
XAxis mode: Wavelengths
Number of Pixels in Spectrum: 1024
>>>>>Begin Spectral Data<<<<<
801.071	27272
801.214	27123
801.356	27005
801.499	26788
801.641	26705
801.783	26754
801.926	26800
802.068	26895
802.211	26571
802.353	26511
802.496	26377
802.638	26309
802.78	26374
802.923	26347
803.065	26199
803.208	26233
803.35	26450
803.492	26431
803.635	26503
803.777	26450
803.919	26495
804.061	26655
804.204	26590
804.346	26541
804.488	26473
804.63	26495
804.773	26415
804.915	26404
805.057	26552
805.199	26484
805.341	26606
805.483	26549
805.626	26617
805.768	26545
805.91	26625
806.052	26659
806.194	26568
806.336	26777
806.478	26613
806.62	26606
806.762	26678
806.904	26800
807.046	27039
807.188	26998
807.33	26979
807.472	27036
807.614	26921
807.756	26899
807.898	26902
808.04	26902
808.182	26830
808.324	26857
808.465	26967
808.607	27081
808.749	27222
808.891	27131
809.033	27370
809.174	27226
809.316	27142
809.458	27268
809.6	27024
809.741	27294
809.883	27363
810.025	27458
810.166	27504
810.308	27545
810.45	27363
810.591	27230
810.733	27199
810.875	27154
811.016	27173
811.158	27180
811.299	27260
811.441	27466
811.582	27424
811.724	27222
811.865	27138
812.007	27169
812.148	27173
812.29	27275
812.431	27420
812.573	27580
812.714	27572
812.855	27736
812.997	27713
813.138	28029
813.279	27823
813.421	27701
813.562	27572
813.703	27427
813.845	27359
813.986	27070
814.127	26902
814.268	26853
814.41	26861
814.551	26944
814.692	27047
814.833	26788
814.974	26891
815.115	26952
815.256	26758
815.397	26686
815.539	26720
815.68	26503
815.821	26575
815.962	26518
816.103	26507
816.244	26446
816.385	26332
816.526	26450
816.666	26271
816.807	26176
816.948	26225
817.089	26317
817.23	26062
817.371	26142
817.512	26100
817.653	26081
817.793	26050
817.934	26172
818.075	26115
818.216	26050
818.356	26145
818.497	25951
818.638	25769
818.778	25898
818.919	25807
819.06	25799
819.2	25887
819.341	26039
819.481	26084
819.622	26218
819.762	26355
819.903	26278
820.043	26324
820.184	26237
820.324	26240
820.465	26221
820.605	26134
820.746	26183
820.886	26084
821.026	26229
821.167	26107
821.307	26275
821.447	26142
821.588	26069
821.728	25928
821.868	25719
822.008	25620
822.149	25696
822.289	25563
822.429	25251
822.569	25278
822.709	25270
822.849	25209
822.99	25110
823.13	25015
823.27	25122
823.41	25004
823.55	24783
823.69	24932
823.83	24875
823.97	24928
824.11	24722
824.25	24726
824.389	24650
824.529	24833
824.669	24726
824.809	24802
824.949	24802
825.089	24863
825.228	24726
825.368	24505
825.508	24509
825.648	24642
825.787	24623
825.927	24551
826.067	24616
826.206	24555
826.346	24570
826.485	24669
826.625	24544
826.765	24684
826.904	24658
827.044	24426
827.183	24258
827.323	24300
827.462	24357
827.601	24292
827.741	24289
827.88	24281
828.02	24171
828.159	24285
828.298	24357
828.437	24330
828.577	24327
828.716	24414
828.855	24235
828.994	23973
829.134	23863
829.273	24060
829.412	23893
829.551	24003
829.69	24007
829.829	24083
829.968	24076
830.107	23969
830.246	24110
830.385	23984
830.524	23961
830.663	23760
830.802	23771
830.941	23592
831.08	23786
831.219	23672
831.357	23840
831.496	23874
831.635	23558
831.774	23547
831.913	23547
832.051	23414
832.19	23436
832.329	23402
832.467	23277
832.606	23326
832.744	23349
832.883	23296
833.022	23277
833.16	23364
833.299	23398
833.437	23303
833.576	23368
833.714	23326
833.852	23433
833.991	23410
834.129	23478
834.267	23379
834.406	23455
834.544	23414
834.682	23417
834.821	23478
834.959	23516
835.097	23220
835.235	23345
835.373	23353
835.511	23227
835.65	23254
835.788	23330
835.926	23136
836.064	22889
836.202	23022
836.34	23227
836.478	23334
836.615	23155
836.753	23174
836.891	23284
837.029	23235
837.167	23098
837.305	23052
837.443	23067
837.58	23086
837.718	23090
837.856	23136
837.993	23056
838.131	22873
838.269	22957
838.406	23075
838.544	22904
838.681	22755
838.819	22748
838.956	22607
839.094	22542
839.231	22603
839.369	22664
839.506	22923
839.643	22782
839.781	22474
839.918	22519
840.055	22535
840.193	22470
840.33	22584
840.467	22462
840.604	22599
840.742	22843
840.879	22424
841.016	22580
841.153	22371
841.29	22618
841.427	22577
841.564	22592
841.701	22519
841.838	22485
841.975	22325
842.112	22428
842.249	22470
842.385	22379
842.522	22512
842.659	22398
842.796	22158
842.933	22344
843.069	22150
843.206	22268
843.343	22295
843.479	22291
843.616	22261
843.752	22135
843.889	22070
844.025	22082
844.162	22120
844.298	22059
844.435	22032
844.571	22059
844.708	22074
844.844	22265
844.98	22112
845.117	22181
845.253	21857
845.389	21850
845.525	21907
845.661	22029
845.798	21751
845.934	21880
846.07	21755
846.206	21819
846.342	21934
846.478	21671
846.614	21450
846.75	21515
846.886	21557
847.022	21523
847.158	21606
847.294	21447
847.429	21542
847.565	21481
847.701	21736
847.837	21252
847.972	21180
848.108	21367
848.244	21325
848.379	21146
848.515	21123
848.65	21104
848.786	21043
848.921	21123
849.057	21230
849.192	21112
849.328	21039
849.463	20986
849.598	21039
849.734	20979
849.869	20994
850.004	20838
850.14	20929
850.275	20857
850.41	20800
850.545	20853
850.68	20899
850.815	20883
850.95	20842
851.085	20963
851.22	20971
851.355	20857
851.49	20834
851.625	20895
851.76	20853
851.895	20746
852.03	20838
852.165	20872
852.299	20891
852.434	20887
852.569	20895
852.703	20857
852.838	20895
852.973	20925
853.107	20971
853.242	20834
853.376	20625
853.511	20598
853.645	20640
853.78	20701
853.914	20621
854.048	20629
854.183	20613
854.317	20689
854.451	20861
854.585	20758
854.72	20746
854.854	20765
854.988	20571
855.122	20686
855.256	20568
855.39	20571
855.524	20708
855.658	20663
855.792	20716
855.926	20655
856.06	20705
856.194	20834
856.327	20583
856.461	20659
856.595	20625
856.729	20598
856.862	20800
856.996	20834
857.13	20762
857.263	20826
857.397	20769
857.53	20625
857.664	20746
857.797	20587
857.931	20769
858.064	20625
858.197	20758
858.331	20590
858.464	20533
858.597	20609
858.731	20670
858.864	20537
858.997	20594
859.13	20716
859.263	20853
859.396	20769
859.529	20731
859.662	20632
859.795	20632
859.928	20689
860.061	20792
860.194	20849
860.327	20701
860.46	20735
860.592	20686
860.725	20876
860.858	20781
860.99	20640
861.123	20598
861.256	20674
861.388	20583
861.521	21214
861.653	20507
861.786	20507
861.918	20370
862.05	20648
862.183	20598
862.315	20659
862.447	20644
862.58	20655
862.712	20377
862.844	20366
862.976	20446
863.108	20560
863.24	20941
863.372	20339
863.504	20465
863.636	20431
863.768	20473
863.9	20351
864.032	20461
864.164	20355
864.296	20377
864.428	20473
864.559	20400
864.691	20465
864.823	20427
864.954	20370
865.086	20381
865.217	20358
865.349	20275
865.48	20290
865.612	20309
865.743	20396
865.875	20362
866.006	20328
866.137	20298
866.269	20343
866.4	20267
866.531	20180
866.662	20195
866.793	20278
866.924	20199
867.055	20229
867.186	20317
867.317	20244
867.448	20081
867.579	20195
867.71	20130
867.841	20180
867.972	20267
868.103	20233
868.233	20377
868.364	20362
868.495	20423
868.625	20442
868.756	20640
868.886	20423
869.017	20526
869.147	20579
869.278	20522
869.408	20556
869.539	20431
869.669	20552
869.799	20522
869.929	20625
870.06	20632
870.19	20853
870.32	20883
870.45	20811
870.58	20979
870.71	21032
870.84	21039
870.97	20910
871.1	20861
871.23	21001
871.36	21116
871.489	20975
871.619	20994
871.749	21074
871.879	21176
872.008	21249
872.138	21055
872.267	21036
872.397	20956
872.526	20963
872.656	20902
872.785	20956
872.915	21104
873.044	21279
873.173	21074
873.303	21146
873.432	21226
873.561	21192
873.69	21214
873.819	21142
873.948	21127
874.077	21233
874.206	21264
874.335	21108
874.464	21104
874.593	21336
874.722	21408
874.851	21294
874.979	21393
875.108	21428
875.237	21313
875.365	21298
875.494	21332
875.623	21374
875.751	21256
875.88	21317
876.008	21568
876.136	21553
876.265	21800
876.393	21934
876.521	21850
876.65	21759
876.778	21743
876.906	21698
877.034	21720
877.162	21766
877.29	21698
877.418	21713
877.546	21660
877.674	21625
877.802	21781
877.93	21728
878.058	21591
878.185	21625
878.313	21690
878.441	21644
878.568	21515
878.696	21671
878.824	21781
878.951	21679
879.079	21781
879.206	22036
879.333	21762
879.461	21732
879.588	21816
879.715	21918
879.842	22013
879.97	21736
880.097	21454
880.224	21447
880.351	21648
880.478	21412
880.605	21443
880.732	21625
880.859	21739
880.986	21466
881.112	21603
881.239	21367
881.366	21393
881.493	21310
881.619	21226
881.746	21207
881.872	21062
881.999	21142
882.125	21112
882.252	21176
882.378	21138
882.505	21180
882.631	20937
882.757	20765
882.883	21039
883.01	20853
883.136	20807
883.262	20724
883.388	20697
883.514	20899
883.64	20861
883.766	20838
883.892	20511
884.018	20655
884.143	20864
884.269	20876
884.395	20632
884.52	20465
884.646	20442
884.772	20328
884.897	20343
885.023	20461
885.148	20492
885.274	20568
885.399	20514
885.524	20545
885.65	20465
885.775	20473
885.9	20400
886.025	20533
886.15	20473
886.275	20503
886.4	20385
886.525	20408
886.65	20358
886.775	20347
886.9	20473
887.025	20655
887.149	20488
887.274	20282
887.399	20202
887.523	20267
887.648	20259
887.773	20142
887.897	20248
888.021	20332
888.146	20164
888.27	20423
888.395	20282
888.519	20358
888.643	20202
888.767	20393
888.891	20206
889.015	20050
889.139	20107
889.263	20115
889.387	20153
889.511	20248
889.635	20214
889.759	19986
889.883	20069
890.006	20058
890.13	20058
890.254	20020
890.377	19970
890.501	19902
890.624	19807
890.748	19791
890.871	19677
890.995	19651
891.118	19594
891.241	19567
891.364	19605
891.488	19776
891.611	19616
891.734	19635
891.857	19689
891.98	19635
892.103	19658
892.226	19658
892.349	19563
892.471	19403
892.594	19605
892.717	19544
892.839	19476
892.962	19510
893.085	19655
893.207	19510
893.33	19362
893.452	19533
893.575	19556
893.697	19487
893.819	19609
893.941	19738
894.064	19643
894.186	19609
894.308	19537
894.43	19552
894.552	19734
894.674	19590
894.796	19407
894.918	19616
895.04	19457
895.161	19540
895.283	19681
895.405	19457
895.526	19582
895.648	19419
895.769	19567
895.891	19571
896.012	19578
896.134	19556
896.255	19571
896.376	19464
896.498	19533
896.619	19514
896.74	19495
896.861	19700
896.982	19925
897.103	19982
897.224	19902
897.345	19902
897.466	19658
897.587	19833
897.708	19917
897.828	19871
897.949	19723
898.07	19677
898.19	19818
898.311	19913
898.431	19875
898.552	19791
898.672	19822
898.792	19772
898.913	19909
899.033	19658
899.153	19731
899.273	19537
899.393	19540
899.513	19685
899.633	19544
899.753	19613
899.873	19537
899.993	19483
900.113	19499
900.232	19594
900.352	19510
900.472	19483
900.591	19324
900.711	19426
900.83	19301
900.95	19415
901.069	19491
901.189	19335
901.308	19114
901.427	18958
901.546	18924
901.665	19057
901.784	18962
901.904	18890
902.023	18768
902.141	18616
902.26	18528
902.379	18696
902.498	18502
902.617	18395
902.735	18467
902.854	18513
902.973	18391
903.091	18201
903.21	18102
903.328	18152
903.446	17965
903.565	18110
903.683	18022
903.801	17813
903.919	17859
904.038	17885
904.156	17783
904.274	17733
904.392	17726
904.51	17737
904.627	17779
904.745	17722
904.863	17840
904.981	17566
905.098	17505
905.216	17345
905.334	17471
905.451	17505
905.569	17402
905.686	17486
905.803	17372
905.921	17185
906.038	17258
906.155	17220
906.272	17174
906.389	17143
906.506	17014
906.623	17045
906.74	16987
906.857	16839
906.974	16839
907.091	17041
907.208	17052
907.324	16892
907.441	16778
907.557	16691
907.674	16725
907.79	16596
907.907	16702
908.023	16683
908.139	16672
908.256	16573
908.372	16561
908.488	16558
908.604	16394
908.72	16371
908.836	16371
908.952	16280
909.068	16382
909.184	16466
909.3	16432
909.415	16409
909.531	16356
909.647	16181
909.762	16086
909.878	16150
909.993	16158
910.108	16128
910.224	16010
910.339	16036
910.454	15972
910.57	15960
910.685	15873
910.8	16086
910.915	16101
911.03	16021
911.145	15819
911.259	15599
911.374	15728
911.489	15606
911.604	15576
911.718	15443
911.833	15496
911.947	15435
912.062	15466
912.176	15587
912.291	15530
912.405	15526
912.519	15622
912.633	15705
912.748	15530
912.862	15405
912.976	15275
913.09	15199
913.204	15291
913.318	15260
913.431	15408
913.545	15279
913.659	15291
913.772	15294
913.886	15207
914	15104
914.113	15188
914.226	15218
914.34	15222
914.453	14933
914.566	15195
914.68	15036
914.793	14918
914.906	14834
915.019	14701
915.132	14670
915.245	14598
915.358	14621
915.47	14708
915.583	14811
915.696	14667
915.809	14826
915.921	14819
916.034	14651
916.146	14556
916.259	14617
916.371	14651
916.483	14648
916.595	14488
916.708	14636
916.82	14610
916.932	14412
917.044	14495
917.156	14404
917.268	14347
917.38	14328
917.491	14339
917.603	14347
917.715	14511
917.826	14518
917.938	14313
918.049	14206
918.161	14381
918.272	14450
918.384	14294
918.495	14290
918.606	14202
918.717	14130
918.828	14145
918.939	14073
919.05	14035
919.161	14058
919.272	13902
919.383	14039
919.494	14164
919.604	14317
919.715	14164
919.826	14103
919.936	14103
920.047	14088
920.157	14187
920.267	14298
920.378	14142
920.488	14031
920.598	14199
920.708	14457
920.818	14298
920.928	14286
921.038	14362
921.148	14301
921.258	14103
921.368	13944
921.477	13921
921.587	13780
921.697	13750
921.806	13841
921.916	13719
922.025	13544
922.134	13514
922.244	13544
922.353	13582
922.462	13407
922.571	13312
922.68	13156
922.789	13152
922.898	13179
923.007	13122
923.116	13202
923.224	13160
923.333	13046
923.442	13000
923.55	12966
923.659	12966
923.767	13031
923.876	12932
923.984	13015
924.092	12859
924.201	12863
924.309	12993
924.417	12882
924.525	12730
924.633	12859
924.741	13875
924.849	12608
924.956	12810
925.064	12662
925.172	12627
925.279	12532
925.387	12627
925.494	12570
925.602	12719
925.709	12616
925.816	12486
925.924	12570
926.031	12627
926.138	12544
926.245	12574
926.352	12517
926.459	12616
926.566	12627
926.673	12471
926.779	12388
926.886	12266
926.993	12186
927.099	12190
927.206	12201
927.312	12133
927.419	12167
927.525	12133
927.631	12197
927.737	12034
927.843	12110
927.95	11988
928.056	11961
928.162	11992
928.267	12068
928.373	12669
928.479	11992
928.585	11760
928.69	12045
928.796	12003
928.901	11923
929.007	11661
929.112	11931
929.218	11874
929.323	11729
929.428	11695
929.533	11828
929.638	11577
929.743	11634
929.848	11790
929.953	11665
930.058	11638
930.163	11421
930.267	11429
930.372	11608
930.477	11353
930.581	11668
930.685	11417
930.79	11254
930.894	11353
930.998	11330
931.103	11421
931.207	11140
931.311	10987
931.415	10946
931.519	10694
931.623	10710
