Data from test_V78500241_2418.txt Node
Date: Fri Mar 25 15:26:41 CST 2022
User: usil
Spectrometer: V785-0024
Trigger mode: 0
Integration Time (sec): 4.000000E-1
Scans to average: 1
Nonlinearity correction enabled: false
Boxcar width: 0
Storing dark spectrum: false
XAxis mode: Wavelengths
Number of Pixels in Spectrum: 1024
>>>>>Begin Spectral Data<<<<<
801.071	27104
801.214	27062
801.356	27017
801.499	26750
801.641	26720
801.783	26750
801.926	26895
802.068	26811
802.211	26632
802.353	26674
802.496	26480
802.638	26412
802.78	26278
802.923	26309
803.065	26313
803.208	26377
803.35	26187
803.492	26495
803.635	26701
803.777	26446
803.919	26514
804.061	26800
804.204	26655
804.346	26587
804.488	26408
804.63	26499
804.773	26446
804.915	26552
805.057	26708
805.199	26465
805.341	26609
805.483	26678
805.626	26590
805.768	26579
805.91	26514
806.052	26579
806.194	26609
806.336	26758
806.478	26617
806.62	26701
806.762	26705
806.904	26982
807.046	27135
807.188	27005
807.33	27028
807.472	27211
807.614	26979
807.756	27062
807.898	26937
808.04	26845
808.182	26933
808.324	26895
808.465	26960
808.607	27154
808.749	27317
808.891	27340
809.033	27488
809.174	27245
809.316	27279
809.458	27252
809.6	27252
809.741	27386
809.883	27317
810.025	27519
810.166	27420
810.308	27412
810.45	27507
810.591	27348
810.733	27260
810.875	27119
811.016	27066
811.158	26998
811.299	27283
811.441	27256
811.582	27408
811.724	27093
811.865	27214
812.007	27089
812.148	27142
812.29	27351
812.431	27408
812.573	27557
812.714	27629
812.855	27759
812.997	27800
813.138	27968
813.279	27819
813.421	27751
813.562	27766
813.703	27515
813.845	27325
813.986	27230
814.127	27062
814.268	26986
814.41	26876
814.551	26861
814.692	26933
814.833	26861
814.974	26800
815.115	26952
815.256	26777
815.397	26708
815.539	26701
815.68	26750
815.821	26507
815.962	26579
816.103	26674
816.244	26495
816.385	26408
816.526	26503
816.666	26275
816.807	25982
816.948	26164
817.089	26271
817.23	26351
817.371	26138
817.512	26130
817.653	26111
817.793	26168
817.934	26111
818.075	26149
818.216	26096
818.356	26096
818.497	25883
818.638	25902
818.778	25913
818.919	25947
819.06	25982
819.2	26164
819.341	26103
819.481	26050
819.622	26324
819.762	26476
819.903	26343
820.043	26362
820.184	26252
820.324	26176
820.465	26282
820.605	26324
820.746	26278
820.886	26054
821.026	26278
821.167	26130
821.307	26263
821.447	26126
821.588	25986
821.728	25925
821.868	25712
822.008	25586
822.149	25586
822.289	25556
822.429	25354
822.569	25308
822.709	25270
822.849	25190
822.99	25179
823.13	24977
823.27	24989
823.41	24954
823.55	24867
823.69	25076
823.83	24989
823.97	24878
824.11	24768
824.25	24703
824.389	24764
824.529	24791
824.669	24684
824.809	24757
824.949	24890
825.089	24856
825.228	24734
825.368	24574
825.508	24479
825.648	24616
825.787	24570
825.927	24483
826.067	24593
826.206	24696
826.346	24692
826.485	24559
826.625	24536
826.765	24692
826.904	24684
827.044	24433
827.183	24327
827.323	24403
827.462	24304
827.601	24300
827.741	24365
827.88	24330
828.02	24232
828.159	24292
828.298	24209
828.437	24273
828.577	24140
828.716	24418
828.855	24224
828.994	24098
829.134	23999
829.273	24072
829.412	23927
829.551	23980
829.69	24041
829.829	24079
829.968	24102
830.107	24030
830.246	24015
830.385	23920
830.524	24114
830.663	23908
830.802	23760
830.941	23672
831.08	23661
831.219	23699
831.357	23691
831.496	23859
831.635	23729
831.774	23566
831.913	23646
832.051	23433
832.19	23486
832.329	23277
832.467	23368
832.606	23406
832.744	23261
832.883	23277
833.022	23292
833.16	23414
833.299	23322
833.437	23280
833.576	23372
833.714	23292
833.852	23273
833.991	23501
834.129	23528
834.267	23425
834.406	23398
834.544	23459
834.682	23349
834.821	23379
834.959	23585
835.097	23391
835.235	23490
835.373	23311
835.511	23303
835.65	23220
835.788	23303
835.926	23151
836.064	22976
836.202	23143
836.34	23170
836.478	23360
836.615	23166
836.753	23197
836.891	23383
837.029	23299
837.167	23140
837.305	23136
837.443	23071
837.58	23102
837.718	23242
837.856	23220
837.993	23090
838.131	23128
838.269	23010
838.406	23056
838.544	22892
838.681	22805
838.819	22664
838.956	22653
839.094	22603
839.231	22580
839.369	22881
839.506	22946
839.643	22923
839.781	22519
839.918	22459
840.055	22470
840.193	22405
840.33	22413
840.467	22542
840.604	22478
840.742	22725
840.879	22215
841.016	22405
841.153	22337
841.29	22531
841.427	22470
841.564	22550
841.701	22443
841.838	22405
841.975	22329
842.112	22382
842.249	22284
842.385	22211
842.522	22428
842.659	22234
842.796	22207
842.933	22303
843.069	22230
843.206	22291
843.343	22333
843.479	22192
843.616	22284
843.752	22109
843.889	22097
844.025	22070
844.162	22090
844.298	21975
844.435	22078
844.571	21975
844.708	22101
844.844	22143
844.98	22226
845.117	22150
845.253	21911
845.389	21876
845.525	21831
845.661	21899
845.798	21724
845.934	21762
846.07	21698
846.206	21838
846.342	21861
846.478	21800
846.614	21587
846.75	21439
846.886	21587
847.022	21568
847.158	21526
847.294	21530
847.429	21618
847.565	21443
847.701	21838
847.837	21340
847.972	21135
848.108	21363
848.244	21348
848.379	21222
848.515	21032
848.65	21165
848.786	21070
848.921	21081
849.057	21127
849.192	21112
849.328	21100
849.463	21036
849.598	21085
849.734	20929
849.869	20880
850.004	20895
850.14	20921
850.275	20861
850.41	20743
850.545	20781
850.68	20731
850.815	20819
850.95	20811
851.085	20975
851.22	20895
851.355	20948
851.49	20842
851.625	20815
851.76	20872
851.895	20746
852.03	20769
852.165	20956
852.299	20921
852.434	20826
852.569	20944
852.703	20895
852.838	20826
852.973	21058
853.107	20975
853.242	20876
853.376	20739
853.511	20556
853.645	20773
853.78	20724
853.914	20720
854.048	20674
854.183	20663
854.317	20632
854.451	20937
854.585	20594
854.72	20583
854.854	20720
854.988	20583
855.122	20724
855.256	20552
855.39	20640
855.524	20868
855.658	20731
855.792	20609
855.926	20674
856.06	20659
856.194	20743
856.327	20571
856.461	20667
856.595	20507
856.729	20659
856.862	20796
856.996	20754
857.13	20754
857.263	20693
857.397	20762
857.53	20648
857.664	20636
857.797	20887
857.931	20811
858.064	20716
858.197	20758
858.331	20693
858.464	20564
858.597	20648
858.731	20670
858.864	20636
858.997	20731
859.13	20644
859.263	20655
859.396	20792
859.529	20697
859.662	20667
859.795	20583
859.928	20697
860.061	20891
860.194	20914
860.327	20750
860.46	20781
860.592	20864
860.725	20815
860.858	20826
860.99	20724
861.123	20648
861.256	20667
861.388	20773
861.521	21279
861.653	20507
861.786	20465
861.918	20469
862.05	20644
862.183	20659
862.315	20621
862.447	20735
862.58	20667
862.712	20396
862.844	20442
862.976	20560
863.108	20434
863.24	20754
863.372	20301
863.504	20438
863.636	20465
863.768	20431
863.9	20377
864.032	20469
864.164	20298
864.296	20423
864.428	20499
864.559	20503
864.691	20469
864.823	20408
864.954	20385
865.086	20385
865.217	20370
865.349	20214
865.48	20320
865.612	20301
865.743	20499
865.875	20298
866.006	20286
866.137	20267
866.269	20313
866.4	20290
866.531	20332
866.662	20134
866.793	20221
866.924	20138
867.055	20358
867.186	20256
867.317	20180
867.448	20180
867.579	20199
867.71	20199
867.841	20286
867.972	20320
868.103	20298
868.233	20347
868.364	20195
868.495	20358
868.625	20457
868.756	20590
868.886	20415
869.017	20503
869.147	20571
869.278	20625
869.408	20461
869.539	20484
869.669	20651
869.799	20571
869.929	20689
870.06	20564
870.19	20876
870.32	20743
870.45	20731
870.58	20868
870.71	20895
870.84	21024
870.97	20788
871.1	20952
871.23	20979
871.36	21123
871.489	20986
871.619	21028
871.749	21066
871.879	21131
872.008	21116
872.138	21131
872.267	21142
872.397	20941
872.526	20819
872.656	20941
872.785	20937
872.915	21188
873.044	21173
873.173	21135
873.303	21036
873.432	21272
873.561	21146
873.69	21230
873.819	21070
873.948	21173
874.077	21142
874.206	21089
874.335	21123
874.464	21264
874.593	21336
874.722	21340
874.851	21450
874.979	21363
875.108	21313
875.237	21443
875.365	21211
875.494	21408
875.623	21405
875.751	21275
875.88	21447
876.008	21511
876.136	21625
876.265	21679
876.393	21899
876.521	21732
876.65	21838
876.778	21663
876.906	21701
877.034	21622
877.162	21622
877.29	21713
877.418	21667
877.546	21762
877.674	21682
877.802	21561
877.93	21785
878.058	21633
878.185	21568
878.313	21557
878.441	21671
878.568	21507
878.696	21675
878.824	21652
878.951	21797
879.079	21975
879.206	21956
879.333	21876
879.461	21793
879.588	21816
879.715	21785
879.842	22021
879.97	21804
880.097	21671
880.224	21519
880.351	21656
880.478	21641
880.605	21511
880.732	21462
880.859	21884
880.986	21473
881.112	21576
881.239	21492
881.366	21306
881.493	21119
881.619	21249
881.746	21074
881.872	21165
881.999	21089
882.125	21043
882.252	21157
882.378	21112
882.505	21165
882.631	20838
882.757	20910
882.883	20849
883.01	20849
883.136	20750
883.262	20815
883.388	20609
883.514	20785
883.64	20887
883.766	20819
883.892	20594
884.018	20583
884.143	20579
884.269	20807
884.395	20587
884.52	20484
884.646	20423
884.772	20495
884.897	20393
885.023	20450
885.148	20598
885.274	20564
885.399	20621
885.524	20476
885.65	20465
885.775	20461
885.9	20366
886.025	20526
886.15	20503
886.275	20465
886.4	20374
886.525	20507
886.65	20450
886.775	20438
886.9	20579
887.025	20670
887.149	20461
887.274	20336
887.399	20122
887.523	20218
887.648	20210
887.773	20164
887.897	20233
888.021	20347
888.146	20187
888.27	20275
888.395	20328
888.519	20294
888.643	20332
888.767	20263
888.891	20214
889.015	20073
889.139	20054
889.263	19993
889.387	20126
889.511	20256
889.635	20221
889.759	20073
889.883	20084
890.006	20058
890.13	20176
890.254	19989
890.377	19951
890.501	19879
890.624	19864
890.748	19769
890.871	19689
890.995	19727
891.118	19533
891.241	19594
891.364	19518
891.488	19696
891.611	19715
891.734	19674
891.857	19799
891.98	19628
892.103	19632
892.226	19620
892.349	19544
892.471	19426
892.594	19537
892.717	19590
892.839	19559
892.962	19571
893.085	19613
893.207	19544
893.33	19506
893.452	19483
893.575	19586
893.697	19525
893.819	19651
893.941	19666
894.064	19727
894.186	19464
894.308	19460
894.43	19738
894.552	19643
894.674	19693
894.796	19487
894.918	19510
895.04	19438
895.161	19620
895.283	19609
895.405	19529
895.526	19544
895.648	19438
895.769	19670
895.891	19510
896.012	19594
896.134	19620
896.255	19613
896.376	19468
896.498	19460
896.619	19582
896.74	19590
896.861	19563
896.982	19822
897.103	20073
897.224	19841
897.345	19765
897.466	19814
897.587	19769
897.708	19841
897.828	19841
897.949	19693
898.07	19567
898.19	19674
898.311	19887
898.431	19814
898.552	19849
898.672	19814
898.792	19799
898.913	19738
899.033	19696
899.153	19529
899.273	19434
899.393	19487
899.513	19506
899.633	19571
899.753	19514
899.873	19457
899.993	19594
900.113	19464
900.232	19460
900.352	19445
900.472	19339
900.591	19274
900.711	19251
900.83	19293
900.95	19403
901.069	19350
901.189	19270
901.308	18947
901.427	18905
901.546	18916
901.665	18993
901.784	18970
901.904	18772
902.023	18745
902.141	18544
902.26	18399
902.379	18559
902.498	18494
902.617	18414
902.735	18426
902.854	18422
902.973	18429
903.091	18038
903.21	18030
903.328	18083
903.446	17927
903.565	17965
903.683	17950
903.801	17847
903.919	17916
904.038	17828
904.156	17714
904.274	17798
904.392	17653
904.51	17672
904.627	17623
904.745	17718
904.863	17760
904.981	17493
905.098	17395
905.216	17311
905.334	17436
905.451	17360
905.569	17410
905.686	17307
905.803	17345
905.921	17136
906.038	17208
906.155	17235
906.272	17109
906.389	17083
906.506	16946
906.623	16915
906.74	16900
906.857	16831
906.974	16869
907.091	17022
907.208	17086
907.324	16820
907.441	16793
907.557	16664
907.674	16596
907.79	16565
907.907	16637
908.023	16729
908.139	16569
908.256	16603
908.372	16626
908.488	16504
908.604	16409
908.72	16272
908.836	16329
908.952	16417
909.068	16325
909.184	16398
909.3	16356
909.415	16306
909.531	16329
909.647	16074
909.762	16048
909.878	16059
909.993	16071
910.108	16025
910.224	16071
910.339	16048
910.454	15861
910.57	15949
910.685	15857
910.8	16078
910.915	16025
911.03	15915
911.145	15808
911.259	15667
911.374	15724
911.489	15625
911.604	15511
911.718	15481
911.833	15416
911.947	15310
912.062	15226
912.176	15374
912.291	15454
912.405	15359
912.519	15507
912.633	15610
912.748	15485
912.862	15393
912.976	15268
913.09	15188
913.204	15241
913.318	15249
913.431	15382
913.545	15283
913.659	15408
913.772	15176
913.886	15165
914	14994
914.113	15154
914.226	15085
914.34	15131
914.453	14979
914.566	15176
914.68	14994
914.793	14853
914.906	14788
915.019	14674
915.132	14610
915.245	14708
915.358	14613
915.47	14655
915.583	14777
915.696	14590
915.809	14735
915.921	14819
916.034	14632
916.146	14590
916.259	14495
916.371	14655
916.483	14674
916.595	14415
916.708	14476
916.82	14495
916.932	14560
917.044	14461
917.156	14507
917.268	14332
917.38	14320
917.491	14336
917.603	14336
917.715	14336
917.826	14438
917.938	14385
918.049	14164
918.161	14343
918.272	14404
918.384	14396
918.495	14294
918.606	14100
918.717	14145
918.828	14107
918.939	14176
919.05	13974
919.161	14123
919.272	13898
919.383	13959
919.494	14142
919.604	14233
919.715	13982
919.826	13932
919.936	14008
920.047	14103
920.157	13997
920.267	14351
920.378	14111
920.488	14039
920.598	14210
920.708	14370
920.818	14271
920.928	14225
921.038	14415
921.148	14225
921.258	13986
921.368	13963
921.477	13875
921.587	13890
921.697	13670
921.806	13799
921.916	13628
922.025	13445
922.134	13460
922.244	13495
922.353	13468
922.462	13377
922.571	13297
922.68	13126
922.789	13118
922.898	13247
923.007	12977
923.116	13202
923.224	13145
923.333	13114
923.442	12905
923.55	12913
923.659	12951
923.767	12947
923.876	12890
923.984	13004
924.092	12810
924.201	12875
924.309	12909
924.417	12901
924.525	12772
924.633	12760
924.741	13795
924.849	12551
924.956	12753
925.064	12601
925.172	12544
925.279	12528
925.387	12566
925.494	12570
925.602	12601
925.709	12563
925.816	12445
925.924	12475
926.031	12509
926.138	12502
926.245	12536
926.352	12414
926.459	12494
926.566	12528
926.673	12410
926.779	12357
926.886	12258
926.993	12216
927.099	12216
927.206	12095
927.312	12102
927.419	12140
927.525	12125
927.631	12114
927.737	12129
927.843	11961
927.95	11824
928.056	11958
928.162	12003
928.267	11988
928.373	12673
928.479	11988
928.585	11779
928.69	11870
928.796	11920
928.901	11840
929.007	11604
929.112	11840
929.218	11843
929.323	11794
929.428	11695
929.533	11851
929.638	11646
929.743	11661
929.848	11752
929.953	11623
930.058	11528
930.163	11486
930.267	11433
930.372	11524
930.477	11360
930.581	11551
930.685	11433
930.79	11311
930.894	11356
930.998	11318
931.103	11318
931.207	11014
931.311	10999
931.415	10839
931.519	10706
931.623	10641
