Data from test_V78500241_295.txt Node
Date: Fri Mar 25 15:11:54 CST 2022
User: usil
Spectrometer: V785-0024
Trigger mode: 0
Integration Time (sec): 4.000000E-1
Scans to average: 1
Nonlinearity correction enabled: false
Boxcar width: 0
Storing dark spectrum: false
XAxis mode: Wavelengths
Number of Pixels in Spectrum: 1024
>>>>>Begin Spectral Data<<<<<
801.071	27785
801.214	27785
801.356	27454
801.499	27580
801.641	27313
801.783	27367
801.926	27408
802.068	27427
802.211	27393
802.353	27169
802.496	27013
802.638	26998
802.78	27058
802.923	26933
803.065	26883
803.208	26963
803.35	27066
803.492	27173
803.635	27100
803.777	26998
803.919	27180
804.061	27416
804.204	27176
804.346	27039
804.488	27085
804.63	27112
804.773	26891
804.915	27138
805.057	27241
805.199	27028
805.341	27192
805.483	27142
805.626	27157
805.768	27161
805.91	27157
806.052	27214
806.194	27089
806.336	27443
806.478	27245
806.62	27119
806.762	27275
806.904	27462
807.046	27606
807.188	27622
807.33	27568
807.472	27720
807.614	27576
807.756	27557
807.898	27424
808.04	27359
808.182	27401
808.324	27317
808.465	27492
808.607	27473
808.749	27591
808.891	27835
809.033	27945
809.174	27991
809.316	27736
809.458	27808
809.6	27667
809.741	27785
809.883	27949
810.025	28143
810.166	27956
810.308	28067
810.45	28093
810.591	27884
810.733	27770
810.875	27648
811.016	27671
811.158	27675
811.299	27648
811.441	27953
811.582	27949
811.724	27694
811.865	27644
812.007	27660
812.148	27724
812.29	27755
812.431	27899
812.573	28070
812.714	28196
812.855	28257
812.997	28363
813.138	28500
813.279	28341
813.421	28249
813.562	28192
813.703	28112
813.845	28082
813.986	27641
814.127	27504
814.268	27405
814.41	27325
814.551	27389
814.692	27427
814.833	27370
814.974	27435
815.115	27435
815.256	27214
815.397	27188
815.539	27161
815.68	27173
815.821	27100
815.962	27226
816.103	27024
816.244	27017
816.385	26929
816.526	26956
816.666	26743
816.807	26629
816.948	26552
817.089	26606
817.23	26629
817.371	26514
817.512	26609
817.653	26552
817.793	26480
817.934	26617
818.075	26556
818.216	26526
818.356	26613
818.497	26457
818.638	26271
818.778	26286
818.919	26355
819.06	26381
819.2	26453
819.341	26461
819.481	26564
819.622	26518
819.762	26952
819.903	26845
820.043	26689
820.184	26617
820.324	26587
820.465	26720
820.605	26587
820.746	26598
820.886	26712
821.026	26598
821.167	26590
821.307	26682
821.447	26492
821.588	26476
821.728	26396
821.868	26168
822.008	26005
822.149	25993
822.289	25963
822.429	25738
822.569	25769
822.709	25635
822.849	25571
822.99	25388
823.13	25479
823.27	25293
823.41	25282
823.55	25160
823.69	25270
823.83	25392
823.97	25274
824.11	25084
824.25	25012
824.389	25179
824.529	25076
824.669	25179
824.809	25217
824.949	25198
825.089	25228
825.228	25080
825.368	25004
825.508	24863
825.648	24924
825.787	24985
825.927	25053
826.067	24954
826.206	24863
826.346	24916
826.485	24954
826.625	24947
826.765	25072
826.904	24977
827.044	24802
827.183	24688
827.323	24635
827.462	24715
827.601	24551
827.741	24601
827.88	24658
828.02	24593
828.159	24654
828.298	24601
828.437	24623
828.577	24540
828.716	24772
828.855	24620
828.994	24369
829.134	24437
829.273	24300
829.412	24410
829.551	24251
829.69	24266
829.829	24433
829.968	24300
830.107	24292
830.246	24350
830.385	24270
830.524	24228
830.663	24152
830.802	24057
830.941	23874
831.08	23916
831.219	23999
831.357	24076
831.496	24114
831.635	23954
831.774	23901
831.913	23722
832.051	23863
832.19	23687
832.329	23840
832.467	23657
832.606	23570
832.744	23646
832.883	23596
833.022	23604
833.16	23611
833.299	23691
833.437	23649
833.576	23630
833.714	23623
833.852	23661
833.991	23634
834.129	23745
834.267	23756
834.406	23627
834.544	23680
834.682	23592
834.821	23649
834.959	23805
835.097	23649
835.235	23722
835.373	23687
835.511	23638
835.65	23505
835.788	23585
835.926	23379
836.064	23341
836.202	23315
836.34	23440
836.478	23528
836.615	23486
836.753	23429
836.891	23604
837.029	23528
837.167	23627
837.305	23421
837.443	23341
837.58	23296
837.718	23398
837.856	23334
837.993	23162
838.131	23239
838.269	23197
838.406	23193
838.544	23147
838.681	22869
838.819	23006
838.956	22866
839.094	22759
839.231	22763
839.369	22892
839.506	22995
839.643	23044
839.781	22790
839.918	22626
840.055	22721
840.193	22816
840.33	22656
840.467	22733
840.604	22755
840.742	22942
840.879	22626
841.016	22649
841.153	22561
841.29	22752
841.427	22801
841.564	22694
841.701	22771
841.838	22645
841.975	22706
842.112	22550
842.249	22497
842.385	22352
842.522	22679
842.659	22497
842.796	22367
842.933	22417
843.069	22421
843.206	22333
843.343	22519
843.479	22447
843.616	22573
843.752	22211
843.889	22200
844.025	22318
844.162	22249
844.298	22230
844.435	22295
844.571	22097
844.708	22246
844.844	22314
844.98	22379
845.117	22230
845.253	22059
845.389	22044
845.525	22013
845.661	22040
845.798	21907
845.934	22040
846.07	21876
846.206	21918
846.342	22010
846.478	21922
846.614	21618
846.75	21675
846.886	21652
847.022	21698
847.158	21667
847.294	21500
847.429	21705
847.565	21526
847.701	21827
847.837	21408
847.972	21336
848.108	21504
848.244	21306
848.379	21188
848.515	21329
848.65	21184
848.786	21256
848.921	21291
849.057	21370
849.192	21237
849.328	21108
849.463	21188
849.598	21161
849.734	21085
849.869	21119
850.004	20994
850.14	20963
850.275	21039
850.41	20910
850.545	20906
850.68	20994
850.815	21066
850.95	20982
851.085	21157
851.22	21070
851.355	21055
851.49	20937
851.625	20910
851.76	20944
851.895	20891
852.03	20842
852.165	20990
852.299	21001
852.434	21077
852.569	21096
852.703	20975
852.838	21024
852.973	21074
853.107	21070
853.242	21001
853.376	20781
853.511	20823
853.645	20758
853.78	20853
853.914	20792
854.048	20842
854.183	20754
854.317	20785
854.451	20925
854.585	20735
854.72	20712
854.854	20762
854.988	20621
855.122	20815
855.256	20678
855.39	20754
855.524	20823
855.658	20929
855.792	20693
855.926	20781
856.06	20933
856.194	20785
856.327	20830
856.461	20678
856.595	20735
856.729	20667
856.862	21013
856.996	20849
857.13	20937
857.263	20887
857.397	20834
857.53	20781
857.664	20830
857.797	20864
857.931	20864
858.064	20769
858.197	20853
858.331	20830
858.464	20796
858.597	20617
858.731	20636
858.864	20686
858.997	20689
859.13	20785
859.263	20842
859.396	20868
859.529	20792
859.662	20746
859.795	20705
859.928	20823
860.061	20963
860.194	20872
860.327	20876
860.46	20811
860.592	20910
860.725	20861
860.858	20857
860.99	20746
861.123	20697
861.256	20720
861.388	20705
861.521	21226
861.653	20651
861.786	20648
861.918	20606
862.05	20686
862.183	20716
862.315	20815
862.447	20800
862.58	20549
862.712	20636
862.844	20434
862.976	20575
863.108	20457
863.24	21005
863.372	20415
863.504	20419
863.636	20537
863.768	20568
863.9	20537
864.032	20431
864.164	20442
864.296	20507
864.428	20545
864.559	20541
864.691	20533
864.823	20400
864.954	20526
865.086	20320
865.217	20476
865.349	20233
865.48	20419
865.612	20484
865.743	20454
865.875	20381
866.006	20438
866.137	20408
866.269	20328
866.4	20343
866.531	20271
866.662	20419
866.793	20317
866.924	20343
867.055	20225
867.186	20275
867.317	20305
867.448	20195
867.579	20317
867.71	20218
867.841	20172
867.972	20328
868.103	20328
868.233	20347
868.364	20244
868.495	20427
868.625	20552
868.756	20621
868.886	20434
869.017	20518
869.147	20708
869.278	20651
869.408	20454
869.539	20526
869.669	20670
869.799	20651
869.929	20727
870.06	20674
870.19	20864
870.32	20887
870.45	20895
870.58	20887
870.71	21005
870.84	21005
870.97	20933
871.1	21001
871.23	21100
871.36	21165
871.489	21036
871.619	21184
871.749	21077
871.879	21157
872.008	21157
872.138	21157
872.267	21264
872.397	21001
872.526	20921
872.656	20918
872.785	21055
872.915	21192
873.044	21214
873.173	21154
873.303	21184
873.432	21146
873.561	21256
873.69	21302
873.819	21108
873.948	21260
874.077	21150
874.206	21036
874.335	21085
874.464	21195
874.593	21378
874.722	21397
874.851	21374
874.979	21477
875.108	21447
875.237	21405
875.365	21218
875.494	21382
875.623	21473
875.751	21348
875.88	21500
876.008	21488
876.136	21549
876.265	21865
876.393	21960
876.521	21861
876.65	21907
876.778	21789
876.906	21652
877.034	21690
877.162	21743
877.29	21759
877.418	21823
877.546	21797
877.674	21823
877.802	21759
877.93	21686
878.058	21682
878.185	21622
878.313	21793
878.441	21755
878.568	21603
878.696	21679
878.824	21808
878.951	21808
879.079	21850
879.206	22055
879.333	21945
879.461	21854
879.588	21956
879.715	21884
879.842	22207
879.97	21972
880.097	21652
880.224	21599
880.351	21652
880.478	21606
880.605	21568
880.732	21625
880.859	21861
880.986	21542
881.112	21614
881.239	21458
881.366	21298
881.493	21283
881.619	21249
881.746	21230
881.872	21154
881.999	21252
882.125	21108
882.252	21252
882.378	21077
882.505	21287
882.631	21146
882.757	20967
882.883	21195
883.01	21043
883.136	20811
883.262	20777
883.388	20746
883.514	20883
883.64	20895
883.766	20750
883.892	20746
884.018	20823
884.143	20902
884.269	20948
884.395	20674
884.52	20442
884.646	20644
884.772	20476
884.897	20385
885.023	20419
885.148	20686
885.274	20602
885.399	20655
885.524	20560
885.65	20663
885.775	20590
885.9	20442
886.025	20708
886.15	20556
886.275	20549
886.4	20415
886.525	20560
886.65	20541
886.775	20526
886.9	20636
887.025	20693
887.149	20438
887.274	20427
887.399	20259
887.523	20263
887.648	20256
887.773	20267
887.897	20381
888.021	20278
888.146	20214
888.27	20366
888.395	20415
888.519	20324
888.643	20385
888.767	20381
888.891	20256
889.015	20126
889.139	20202
889.263	20100
889.387	20244
889.511	20313
889.635	20252
889.759	20096
889.883	20214
890.006	20164
890.13	20183
890.254	20039
890.377	20039
890.501	19860
890.624	19807
890.748	19906
890.871	19807
890.995	19647
891.118	19582
891.241	19746
891.364	19708
891.488	19845
891.611	19742
891.734	19677
891.857	19791
891.98	19784
892.103	19845
892.226	19734
892.349	19613
892.471	19483
892.594	19613
892.717	19521
892.839	19597
892.962	19544
893.085	19677
893.207	19605
893.33	19544
893.452	19487
893.575	19685
893.697	19590
893.819	19677
893.941	19791
894.064	19769
894.186	19491
894.308	19597
894.43	19689
894.552	19746
894.674	19567
894.796	19487
894.918	19544
895.04	19529
895.161	19674
895.283	19712
895.405	19658
895.526	19605
895.648	19548
895.769	19670
895.891	19651
896.012	19685
896.134	19700
896.255	19639
896.376	19514
896.498	19639
896.619	19632
896.74	19620
896.861	19765
896.982	20062
897.103	20092
897.224	19932
897.345	19833
897.466	19822
897.587	19989
897.708	19921
897.828	19879
897.949	19757
898.07	19613
898.19	19651
898.311	19906
898.431	19807
898.552	19814
898.672	19879
898.792	19913
898.913	19772
899.033	19753
899.153	19662
899.273	19590
899.393	19514
899.513	19502
899.633	19571
899.753	19628
899.873	19533
899.993	19514
900.113	19616
900.232	19563
900.352	19434
900.472	19377
900.591	19285
900.711	19384
900.83	19335
900.95	19445
901.069	19441
901.189	19255
901.308	19042
901.427	18981
901.546	18966
901.665	19015
901.784	18856
901.904	18863
902.023	18700
902.141	18528
902.26	18448
902.379	18578
902.498	18502
902.617	18479
902.735	18547
902.854	18399
902.973	18448
903.091	18053
903.21	18167
903.328	18095
903.446	17946
903.565	18038
903.683	17843
903.801	17908
903.919	17954
904.038	17901
904.156	17737
904.274	17878
904.392	17634
904.51	17687
904.627	17794
904.745	17802
904.863	17794
904.981	17520
905.098	17387
905.216	17463
905.334	17387
905.451	17433
905.569	17414
905.686	17452
905.803	17406
905.921	17151
906.038	17204
906.155	17204
906.272	17052
906.389	17121
906.506	16927
906.623	17033
906.74	16820
906.857	16828
906.974	16847
907.091	17018
907.208	17083
907.324	16927
907.441	16877
907.557	16683
907.674	16653
907.79	16588
907.907	16611
908.023	16656
908.139	16653
908.256	16584
908.372	16561
908.488	16573
908.604	16421
908.72	16356
908.836	16360
908.952	16318
909.068	16363
909.184	16497
909.3	16310
909.415	16413
909.531	16352
909.647	16071
909.762	16059
909.878	16055
909.993	16044
910.108	16063
910.224	16006
910.339	16032
910.454	15918
910.57	15873
910.685	15789
910.8	16040
910.915	15994
911.03	15915
911.145	15755
911.259	15663
911.374	15671
911.489	15557
911.604	15519
911.718	15389
911.833	15370
911.947	15252
912.062	15154
912.176	15435
912.291	15279
912.405	15272
912.519	15523
912.633	15553
912.748	15329
912.862	15386
912.976	15268
913.09	15142
913.204	15165
913.318	15222
913.431	15214
913.545	15203
913.659	15336
913.772	15218
913.886	15020
914	15058
914.113	15218
914.226	15074
914.34	15074
914.453	14910
914.566	15039
914.68	15043
914.793	14864
914.906	14762
915.019	14674
915.132	14549
915.245	14674
915.358	14735
915.47	14629
915.583	14670
915.696	14727
915.809	14708
915.921	14746
916.034	14564
916.146	14533
916.259	14495
916.371	14571
916.483	14613
916.595	14514
916.708	14526
916.82	14457
916.932	14488
917.044	14476
917.156	14328
917.268	14290
917.38	14259
917.491	14290
917.603	14324
917.715	14385
917.826	14271
917.938	14317
918.049	14240
918.161	14332
918.272	14377
918.384	14320
918.495	14278
918.606	14107
918.717	14058
918.828	14123
918.939	14077
919.05	14020
919.161	14119
919.272	13890
919.383	13993
919.494	14058
919.604	14286
919.715	14172
919.826	13989
919.936	14096
920.047	14176
920.157	14077
920.267	14240
920.378	14100
920.488	14081
920.598	14259
920.708	14347
920.818	14187
920.928	14214
921.038	14358
921.148	14225
921.258	13967
921.368	13830
921.477	13818
921.587	13765
921.697	13738
921.806	13799
921.916	13624
922.025	13502
922.134	13441
922.244	13411
922.353	13392
922.462	13362
922.571	13202
922.68	13107
922.789	13129
922.898	13137
923.007	12985
923.116	13103
923.224	13061
923.333	13019
923.442	12856
923.55	12981
923.659	12890
923.767	12977
923.876	12817
923.984	12962
924.092	12738
924.201	12882
924.309	12882
924.417	12806
924.525	12863
924.633	12779
924.741	13590
924.849	12563
924.956	12719
925.064	12616
925.172	12475
925.279	12597
925.387	12563
925.494	12536
925.602	12635
925.709	12559
925.816	12471
925.924	12486
926.031	12578
926.138	12445
926.245	12494
926.352	12391
926.459	12486
926.566	12574
926.673	12365
926.779	12342
926.886	12247
926.993	12232
927.099	12125
927.206	11988
927.312	12053
927.419	12117
927.525	12015
927.631	12152
927.737	11973
927.843	11939
927.95	11824
928.056	11961
928.162	11878
928.267	11958
928.373	12578
928.479	12034
928.585	11836
928.69	11824
928.796	11942
928.901	11897
929.007	11672
929.112	11798
929.218	11771
929.323	11684
929.428	11657
929.533	11726
929.638	11611
929.743	11672
929.848	11733
929.953	11608
930.058	11452
930.163	11425
930.267	11436
930.372	11543
930.477	11269
930.581	11558
930.685	11322
930.79	11212
930.894	11246
930.998	11178
931.103	11307
931.207	11018
931.311	10885
931.415	10862
931.519	10618
931.623	10626
