Data from test_V78500241_3516.txt Node
Date: Fri Mar 25 15:34:20 CST 2022
User: usil
Spectrometer: V785-0024
Trigger mode: 0
Integration Time (sec): 4.000000E-1
Scans to average: 1
Nonlinearity correction enabled: false
Boxcar width: 0
Storing dark spectrum: false
XAxis mode: Wavelengths
Number of Pixels in Spectrum: 1024
>>>>>Begin Spectral Data<<<<<
801.071	27359
801.214	27233
801.356	27116
801.499	27066
801.641	27051
801.783	26940
801.926	26979
802.068	27032
802.211	26849
802.353	26720
802.496	26560
802.638	26564
802.78	26594
802.923	26461
803.065	26476
803.208	26415
803.35	26518
803.492	26594
803.635	26762
803.777	26674
803.919	26739
804.061	26933
804.204	26804
804.346	26705
804.488	26503
804.63	26583
804.773	26499
804.915	26739
805.057	26880
805.199	26708
805.341	26834
805.483	26857
805.626	26727
805.768	26724
805.91	26838
806.052	26800
806.194	26727
806.336	26971
806.478	26868
806.62	26807
806.762	27001
806.904	27089
807.046	27336
807.188	27230
807.33	27184
807.472	27340
807.614	27230
807.756	27173
807.898	27150
808.04	26956
808.182	27005
808.324	27089
808.465	27104
808.607	27340
808.749	27439
808.891	27591
809.033	27553
809.174	27492
809.316	27523
809.458	27370
809.6	27374
809.741	27534
809.883	27583
810.025	27759
810.166	27705
810.308	27736
810.45	27622
810.591	27572
810.733	27492
810.875	27313
811.016	27431
811.158	27325
811.299	27625
811.441	27568
811.582	27431
811.724	27427
811.865	27344
812.007	27351
812.148	27427
812.29	27443
812.431	27523
812.573	27747
812.714	27846
812.855	28010
812.997	28017
813.138	28074
813.279	28013
813.421	28002
813.562	27903
813.703	27675
813.845	27538
813.986	27397
814.127	27272
814.268	27112
814.41	27009
814.551	27100
814.692	27252
814.833	26929
814.974	26979
815.115	27058
815.256	26948
815.397	26971
815.539	27062
815.68	26823
815.821	26712
815.962	26864
816.103	26849
816.244	26678
816.385	26716
816.526	26625
816.666	26400
816.807	26374
816.948	26396
817.089	26404
817.23	26434
817.371	26343
817.512	26313
817.653	26278
817.793	26332
817.934	26286
818.075	26256
818.216	26461
818.356	26336
818.497	26256
818.638	26031
818.778	26115
818.919	26134
819.06	26103
819.2	26233
819.341	26317
819.481	26366
819.622	26442
819.762	26663
819.903	26625
820.043	26530
820.184	26480
820.324	26400
820.465	26453
820.605	26469
820.746	26343
820.886	26218
821.026	26317
821.167	26317
821.307	26408
821.447	26366
821.588	26237
821.728	26142
821.868	25909
822.008	25799
822.149	25883
822.289	25704
822.429	25662
822.569	25499
822.709	25575
822.849	25392
822.99	25411
823.13	25255
823.27	25343
823.41	25126
823.55	25110
823.69	25110
823.83	25179
823.97	25053
824.11	24973
824.25	24897
824.389	24875
824.529	25072
824.669	24920
824.809	25038
824.949	24958
825.089	25156
825.228	25004
825.368	24871
825.508	24703
825.648	24844
825.787	24783
825.927	24943
826.067	24772
826.206	24863
826.346	24863
826.485	24852
826.625	24753
826.765	24951
826.904	24882
827.044	24616
827.183	24544
827.323	24563
827.462	24574
827.601	24597
827.741	24582
827.88	24627
828.02	24532
828.159	24585
828.298	24490
828.437	24574
828.577	24464
828.716	24692
828.855	24460
828.994	24319
829.134	24251
829.273	24273
829.412	24224
829.551	24186
829.69	24254
829.829	24334
829.968	24403
830.107	24418
830.246	24277
830.385	24251
830.524	24216
830.663	24106
830.802	23859
830.941	23779
831.08	23901
831.219	23870
831.357	23912
831.496	24152
831.635	24087
831.774	23684
831.913	23760
832.051	23748
832.19	23531
832.329	23604
832.467	23520
832.606	23490
832.744	23493
832.883	23585
833.022	23509
833.16	23573
833.299	23714
833.437	23630
833.576	23642
833.714	23611
833.852	23726
833.991	23623
834.129	23764
834.267	23733
834.406	23653
834.544	23646
834.682	23718
834.821	23680
834.959	23805
835.097	23665
835.235	23775
835.373	23619
835.511	23657
835.65	23471
835.788	23516
835.926	23372
836.064	23223
836.202	23200
836.34	23528
836.478	23608
836.615	23444
836.753	23455
836.891	23516
837.029	23471
837.167	23452
837.305	23440
837.443	23410
837.58	23349
837.718	23395
837.856	23296
837.993	23311
838.131	23337
838.269	23189
838.406	23216
838.544	23151
838.681	23094
838.819	22927
838.956	22740
839.094	22793
839.231	22877
839.369	22938
839.506	23086
839.643	23265
839.781	22866
839.918	22793
840.055	22801
840.193	22790
840.33	22797
840.467	22744
840.604	22653
840.742	23105
840.879	22615
841.016	22603
841.153	22561
841.29	22713
841.427	22778
841.564	22828
841.701	22755
841.838	22710
841.975	22641
842.112	22626
842.249	22542
842.385	22569
842.522	22645
842.659	22561
842.796	22470
842.933	22478
843.069	22489
843.206	22516
843.343	22584
843.479	22508
843.616	22500
843.752	22219
843.889	22363
844.025	22489
844.162	22261
844.298	22409
844.435	22200
844.571	22310
844.708	22356
844.844	22424
844.98	22379
845.117	22394
845.253	22169
845.389	22268
845.525	22223
845.661	22040
845.798	21960
845.934	22116
846.07	22044
846.206	22025
846.342	22112
846.478	21956
846.614	21926
846.75	21785
846.886	21755
847.022	21743
847.158	21888
847.294	21679
847.429	21747
847.565	21663
847.701	21857
847.837	21526
847.972	21507
848.108	21644
848.244	21557
848.379	21355
848.515	21348
848.65	21336
848.786	21287
848.921	21332
849.057	21393
849.192	21473
849.328	21355
849.463	21370
849.598	21249
849.734	21157
849.869	21104
850.004	21108
850.14	21093
850.275	21169
850.41	21112
850.545	21104
850.68	21138
850.815	21180
850.95	21070
851.085	21237
851.22	21249
851.355	21036
851.49	21093
851.625	21135
851.76	21039
851.895	21028
852.03	21119
852.165	21233
852.299	21146
852.434	21176
852.569	21184
852.703	21077
852.838	21131
852.973	21233
853.107	21192
853.242	21096
853.376	20956
853.511	20906
853.645	20960
853.78	20967
853.914	20906
854.048	20864
854.183	20906
854.317	20895
854.451	21112
854.585	20921
854.72	20872
854.854	20941
854.988	20899
855.122	20906
855.256	20788
855.39	20804
855.524	20925
855.658	20849
855.792	20819
855.926	21009
856.06	20868
856.194	20960
856.327	20941
856.461	20777
856.595	20868
856.729	20952
856.862	21100
856.996	20887
857.13	21013
857.263	20967
857.397	20982
857.53	20925
857.664	20918
857.797	21062
857.931	21096
858.064	20979
858.197	21005
858.331	20868
858.464	20845
858.597	20815
858.731	20925
858.864	20845
858.997	20899
859.13	20933
859.263	21138
859.396	21051
859.529	20960
859.662	20853
859.795	20826
859.928	20948
860.061	21074
860.194	21096
860.327	20971
860.46	20948
860.592	21043
860.725	21096
860.858	21169
860.99	20990
861.123	20921
861.256	20910
861.388	20925
861.521	21743
861.653	20914
861.786	20769
861.918	20811
862.05	20826
862.183	20883
862.315	20899
862.447	20952
862.58	20826
862.712	20625
862.844	20705
862.976	20724
863.108	20674
863.24	20967
863.372	20602
863.504	20697
863.636	20686
863.768	20708
863.9	20758
864.032	20571
864.164	20545
864.296	20701
864.428	20792
864.559	20613
864.691	20727
864.823	20667
864.954	20663
865.086	20606
865.217	20575
865.349	20431
865.48	20568
865.612	20632
865.743	20705
865.875	20469
866.006	20465
866.137	20663
866.269	20503
866.4	20568
866.531	20476
866.662	20492
866.793	20434
866.924	20606
867.055	20556
867.186	20693
867.317	20434
867.448	20442
867.579	20613
867.71	20313
867.841	20461
867.972	20526
868.103	20484
868.233	20469
868.364	20514
868.495	20674
868.625	20701
868.756	20811
868.886	20636
869.017	20670
869.147	20785
869.278	20849
869.408	20716
869.539	20735
869.669	20743
869.799	20834
869.929	20910
870.06	20819
870.19	21024
870.32	21043
870.45	21165
870.58	21055
870.71	21260
870.84	21199
870.97	21123
871.1	21093
871.23	21325
871.36	21298
871.489	21241
871.619	21317
871.749	21279
871.879	21378
872.008	21393
872.138	21268
872.267	21169
872.397	21199
872.526	20986
872.656	21150
872.785	21199
872.915	21549
873.044	21500
873.173	21428
873.303	21359
873.432	21351
873.561	21420
873.69	21325
873.819	21310
873.948	21424
874.077	21378
874.206	21245
874.335	21272
874.464	21431
874.593	21568
874.722	21515
874.851	21564
874.979	21652
875.108	21705
875.237	21644
875.365	21492
875.494	21542
875.623	21610
875.751	21549
875.88	21511
876.008	21622
876.136	21759
876.265	22120
876.393	22215
876.521	22055
876.65	22036
876.778	22040
876.906	21975
877.034	21953
877.162	21922
877.29	21774
877.418	22036
877.546	22048
877.674	21998
877.802	21972
877.93	21949
878.058	21903
878.185	21873
878.313	21850
878.441	21968
878.568	21850
878.696	21945
878.824	22082
878.951	22025
879.079	22093
879.206	22249
879.333	22154
879.461	21998
879.588	21983
879.715	22074
879.842	22333
879.97	22017
880.097	21903
880.224	21690
880.351	21953
880.478	21808
880.605	21690
880.732	21861
880.859	21987
880.986	21709
881.112	21766
881.239	21580
881.366	21583
881.493	21348
881.619	21408
881.746	21355
881.872	21363
881.999	21408
882.125	21218
882.252	21275
882.378	21378
882.505	21450
882.631	21226
882.757	21100
882.883	21119
883.01	21112
883.136	20990
883.262	20975
883.388	20971
883.514	21077
883.64	21077
883.766	20975
883.892	20834
884.018	20952
884.143	20883
884.269	21020
884.395	20834
884.52	20762
884.646	20712
884.772	20663
884.897	20533
885.023	20708
885.148	20842
885.274	20743
885.399	20834
885.524	20644
885.65	20796
885.775	20727
885.9	20678
886.025	20785
886.15	20705
886.275	20731
886.4	20663
886.525	20693
886.65	20617
886.775	20663
886.9	20823
887.025	20861
887.149	20693
887.274	20480
887.399	20431
887.523	20442
887.648	20461
887.773	20431
887.897	20503
888.021	20587
888.146	20377
888.27	20446
888.395	20492
888.519	20659
888.643	20522
888.767	20564
888.891	20396
889.015	20282
889.139	20317
889.263	20233
889.387	20381
889.511	20465
889.635	20400
889.759	20157
889.883	20161
890.006	20343
890.13	20404
890.254	20187
890.377	20084
890.501	19970
890.624	19967
890.748	20050
890.871	19967
890.995	19830
891.118	19776
891.241	19993
891.364	19864
891.488	20027
891.611	19932
891.734	19814
891.857	19902
891.98	19940
892.103	19913
892.226	19925
892.349	19856
892.471	19590
892.594	19776
892.717	19864
892.839	19738
892.962	19727
893.085	19913
893.207	19830
893.33	19632
893.452	19689
893.575	19769
893.697	19620
893.819	19871
893.941	20012
894.064	19940
894.186	19651
894.308	19696
894.43	19841
894.552	19898
894.674	19856
894.796	19719
894.918	19822
895.04	19658
895.161	19898
895.283	19826
895.405	19670
895.526	19689
895.648	19681
895.769	19696
895.891	19818
896.012	19902
896.134	19807
896.255	19894
896.376	19674
896.498	19689
896.619	19791
896.74	19795
896.861	19822
896.982	20164
897.103	20138
897.224	20069
897.345	20069
897.466	19887
897.587	19902
897.708	20031
897.828	20008
897.949	19936
898.07	19902
898.19	19906
898.311	20001
898.431	19959
898.552	20081
898.672	20016
898.792	20069
898.913	20035
899.033	19902
899.153	19746
899.273	19685
899.393	19753
899.513	19662
899.633	19772
899.753	19666
899.873	19757
899.993	19723
900.113	19715
900.232	19734
900.352	19609
900.472	19540
900.591	19445
900.711	19457
900.83	19388
900.95	19548
901.069	19529
901.189	19411
901.308	19247
901.427	19095
901.546	19099
901.665	19202
901.784	19038
901.904	18905
902.023	18848
902.141	18772
902.26	18700
902.379	18677
902.498	18597
902.617	18456
902.735	18601
902.854	18563
902.973	18601
903.091	18277
903.21	18304
903.328	18273
903.446	18201
903.565	18148
903.683	18136
903.801	18011
903.919	18152
904.038	18022
904.156	17847
904.274	17912
904.392	17790
904.51	17885
904.627	17901
904.745	17942
904.863	17920
904.981	17665
905.098	17573
905.216	17551
905.334	17512
905.451	17627
905.569	17429
905.686	17600
905.803	17608
905.921	17341
906.038	17474
906.155	17391
906.272	17318
906.389	17364
906.506	17086
906.623	17090
906.74	17121
906.857	16923
906.974	17071
907.091	17102
907.208	17178
907.324	17064
907.441	17033
907.557	16854
907.674	16835
907.79	16736
907.907	16812
908.023	16809
908.139	16896
908.256	16850
908.372	16634
908.488	16698
908.604	16630
908.72	16481
908.836	16493
908.952	16417
909.068	16493
909.184	16500
909.3	16413
909.415	16508
909.531	16402
909.647	16329
909.762	16188
909.878	16177
909.993	16238
910.108	16249
910.224	16268
910.339	16204
910.454	16147
910.57	16086
910.685	16078
910.8	16249
910.915	16162
911.03	16010
911.145	15903
911.259	15835
911.374	15926
911.489	15819
911.604	15785
911.718	15564
911.833	15568
911.947	15526
912.062	15481
912.176	15599
912.291	15641
912.405	15622
912.519	15732
912.633	15747
912.748	15599
912.862	15641
912.976	15481
913.09	15252
913.204	15370
913.318	15412
913.431	15454
913.545	15519
913.659	15572
913.772	15420
913.886	15252
914	15123
914.113	15272
914.226	15355
914.34	15233
914.453	15089
914.566	15321
914.68	15108
914.793	15100
914.906	14902
915.019	14845
915.132	14929
915.245	14781
915.358	14918
915.47	14823
915.583	14883
915.696	14838
915.809	14994
915.921	15055
916.034	14758
916.146	14682
916.259	14731
916.371	14891
916.483	14746
916.595	14735
916.708	14701
916.82	14720
916.932	14598
917.044	14739
917.156	14629
917.268	14454
917.38	14495
917.491	14408
917.603	14503
917.715	14613
917.826	14579
917.938	14457
918.049	14362
918.161	14541
918.272	14511
918.384	14556
918.495	14469
918.606	14313
918.717	14195
918.828	14244
918.939	14336
919.05	14263
919.161	14275
919.272	14081
919.383	14103
919.494	14355
919.604	14408
919.715	14225
919.826	14130
919.936	14244
920.047	14282
920.157	14271
920.267	14457
920.378	14199
920.488	14202
920.598	14393
920.708	14541
920.818	14385
920.928	14339
921.038	14545
921.148	14537
921.258	14195
921.368	14123
921.477	14005
921.587	13993
921.697	13852
921.806	14024
921.916	13860
922.025	13731
922.134	13590
922.244	13590
922.353	13696
922.462	13434
922.571	13537
922.68	13289
922.789	13255
922.898	13354
923.007	13114
923.116	13331
923.224	13232
923.333	13244
923.442	13103
923.55	13042
923.659	13126
923.767	13160
923.876	13084
923.984	13149
924.092	12996
924.201	13095
924.309	13160
924.417	13023
924.525	12996
924.633	12977
924.741	13799
924.849	12700
924.956	12939
925.064	12757
925.172	12719
925.279	12658
925.387	12688
925.494	12749
925.602	12852
925.709	12745
925.816	12665
925.924	12650
926.031	12779
926.138	12620
926.245	12646
926.352	12608
926.459	12719
926.566	12745
926.673	12528
926.779	12460
926.886	12483
926.993	12346
927.099	12289
927.206	12285
927.312	12213
927.419	12300
927.525	12304
927.631	12357
927.737	12175
927.843	12155
927.95	12060
928.056	12205
928.162	12125
928.267	12106
928.373	12631
928.479	12163
928.585	11931
928.69	12098
928.796	12106
928.901	11946
929.007	11893
929.112	11969
929.218	12019
929.323	11870
929.428	11878
929.533	12003
929.638	11805
929.743	11707
929.848	11764
929.953	11798
930.058	11684
930.163	11573
930.267	11608
930.372	11672
930.477	11516
930.581	11745
930.685	11570
930.79	11474
930.894	11433
930.998	11474
931.103	11524
931.207	11174
931.311	11102
931.415	11090
931.519	10843
931.623	10790
