Data from test_V78500241_116.txt Node
Date: Fri Mar 25 15:10:40 CST 2022
User: usil
Spectrometer: V785-0024
Trigger mode: 0
Integration Time (sec): 4.000000E-1
Scans to average: 1
Nonlinearity correction enabled: false
Boxcar width: 0
Storing dark spectrum: false
XAxis mode: Wavelengths
Number of Pixels in Spectrum: 1024
>>>>>Begin Spectral Data<<<<<
801.071	27907
801.214	27972
801.356	27747
801.499	27793
801.641	27599
801.783	27420
801.926	27637
802.068	27473
802.211	27283
802.353	27310
802.496	27294
802.638	27123
802.78	27108
802.923	27089
803.065	27085
803.208	27127
803.35	27096
803.492	27150
803.635	27252
803.777	27009
803.919	27089
804.061	27466
804.204	27249
804.346	27184
804.488	26994
804.63	27135
804.773	26998
804.915	27096
805.057	27173
805.199	27093
805.341	27317
805.483	27123
805.626	27275
805.768	27081
805.91	27176
806.052	27275
806.194	27268
806.336	27473
806.478	27233
806.62	27161
806.762	27279
806.904	27374
807.046	27724
807.188	27614
807.33	27705
807.472	27515
807.614	27481
807.756	27523
807.898	27469
808.04	27492
808.182	27462
808.324	27473
808.465	27553
808.607	27504
808.749	27694
808.891	27736
809.033	27785
809.174	27895
809.316	27755
809.458	27747
809.6	27663
809.741	27759
809.883	27895
810.025	28051
810.166	27911
810.308	28010
810.45	27895
810.591	27842
810.733	27679
810.875	27606
811.016	27705
811.158	27515
811.299	27614
811.441	27797
811.582	27675
811.724	27713
811.865	27698
812.007	27515
812.148	27576
812.29	27713
812.431	27774
812.573	28055
812.714	28086
812.855	28169
812.997	28169
813.138	28413
813.279	28284
813.421	28040
813.562	28067
813.703	27979
813.845	27861
813.986	27629
814.127	27332
814.268	27397
814.41	27355
814.551	27268
814.692	27291
814.833	27230
814.974	27241
815.115	27340
815.256	27154
815.397	26960
815.539	27218
815.68	26842
815.821	27020
815.962	27047
816.103	26880
816.244	26925
816.385	26746
816.526	26868
816.666	26621
816.807	26396
816.948	26568
817.089	26568
817.23	26594
817.371	26541
817.512	26541
817.653	26396
817.793	26453
817.934	26442
818.075	26339
818.216	26427
818.356	26461
818.497	26263
818.638	26069
818.778	26122
818.919	26149
819.06	26187
819.2	26168
819.341	26305
819.481	26240
819.622	26511
819.762	26571
819.903	26617
820.043	26621
820.184	26351
820.324	26347
820.465	26537
820.605	26431
820.746	26438
820.886	26126
821.026	26332
821.167	26377
821.307	26423
821.447	26336
821.588	26084
821.728	26088
821.868	25902
822.008	25849
822.149	25807
822.289	25871
822.429	25742
822.569	25571
822.709	25479
822.849	25304
822.99	25126
823.13	25183
823.27	25236
823.41	25091
823.55	25050
823.69	25046
823.83	24981
823.97	25004
824.11	24871
824.25	24779
824.389	24939
824.529	24901
824.669	24810
824.809	24970
824.949	24787
825.089	25004
825.228	24825
825.368	24570
825.508	24650
825.648	24688
825.787	24753
825.927	24673
826.067	24597
826.206	24627
826.346	24635
826.485	24642
826.625	24566
826.765	24661
826.904	24593
827.044	24418
827.183	24471
827.323	24266
827.462	24334
827.601	24372
827.741	24281
827.88	24334
828.02	24076
828.159	24220
828.298	24338
828.437	24391
828.577	24311
828.716	24327
828.855	24224
828.994	23992
829.134	24053
829.273	24121
829.412	23988
829.551	23958
829.69	24091
829.829	23954
829.968	24076
830.107	24022
830.246	23965
830.385	23996
830.524	23840
830.663	23779
830.802	23707
830.941	23551
831.08	23512
831.219	23684
831.357	23585
831.496	23764
831.635	23554
831.774	23417
831.913	23512
832.051	23368
832.19	23227
832.329	23284
832.467	23197
832.606	23181
832.744	23162
832.883	23147
833.022	23227
833.16	23121
833.299	23166
833.437	23250
833.576	23360
833.714	23220
833.852	23280
833.991	23376
834.129	23299
834.267	23155
834.406	23239
834.544	23216
834.682	23185
834.821	23109
834.959	23467
835.097	23151
835.235	23216
835.373	23227
835.511	23094
835.65	23052
835.788	23056
835.926	22915
836.064	22885
836.202	22828
836.34	23159
836.478	22999
836.615	22957
836.753	23052
836.891	23121
837.029	23090
837.167	22976
837.305	23006
837.443	22873
837.58	22858
837.718	22866
837.856	22881
837.993	22755
838.131	22824
838.269	22744
838.406	22774
838.544	22733
838.681	22508
838.819	22455
838.956	22436
839.094	22436
839.231	22310
839.369	22390
839.506	22744
839.643	22523
839.781	22276
839.918	22325
840.055	22318
840.193	22166
840.33	22169
840.467	22344
840.604	22352
840.742	22386
840.879	22059
841.016	22147
841.153	22154
841.29	22314
841.427	22246
841.564	22249
841.701	22120
841.838	22128
841.975	22135
842.112	22116
842.249	22063
842.385	21945
842.522	22105
842.659	22090
842.796	21861
842.933	21994
843.069	21926
843.206	21857
843.343	21922
843.479	21960
843.616	21930
843.752	21793
843.889	21774
844.025	21880
844.162	21732
844.298	21770
844.435	21583
844.571	21739
844.708	21717
844.844	21812
844.98	21835
845.117	21690
845.253	21603
845.389	21507
845.525	21534
845.661	21564
845.798	21450
845.934	21359
846.07	21466
846.206	21435
846.342	21511
846.478	21473
846.614	21154
846.75	21055
846.886	21032
847.022	21169
847.158	21211
847.294	21146
847.429	21207
847.565	21051
847.701	21359
847.837	20937
847.972	20693
848.108	21009
848.244	21062
848.379	20682
848.515	20773
848.65	20644
848.786	20602
848.921	20735
849.057	20807
849.192	20815
849.328	20705
849.463	20651
849.598	20568
849.734	20644
849.869	20457
850.004	20518
850.14	20549
850.275	20381
850.41	20294
850.545	20461
850.68	20450
850.815	20450
850.95	20431
851.085	20689
851.22	20480
851.355	20355
851.49	20415
851.625	20541
851.76	20339
851.895	20370
852.03	20294
852.165	20454
852.299	20450
852.434	20499
852.569	20362
852.703	20339
852.838	20480
852.973	20499
853.107	20571
853.242	20332
853.376	20240
853.511	20130
853.645	20172
853.78	20328
853.914	20278
854.048	20324
854.183	20286
854.317	20225
854.451	20351
854.585	20218
854.72	20271
854.854	20290
854.988	20092
855.122	20214
855.256	20043
855.39	20244
855.524	20339
855.658	20172
855.792	20172
855.926	20191
856.06	20218
856.194	20275
856.327	20202
856.461	20050
856.595	20168
856.729	20267
856.862	20343
856.996	20244
857.13	20233
857.263	20389
857.397	20161
857.53	20221
857.664	20199
857.797	20233
857.931	20309
858.064	20157
858.197	20233
858.331	20256
858.464	20191
858.597	20073
858.731	20214
858.864	20024
858.997	20195
859.13	20145
859.263	20210
859.396	20218
859.529	20058
859.662	20168
859.795	20122
859.928	20191
860.061	20298
860.194	20362
860.327	20286
860.46	20233
860.592	20206
860.725	20298
860.858	20389
860.99	20187
861.123	20119
861.256	20176
861.388	20214
861.521	20887
861.653	20103
861.786	20062
861.918	19997
862.05	20157
862.183	20218
862.315	20214
862.447	20214
862.58	20130
862.712	20020
862.844	19856
862.976	20001
863.108	19989
863.24	20263
863.372	19906
863.504	19868
863.636	19761
863.768	19856
863.9	19921
864.032	19753
864.164	19791
864.296	19833
864.428	20035
864.559	20016
864.691	19970
864.823	19856
864.954	19795
865.086	19902
865.217	19818
865.349	19628
865.48	19696
865.612	19780
865.743	19974
865.875	19776
866.006	19723
866.137	19696
866.269	19814
866.4	19845
866.531	19704
866.662	19674
866.793	19712
866.924	19677
867.055	19814
867.186	19700
867.317	19651
867.448	19620
867.579	19616
867.71	19582
867.841	19613
867.972	19677
868.103	19791
868.233	19738
868.364	19856
868.495	19772
868.625	19944
868.756	20081
868.886	19833
869.017	19978
869.147	20001
869.278	20062
869.408	19928
869.539	19913
869.669	19917
869.799	20005
869.929	20035
870.06	20069
870.19	20134
870.32	20225
870.45	20240
870.58	20328
870.71	20419
870.84	20457
870.97	20271
871.1	20404
871.23	20590
871.36	20609
871.489	20412
871.619	20457
871.749	20575
871.879	20549
872.008	20473
872.138	20545
872.267	20507
872.397	20473
872.526	20423
872.656	20256
872.785	20317
872.915	20640
873.044	20651
873.173	20556
873.303	20556
873.432	20686
873.561	20663
873.69	20552
873.819	20560
873.948	20636
874.077	20621
874.206	20480
874.335	20499
874.464	20769
874.593	20746
874.722	20815
874.851	20883
874.979	20845
875.108	20857
875.237	20826
875.365	20659
875.494	20861
875.623	20937
875.751	20788
875.88	20849
876.008	20815
876.136	20925
876.265	21268
876.393	21336
876.521	21241
876.65	21283
876.778	21226
876.906	21150
877.034	21123
877.162	21131
877.29	21055
877.418	21252
877.546	21199
877.674	21085
877.802	21058
877.93	21127
878.058	21264
878.185	21146
878.313	21188
878.441	21226
878.568	21028
878.696	21100
878.824	21123
878.951	21211
879.079	21287
879.206	21515
879.333	21340
879.461	21165
879.588	21329
879.715	21351
879.842	21416
879.97	21058
880.097	21058
880.224	20994
880.351	21112
880.478	20994
880.605	20975
880.732	20910
880.859	21188
880.986	20994
881.112	20975
881.239	20883
881.366	20819
881.493	20682
881.619	20556
881.746	20568
881.872	20636
881.999	20571
882.125	20499
882.252	20655
882.378	20625
882.505	20549
882.631	20469
882.757	20393
882.883	20442
883.01	20415
883.136	20313
883.262	20122
883.388	20088
883.514	20385
883.64	20412
883.766	20305
883.892	20103
884.018	20157
884.143	20309
884.269	20393
884.395	20088
884.52	20001
884.646	20043
884.772	20031
884.897	19868
885.023	19967
885.148	20027
885.274	20134
885.399	20050
885.524	20031
885.65	20008
885.775	20035
885.9	19856
886.025	20100
886.15	19989
886.275	20081
886.4	19917
886.525	19963
886.65	19811
886.775	19826
886.9	20081
887.025	20202
887.149	19997
887.274	19651
887.399	19704
887.523	19753
887.648	19750
887.773	19613
887.897	19852
888.021	19833
888.146	19704
888.27	19769
888.395	19932
888.519	19761
888.643	19803
888.767	19776
888.891	19708
889.015	19586
889.139	19700
889.263	19502
889.387	19628
889.511	19723
889.635	19712
889.759	19590
889.883	19403
890.006	19616
890.13	19605
890.254	19495
890.377	19441
890.501	19289
890.624	19312
890.748	19403
890.871	19171
890.995	19110
891.118	19072
891.241	19171
891.364	19244
891.488	19316
891.611	19141
891.734	19228
891.857	19137
891.98	19156
892.103	19160
892.226	19099
892.349	19160
892.471	18970
892.594	19148
892.717	19099
892.839	18943
892.962	19133
893.085	19209
893.207	19023
893.33	18920
893.452	18977
893.575	19148
893.697	19118
893.819	19194
893.941	19198
894.064	19236
894.186	18970
894.308	19099
894.43	19209
894.552	19148
894.674	19122
894.796	19004
894.918	19080
895.04	19072
895.161	19088
895.283	19046
895.405	19110
895.526	19072
895.648	19065
895.769	19076
895.891	19099
896.012	19259
896.134	19217
896.255	19057
896.376	19141
896.498	19301
896.619	19156
896.74	19137
896.861	19209
896.982	19620
897.103	19613
897.224	19354
897.345	19365
897.466	19270
897.587	19388
897.708	19460
897.828	19335
897.949	19217
898.07	19206
898.19	19403
898.311	19358
898.431	19289
898.552	19335
898.672	19350
898.792	19381
898.913	19278
899.033	19274
899.153	19099
899.273	19027
899.393	18973
899.513	19072
899.633	19065
899.753	19027
899.873	19034
899.993	19004
900.113	19008
900.232	19019
900.352	19061
900.472	18977
900.591	18810
900.711	18848
900.83	18882
900.95	19000
901.069	19015
901.189	18806
901.308	18445
901.427	18536
901.546	18426
901.665	18471
901.784	18502
901.904	18399
902.023	18243
902.141	18022
902.26	17980
902.379	18045
902.498	17958
902.617	18049
902.735	18003
902.854	17950
902.973	17958
903.091	17649
903.21	17809
903.328	17634
903.446	17573
903.565	17478
903.683	17448
903.801	17303
903.919	17433
904.038	17486
904.156	17250
904.274	17360
904.392	17181
904.51	17200
904.627	17220
904.745	17288
904.863	17166
904.981	16984
905.098	16919
905.216	16934
905.334	16965
905.451	16896
905.569	16927
905.686	16961
905.803	16862
905.921	16736
906.038	16702
906.155	16706
906.272	16596
906.389	16580
906.506	16508
906.623	16447
906.74	16443
906.857	16299
906.974	16318
907.091	16443
907.208	16512
907.324	16481
907.441	16276
907.557	16230
907.674	16086
907.79	16032
907.907	16143
908.023	16090
908.139	16196
908.256	16097
908.372	16036
908.488	15968
908.604	15934
908.72	15800
908.836	15823
908.952	15823
909.068	15690
909.184	15880
909.3	15911
909.415	15835
909.531	15819
909.647	15572
909.762	15610
909.878	15496
909.993	15618
910.108	15473
910.224	15469
910.339	15561
910.454	15420
910.57	15344
910.685	15344
910.8	15587
910.915	15462
911.03	15325
911.145	15077
911.259	15017
911.374	15150
911.489	15081
911.604	15036
911.718	14834
911.833	14902
911.947	14724
912.062	14746
912.176	14800
912.291	14857
912.405	14857
912.519	15009
912.633	15028
912.748	14982
912.862	14857
912.976	14705
913.09	14667
913.204	14686
913.318	14716
913.431	14712
913.545	14826
913.659	14720
913.772	14727
913.886	14568
914	14495
914.113	14571
914.226	14610
914.34	14632
914.453	14442
914.566	14549
914.68	14503
914.793	14374
914.906	14309
915.019	14263
915.132	14107
915.245	14157
915.358	14206
915.47	14157
915.583	14290
915.696	14214
915.809	14347
915.921	14225
916.034	14103
916.146	14043
916.259	14016
916.371	14126
916.483	14138
916.595	13986
916.708	13993
916.82	13982
916.932	14001
917.044	13963
917.156	14008
917.268	13830
917.38	13921
917.491	13864
917.603	13921
917.715	13894
917.826	13879
917.938	13936
918.049	13708
918.161	13917
918.272	13879
918.384	13989
918.495	13780
918.606	13731
918.717	13594
918.828	13605
918.939	13647
919.05	13548
919.161	13586
919.272	13358
919.383	13533
919.494	13613
919.604	13693
919.715	13605
919.826	13559
919.936	13582
920.047	13666
920.157	13525
920.267	13704
920.378	13567
920.488	13457
920.598	13772
920.708	13833
920.818	13685
920.928	13605
921.038	13849
921.148	13890
921.258	13514
921.368	13464
921.477	13331
921.587	13346
921.697	13149
921.806	13266
921.916	13152
922.025	12993
922.134	12996
922.244	12894
922.353	13015
922.462	12844
922.571	12856
922.68	12578
922.789	12517
922.898	12669
923.007	12479
923.116	12536
923.224	12585
923.333	12593
923.442	12486
923.55	12388
923.659	12380
923.767	12422
923.876	12391
923.984	12410
924.092	12403
924.201	12338
924.309	12365
924.417	12418
924.525	12338
924.633	12289
924.741	13061
924.849	12098
924.956	12220
925.064	11996
925.172	11980
925.279	12102
925.387	12102
925.494	12110
925.602	12194
925.709	12175
925.816	11920
925.924	12026
926.031	12110
926.138	12015
926.245	12102
926.352	11961
926.459	12110
926.566	12083
926.673	11961
926.779	11809
926.886	11866
926.993	11729
927.099	11649
927.206	11703
927.312	11630
927.419	11668
927.525	11661
927.631	11726
927.737	11627
927.843	11535
927.95	11417
928.056	11402
928.162	11463
928.267	11589
928.373	12114
928.479	11592
928.585	11406
928.69	11474
928.796	11566
928.901	11436
929.007	11231
929.112	11410
929.218	11326
929.323	11246
929.428	11212
929.533	11383
929.638	11121
929.743	11235
929.848	11204
929.953	11227
930.058	11102
930.163	10987
930.267	10980
930.372	11162
930.477	10923
930.581	11189
930.685	11018
930.79	10896
930.894	10862
930.998	10850
931.103	10987
931.207	10630
931.311	10493
931.415	10447
931.519	10333
931.623	10257
