Data from test_V78500241_1846.txt Node
Date: Fri Mar 25 15:22:42 CST 2022
User: usil
Spectrometer: V785-0024
Trigger mode: 0
Integration Time (sec): 4.000000E-1
Scans to average: 1
Nonlinearity correction enabled: false
Boxcar width: 0
Storing dark spectrum: false
XAxis mode: Wavelengths
Number of Pixels in Spectrum: 1024
>>>>>Begin Spectral Data<<<<<
801.071	27816
801.214	27717
801.356	27454
801.499	27435
801.641	27439
801.783	27348
801.926	27249
802.068	27378
802.211	27245
802.353	27272
802.496	26998
802.638	26887
802.78	27009
802.923	26933
803.065	26735
803.208	26948
803.35	26994
803.492	27028
803.635	27173
803.777	27119
803.919	27127
804.061	27435
804.204	27104
804.346	27032
804.488	26952
804.63	27161
804.773	26906
804.915	27184
805.057	27173
805.199	27028
805.341	27188
805.483	27252
805.626	27173
805.768	27138
805.91	27260
806.052	27351
806.194	27165
806.336	27507
806.478	27291
806.62	27260
806.762	27272
806.904	27576
807.046	27762
807.188	27682
807.33	27701
807.472	27663
807.614	27591
807.756	27724
807.898	27618
808.04	27500
808.182	27466
808.324	27538
808.465	27545
808.607	27739
808.749	27816
808.891	27892
809.033	28021
809.174	27972
809.316	27937
809.458	27751
809.6	27892
809.741	27911
809.883	28070
810.025	28078
810.166	28211
810.308	28143
810.45	28097
810.591	28276
810.733	27907
810.875	27857
811.016	27770
811.158	27671
811.299	27968
811.441	27880
811.582	27892
811.724	27895
811.865	27766
812.007	27873
812.148	27831
812.29	27873
812.431	28063
812.573	28116
812.714	28375
812.855	28459
812.997	28436
813.138	28656
813.279	28561
813.421	28390
813.562	28242
813.703	28246
813.845	28093
813.986	27838
814.127	27762
814.268	27580
814.41	27504
814.551	27492
814.692	27614
814.833	27564
814.974	27564
815.115	27481
815.256	27431
815.397	27435
815.539	27511
815.68	27401
815.821	27545
815.962	27245
816.103	27374
816.244	27279
816.385	27100
816.526	27051
816.666	26990
816.807	26944
816.948	26979
817.089	27043
817.23	26876
817.371	26800
817.512	26838
817.653	26845
817.793	26819
817.934	26800
818.075	26800
818.216	26807
818.356	26796
818.497	26769
818.638	26495
818.778	26549
818.919	26644
819.06	26686
819.2	26682
819.341	26868
819.481	26895
819.622	26849
819.762	27157
819.903	27051
820.043	27020
820.184	27047
820.324	27005
820.465	26990
820.605	26899
820.746	26838
820.886	26849
821.026	26861
821.167	26830
821.307	26921
821.447	26868
821.588	26686
821.728	26724
821.868	26400
822.008	26473
822.149	26332
822.289	26221
822.429	26058
822.569	26016
822.709	25913
822.849	25947
822.99	25894
823.13	25795
823.27	25719
823.41	25670
823.55	25651
823.69	25715
823.83	25651
823.97	25518
824.11	25457
824.25	25556
824.389	25464
824.529	25567
824.669	25586
824.809	25613
824.949	25586
825.089	25578
825.228	25632
825.368	25377
825.508	25346
825.648	25441
825.787	25308
825.927	25472
826.067	25346
826.206	25346
826.346	25381
826.485	25430
826.625	25369
826.765	25419
826.904	25422
827.044	25080
827.183	25046
827.323	25027
827.462	25061
827.601	25095
827.741	25069
827.88	25008
828.02	24973
828.159	24958
828.298	25042
828.437	25110
828.577	24943
828.716	25202
828.855	25057
828.994	24715
829.134	24814
829.273	24779
829.412	24764
829.551	24707
829.69	24646
829.829	24833
829.968	24954
830.107	24779
830.246	24757
830.385	24692
830.524	24582
830.663	24677
830.802	24566
830.941	24372
831.08	24391
831.219	24494
831.357	24471
831.496	24623
831.635	24258
831.774	24414
831.913	24315
832.051	24232
832.19	24072
832.329	24182
832.467	24041
832.606	23965
832.744	23942
832.883	24129
833.022	23920
833.16	24053
833.299	24079
833.437	24133
833.576	24133
833.714	24136
833.852	24167
833.991	24277
834.129	24334
834.267	24235
834.406	24129
834.544	24087
834.682	24129
834.821	24125
834.959	24296
835.097	24038
835.235	24270
835.373	24182
835.511	24155
835.65	24060
835.788	23992
835.926	23977
836.064	23923
836.202	23866
836.34	23999
836.478	24110
836.615	23988
836.753	23885
836.891	24060
837.029	23980
837.167	23973
837.305	23786
837.443	23855
837.58	23805
837.718	23878
837.856	23741
837.993	23790
838.131	23790
838.269	23729
838.406	23745
838.544	23672
838.681	23402
838.819	23452
838.956	23345
839.094	23250
839.231	23376
839.369	23429
839.506	23585
839.643	23649
839.781	23239
839.918	23258
840.055	23292
840.193	23292
840.33	23189
840.467	23128
840.604	23315
840.742	23482
840.879	23022
841.016	23086
841.153	23212
841.29	23307
841.427	23155
841.564	23261
841.701	23269
841.838	23121
841.975	23189
842.112	23025
842.249	23044
842.385	23022
842.522	23174
842.659	22919
842.796	22942
842.933	22980
843.069	22828
843.206	22828
843.343	23041
843.479	23010
843.616	23102
843.752	22672
843.889	22835
844.025	22824
844.162	22630
844.298	22850
844.435	22729
844.571	22717
844.708	22831
844.844	22831
844.98	22843
845.117	22816
845.253	22725
845.389	22626
845.525	22626
845.661	22516
845.798	22390
845.934	22409
846.07	22424
846.206	22542
846.342	22660
846.478	22451
846.614	22200
846.75	22048
846.886	22162
847.022	22333
847.158	22242
847.294	22226
847.429	22166
847.565	22238
847.701	22432
847.837	21926
847.972	21983
848.108	22013
848.244	22086
848.379	21762
848.515	21808
848.65	21838
848.786	21720
848.921	21861
849.057	21949
849.192	21915
849.328	21888
849.463	21819
849.598	21838
849.734	21652
849.869	21633
850.004	21576
850.14	21488
850.275	21488
850.41	21408
850.545	21431
850.68	21477
850.815	21576
850.95	21488
851.085	21774
851.22	21652
851.355	21576
851.49	21549
851.625	21454
851.76	21534
851.895	21393
852.03	21428
852.165	21542
852.299	21523
852.434	21591
852.569	21557
852.703	21667
852.838	21580
852.973	21576
853.107	21583
853.242	21599
853.376	21492
853.511	21256
853.645	21393
853.78	21466
853.914	21374
854.048	21370
854.183	21530
854.317	21363
854.451	21591
854.585	21443
854.72	21321
854.854	21443
854.988	21355
855.122	21363
855.256	21256
855.39	21389
855.524	21454
855.658	21485
855.792	21374
855.926	21313
856.06	21412
856.194	21469
856.327	21405
856.461	21161
856.595	21279
856.729	21458
856.862	21473
856.996	21306
857.13	21412
857.263	21439
857.397	21462
857.53	21382
857.664	21389
857.797	21428
857.931	21477
858.064	21420
858.197	21439
858.331	21275
858.464	21325
858.597	21252
858.731	21363
858.864	21374
858.997	21332
859.13	21439
859.263	21367
859.396	21492
859.529	21492
859.662	21420
859.795	21336
859.928	21435
860.061	21557
860.194	21576
860.327	21393
860.46	21401
860.592	21496
860.725	21561
860.858	21610
860.99	21310
861.123	21329
861.256	21363
861.388	21355
861.521	22032
861.653	21199
861.786	21116
861.918	21195
862.05	21249
862.183	21340
862.315	21256
862.447	21340
862.58	21313
862.712	21241
862.844	20982
862.976	21230
863.108	21039
863.24	21477
863.372	21028
863.504	21161
863.636	21180
863.768	21180
863.9	21024
864.032	21047
864.164	21150
864.296	21154
864.428	21214
864.559	21233
864.691	21245
864.823	21108
864.954	21104
865.086	20960
865.217	20975
865.349	20899
865.48	20956
865.612	20918
865.743	21009
865.875	20990
866.006	20967
866.137	20910
866.269	20933
866.4	20933
866.531	20887
866.662	20937
866.793	20960
866.924	20944
867.055	21017
867.186	20918
867.317	20929
867.448	20796
867.579	20883
867.71	20800
867.841	20838
867.972	20762
868.103	20834
868.233	20880
868.364	20944
868.495	21058
868.625	21138
868.756	21241
868.886	21058
869.017	21150
869.147	21230
869.278	21157
869.408	21203
869.539	21260
869.669	21260
869.799	21207
869.929	21233
870.06	21214
870.19	21511
870.32	21549
870.45	21481
870.58	21405
870.71	21595
870.84	21587
870.97	21538
871.1	21523
871.23	21728
871.36	21778
871.489	21618
871.619	21671
871.749	21713
871.879	21800
872.008	21861
872.138	21755
872.267	21732
872.397	21797
872.526	21580
872.656	21580
872.785	21568
872.915	21774
873.044	21850
873.173	21827
873.303	21895
873.432	21861
873.561	22006
873.69	21679
873.819	21762
873.948	21846
874.077	21781
874.206	21698
874.335	21736
874.464	21956
874.593	22044
874.722	21873
874.851	21953
874.979	22166
875.108	21991
875.237	22013
875.365	21869
875.494	21972
875.623	21956
875.751	21991
875.88	22090
876.008	22025
876.136	22070
876.265	22432
876.393	22386
876.521	22428
876.65	22459
876.778	22314
876.906	22325
877.034	22436
877.162	22261
877.29	22249
877.418	22352
877.546	22379
877.674	22299
877.802	22314
877.93	22398
878.058	22287
878.185	22223
878.313	22200
878.441	22299
878.568	22147
878.696	22295
878.824	22443
878.951	22478
879.079	22557
879.206	22637
879.333	22527
879.461	22455
879.588	22466
879.715	22588
879.842	22569
879.97	22481
880.097	22215
880.224	22070
880.351	22325
880.478	22169
880.605	22093
880.732	22139
880.859	22329
880.986	22166
881.112	22158
881.239	21956
881.366	22055
881.493	21736
881.619	21778
881.746	21747
881.872	21743
881.999	21751
882.125	21622
882.252	21842
882.378	21595
882.505	21869
882.631	21568
882.757	21530
882.883	21542
883.01	21374
883.136	21492
883.262	21374
883.388	21291
883.514	21469
883.64	21488
883.766	21348
883.892	21207
884.018	21241
884.143	21359
884.269	21424
884.395	21058
884.52	21058
884.646	21074
884.772	21093
884.897	21150
885.023	21161
885.148	21218
885.274	21165
885.399	21131
885.524	21051
885.65	21203
885.775	21150
885.9	21043
886.025	21089
886.15	21154
886.275	21032
886.4	20963
886.525	20986
886.65	20986
886.775	20952
886.9	21062
887.025	21252
887.149	21096
887.274	20944
887.399	20765
887.523	20849
887.648	20823
887.773	20937
887.897	20853
888.021	20918
888.146	20811
888.27	20944
888.395	20956
888.519	20849
888.643	20918
888.767	20906
888.891	20811
889.015	20705
889.139	20792
889.263	20602
889.387	20864
889.511	20883
889.635	20765
889.759	20701
889.883	20507
890.006	20587
890.13	20682
890.254	20602
890.377	20552
890.501	20450
890.624	20339
890.748	20476
890.871	20336
890.995	20065
891.118	20244
891.241	20225
891.364	20294
891.488	20389
891.611	20164
891.734	20294
891.857	20256
891.98	20263
892.103	20317
892.226	20259
892.349	20187
892.471	19967
892.594	20027
892.717	20180
892.839	20088
892.962	20111
893.085	20309
893.207	20122
893.33	20088
893.452	19993
893.575	20157
893.697	20119
893.819	20324
893.941	20256
894.064	20301
894.186	20012
894.308	19944
894.43	20218
894.552	20275
894.674	20206
894.796	20046
894.918	20103
895.04	20054
895.161	20164
895.283	20180
895.405	20111
895.526	20122
895.648	20142
895.769	20119
895.891	20001
896.012	20214
896.134	20107
896.255	20263
896.376	20126
896.498	20130
896.619	20115
896.74	20115
896.861	20191
896.982	20389
897.103	20613
897.224	20457
897.345	20301
897.466	20278
897.587	20423
897.708	20389
897.828	20305
897.949	20317
898.07	20149
898.19	20290
898.311	20431
898.431	20271
898.552	20377
898.672	20404
898.792	20442
898.913	20366
899.033	20240
899.153	20142
899.273	19947
899.393	20237
899.513	20100
899.633	20111
899.753	20202
899.873	20058
899.993	20065
900.113	19940
900.232	20043
900.352	19936
900.472	19944
900.591	19731
900.711	19959
900.83	19769
900.95	19856
901.069	19986
901.189	19704
901.308	19510
901.427	19441
901.546	19544
901.665	19422
901.784	19426
901.904	19373
902.023	19293
902.141	19027
902.26	19050
902.379	19015
902.498	18882
902.617	18935
902.735	18981
902.854	19019
902.973	18935
903.091	18631
903.21	18620
903.328	18665
903.446	18464
903.565	18456
903.683	18479
903.801	18350
903.919	18247
904.038	18395
904.156	18190
904.274	18304
904.392	18258
904.51	18197
904.627	18076
904.745	18304
904.863	18079
904.981	17958
905.098	17950
905.216	17855
905.334	17836
905.451	17897
905.569	17847
905.686	17946
905.803	17908
905.921	17627
906.038	17893
906.155	17722
906.272	17592
906.389	17524
906.506	17376
906.623	17433
906.74	17440
906.857	17311
906.974	17334
907.091	17532
907.208	17566
907.324	17467
907.441	17433
907.557	17056
907.674	17170
907.79	17098
907.907	17045
908.023	17132
908.139	17246
908.256	16976
908.372	17022
908.488	16949
908.604	16881
908.72	16786
908.836	16885
908.952	16900
909.068	16828
909.184	16915
909.3	16904
909.415	16961
909.531	16835
909.647	16603
909.762	16508
909.878	16512
909.993	16455
910.108	16512
910.224	16519
910.339	16569
910.454	16360
910.57	16337
910.685	16207
910.8	16558
910.915	16485
911.03	16344
911.145	16211
911.259	16215
911.374	16188
911.489	16105
911.604	16044
911.718	15770
911.833	15835
911.947	15827
912.062	15648
912.176	15884
912.291	15884
912.405	15850
912.519	16074
912.633	16010
912.748	16036
912.862	15888
912.976	15656
913.09	15679
913.204	15793
913.318	15682
913.431	15793
913.545	15701
913.659	15736
913.772	15629
913.886	15618
914	15519
914.113	15591
914.226	15667
914.34	15603
914.453	15519
914.566	15629
914.68	15370
914.793	15344
914.906	15116
915.019	15074
915.132	15081
915.245	15074
915.358	15157
915.47	15081
915.583	15127
915.696	15116
915.809	15214
915.921	15378
916.034	15047
916.146	15017
916.259	14937
916.371	15074
916.483	15093
916.595	14899
916.708	14918
916.82	15017
916.932	14937
917.044	14868
917.156	14857
917.268	14815
917.38	14792
917.491	14796
917.603	14754
917.715	14823
917.826	14895
917.938	14708
918.049	14488
918.161	14777
918.272	14853
918.384	14743
918.495	14735
918.606	14552
918.717	14556
918.828	14583
918.939	14556
919.05	14461
919.161	14587
919.272	14317
919.383	14370
919.494	14537
919.604	14804
919.715	14560
919.826	14370
919.936	14495
920.047	14636
920.157	14408
920.267	14644
920.378	14492
920.488	14469
920.598	14651
920.708	14899
920.818	14598
920.928	14560
921.038	14834
921.148	14750
921.258	14518
921.368	14328
921.477	14305
921.587	14290
921.697	14020
921.806	14252
921.916	14054
922.025	13925
922.134	13871
922.244	13761
922.353	13875
922.462	13719
922.571	13712
922.68	13521
922.789	13533
922.898	13487
923.007	13529
923.116	13499
923.224	13487
923.333	13453
923.442	13434
923.55	13335
923.659	13392
923.767	13434
923.876	13335
923.984	13346
924.092	13187
924.201	13320
924.309	13324
924.417	13282
924.525	13171
924.633	13168
924.741	14077
924.849	13027
924.956	13027
925.064	13008
925.172	12920
925.279	12852
925.387	12901
925.494	12939
925.602	13084
925.709	13031
925.816	12859
925.924	12863
926.031	13012
926.138	12894
926.245	12878
926.352	12783
926.459	12909
926.566	12985
926.673	12802
926.779	12639
926.886	12650
926.993	12559
927.099	12528
927.206	12521
927.312	12452
927.419	12555
927.525	12429
927.631	12563
927.737	12380
927.843	12380
927.95	12304
928.056	12361
928.162	12308
928.267	12365
928.373	12962
928.479	12353
928.585	12205
928.69	12243
928.796	12418
928.901	12140
929.007	12102
929.112	12148
929.218	12216
929.323	12148
929.428	12106
929.533	12159
929.638	12079
929.743	12072
929.848	12041
929.953	11980
930.058	11851
930.163	11752
930.267	11798
930.372	11897
930.477	11748
930.581	11977
930.685	11847
930.79	11627
930.894	11665
930.998	11611
931.103	11745
931.207	11406
931.311	11356
931.415	11254
931.519	11048
931.623	11018
