Data from test_V78500241_2072.txt Node
Date: Fri Mar 25 15:24:17 CST 2022
User: usil
Spectrometer: V785-0024
Trigger mode: 0
Integration Time (sec): 4.000000E-1
Scans to average: 1
Nonlinearity correction enabled: false
Boxcar width: 0
Storing dark spectrum: false
XAxis mode: Wavelengths
Number of Pixels in Spectrum: 1024
>>>>>Begin Spectral Data<<<<<
801.071	27629
801.214	27610
801.356	27340
801.499	27329
801.641	27218
801.783	27184
801.926	27127
802.068	27043
802.211	27173
802.353	27093
802.496	26830
802.638	26929
802.78	26746
802.923	26887
803.065	26609
803.208	26735
803.35	26940
803.492	26902
803.635	27055
803.777	26804
803.919	26994
804.061	27355
804.204	27077
804.346	27020
804.488	27009
804.63	26891
804.773	26979
804.915	27043
805.057	27169
805.199	27074
805.341	27081
805.483	27161
805.626	27131
805.768	27051
805.91	27165
806.052	27226
806.194	27138
806.336	27367
806.478	27226
806.62	27165
806.762	27336
806.904	27443
807.046	27854
807.188	27656
807.33	27542
807.472	27713
807.614	27576
807.756	27515
807.898	27416
808.04	27408
808.182	27443
808.324	27397
808.465	27454
808.607	27595
808.749	27797
808.891	27869
809.033	27850
809.174	27804
809.316	27660
809.458	27728
809.6	27671
809.741	27983
809.883	27842
810.025	27918
810.166	27994
810.308	28006
810.45	28048
810.591	27975
810.733	27873
810.875	27793
811.016	27576
811.158	27633
811.299	27854
811.441	27876
811.582	27781
811.724	27747
811.865	27755
812.007	27637
812.148	27667
812.29	27835
812.431	27991
812.573	28010
812.714	28128
812.855	28306
812.997	28356
813.138	28493
813.279	28417
813.421	28344
813.562	28207
813.703	28067
813.845	27926
813.986	27804
814.127	27564
814.268	27408
814.41	27401
814.551	27435
814.692	27564
814.833	27249
814.974	27424
815.115	27564
815.256	27298
815.397	27382
815.539	27329
815.68	27226
815.821	27150
815.962	27256
816.103	27233
816.244	27066
816.385	27093
816.526	26960
816.666	26762
816.807	26697
816.948	26823
817.089	26689
817.23	26686
817.371	26762
817.512	26819
817.653	26712
817.793	26602
817.934	26788
818.075	26629
818.216	26724
818.356	26678
818.497	26708
818.638	26408
818.778	26575
818.919	26450
819.06	26434
819.2	26473
819.341	26670
819.481	26845
819.622	26781
819.762	27070
819.903	27005
820.043	26773
820.184	26845
820.324	26796
820.465	26830
820.605	26765
820.746	26796
820.886	26571
821.026	26807
821.167	26735
821.307	26796
821.447	26724
821.588	26503
821.728	26381
821.868	26332
822.008	26183
822.149	26191
822.289	26130
822.429	25750
822.569	25913
822.709	25921
822.849	25712
822.99	25704
823.13	25495
823.27	25616
823.41	25483
823.55	25240
823.69	25563
823.83	25495
823.97	25354
824.11	25228
824.25	25316
824.389	25339
824.529	25331
824.669	25335
824.809	25472
824.949	25343
825.089	25407
825.228	25240
825.368	25129
825.508	25152
825.648	25217
825.787	25072
825.927	25232
826.067	25171
826.206	25228
826.346	25225
826.485	25251
826.625	25110
826.765	25301
826.904	25213
827.044	24749
827.183	25015
827.323	24875
827.462	24970
827.601	24970
827.741	24810
827.88	24996
828.02	24859
828.159	24825
828.298	24905
828.437	25015
828.577	24939
828.716	25000
828.855	24757
828.994	24623
829.134	24540
829.273	24749
829.412	24464
829.551	24490
829.69	24525
829.829	24544
829.968	24711
830.107	24608
830.246	24574
830.385	24452
830.524	24486
830.663	24490
830.802	24350
830.941	24235
831.08	24182
831.219	24216
831.357	24251
831.496	24270
831.635	24285
831.774	24133
831.913	24041
832.051	24125
832.19	24083
832.329	23996
832.467	23908
832.606	23828
832.744	23885
832.883	23843
833.022	23912
833.16	23904
833.299	23748
833.437	23984
833.576	23897
833.714	23980
833.852	23920
833.991	23999
834.129	24026
834.267	24022
834.406	23893
834.544	24034
834.682	23908
834.821	23954
834.959	24106
835.097	23840
835.235	23965
835.373	24018
835.511	23874
835.65	23786
835.788	23798
835.926	23604
836.064	23619
836.202	23604
836.34	23783
836.478	23942
836.615	23866
836.753	23767
836.891	23859
837.029	23699
837.167	23863
837.305	23767
837.443	23627
837.58	23611
837.718	23634
837.856	23642
837.993	23653
838.131	23604
838.269	23467
838.406	23562
838.544	23417
838.681	23277
838.819	23151
838.956	23018
839.094	23124
839.231	23143
839.369	23345
839.506	23429
839.643	23398
839.781	23079
839.918	22980
840.055	23136
840.193	23132
840.33	22930
840.467	23128
840.604	23048
840.742	23159
840.879	22927
841.016	22915
841.153	22976
841.29	23041
841.427	22949
841.564	23056
841.701	23128
841.838	23033
841.975	22942
842.112	22972
842.249	22862
842.385	22763
842.522	22812
842.659	22675
842.796	22740
842.933	22679
843.069	22771
843.206	22801
843.343	22816
843.479	22835
843.616	22656
843.752	22649
843.889	22641
844.025	22603
844.162	22512
844.298	22668
844.435	22668
844.571	22599
844.708	22668
844.844	22580
844.98	22573
845.117	22577
845.253	22455
845.389	22402
845.525	22413
845.661	22398
845.798	22303
845.934	22367
846.07	22211
846.206	22322
846.342	22413
846.478	22128
846.614	22070
846.75	21979
846.886	21937
847.022	22101
847.158	22078
847.294	21857
847.429	22116
847.565	21945
847.701	22306
847.837	21751
847.972	21728
848.108	21774
848.244	21701
848.379	21629
848.515	21667
848.65	21519
848.786	21553
848.921	21660
849.057	21705
849.192	21618
849.328	21561
849.463	21622
849.598	21603
849.734	21500
849.869	21378
850.004	21272
850.14	21370
850.275	21363
850.41	21317
850.545	21370
850.68	21302
850.815	21447
850.95	21336
851.085	21519
851.22	21454
851.355	21389
851.49	21302
851.625	21226
851.76	21344
851.895	21233
852.03	21272
852.165	21329
852.299	21431
852.434	21526
852.569	21405
852.703	21348
852.838	21344
852.973	21515
853.107	21443
853.242	21374
853.376	21241
853.511	21036
853.645	21085
853.78	21317
853.914	21226
854.048	21039
854.183	21226
854.317	21157
854.451	21332
854.585	21226
854.72	21032
854.854	21329
854.988	21055
855.122	21249
855.256	21176
855.39	21188
855.524	21165
855.658	21165
855.792	21142
855.926	21264
856.06	21199
856.194	21154
856.327	21154
856.461	21135
856.595	20986
856.729	21096
856.862	21272
856.996	21214
857.13	21180
857.263	21142
857.397	21264
857.53	21237
857.664	21233
857.797	21211
857.931	21241
858.064	21062
858.197	21150
858.331	21142
858.464	21077
858.597	21138
858.731	21165
858.864	21093
858.997	21104
859.13	21131
859.263	21135
859.396	21176
859.529	21070
859.662	21104
859.795	21127
859.928	21207
860.061	21329
860.194	21294
860.327	21131
860.46	21127
860.592	21348
860.725	21367
860.858	21230
860.99	21173
861.123	21100
861.256	21051
861.388	21207
861.521	21717
861.653	21070
861.786	20956
861.918	20998
862.05	21017
862.183	21180
862.315	21036
862.447	21176
862.58	21055
862.712	20883
862.844	20864
862.976	20948
863.108	20902
863.24	21344
863.372	20826
863.504	20899
863.636	20815
863.768	20956
863.9	20880
864.032	20830
864.164	20842
864.296	20948
864.428	20948
864.559	20880
864.691	21100
864.823	20872
864.954	20804
865.086	20800
865.217	20785
865.349	20659
865.48	20826
865.612	20765
865.743	20944
865.875	20765
866.006	20800
866.137	20811
866.269	20674
866.4	20762
866.531	20720
866.662	20708
866.793	20701
866.924	20785
867.055	20682
867.186	20796
867.317	20754
867.448	20598
867.579	20872
867.71	20678
867.841	20663
867.972	20705
868.103	20712
868.233	20663
868.364	20724
868.495	20796
868.625	20937
868.756	21055
868.886	20792
869.017	20887
869.147	21005
869.278	21096
869.408	20994
869.539	20937
869.669	21020
869.799	21013
869.929	21154
870.06	21131
870.19	21241
870.32	21275
870.45	21279
870.58	21340
870.71	21435
870.84	21408
870.97	21287
871.1	21450
871.23	21519
871.36	21663
871.489	21500
871.619	21500
871.749	21500
871.879	21698
872.008	21629
872.138	21583
872.267	21557
872.397	21492
872.526	21332
872.656	21393
872.785	21408
872.915	21530
873.044	21770
873.173	21447
873.303	21511
873.432	21690
873.561	21667
873.69	21583
873.819	21564
873.948	21606
874.077	21496
874.206	21428
874.335	21587
874.464	21660
874.593	21835
874.722	21728
874.851	21842
874.979	21823
875.108	21827
875.237	21705
875.365	21762
875.494	21835
875.623	21842
875.751	21804
875.88	21884
876.008	21842
876.136	21994
876.265	22257
876.393	22303
876.521	22215
876.65	22249
876.778	22215
876.906	22185
877.034	22150
877.162	22253
877.29	22135
877.418	22177
877.546	22181
877.674	22101
877.802	22177
877.93	22147
878.058	21979
878.185	22006
878.313	22124
878.441	22059
878.568	21987
878.696	22188
878.824	22207
878.951	22223
879.079	22322
879.206	22432
879.333	22284
879.461	22234
879.588	22192
879.715	22306
879.842	22322
879.97	22276
880.097	22006
880.224	22025
880.351	21911
880.478	22010
880.605	21857
880.732	21979
880.859	22162
880.986	21991
881.112	21934
881.239	21835
881.366	21705
881.493	21610
881.619	21549
881.746	21682
881.872	21462
881.999	21572
882.125	21477
882.252	21538
882.378	21523
882.505	21606
882.631	21416
882.757	21226
882.883	21279
883.01	21199
883.136	21264
883.262	21051
883.388	21100
883.514	21245
883.64	21321
883.766	21154
883.892	21066
884.018	21001
884.143	21093
884.269	21192
884.395	20921
884.52	20914
884.646	21085
884.772	20792
884.897	20777
885.023	20773
885.148	20971
885.274	20998
885.399	20971
885.524	20834
885.65	20948
885.775	20929
885.9	20925
886.025	21005
886.15	20918
886.275	20823
886.4	20853
886.525	20830
886.65	20792
886.775	20781
886.9	21051
887.025	21009
887.149	20838
887.274	20826
887.399	20644
887.523	20678
887.648	20632
887.773	20670
887.897	20678
888.021	20765
888.146	20636
888.27	20849
888.395	20743
888.519	20613
888.643	20659
888.767	20632
888.891	20579
889.015	20457
889.139	20495
889.263	20454
889.387	20522
889.511	20708
889.635	20670
889.759	20469
889.883	20358
890.006	20488
890.13	20587
890.254	20332
890.377	20362
890.501	20248
890.624	20180
890.748	20187
890.871	20119
890.995	19978
891.118	20020
891.241	19906
891.364	20016
891.488	20271
891.611	19989
891.734	19947
891.857	20073
891.98	20035
892.103	20043
892.226	20046
892.349	19986
892.471	19803
892.594	19883
892.717	20062
892.839	19967
892.962	19921
893.085	19986
893.207	19959
893.33	19818
893.452	19887
893.575	20054
893.697	19997
893.819	20176
893.941	20103
894.064	19978
894.186	19864
894.308	19944
894.43	19989
894.552	20043
894.674	20012
894.796	19849
894.918	19974
895.04	19917
895.161	20005
895.283	19951
895.405	19879
895.526	19997
895.648	19932
895.769	19974
895.891	19989
896.012	20024
896.134	19986
896.255	20035
896.376	19887
896.498	19925
896.619	19963
896.74	19909
896.861	20069
896.982	20237
897.103	20408
897.224	20202
897.345	20126
897.466	20157
897.587	20107
897.708	20374
897.828	20191
897.949	20084
898.07	19951
898.19	20092
898.311	20218
898.431	20054
898.552	20157
898.672	20168
898.792	20267
898.913	20153
899.033	20149
899.153	19997
899.273	19928
899.393	19936
899.513	19936
899.633	19951
899.753	19909
899.873	19769
899.993	20024
900.113	19860
900.232	20043
900.352	19830
900.472	19795
900.591	19704
900.711	19605
900.83	19647
900.95	19750
901.069	19712
901.189	19480
901.308	19422
901.427	19331
901.546	19377
901.665	19476
901.784	19236
901.904	18996
902.023	18989
902.141	18821
902.26	18829
902.379	18741
902.498	18916
902.617	18726
902.735	18806
902.854	18768
902.973	18635
903.091	18437
903.21	18475
903.328	18296
903.446	18342
903.565	18315
903.683	18346
903.801	18266
903.919	18285
904.038	18296
904.156	18079
904.274	18205
904.392	18057
904.51	18068
904.627	18019
904.745	18121
904.863	18144
904.981	17882
905.098	17756
905.216	17665
905.334	17756
905.451	17741
905.569	17695
905.686	17710
905.803	17794
905.921	17558
906.038	17611
906.155	17524
906.272	17474
906.389	17448
906.506	17246
906.623	17197
906.74	17174
906.857	17109
906.974	17124
907.091	17277
907.208	17311
907.324	17284
907.441	17181
907.557	16999
907.674	16980
907.79	16904
907.907	17018
908.023	17041
908.139	16987
908.256	16930
908.372	16850
908.488	16786
908.604	16713
908.72	16618
908.836	16702
908.952	16668
909.068	16713
909.184	16786
909.3	16668
909.415	16858
909.531	16710
909.647	16367
909.762	16390
909.878	16413
909.993	16348
910.108	16405
910.224	16459
910.339	16375
910.454	16276
910.57	16223
910.685	16116
910.8	16325
910.915	16318
911.03	16173
911.145	15956
911.259	16013
911.374	15937
911.489	15835
911.604	15823
911.718	15656
911.833	15633
911.947	15663
912.062	15526
912.176	15857
912.291	15709
912.405	15785
912.519	15907
912.633	15972
912.748	15819
912.862	15663
912.976	15606
913.09	15549
913.204	15553
913.318	15523
913.431	15633
913.545	15629
913.659	15629
913.772	15584
913.886	15374
914	15313
914.113	15325
914.226	15530
914.34	15386
914.453	15237
914.566	15393
914.68	15260
914.793	15249
914.906	15009
915.019	15039
915.132	14887
915.245	15043
915.358	14986
915.47	14929
915.583	15005
915.696	15009
915.809	15093
915.921	15055
916.034	14910
916.146	14868
916.259	14819
916.371	15032
916.483	14952
916.595	14735
916.708	14800
916.82	14724
916.932	14800
917.044	14705
917.156	14632
917.268	14549
917.38	14613
917.491	14575
917.603	14583
917.715	14750
917.826	14701
917.938	14594
918.049	14499
918.161	14537
918.272	14640
918.384	14697
918.495	14568
918.606	14358
918.717	14393
918.828	14427
918.939	14358
919.05	14336
919.161	14415
919.272	14187
919.383	14202
919.494	14442
919.604	14621
919.715	14412
919.826	14237
919.936	14366
920.047	14355
920.157	14408
920.267	14594
920.378	14381
920.488	14237
920.598	14450
920.708	14568
920.818	14492
920.928	14640
921.038	14640
921.148	14636
921.258	14351
921.368	14259
921.477	14123
921.587	14138
921.697	13951
921.806	14016
921.916	13913
922.025	13803
922.134	13830
922.244	13731
922.353	13795
922.462	13567
922.571	13605
922.68	13396
922.789	13354
922.898	13441
923.007	13358
923.116	13396
923.224	13365
923.333	13339
923.442	13194
923.55	13152
923.659	13209
923.767	13324
923.876	13137
923.984	13282
924.092	13209
924.201	13183
924.309	13107
924.417	13171
924.525	13012
924.633	12966
924.741	13734
924.849	12882
924.956	12954
925.064	12897
925.172	12795
925.279	12776
925.387	12852
925.494	12791
925.602	12973
925.709	12913
925.816	12730
925.924	12738
926.031	12791
926.138	12719
926.245	12764
926.352	12749
926.459	12825
926.566	12787
926.673	12707
926.779	12570
926.886	12642
926.993	12433
927.099	12395
927.206	12251
927.312	12407
927.419	12361
927.525	12262
927.631	12384
927.737	12308
927.843	12175
927.95	12133
928.056	12243
928.162	12201
928.267	12190
928.373	12825
928.479	12232
928.585	12076
928.69	12140
928.796	12159
928.901	12064
929.007	12003
929.112	12079
929.218	12064
929.323	11977
929.428	11904
929.533	12022
929.638	11863
929.743	11851
929.848	11882
929.953	11904
930.058	11779
930.163	11665
930.267	11630
930.372	11752
930.477	11592
930.581	11703
930.685	11649
930.79	11474
930.894	11501
930.998	11452
931.103	11638
931.207	11296
931.311	11208
931.415	11121
931.519	10881
931.623	10911
