Data from test_V78500241_2.txt Node
Date: Fri Mar 25 15:09:52 CST 2022
User: usil
Spectrometer: V785-0024
Trigger mode: 0
Integration Time (sec): 4.000000E-1
Scans to average: 1
Nonlinearity correction enabled: false
Boxcar width: 0
Storing dark spectrum: false
XAxis mode: Wavelengths
Number of Pixels in Spectrum: 1024
>>>>>Begin Spectral Data<<<<<
801.071	27424
801.214	27249
801.356	27142
801.499	26979
801.641	27013
801.783	26975
801.926	26982
802.068	26857
802.211	26826
802.353	26845
802.496	26549
802.638	26507
802.78	26431
802.923	26339
803.065	26240
803.208	26362
803.35	26301
803.492	26438
803.635	26457
803.777	26514
803.919	26552
804.061	26773
804.204	26678
804.346	26339
804.488	26404
804.63	26400
804.773	26320
804.915	26431
805.057	26438
805.199	26396
805.341	26533
805.483	26431
805.626	26404
805.768	26313
805.91	26522
806.052	26560
806.194	26450
806.336	26621
806.478	26518
806.62	26374
806.762	26499
806.904	26735
807.046	26880
807.188	26823
807.33	26785
807.472	26868
807.614	26762
807.756	26777
807.898	26644
808.04	26499
808.182	26629
808.324	26507
808.465	26613
808.607	26739
808.749	26872
808.891	26948
809.033	27066
809.174	26937
809.316	26883
809.458	26857
809.6	26815
809.741	26990
809.883	26887
810.025	27195
810.166	27100
810.308	27157
810.45	26990
810.591	26948
810.733	26830
810.875	26583
811.016	26689
811.158	26659
811.299	26823
811.441	26952
811.582	26925
811.724	26705
811.865	26530
812.007	26667
812.148	26632
812.29	26781
812.431	26781
812.573	27203
812.714	27161
812.855	27249
812.997	27374
813.138	27568
813.279	27443
813.421	27138
813.562	27169
813.703	27036
813.845	26963
813.986	26560
814.127	26404
814.268	26442
814.41	26343
814.551	26271
814.692	26537
814.833	26218
814.974	26259
815.115	26286
815.256	26130
815.397	26126
815.539	26119
815.68	26111
815.821	25978
815.962	26096
816.103	26005
816.244	25833
816.385	25864
816.526	25578
816.666	25594
816.807	25354
816.948	25396
817.089	25590
817.23	25426
817.371	25293
817.512	25434
817.653	25483
817.793	25270
817.934	25453
818.075	25415
818.216	25365
818.356	25228
818.497	25282
818.638	25053
818.778	25084
818.919	25164
819.06	25133
819.2	25198
819.341	25122
819.481	25274
819.622	25331
819.762	25518
819.903	25586
820.043	25464
820.184	25293
820.324	25388
820.465	25449
820.605	25472
820.746	25419
820.886	25266
821.026	25308
821.167	25324
821.307	25445
821.447	25228
821.588	25236
821.728	25110
821.868	24840
822.008	24798
822.149	24745
822.289	24711
822.429	24376
822.569	24334
822.709	24460
822.849	24148
822.99	24197
823.13	24129
823.27	24038
823.41	23992
823.55	23961
823.69	24003
823.83	23996
823.97	23916
824.11	23775
824.25	23623
824.389	23718
824.529	23843
824.669	23741
824.809	23710
824.949	23729
825.089	23843
825.228	23703
825.368	23573
825.508	23531
825.648	23395
825.787	23592
825.927	23558
826.067	23577
826.206	23482
826.346	23406
826.485	23482
826.625	23531
826.765	23524
826.904	23406
827.044	23197
827.183	23159
827.323	23071
827.462	23284
827.601	23155
827.741	23132
827.88	23128
828.02	22946
828.159	23033
828.298	23128
828.437	23113
828.577	23105
828.716	23273
828.855	23067
828.994	22896
829.134	22949
829.273	23044
829.412	22721
829.551	22790
829.69	22801
829.829	22843
829.968	22885
830.107	22961
830.246	22850
830.385	22668
830.524	22759
830.663	22622
830.802	22573
830.941	22371
831.08	22417
831.219	22466
831.357	22421
831.496	22694
831.635	22390
831.774	22314
831.913	22131
832.051	22173
832.19	22185
832.329	22124
832.467	21991
832.606	21835
832.744	21903
832.883	22036
833.022	22017
833.16	21918
833.299	22036
833.437	21998
833.576	22173
833.714	21956
833.852	22040
833.991	22200
834.129	22040
834.267	22044
834.406	22029
834.544	22006
834.682	22059
834.821	21930
834.959	22253
835.097	21865
835.235	22044
835.373	21979
835.511	21907
835.65	21861
835.788	21918
835.926	21747
836.064	21713
836.202	21637
836.34	21934
836.478	21876
836.615	21922
836.753	21895
836.891	21793
837.029	21804
837.167	21888
837.305	21865
837.443	21583
837.58	21739
837.718	21770
837.856	21857
837.993	21709
838.131	21690
838.269	21507
838.406	21591
838.544	21348
838.681	21329
838.819	21214
838.956	21169
839.094	21165
839.231	21150
839.369	21260
839.506	21439
839.643	21344
839.781	21020
839.918	21154
840.055	21100
840.193	21070
840.33	20998
840.467	21051
840.604	21104
840.742	21306
840.879	20956
841.016	20918
841.153	20872
841.29	21077
841.427	20971
841.564	21096
841.701	20956
841.838	20830
841.975	20815
842.112	20910
842.249	20720
842.385	20731
842.522	20868
842.659	20765
842.796	20667
842.933	20587
843.069	20640
843.206	20659
843.343	20686
843.479	20781
843.616	20670
843.752	20564
843.889	20389
844.025	20670
844.162	20408
844.298	20533
844.435	20446
844.571	20374
844.708	20469
844.844	20598
844.98	20522
845.117	20492
845.253	20355
845.389	20225
845.525	20358
845.661	20267
845.798	20237
845.934	20240
846.07	20130
846.206	20256
846.342	20374
846.478	20134
846.614	19902
846.75	19803
846.886	19883
847.022	20039
847.158	19879
847.294	19963
847.429	19951
847.565	19826
847.701	20138
847.837	19521
847.972	19575
848.108	19788
848.244	19814
848.379	19502
848.515	19495
848.65	19537
848.786	19453
848.921	19445
849.057	19472
849.192	19529
849.328	19468
849.463	19540
849.598	19384
849.734	19244
849.869	19259
850.004	19194
850.14	19285
850.275	19179
850.41	19114
850.545	19046
850.68	19171
850.815	19141
850.95	19240
851.085	19278
851.22	19377
851.355	19126
851.49	19152
851.625	19110
851.76	19228
851.895	18985
852.03	18928
852.165	19148
852.299	19194
852.434	19168
852.569	19148
852.703	19175
852.838	19301
852.973	19244
853.107	19251
853.242	19175
853.376	19034
853.511	18913
853.645	18924
853.78	19076
853.914	19004
854.048	18913
854.183	18840
854.317	18970
854.451	19168
854.585	18985
854.72	18970
854.854	19065
854.988	18875
855.122	18962
855.256	18821
855.39	18973
855.524	19027
855.658	19084
855.792	18985
855.926	19034
856.06	19019
856.194	18977
856.327	18958
856.461	18989
856.595	18821
856.729	18977
856.862	18973
856.996	19046
857.13	18916
857.263	19038
857.397	19038
857.53	18973
857.664	19000
857.797	18882
857.931	19069
858.064	19027
858.197	19000
858.331	18916
858.464	18852
858.597	18821
858.731	18810
858.864	18958
858.997	18798
859.13	18890
859.263	18905
859.396	19000
859.529	18905
859.662	18878
859.795	18852
859.928	18939
860.061	19050
860.194	19072
860.327	18913
860.46	18935
860.592	18935
860.725	19012
860.858	19031
860.99	18928
861.123	18707
861.256	18791
861.388	18886
861.521	19308
861.653	18810
861.786	18730
861.918	18776
862.05	18840
862.183	18924
862.315	18947
862.447	19015
862.58	18844
862.712	18688
862.844	18551
862.976	18817
863.108	18776
863.24	19168
863.372	18536
863.504	18559
863.636	18555
863.768	18677
863.9	18536
864.032	18452
864.164	18521
864.296	18681
864.428	18661
864.559	18688
864.691	18677
864.823	18585
864.954	18525
865.086	18498
865.217	18566
865.349	18445
865.48	18479
865.612	18525
865.743	18673
865.875	18578
866.006	18547
866.137	18471
866.269	18544
866.4	18517
866.531	18464
866.662	18418
866.793	18357
866.924	18490
867.055	18528
867.186	18464
867.317	18410
867.448	18346
867.579	18448
867.71	18403
867.841	18384
867.972	18445
868.103	18433
868.233	18418
868.364	18448
868.495	18582
868.625	18707
868.756	18753
868.886	18582
869.017	18684
869.147	18837
869.278	18681
869.408	18707
869.539	18700
869.669	18787
869.799	18715
869.929	18806
870.06	18848
870.19	18958
870.32	19046
870.45	18962
870.58	19084
870.71	19213
870.84	19289
870.97	19057
871.1	19133
871.23	19183
871.36	19251
871.489	19168
871.619	19236
871.749	19270
871.879	19263
872.008	19335
872.138	19194
872.267	19304
872.397	19133
872.526	19012
872.656	19103
872.785	19110
872.915	19270
873.044	19327
873.173	19354
873.303	19266
873.432	19358
873.561	19472
873.69	19354
873.819	19331
873.948	19354
874.077	19247
874.206	19187
874.335	19274
874.464	19480
874.593	19552
874.722	19605
874.851	19757
874.979	19609
875.108	19601
875.237	19620
875.365	19502
875.494	19578
875.623	19689
875.751	19464
875.88	19506
876.008	19647
876.136	19791
876.265	19993
876.393	20187
876.521	20077
876.65	20096
876.778	20077
876.906	19940
877.034	19978
877.162	20092
877.29	19944
877.418	20046
877.546	19879
877.674	20046
877.802	19898
877.93	20024
878.058	19925
878.185	19879
878.313	19875
878.441	19974
878.568	19731
878.696	19875
878.824	19875
878.951	19898
879.079	20073
879.206	20286
879.333	19993
879.461	20012
879.588	19982
879.715	20164
879.842	20377
879.97	19997
880.097	19818
880.224	19723
880.351	19719
880.478	19875
880.605	19712
880.732	19723
880.859	20031
880.986	19826
881.112	19772
881.239	19784
881.366	19483
881.493	19518
881.619	19480
881.746	19415
881.872	19343
881.999	19403
882.125	19381
882.252	19487
882.378	19381
882.505	19559
882.631	19373
882.757	19164
882.883	19217
883.01	19126
883.136	19076
883.262	18977
883.388	18981
883.514	19152
883.64	19190
883.766	19187
883.892	18996
884.018	19061
884.143	19107
884.269	19160
884.395	18867
884.52	18779
884.646	18935
884.772	18867
884.897	18703
885.023	18833
885.148	18856
885.274	18905
885.399	18878
885.524	18856
885.65	18817
885.775	18916
885.9	18760
886.025	19008
886.15	18852
886.275	18741
886.4	18642
886.525	18719
886.65	18711
886.775	18696
886.9	18859
887.025	19000
887.149	18745
887.274	18631
887.399	18544
887.523	18585
887.648	18494
887.773	18509
887.897	18601
888.021	18540
888.146	18532
888.27	18681
888.395	18745
888.519	18608
888.643	18635
888.767	18631
888.891	18475
889.015	18429
889.139	18525
889.263	18190
889.387	18486
889.511	18582
889.635	18456
889.759	18323
889.883	18395
890.006	18361
890.13	18437
890.254	18330
890.377	18281
890.501	18224
890.624	18194
890.748	18163
890.871	18159
890.995	18022
891.118	17809
891.241	18079
891.364	18038
891.488	18095
891.611	17885
891.734	17923
891.857	18076
891.98	17973
892.103	18079
892.226	17973
892.349	17999
892.471	17832
892.594	17965
892.717	18083
892.839	17946
892.962	17954
893.085	18076
893.207	17836
893.33	17847
893.452	17866
893.575	18019
893.697	17992
893.819	18098
893.941	18079
894.064	18095
894.186	17901
894.308	17950
894.43	18068
894.552	18095
894.674	18053
894.796	17821
894.918	17965
895.04	18030
895.161	18125
895.283	18106
895.405	17946
895.526	18007
895.648	18026
895.769	18007
895.891	17980
896.012	18030
896.134	18083
896.255	18102
896.376	18060
896.498	18140
896.619	18049
896.74	18053
896.861	18095
896.982	18528
897.103	18544
897.224	18388
897.345	18270
897.466	18296
897.587	18194
897.708	18445
897.828	18319
897.949	18152
898.07	18019
898.19	18209
898.311	18315
898.431	18133
898.552	18152
898.672	18346
898.792	18311
898.913	18254
899.033	18098
899.153	18022
899.273	17874
899.393	18030
899.513	17988
899.633	17939
899.753	18038
899.873	17954
899.993	17942
900.113	17977
900.232	18019
900.352	17851
900.472	17813
900.591	17771
900.711	17885
900.83	17745
900.95	18060
901.069	17882
901.189	17703
901.308	17539
901.427	17512
901.546	17478
901.665	17467
901.784	17505
901.904	17337
902.023	17231
902.141	17132
902.26	17006
902.379	17048
902.498	16965
902.617	16930
902.735	16976
902.854	16881
902.973	16949
903.091	16615
903.21	16584
903.328	16702
903.446	16599
903.565	16538
903.683	16561
903.801	16428
903.919	16447
904.038	16272
904.156	16356
904.274	16379
904.392	16310
904.51	16230
904.627	16306
904.745	16238
904.863	16265
904.981	15854
905.098	15907
905.216	16002
905.334	15987
905.451	15892
905.569	15816
905.686	16021
905.803	15934
905.921	15709
906.038	15781
906.155	15789
906.272	15572
906.389	15603
906.506	15469
906.623	15507
906.74	15500
906.857	15405
906.974	15359
907.091	15458
907.208	15603
907.324	15393
907.441	15283
907.557	15165
907.674	15249
907.79	15112
907.907	15085
908.023	15298
908.139	15211
908.256	15081
908.372	15051
908.488	15062
908.604	14891
908.72	14864
908.836	14933
908.952	14842
909.068	14921
909.184	14902
909.3	14785
909.415	14842
909.531	14861
909.647	14571
909.762	14518
909.878	14511
909.993	14670
910.108	14594
910.224	14499
910.339	14587
910.454	14450
910.57	14461
910.685	14332
910.8	14621
910.915	14602
911.03	14309
911.145	14229
911.259	14202
911.374	14206
911.489	14031
911.604	14103
911.718	13890
911.833	13921
911.947	13845
912.062	13689
912.176	13871
912.291	13947
912.405	13936
912.519	14191
912.633	14046
912.748	14024
912.862	13936
912.976	13731
913.09	13662
913.204	13750
913.318	13845
913.431	13845
913.545	13864
913.659	13917
913.772	13811
913.886	13624
914	13636
914.113	13750
914.226	13727
914.34	13731
914.453	13537
914.566	13685
914.68	13582
914.793	13540
914.906	13369
915.019	13308
915.132	13244
915.245	13217
915.358	13251
915.47	13335
915.583	13320
915.696	13289
915.809	13419
915.921	13403
916.034	13228
916.146	13202
916.259	13232
916.371	13293
916.483	13187
916.595	13175
916.708	13168
916.82	13179
916.932	13129
917.044	13061
917.156	13076
917.268	13012
917.38	13031
917.491	12909
917.603	12993
917.715	13129
917.826	13015
917.938	12958
918.049	12878
918.161	13008
918.272	13027
918.384	13015
918.495	13031
918.606	12817
918.717	12817
918.828	12749
918.939	12852
919.05	12692
919.161	12719
919.272	12559
919.383	12749
919.494	12795
919.604	12905
919.715	12795
919.826	12715
919.936	12696
920.047	12810
920.157	12825
920.267	12985
920.378	12783
920.488	12688
920.598	12977
920.708	13069
920.818	12837
920.928	12863
921.038	13126
921.148	13072
921.258	12696
921.368	12650
921.477	12551
921.587	12486
921.697	12429
921.806	12578
921.916	12350
922.025	12239
922.134	12239
922.244	12182
922.353	12213
922.462	12083
922.571	11939
922.68	11863
922.789	11824
922.898	11798
923.007	11748
923.116	11821
923.224	11779
923.333	11741
923.442	11718
923.55	11600
923.659	11726
923.767	11760
923.876	11615
923.984	11767
924.092	11528
924.201	11619
924.309	11596
924.417	11630
924.525	11520
924.633	11570
924.741	12502
924.849	11395
924.956	11497
925.064	11318
925.172	11356
925.279	11307
925.387	11417
925.494	11341
925.602	11520
925.709	11471
925.816	11303
925.924	11345
926.031	11433
926.138	11307
926.245	11402
926.352	11197
926.459	11376
926.566	11337
926.673	11261
926.779	11124
926.886	11071
926.993	11056
927.099	10984
927.206	10915
927.312	10904
927.419	11033
927.525	10972
927.631	10961
927.737	10900
927.843	10816
927.95	10679
928.056	10828
928.162	10862
928.267	10927
928.373	11471
928.479	10938
928.585	10554
928.69	10831
928.796	10847
928.901	10710
929.007	10599
929.112	10740
929.218	10634
929.323	10622
929.428	10569
929.533	10702
929.638	10516
929.743	10542
929.848	10554
929.953	10478
930.058	10405
930.163	10276
930.267	10382
930.372	10500
930.477	10227
930.581	10516
930.685	10306
930.79	10219
930.894	10196
930.998	10204
931.103	10246
931.207	9873
931.311	9880
931.415	9743
931.519	9610
931.623	9481
