Data from test_V78500241_2733.txt Node
Date: Fri Mar 25 15:28:53 CST 2022
User: usil
Spectrometer: V785-0024
Trigger mode: 0
Integration Time (sec): 4.000000E-1
Scans to average: 1
Nonlinearity correction enabled: false
Boxcar width: 0
Storing dark spectrum: false
XAxis mode: Wavelengths
Number of Pixels in Spectrum: 1024
>>>>>Begin Spectral Data<<<<<
801.071	27047
801.214	27100
801.356	26849
801.499	26914
801.641	26727
801.783	26705
801.926	26796
802.068	26598
802.211	26609
802.353	26564
802.496	26453
802.638	26305
802.78	26317
802.923	26237
803.065	26191
803.208	26210
803.35	26199
803.492	26457
803.635	26602
803.777	26305
803.919	26366
804.061	26716
804.204	26674
804.346	26484
804.488	26396
804.63	26457
804.773	26393
804.915	26442
805.057	26488
805.199	26606
805.341	26476
805.483	26697
805.626	26514
805.768	26469
805.91	26522
806.052	26530
806.194	26461
806.336	26773
806.478	26724
806.62	26594
806.762	26781
806.904	26861
807.046	27081
807.188	27081
807.33	27108
807.472	26967
807.614	26940
807.756	26948
807.898	26872
808.04	26758
808.182	26777
808.324	26807
808.465	26826
808.607	26948
808.749	27233
808.891	27264
809.033	27359
809.174	27214
809.316	27123
809.458	27218
809.6	27127
809.741	27188
809.883	27287
810.025	27450
810.166	27439
810.308	27625
810.45	27450
810.591	27355
810.733	27104
810.875	27104
811.016	26960
811.158	26994
811.299	27344
811.441	27477
811.582	27199
811.724	27344
811.865	27154
812.007	27195
812.148	27036
812.29	27211
812.431	27329
812.573	27481
812.714	27572
812.855	27492
812.997	27789
813.138	27816
813.279	27720
813.421	27477
813.562	27393
813.703	27405
813.845	27374
813.986	27081
814.127	26868
814.268	26838
814.41	26762
814.551	26785
814.692	26979
814.833	26727
814.974	26746
815.115	26811
815.256	26659
815.397	26670
815.539	26727
815.68	26434
815.821	26556
815.962	26495
816.103	26568
816.244	26381
816.385	26275
816.526	26374
816.666	26153
816.807	26046
816.948	26172
817.089	26225
817.23	26077
817.371	25963
817.512	26134
817.653	26001
817.793	25883
817.934	26027
818.075	26046
818.216	26024
818.356	26016
818.497	26069
818.638	25803
818.778	25772
818.919	25818
819.06	25963
819.2	25989
819.341	26077
819.481	26008
819.622	26248
819.762	26393
819.903	26183
820.043	26172
820.184	26229
820.324	26214
820.465	26233
820.605	26142
820.746	26161
820.886	25974
821.026	26100
821.167	26100
821.307	26161
821.447	26062
821.588	25986
821.728	25913
821.868	25788
822.008	25677
822.149	25563
822.289	25559
822.429	25240
822.569	25122
822.709	25259
822.849	25084
822.99	25023
823.13	25019
823.27	25038
823.41	24947
823.55	24669
823.69	24840
823.83	24913
823.97	24673
824.11	24620
824.25	24623
824.389	24688
824.529	24715
824.669	24551
824.809	24669
824.949	24734
825.089	24802
825.228	24604
825.368	24574
825.508	24540
825.648	24517
825.787	24574
825.927	24631
826.067	24585
826.206	24502
826.346	24673
826.485	24536
826.625	24677
826.765	24669
826.904	24574
827.044	24361
827.183	24285
827.323	24323
827.462	24292
827.601	24243
827.741	24243
827.88	24121
828.02	24148
828.159	24243
828.298	24304
828.437	24228
828.577	24182
828.716	24330
828.855	24270
828.994	23977
829.134	23977
829.273	23973
829.412	23961
829.551	23885
829.69	23870
829.829	23973
829.968	24030
830.107	23878
830.246	23840
830.385	23882
830.524	23866
830.663	23684
830.802	23627
830.941	23433
831.08	23505
831.219	23528
831.357	23649
831.496	23680
831.635	23600
831.774	23512
831.913	23433
832.051	23372
832.19	23379
832.329	23372
832.467	23318
832.606	23143
832.744	23162
832.883	23288
833.022	23223
833.16	23273
833.299	23334
833.437	23231
833.576	23288
833.714	23235
833.852	23193
833.991	23379
834.129	23474
834.267	23242
834.406	23353
834.544	23364
834.682	23296
834.821	23204
834.959	23444
835.097	23220
835.235	23433
835.373	23200
835.511	23254
835.65	23193
835.788	23071
835.926	23071
836.064	22934
836.202	23018
836.34	23231
836.478	23223
836.615	23155
836.753	23090
836.891	23235
837.029	23117
837.167	23185
837.305	23071
837.443	23003
837.58	22881
837.718	23033
837.856	23025
837.993	22866
838.131	22889
838.269	22828
838.406	22915
838.544	22923
838.681	22672
838.819	22691
838.956	22500
839.094	22516
839.231	22577
839.369	22645
839.506	22729
839.643	22744
839.781	22478
839.918	22329
840.055	22481
840.193	22417
840.33	22390
840.467	22508
840.604	22417
840.742	22679
840.879	22242
841.016	22295
841.153	22253
841.29	22531
841.427	22333
841.564	22344
841.701	22398
841.838	22310
841.975	22257
842.112	22249
842.249	22276
842.385	22207
842.522	22459
842.659	22200
842.796	22207
842.933	22150
843.069	22185
843.206	22192
843.343	22246
843.479	22211
843.616	22101
843.752	22006
843.889	21945
844.025	22177
844.162	21812
844.298	21907
844.435	21960
844.571	21835
844.708	21918
844.844	22055
844.98	22082
845.117	22044
845.253	21903
845.389	21785
845.525	21701
845.661	21781
845.798	21724
845.934	21694
846.07	21675
846.206	21622
846.342	21660
846.478	21599
846.614	21488
846.75	21561
846.886	21332
847.022	21443
847.158	21492
847.294	21382
847.429	21568
847.565	21359
847.701	21614
847.837	21062
847.972	21119
848.108	21195
848.244	21226
848.379	21070
848.515	20986
848.65	20971
848.786	20861
848.921	20979
849.057	21138
849.192	21123
849.328	20986
849.463	20937
849.598	20990
849.734	20914
849.869	20834
850.004	20785
850.14	20887
850.275	20765
850.41	20667
850.545	20708
850.68	20792
850.815	20823
850.95	20731
851.085	20883
851.22	20925
851.355	20815
851.49	20834
851.625	20743
851.76	20686
851.895	20754
852.03	20765
852.165	20735
852.299	20663
852.434	20777
852.569	20788
852.703	20746
852.838	20823
852.973	20857
853.107	20887
853.242	20686
853.376	20686
853.511	20431
853.645	20541
853.78	20716
853.914	20655
854.048	20480
854.183	20587
854.317	20735
854.451	20804
854.585	20655
854.72	20526
854.854	20579
854.988	20518
855.122	20568
855.256	20609
855.39	20514
855.524	20617
855.658	20632
855.792	20476
855.926	20579
856.06	20686
856.194	20670
856.327	20552
856.461	20461
856.595	20503
856.729	20575
856.862	20674
856.996	20655
857.13	20697
857.263	20743
857.397	20708
857.53	20537
857.664	20613
857.797	20518
857.931	20670
858.064	20598
858.197	20811
858.331	20552
858.464	20503
858.597	20556
858.731	20571
858.864	20499
858.997	20571
859.13	20663
859.263	20648
859.396	20678
859.529	20530
859.662	20571
859.795	20549
859.928	20697
860.061	20731
860.194	20781
860.327	20621
860.46	20552
860.592	20735
860.725	20602
860.858	20655
860.99	20549
861.123	20575
861.256	20537
861.388	20632
861.521	21077
861.653	20374
861.786	20484
861.918	20370
862.05	20415
862.183	20438
862.315	20499
862.447	20606
862.58	20450
862.712	20400
862.844	20233
862.976	20286
863.108	20351
863.24	20804
863.372	20237
863.504	20275
863.636	20343
863.768	20332
863.9	20412
864.032	20191
864.164	20214
864.296	20290
864.428	20362
864.559	20434
864.691	20400
864.823	20202
864.954	20385
865.086	20229
865.217	20164
865.349	20199
865.48	20149
865.612	20138
865.743	20286
865.875	20153
866.006	20168
866.137	20161
866.269	20168
866.4	20218
866.531	20172
866.662	20115
866.793	20016
866.924	20172
867.055	20275
867.186	20172
867.317	20183
867.448	20069
867.579	20005
867.71	20031
867.841	20065
867.972	20058
868.103	20149
868.233	20130
868.364	20134
868.495	20275
868.625	20294
868.756	20461
868.886	20309
869.017	20400
869.147	20377
869.278	20408
869.408	20347
869.539	20290
869.669	20446
869.799	20434
869.929	20415
870.06	20511
870.19	20655
870.32	20602
870.45	20746
870.58	20754
870.71	20929
870.84	20941
870.97	20762
871.1	20807
871.23	21108
871.36	20880
871.489	20960
871.619	20986
871.749	21047
871.879	21005
872.008	21222
872.138	20952
872.267	21043
872.397	20876
872.526	20762
872.656	20887
872.785	20834
872.915	20998
873.044	21074
873.173	20941
873.303	20990
873.432	21058
873.561	21066
873.69	21127
873.819	21047
873.948	21112
874.077	20986
874.206	20982
874.335	21066
874.464	21218
874.593	21306
874.722	21203
874.851	21302
874.979	21302
875.108	21249
875.237	21306
875.365	21085
875.494	21218
875.623	21336
875.751	21272
875.88	21283
876.008	21435
876.136	21496
876.265	21637
876.393	21671
876.521	21572
876.65	21686
876.778	21701
876.906	21633
877.034	21614
877.162	21667
877.29	21545
877.418	21553
877.546	21568
877.674	21610
877.802	21553
877.93	21534
878.058	21728
878.185	21424
878.313	21530
878.441	21633
878.568	21523
878.696	21435
878.824	21652
878.951	21606
879.079	21873
879.206	21812
879.333	21808
879.461	21724
879.588	21774
879.715	21694
879.842	21956
879.97	21686
880.097	21481
880.224	21348
880.351	21443
880.478	21538
880.605	21310
880.732	21435
880.859	21759
880.986	21370
881.112	21420
881.239	21279
881.366	21157
881.493	21100
881.619	20979
881.746	21066
881.872	21081
881.999	21039
882.125	20864
882.252	21077
882.378	20967
882.505	21036
882.631	20876
882.757	20804
882.883	20743
883.01	20735
883.136	20670
883.262	20716
883.388	20537
883.514	20731
883.64	20659
883.766	20625
883.892	20400
884.018	20625
884.143	20644
884.269	20800
884.395	20427
884.52	20332
884.646	20343
884.772	20366
884.897	20366
885.023	20469
885.148	20473
885.274	20568
885.399	20492
885.524	20366
885.65	20385
885.775	20419
885.9	20309
886.025	20434
886.15	20476
886.275	20362
886.4	20362
886.525	20298
886.65	20366
886.775	20168
886.9	20511
887.025	20537
887.149	20389
887.274	20161
887.399	20210
887.523	20081
887.648	20157
887.773	20005
887.897	20271
888.021	20180
888.146	20107
888.27	20317
888.395	20191
888.519	20248
888.643	20252
888.767	20180
888.891	20111
889.015	19925
889.139	20012
889.263	19925
889.387	20039
889.511	20233
889.635	20145
889.759	19967
889.883	19856
890.006	19856
890.13	20020
890.254	19841
890.377	19868
890.501	19727
890.624	19700
890.748	19700
890.871	19723
890.995	19499
891.118	19400
891.241	19563
891.364	19540
891.488	19624
891.611	19529
891.734	19548
891.857	19586
891.98	19525
892.103	19601
892.226	19582
892.349	19483
892.471	19388
892.594	19426
892.717	19502
892.839	19422
892.962	19506
893.085	19495
893.207	19434
893.33	19430
893.452	19441
893.575	19472
893.697	19392
893.819	19582
893.941	19651
894.064	19594
894.186	19419
894.308	19396
894.43	19457
894.552	19506
894.674	19590
894.796	19453
894.918	19480
895.04	19358
895.161	19464
895.283	19430
895.405	19354
895.526	19559
895.648	19422
895.769	19392
895.891	19502
896.012	19533
896.134	19544
896.255	19441
896.376	19468
896.498	19438
896.619	19586
896.74	19491
896.861	19434
896.982	19822
897.103	19883
897.224	19693
897.345	19712
897.466	19624
897.587	19738
897.708	19814
897.828	19871
897.949	19616
898.07	19510
898.19	19537
898.311	19715
898.431	19700
898.552	19704
898.672	19788
898.792	19841
898.913	19723
899.033	19624
899.153	19510
899.273	19426
899.393	19438
899.513	19483
899.633	19533
899.753	19419
899.873	19430
899.993	19483
900.113	19453
900.232	19499
900.352	19540
900.472	19225
900.591	19263
900.711	19251
900.83	19228
900.95	19301
901.069	19320
901.189	19069
901.308	19042
901.427	18798
901.546	18829
901.665	18867
901.784	18863
901.904	18673
902.023	18650
902.141	18460
902.26	18342
902.379	18365
902.498	18338
902.617	18338
902.735	18384
902.854	18445
902.973	18376
903.091	18114
903.21	18060
903.328	17965
903.446	17901
903.565	17882
903.683	17802
903.801	17684
903.919	17813
904.038	17828
904.156	17623
904.274	17691
904.392	17619
904.51	17562
904.627	17520
904.745	17627
904.863	17573
904.981	17391
905.098	17307
905.216	17265
905.334	17379
905.451	17311
905.569	17337
905.686	17379
905.803	17280
905.921	17098
906.038	17208
906.155	16987
906.272	17052
906.389	17056
906.506	16915
906.623	16915
906.74	16774
906.857	16725
906.974	16805
907.091	16889
907.208	16885
907.324	16881
907.441	16645
907.557	16615
907.674	16580
907.79	16523
907.907	16550
908.023	16550
908.139	16569
908.256	16478
908.372	16337
908.488	16466
908.604	16303
908.72	16261
908.836	16348
908.952	16249
909.068	16246
909.184	16402
909.3	16219
909.415	16356
909.531	16261
909.647	16071
909.762	15987
909.878	15991
909.993	16013
910.108	15972
910.224	15816
910.339	15918
910.454	15781
910.57	15812
910.685	15766
910.8	16063
910.915	16010
911.03	15747
911.145	15641
911.259	15591
911.374	15576
911.489	15488
911.604	15538
911.718	15340
911.833	15310
911.947	15325
912.062	15199
912.176	15454
912.291	15401
912.405	15344
912.519	15591
912.633	15488
912.748	15329
912.862	15336
912.976	15142
913.09	15077
913.204	15173
913.318	15119
913.431	15294
913.545	15272
913.659	15298
913.772	15150
913.886	15039
914	14998
914.113	15020
914.226	15077
914.34	15032
914.453	14906
914.566	14914
914.68	14777
914.793	14880
914.906	14724
915.019	14651
915.132	14511
915.245	14621
915.358	14556
915.47	14667
915.583	14556
915.696	14644
915.809	14621
915.921	14765
916.034	14568
916.146	14507
916.259	14461
916.371	14590
916.483	14575
916.595	14484
916.708	14358
916.82	14434
916.932	14427
917.044	14370
917.156	14377
917.268	14396
917.38	14286
917.491	14259
917.603	14176
917.715	14298
917.826	14305
917.938	14218
918.049	14115
918.161	14263
918.272	14393
918.384	14362
918.495	14244
918.606	14058
918.717	14062
918.828	14046
918.939	14115
919.05	13932
919.161	14092
919.272	13845
919.383	13811
919.494	14073
919.604	14199
919.715	14035
919.826	13967
919.936	13921
920.047	14084
920.157	14100
920.267	14149
920.378	14035
920.488	14016
920.598	14115
920.708	14267
920.818	14149
920.928	14180
921.038	14320
921.148	14210
921.258	13887
921.368	13928
921.477	13811
921.587	13727
921.697	13658
921.806	13795
921.916	13731
922.025	13415
922.134	13499
922.244	13403
922.353	13407
922.462	13358
922.571	13259
922.68	13114
922.789	13084
922.898	13080
923.007	13042
923.116	13168
923.224	12962
923.333	12973
923.442	12901
923.55	12871
923.659	12894
923.767	13023
923.876	12856
923.984	12905
924.092	12768
924.201	12856
924.309	12810
924.417	12715
924.525	12696
924.633	12760
924.741	13670
924.849	12620
924.956	12658
925.064	12517
925.172	12445
925.279	12456
925.387	12483
925.494	12563
925.602	12601
925.709	12506
925.816	12380
925.924	12467
926.031	12585
926.138	12418
926.245	12479
926.352	12399
926.459	12509
926.566	12452
926.673	12277
926.779	12308
926.886	12296
926.993	12057
927.099	12095
927.206	12019
927.312	12068
927.419	12129
927.525	12072
927.631	12133
927.737	12003
927.843	11965
927.95	11821
928.056	11908
928.162	11889
928.267	11923
928.373	12452
928.479	12041
928.585	11703
928.69	11912
928.796	11889
928.901	11748
929.007	11676
929.112	11786
929.218	11767
929.323	11657
929.428	11596
929.533	11813
929.638	11657
929.743	11600
929.848	11714
929.953	11627
930.058	11463
930.163	11341
930.267	11341
930.372	11421
930.477	11311
930.581	11520
930.685	11356
930.79	11204
930.894	11212
930.998	11181
931.103	11368
931.207	11006
931.311	10873
931.415	10904
931.519	10706
931.623	10622
