Data from test_V78500241_3035.txt Node
Date: Fri Mar 25 15:30:59 CST 2022
User: usil
Spectrometer: V785-0024
Trigger mode: 0
Integration Time (sec): 4.000000E-1
Scans to average: 1
Nonlinearity correction enabled: false
Boxcar width: 0
Storing dark spectrum: false
XAxis mode: Wavelengths
Number of Pixels in Spectrum: 1024
>>>>>Begin Spectral Data<<<<<
801.071	27157
801.214	27074
801.356	26925
801.499	26899
801.641	26655
801.783	26746
801.926	26887
802.068	26682
802.211	26697
802.353	26590
802.496	26366
802.638	26499
802.78	26393
802.923	26286
803.065	26271
803.208	26214
803.35	26434
803.492	26556
803.635	26480
803.777	26522
803.919	26499
804.061	26830
804.204	26617
804.346	26434
804.488	26442
804.63	26526
804.773	26393
804.915	26503
805.057	26617
805.199	26511
805.341	26499
805.483	26682
805.626	26575
805.768	26583
805.91	26571
806.052	26655
806.194	26587
806.336	26682
806.478	26632
806.62	26644
806.762	26743
806.904	26845
807.046	27218
807.188	27001
807.33	27032
807.472	27116
807.614	26940
807.756	27001
807.898	26842
808.04	26853
808.182	26864
808.324	26960
808.465	27017
808.607	27028
808.749	27146
808.891	27325
809.033	27374
809.174	27176
809.316	27393
809.458	27173
809.6	27157
809.741	27367
809.883	27332
810.025	27496
810.166	27382
810.308	27382
810.45	27481
810.591	27367
810.733	27260
810.875	27096
811.016	27108
811.158	27104
811.299	27306
811.441	27351
811.582	27268
811.724	27199
811.865	27104
812.007	27157
812.148	27249
812.29	27150
812.431	27355
812.573	27603
812.714	27717
812.855	27717
812.997	27846
813.138	27880
813.279	27797
813.421	27671
813.562	27652
813.703	27587
813.845	27469
813.986	27146
814.127	26929
814.268	26864
814.41	26887
814.551	26792
814.692	26990
814.833	26906
814.974	26834
815.115	26906
815.256	26640
815.397	26667
815.539	26701
815.68	26663
815.821	26507
815.962	26670
816.103	26712
816.244	26522
816.385	26457
816.526	26370
816.666	26202
816.807	26191
816.948	26195
817.089	26187
817.23	26225
817.371	26145
817.512	26103
817.653	26012
817.793	26084
817.934	26081
818.075	26016
818.216	26024
818.356	25913
818.497	26050
818.638	25913
818.778	25811
818.919	25814
819.06	25776
819.2	25928
819.341	26088
819.481	26050
819.622	26221
819.762	26431
819.903	26347
820.043	26206
820.184	26225
820.324	26111
820.465	26282
820.605	26328
820.746	26092
820.886	26126
821.026	26130
821.167	26130
821.307	26149
821.447	26161
821.588	25917
821.728	25921
821.868	25750
822.008	25540
822.149	25700
822.289	25468
822.429	25289
822.569	25213
822.709	25240
822.849	25263
822.99	25110
823.13	25069
823.27	25198
823.41	24916
823.55	24886
823.69	24882
823.83	24947
823.97	24958
824.11	24703
824.25	24608
824.389	24612
824.529	24757
824.669	24753
824.809	24795
824.949	24817
825.089	24734
825.228	24722
825.368	24677
825.508	24654
825.648	24654
825.787	24616
825.927	24604
826.067	24673
826.206	24578
826.346	24669
826.485	24658
826.625	24589
826.765	24730
826.904	24616
827.044	24441
827.183	24342
827.323	24353
827.462	24441
827.601	24315
827.741	24243
827.88	24399
828.02	24178
828.159	24300
828.298	24235
828.437	24232
828.577	24342
828.716	24311
828.855	24213
828.994	23965
829.134	24026
829.273	24136
829.412	23901
829.551	23889
829.69	23950
829.829	23980
829.968	24171
830.107	24034
830.246	23893
830.385	24053
830.524	23889
830.663	23866
830.802	23703
830.941	23752
831.08	23558
831.219	23653
831.357	23687
831.496	23798
831.635	23592
831.774	23444
831.913	23467
832.051	23250
832.19	23528
832.329	23337
832.467	23208
832.606	23315
832.744	23239
832.883	23231
833.022	23197
833.16	23299
833.299	23345
833.437	23303
833.576	23284
833.714	23448
833.852	23478
833.991	23493
834.129	23436
834.267	23360
834.406	23303
834.544	23220
834.682	23429
834.821	23296
834.959	23516
835.097	23368
835.235	23391
835.373	23364
835.511	23322
835.65	23208
835.788	23098
835.926	23083
836.064	22968
836.202	23147
836.34	23022
836.478	23299
836.615	22999
836.753	23166
836.891	23242
837.029	23064
837.167	23147
837.305	23079
837.443	23052
837.58	23064
837.718	23033
837.856	23083
837.993	22953
838.131	23098
838.269	22968
838.406	22942
838.544	22957
838.681	22656
838.819	22565
838.956	22577
839.094	22413
839.231	22557
839.369	22641
839.506	22984
839.643	22790
839.781	22565
839.918	22550
840.055	22474
840.193	22466
840.33	22466
840.467	22531
840.604	22459
840.742	22641
840.879	22333
841.016	22265
841.153	22276
841.29	22398
841.427	22466
841.564	22394
841.701	22421
841.838	22352
841.975	22268
842.112	22379
842.249	22291
842.385	22185
842.522	22542
842.659	22363
842.796	22101
842.933	22101
843.069	22196
843.206	22097
843.343	22166
843.479	22070
843.616	22147
843.752	21915
843.889	21903
844.025	22128
844.162	21960
844.298	22067
844.435	21937
844.571	21945
844.708	22021
844.844	22025
844.98	22059
845.117	22025
845.253	21827
845.389	21778
845.525	21679
845.661	21736
845.798	21686
845.934	21838
846.07	21652
846.206	21686
846.342	21732
846.478	21720
846.614	21576
846.75	21344
846.886	21336
847.022	21564
847.158	21454
847.294	21447
847.429	21443
847.565	21420
847.701	21637
847.837	21161
847.972	21150
848.108	21298
848.244	21230
848.379	21070
848.515	20986
848.65	21036
848.786	20963
848.921	21085
849.057	21127
849.192	21096
849.328	21043
849.463	20910
849.598	20921
849.734	20857
849.869	20971
850.004	20773
850.14	20693
850.275	20864
850.41	20712
850.545	20651
850.68	20781
850.815	20762
850.95	20754
851.085	21039
851.22	20929
851.355	20750
851.49	20941
851.625	20739
851.76	20708
851.895	20667
852.03	20720
852.165	20834
852.299	20891
852.434	20834
852.569	20830
852.703	20727
852.838	20796
852.973	20933
853.107	20906
853.242	20750
853.376	20655
853.511	20404
853.645	20549
853.78	20705
853.914	20632
854.048	20625
854.183	20503
854.317	20583
854.451	20842
854.585	20648
854.72	20541
854.854	20697
854.988	20465
855.122	20480
855.256	20495
855.39	20568
855.524	20651
855.658	20731
855.792	20571
855.926	20606
856.06	20670
856.194	20663
856.327	20644
856.461	20693
856.595	20476
856.729	20530
856.862	20678
856.996	20552
857.13	20651
857.263	20762
857.397	20746
857.53	20560
857.664	20598
857.797	20590
857.931	20682
858.064	20670
858.197	20735
858.331	20613
858.464	20560
858.597	20594
858.731	20568
858.864	20522
858.997	20575
859.13	20613
859.263	20606
859.396	20735
859.529	20640
859.662	20488
859.795	20530
859.928	20686
860.061	20686
860.194	20716
860.327	20609
860.46	20663
860.592	20724
860.725	20754
860.858	20735
860.99	20640
861.123	20541
861.256	20594
861.388	20587
861.521	21142
861.653	20518
861.786	20461
861.918	20415
862.05	20511
862.183	20415
862.315	20556
862.447	20541
862.58	20495
862.712	20377
862.844	20282
862.976	20408
863.108	20351
863.24	20857
863.372	20229
863.504	20362
863.636	20138
863.768	20282
863.9	20324
864.032	20267
864.164	20214
864.296	20271
864.428	20396
864.559	20492
864.691	20370
864.823	20442
864.954	20374
865.086	20210
865.217	20191
865.349	20199
865.48	20191
865.612	20164
865.743	20412
865.875	20248
866.006	20256
866.137	20111
866.269	20278
866.4	20157
866.531	20218
866.662	20187
866.793	20282
866.924	20088
867.055	20084
867.186	20161
867.317	20195
867.448	20153
867.579	20115
867.71	20012
867.841	20130
867.972	20088
868.103	20237
868.233	20180
868.364	20240
868.495	20252
868.625	20396
868.756	20537
868.886	20366
869.017	20351
869.147	20473
869.278	20533
869.408	20514
869.539	20370
869.669	20556
869.799	20492
869.929	20564
870.06	20442
870.19	20648
870.32	20545
870.45	20804
870.58	20826
870.71	20853
870.84	20830
870.97	20857
871.1	20754
871.23	21047
871.36	21013
871.489	20826
871.619	20960
871.749	20906
871.879	21013
872.008	21138
872.138	20952
872.267	21085
872.397	20895
872.526	20724
872.656	20792
872.785	20800
872.915	21005
873.044	21077
873.173	21009
873.303	21051
873.432	21142
873.561	21116
873.69	21047
873.819	21169
873.948	21005
874.077	21009
874.206	20963
874.335	21009
874.464	21017
874.593	21237
874.722	21207
874.851	21317
874.979	21298
875.108	21401
875.237	21256
875.365	21211
875.494	21370
875.623	21344
875.751	21252
875.88	21218
876.008	21378
876.136	21515
876.265	21690
876.393	21785
876.521	21667
876.65	21755
876.778	21686
876.906	21595
877.034	21572
877.162	21576
877.29	21500
877.418	21682
877.546	21595
877.674	21553
877.802	21591
877.93	21705
878.058	21515
878.185	21530
878.313	21545
878.441	21637
878.568	21401
878.696	21690
878.824	21561
878.951	21705
879.079	21823
879.206	21816
879.333	21675
879.461	21648
879.588	21770
879.715	21709
879.842	21865
879.97	21660
880.097	21519
880.224	21412
880.351	21447
880.478	21363
880.605	21393
880.732	21561
880.859	21720
880.986	21568
881.112	21408
881.239	21291
881.366	21154
881.493	21058
881.619	21070
881.746	21036
881.872	20994
881.999	20990
882.125	20937
882.252	21074
882.378	20986
882.505	21146
882.631	20994
882.757	20746
882.883	20895
883.01	20804
883.136	20716
883.262	20461
883.388	20583
883.514	20651
883.64	20758
883.766	20621
883.892	20537
884.018	20526
884.143	20640
884.269	20651
884.395	20545
884.52	20317
884.646	20362
884.772	20282
884.897	20248
885.023	20431
885.148	20583
885.274	20526
885.399	20396
885.524	20415
885.65	20442
885.775	20313
885.9	20396
886.025	20537
886.15	20568
886.275	20313
886.4	20389
886.525	20317
886.65	20381
886.775	20248
886.9	20454
887.025	20598
887.149	20324
887.274	20103
887.399	20168
887.523	20122
887.648	20100
887.773	19928
887.897	20202
888.021	20202
888.146	19986
888.27	20199
888.395	20263
888.519	20210
888.643	20214
888.767	20229
888.891	20062
889.015	19993
889.139	19974
889.263	19849
889.387	20100
889.511	20180
889.635	20149
889.759	19852
889.883	19944
890.006	19989
890.13	20096
890.254	19811
890.377	19894
890.501	19693
890.624	19719
890.748	19772
890.871	19753
890.995	19567
891.118	19407
891.241	19540
891.364	19552
891.488	19674
891.611	19597
891.734	19525
891.857	19609
891.98	19590
892.103	19643
892.226	19582
892.349	19544
892.471	19419
892.594	19582
892.717	19518
892.839	19381
892.962	19499
893.085	19521
893.207	19449
893.33	19259
893.452	19419
893.575	19537
893.697	19483
893.819	19632
893.941	19578
894.064	19582
894.186	19449
894.308	19407
894.43	19468
894.552	19624
894.674	19586
894.796	19460
894.918	19502
895.04	19559
895.161	19430
895.283	19495
895.405	19403
895.526	19400
895.648	19457
895.769	19552
895.891	19556
896.012	19460
896.134	19502
896.255	19582
896.376	19430
896.498	19396
896.619	19422
896.74	19514
896.861	19582
896.982	19856
897.103	19989
897.224	19677
897.345	19689
897.466	19780
897.587	19651
897.708	19791
897.828	19799
897.949	19742
898.07	19480
898.19	19639
898.311	19769
898.431	19677
898.552	19803
898.672	19784
898.792	19731
898.913	19731
899.033	19567
899.153	19544
899.273	19316
899.393	19434
899.513	19483
899.633	19445
899.753	19556
899.873	19441
899.993	19525
900.113	19506
900.232	19415
900.352	19419
900.472	19304
900.591	19274
900.711	19324
900.83	19236
900.95	19449
901.069	19327
901.189	19206
901.308	18928
901.427	18882
901.546	18821
901.665	18901
901.784	18856
901.904	18681
902.023	18532
902.141	18490
902.26	18460
902.379	18536
902.498	18342
902.617	18429
902.735	18399
902.854	18376
902.973	18254
903.091	18201
903.21	18064
903.328	18064
903.446	18030
903.565	17912
903.683	18030
903.801	17748
903.919	17805
904.038	17718
904.156	17596
904.274	17680
904.392	17653
904.51	17512
904.627	17646
904.745	17710
904.863	17821
904.981	17436
905.098	17337
905.216	17200
905.334	17265
905.451	17349
905.569	17250
905.686	17265
905.803	17311
905.921	17162
906.038	17166
906.155	17071
906.272	16881
906.389	17014
906.506	16828
906.623	16755
906.74	16858
906.857	16759
906.974	16729
907.091	16904
907.208	17037
907.324	16801
907.441	16759
907.557	16653
907.674	16622
907.79	16459
907.907	16508
908.023	16596
908.139	16489
908.256	16405
908.372	16432
908.488	16417
908.604	16386
908.72	16344
908.836	16295
908.952	16249
909.068	16303
909.184	16375
909.3	16265
909.415	16253
909.531	16242
909.647	16071
909.762	16044
909.878	15987
909.993	16067
910.108	15892
910.224	16010
910.339	15884
910.454	15831
910.57	15831
910.685	15781
910.8	15983
910.915	15934
911.03	15736
911.145	15576
911.259	15599
911.374	15572
911.489	15462
911.604	15485
911.718	15374
911.833	15355
911.947	15336
912.062	15256
912.176	15458
912.291	15466
912.405	15431
912.519	15553
912.633	15420
912.748	15367
912.862	15275
912.976	15203
913.09	15116
913.204	15169
913.318	15169
913.431	15233
913.545	15283
913.659	15245
913.772	15123
913.886	15157
914	14918
914.113	14975
914.226	15081
914.34	15039
914.453	14849
914.566	15001
914.68	14872
914.793	14815
914.906	14670
915.019	14530
915.132	14488
915.245	14545
915.358	14610
915.47	14670
915.583	14549
915.696	14606
915.809	14705
915.921	14648
916.034	14610
916.146	14488
916.259	14488
916.371	14590
916.483	14579
916.595	14461
916.708	14495
916.82	14450
916.932	14396
917.044	14408
917.156	14339
917.268	14259
917.38	14221
917.491	14358
917.603	14336
917.715	14381
917.826	14343
917.938	14252
918.049	14119
918.161	14256
918.272	14389
918.384	14381
918.495	14218
918.606	14164
918.717	13909
918.828	14073
918.939	14050
919.05	13902
919.161	13947
919.272	13883
919.383	13841
919.494	14069
919.604	14225
919.715	14008
919.826	13944
919.936	14031
920.047	14100
920.157	14062
920.267	14149
920.378	13951
920.488	13921
920.598	14355
920.708	14263
920.818	14301
920.928	14081
921.038	14324
921.148	14271
921.258	13978
921.368	13917
921.477	13860
921.587	13731
921.697	13632
921.806	13731
921.916	13571
922.025	13483
922.134	13460
922.244	13369
922.353	13400
922.462	13301
922.571	13137
922.68	13187
922.789	13099
922.898	13034
923.007	12905
923.116	13031
923.224	13027
923.333	13046
923.442	12951
923.55	12856
923.659	12894
923.767	12996
923.876	12821
923.984	12951
924.092	12833
924.201	12852
924.309	12806
924.417	12810
924.525	12726
924.633	12741
924.741	13704
924.849	12509
924.956	12635
925.064	12536
925.172	12616
925.279	12384
925.387	12551
925.494	12452
925.602	12612
925.709	12490
925.816	12380
925.924	12410
926.031	12555
926.138	12429
926.245	12422
926.352	12323
926.459	12490
926.566	12456
926.673	12418
926.779	12190
926.886	12251
926.993	12152
927.099	12026
927.206	12068
927.312	12003
927.419	12095
927.525	12098
927.631	12133
927.737	11988
927.843	11885
927.95	11851
928.056	11885
928.162	11916
928.267	11988
928.373	12582
928.479	11977
928.585	11893
928.69	11840
928.796	11790
928.901	11809
929.007	11634
929.112	11821
929.218	11767
929.323	11627
929.428	11676
929.533	11707
929.638	11596
929.743	11600
929.848	11649
929.953	11604
930.058	11452
930.163	11288
930.267	11356
930.372	11493
930.477	11402
930.581	11627
930.685	11372
930.79	11322
930.894	11242
930.998	11284
931.103	11414
931.207	11033
931.311	10908
931.415	10854
931.519	10702
931.623	10664
