Data from test_V78500241_132.txt Node
Date: Fri Mar 25 15:10:46 CST 2022
User: usil
Spectrometer: V785-0024
Trigger mode: 0
Integration Time (sec): 4.000000E-1
Scans to average: 1
Nonlinearity correction enabled: false
Boxcar width: 0
Storing dark spectrum: false
XAxis mode: Wavelengths
Number of Pixels in Spectrum: 1024
>>>>>Begin Spectral Data<<<<<
801.071	28341
801.214	28219
801.356	27800
801.499	27865
801.641	27770
801.783	27762
801.926	27709
802.068	27869
802.211	27667
802.353	27606
802.496	27599
802.638	27336
802.78	27344
802.923	27424
803.065	27226
803.208	27348
803.35	27291
803.492	27511
803.635	27549
803.777	27485
803.919	27557
804.061	27838
804.204	27549
804.346	27447
804.488	27310
804.63	27313
804.773	27469
804.915	27431
805.057	27652
805.199	27340
805.341	27488
805.483	27519
805.626	27549
805.768	27473
805.91	27663
806.052	27625
806.194	27496
806.336	27690
806.478	27496
806.62	27587
806.762	27671
806.904	27610
807.046	28086
807.188	28044
807.33	27812
807.472	27960
807.614	27827
807.756	27713
807.898	27682
808.04	27766
808.182	27690
808.324	27755
808.465	27819
808.607	27823
808.749	28048
808.891	28101
809.033	28379
809.174	28135
809.316	28074
809.458	27991
809.6	28048
809.741	28230
809.883	28257
810.025	28234
810.166	28306
810.308	28272
810.45	28284
810.591	28253
810.733	28158
810.875	28036
811.016	28006
811.158	27827
811.299	28090
811.441	28059
811.582	28055
811.724	28010
811.865	28017
812.007	27934
812.148	27953
812.29	28002
812.431	28238
812.573	28382
812.714	28451
812.855	28508
812.997	28569
813.138	28660
813.279	28630
813.421	28557
813.562	28554
813.703	28382
813.845	28177
813.986	27972
814.127	27644
814.268	27766
814.41	27671
814.551	27717
814.692	27694
814.833	27686
814.974	27530
815.115	27572
815.256	27485
815.397	27481
815.539	27458
815.68	27329
815.821	27279
815.962	27492
816.103	27359
816.244	27332
816.385	27230
816.526	26975
816.666	26967
816.807	26826
816.948	26960
817.089	26925
817.23	26975
817.371	26796
817.512	26872
817.653	26678
817.793	26743
817.934	26720
818.075	26788
818.216	26701
818.356	26785
818.497	26625
818.638	26594
818.778	26434
818.919	26514
819.06	26549
819.2	26590
819.341	26746
819.481	26602
819.622	26933
819.762	26994
819.903	26952
820.043	26720
820.184	26918
820.324	26739
820.465	26826
820.605	26842
820.746	26868
820.886	26674
821.026	26773
821.167	26667
821.307	26838
821.447	26663
821.588	26590
821.728	26381
821.868	26347
822.008	26202
822.149	26134
822.289	26088
822.429	25909
822.569	25814
822.709	25830
822.849	25674
822.99	25575
823.13	25571
823.27	25609
823.41	25365
823.55	25285
823.69	25343
823.83	25422
823.97	25350
824.11	25270
824.25	25259
824.389	25171
824.529	25335
824.669	25259
824.809	25346
824.949	25251
825.089	25350
825.228	25274
825.368	25034
825.508	25050
825.648	25091
825.787	25084
825.927	25027
826.067	24882
826.206	24894
826.346	24989
826.485	25114
826.625	24973
826.765	25164
826.904	25076
827.044	24932
827.183	24821
827.323	24726
827.462	24757
827.601	24711
827.741	24726
827.88	24711
828.02	24574
828.159	24589
828.298	24719
828.437	24696
828.577	24585
828.716	24715
828.855	24566
828.994	24376
829.134	24403
829.273	24376
829.412	24308
829.551	24380
829.69	24338
829.829	24315
829.968	24323
830.107	24407
830.246	24486
830.385	24228
830.524	24239
830.663	24136
830.802	24178
830.941	23950
831.08	23980
831.219	23969
831.357	23931
831.496	24102
831.635	24026
831.774	23828
831.913	23878
832.051	23767
832.19	23718
832.329	23691
832.467	23649
832.606	23547
832.744	23516
832.883	23741
833.022	23512
833.16	23497
833.299	23604
833.437	23562
833.576	23691
833.714	23619
833.852	23760
833.991	23547
834.129	23703
834.267	23672
834.406	23577
834.544	23646
834.682	23630
834.821	23589
834.959	23699
835.097	23566
835.235	23524
835.373	23539
835.511	23604
835.65	23505
835.788	23493
835.926	23299
836.064	23303
836.202	23208
836.34	23474
836.478	23467
836.615	23482
836.753	23391
836.891	23425
837.029	23444
837.167	23296
837.305	23299
837.443	23242
837.58	23292
837.718	23315
837.856	23239
837.993	23181
838.131	23193
838.269	22995
838.406	23223
838.544	23033
838.681	22702
838.819	22805
838.956	22752
839.094	22645
839.231	22729
839.369	22869
839.506	23067
839.643	22877
839.781	22664
839.918	22596
840.055	22584
840.193	22584
840.33	22622
840.467	22622
840.604	22630
840.742	22896
840.879	22485
841.016	22493
841.153	22436
841.29	22675
841.427	22519
841.564	22622
841.701	22557
841.838	22512
841.975	22325
842.112	22417
842.249	22272
842.385	22318
842.522	22440
842.659	22303
842.796	22303
842.933	22257
843.069	22272
843.206	22173
843.343	22413
843.479	22253
843.616	22246
843.752	22147
843.889	22200
844.025	22158
844.162	22021
844.298	22124
844.435	22162
844.571	22086
844.708	22070
844.844	22196
844.98	22097
845.117	22097
845.253	21865
845.389	21850
845.525	21876
845.661	21827
845.798	21774
845.934	21755
846.07	21759
846.206	21739
846.342	21915
846.478	21762
846.614	21606
846.75	21447
846.886	21576
847.022	21553
847.158	21587
847.294	21443
847.429	21553
847.565	21469
847.701	21690
847.837	21199
847.972	21218
848.108	21287
848.244	21363
848.379	21093
848.515	21074
848.65	20998
848.786	21047
848.921	21028
849.057	21116
849.192	21047
849.328	21119
849.463	21074
849.598	21093
849.734	20914
849.869	20853
850.004	20838
850.14	20773
850.275	20845
850.41	20720
850.545	20663
850.68	20823
850.815	20758
850.95	20807
851.085	21024
851.22	20914
851.355	20769
851.49	20564
851.625	20735
851.76	20651
851.895	20583
852.03	20575
852.165	20727
852.299	20762
852.434	20826
852.569	20724
852.703	20849
852.838	20830
852.973	20902
853.107	20906
853.242	20765
853.376	20617
853.511	20495
853.645	20522
853.78	20701
853.914	20758
854.048	20499
854.183	20575
854.317	20602
854.451	20758
854.585	20571
854.72	20488
854.854	20659
854.988	20533
855.122	20446
855.256	20507
855.39	20495
855.524	20594
855.658	20629
855.792	20629
855.926	20583
856.06	20621
856.194	20689
856.327	20590
856.461	20541
856.595	20571
856.729	20476
856.862	20724
856.996	20571
857.13	20648
857.263	20503
857.397	20712
857.53	20522
857.664	20590
857.797	20663
857.931	20674
858.064	20503
858.197	20571
858.331	20484
858.464	20514
858.597	20473
858.731	20590
858.864	20476
858.997	20480
859.13	20400
859.263	20412
859.396	20697
859.529	20457
859.662	20419
859.795	20434
859.928	20552
860.061	20606
860.194	20708
860.327	20526
860.46	20518
860.592	20606
860.725	20644
860.858	20537
860.99	20560
861.123	20457
861.256	20545
861.388	20594
861.521	21237
861.653	20415
861.786	20324
861.918	20442
862.05	20404
862.183	20476
862.315	20541
862.447	20568
862.58	20499
862.712	20195
862.844	20214
862.976	20347
863.108	20301
863.24	20636
863.372	20237
863.504	20263
863.636	20294
863.768	20240
863.9	20172
864.032	20183
864.164	20176
864.296	20358
864.428	20214
864.559	20275
864.691	20252
864.823	20191
864.954	20225
865.086	20221
865.217	20035
865.349	20043
865.48	20103
865.612	20081
865.743	20214
865.875	20164
866.006	20103
866.137	20240
866.269	20035
866.4	20073
866.531	20161
866.662	20107
866.793	20107
866.924	20134
867.055	20100
867.186	20096
867.317	20145
867.448	19986
867.579	19928
867.71	19932
867.841	19978
867.972	20073
868.103	20073
868.233	20069
868.364	20050
868.495	20187
868.625	20271
868.756	20298
868.886	20210
869.017	20233
869.147	20385
869.278	20400
869.408	20385
869.539	20275
869.669	20381
869.799	20377
869.929	20381
870.06	20389
870.19	20495
870.32	20609
870.45	20594
870.58	20727
870.71	20739
870.84	20735
870.97	20716
871.1	20549
871.23	20921
871.36	20868
871.489	20731
871.619	20796
871.749	20842
871.879	20887
872.008	20986
872.138	20914
872.267	20891
872.397	20674
872.526	20682
872.656	20720
872.785	20629
872.915	20963
873.044	21005
873.173	20826
873.303	21017
873.432	20986
873.561	20895
873.69	20933
873.819	20883
873.948	20998
874.077	20941
874.206	20929
874.335	20929
874.464	21001
874.593	21127
874.722	21005
874.851	21302
874.979	21089
875.108	21207
875.237	21135
875.365	21051
875.494	21161
875.623	21142
875.751	21199
875.88	21135
876.008	21287
876.136	21279
876.265	21496
876.393	21660
876.521	21671
876.65	21485
876.778	21591
876.906	21382
877.034	21458
877.162	21557
877.29	21576
877.418	21610
877.546	21420
877.674	21534
877.802	21462
877.93	21408
878.058	21386
878.185	21428
878.313	21447
878.441	21485
878.568	21252
878.696	21412
878.824	21549
878.951	21473
879.079	21705
879.206	21816
879.333	21644
879.461	21420
879.588	21504
879.715	21526
879.842	21766
879.97	21568
880.097	21317
880.224	21199
880.351	21279
880.478	21351
880.605	21218
880.732	21325
880.859	21542
880.986	21306
881.112	21359
881.239	21241
881.366	21085
881.493	20933
881.619	20895
881.746	20941
881.872	20941
881.999	20845
882.125	20785
882.252	20937
882.378	21005
882.505	20998
882.631	20708
882.757	20712
882.883	20720
883.01	20800
883.136	20697
883.262	20484
883.388	20450
883.514	20720
883.64	20625
883.766	20583
883.892	20385
884.018	20408
884.143	20560
884.269	20739
884.395	20530
884.52	20328
884.646	20339
884.772	20263
884.897	20278
885.023	20275
885.148	20404
885.274	20473
885.399	20381
885.524	20282
885.65	20275
885.775	20294
885.9	20267
886.025	20408
886.15	20294
886.275	20187
886.4	20240
886.525	20305
886.65	20202
886.775	20233
886.9	20317
887.025	20381
887.149	20301
887.274	20046
887.399	19978
887.523	20058
887.648	20008
887.773	19875
887.897	20096
888.021	20176
888.146	20062
888.27	19970
888.395	20024
888.519	20084
888.643	20012
888.767	20088
888.891	19913
889.015	19761
889.139	19997
889.263	19746
889.387	19852
889.511	20149
889.635	19989
889.759	19776
889.883	19864
890.006	19894
890.13	19944
890.254	19719
890.377	19761
890.501	19597
890.624	19666
890.748	19689
890.871	19594
890.995	19449
891.118	19343
891.241	19487
891.364	19396
891.488	19590
891.611	19441
891.734	19552
891.857	19491
891.98	19495
892.103	19548
892.226	19441
892.349	19369
892.471	19213
892.594	19274
892.717	19441
892.839	19365
892.962	19335
893.085	19403
893.207	19278
893.33	19270
893.452	19289
893.575	19324
893.697	19266
893.819	19419
893.941	19449
894.064	19468
894.186	19346
894.308	19274
894.43	19331
894.552	19495
894.674	19388
894.796	19209
894.918	19369
895.04	19228
895.161	19354
895.283	19362
895.405	19324
895.526	19358
895.648	19282
895.769	19415
895.891	19339
896.012	19392
896.134	19476
896.255	19453
896.376	19327
896.498	19396
896.619	19324
896.74	19403
896.861	19419
896.982	19776
897.103	19826
897.224	19708
897.345	19643
897.466	19502
897.587	19616
897.708	19731
897.828	19624
897.949	19616
898.07	19369
898.19	19540
898.311	19712
898.431	19556
898.552	19563
898.672	19597
898.792	19681
898.913	19518
899.033	19403
899.153	19362
899.273	19236
899.393	19289
899.513	19335
899.633	19274
899.753	19293
899.873	19183
899.993	19282
900.113	19190
900.232	19381
900.352	19209
900.472	19160
900.591	19061
900.711	19038
900.83	19076
900.95	19206
901.069	19160
901.189	18954
901.308	18798
901.427	18738
901.546	18745
901.665	18795
901.784	18730
901.904	18536
902.023	18479
902.141	18235
902.26	18300
902.379	18232
902.498	18083
902.617	18136
902.735	18205
902.854	18251
902.973	18129
903.091	17950
903.21	17843
903.328	17878
903.446	17813
903.565	17729
903.683	17649
903.801	17570
903.919	17566
904.038	17577
904.156	17520
904.274	17539
904.392	17318
904.51	17471
904.627	17398
904.745	17570
904.863	17528
904.981	17239
905.098	17132
905.216	17151
905.334	17079
905.451	17185
905.569	17147
905.686	17181
905.803	17147
905.921	16953
906.038	17048
906.155	16987
906.272	16797
906.389	16843
906.506	16653
906.623	16630
906.74	16626
906.857	16622
906.974	16531
907.091	16637
907.208	16942
907.324	16771
907.441	16588
907.557	16386
907.674	16371
907.79	16246
907.907	16360
908.023	16390
908.139	16322
908.256	16356
908.372	16181
908.488	16192
908.604	16166
908.72	16013
908.836	16154
908.952	16032
909.068	16204
909.184	16139
909.3	15937
909.415	16128
909.531	16021
909.647	15835
909.762	15675
909.878	15755
909.993	15831
910.108	15686
910.224	15709
910.339	15766
910.454	15675
910.57	15538
910.685	15507
910.8	15686
910.915	15762
911.03	15584
911.145	15355
911.259	15325
911.374	15336
911.489	15180
911.604	15241
911.718	15142
911.833	15116
911.947	14967
912.062	14910
912.176	15119
912.291	15142
912.405	15070
912.519	15279
912.633	15199
912.748	15104
912.862	15104
912.976	14925
913.09	14765
913.204	14921
913.318	14910
913.431	14967
913.545	14944
913.659	15001
913.772	14845
913.886	14788
914	14712
914.113	14773
914.226	14849
914.34	14845
914.453	14686
914.566	14765
914.68	14625
914.793	14518
914.906	14450
915.019	14366
915.132	14294
915.245	14317
915.358	14408
915.47	14442
915.583	14393
915.696	14362
915.809	14362
915.921	14442
916.034	14305
916.146	14210
916.259	14248
916.371	14271
916.483	14309
916.595	14218
916.708	14214
916.82	14180
916.932	14062
917.044	14168
917.156	14172
917.268	14008
917.38	14069
917.491	14054
917.603	14126
917.715	14088
917.826	14149
917.938	13978
918.049	13890
918.161	13989
918.272	14092
918.384	14123
918.495	14092
918.606	13849
918.717	13845
918.828	13780
918.939	13856
919.05	13681
919.161	13757
919.272	13548
919.383	13677
919.494	13788
919.604	13913
919.715	13791
919.826	13727
919.936	13670
920.047	13803
920.157	13753
920.267	13989
920.378	13852
920.488	13715
920.598	13947
920.708	14100
920.818	13841
920.928	13875
921.038	14119
921.148	13963
921.258	13727
921.368	13643
921.477	13506
921.587	13559
921.697	13384
921.806	13525
921.916	13331
922.025	13206
922.134	13198
922.244	13080
922.353	13198
922.462	13042
922.571	12966
922.68	12810
922.789	12928
922.898	12806
923.007	12760
923.116	12787
923.224	12734
923.333	12745
923.442	12673
923.55	12715
923.659	12692
923.767	12688
923.876	12563
923.984	12658
924.092	12445
924.201	12620
924.309	12570
924.417	12547
924.525	12502
924.633	12509
924.741	13274
924.849	12251
924.956	12460
925.064	12296
925.172	12190
925.279	12220
925.387	12273
925.494	12228
925.602	12334
925.709	12350
925.816	12155
925.924	12273
926.031	12239
926.138	12178
926.245	12273
926.352	12155
926.459	12304
926.566	12380
926.673	12209
926.779	12064
926.886	11999
926.993	11889
927.099	11794
927.206	11790
927.312	11783
927.419	11866
927.525	11927
927.631	11843
927.737	11722
927.843	11699
927.95	11554
928.056	11623
928.162	11684
928.267	11684
928.373	12220
928.479	11733
928.585	11505
928.69	11619
928.796	11710
928.901	11516
929.007	11421
929.112	11512
929.218	11501
929.323	11353
929.428	11372
929.533	11570
929.638	11303
929.743	11315
929.848	11391
929.953	11330
930.058	11337
930.163	11014
930.267	11162
930.372	11235
930.477	11075
930.581	11269
930.685	11178
930.79	11052
930.894	11185
930.998	10957
931.103	11006
931.207	10786
931.311	10714
931.415	10527
931.519	10348
931.623	10386
