Data from test_V78500241_2160.txt Node
Date: Fri Mar 25 15:24:53 CST 2022
User: usil
Spectrometer: V785-0024
Trigger mode: 0
Integration Time (sec): 4.000000E-1
Scans to average: 1
Nonlinearity correction enabled: false
Boxcar width: 0
Storing dark spectrum: false
XAxis mode: Wavelengths
Number of Pixels in Spectrum: 1024
>>>>>Begin Spectral Data<<<<<
801.071	27717
801.214	27557
801.356	27382
801.499	27355
801.641	27367
801.783	27260
801.926	27363
802.068	27218
802.211	27226
802.353	27218
802.496	26910
802.638	26834
802.78	26971
802.923	26754
803.065	26826
803.208	26743
803.35	26906
803.492	27074
803.635	27161
803.777	26998
803.919	27096
804.061	27321
804.204	27089
804.346	27009
804.488	26994
804.63	27135
804.773	27058
804.915	27245
805.057	27226
805.199	27089
805.341	27146
805.483	27108
805.626	27195
805.768	27070
805.91	27131
806.052	27142
806.194	27169
806.336	27397
806.478	27272
806.62	27169
806.762	27359
806.904	27485
807.046	27789
807.188	27656
807.33	27698
807.472	27728
807.614	27583
807.756	27610
807.898	27591
808.04	27492
808.182	27511
808.324	27561
808.465	27595
808.607	27778
808.749	28078
808.891	27781
809.033	27975
809.174	27945
809.316	27937
809.458	27728
809.6	27842
809.741	28010
809.883	27987
810.025	28215
810.166	28036
810.308	28093
810.45	28196
810.591	28006
810.733	27964
810.875	27869
811.016	27732
811.158	27663
811.299	27892
811.441	28055
811.582	27846
811.724	27800
811.865	27861
812.007	27888
812.148	27816
812.29	27778
812.431	28040
812.573	28215
812.714	28310
812.855	28344
812.997	28318
813.138	28497
813.279	28417
813.421	28459
813.562	28284
813.703	28295
813.845	28135
813.986	27770
814.127	27591
814.268	27557
814.41	27713
814.551	27603
814.692	27450
814.833	27526
814.974	27412
815.115	27545
815.256	27321
815.397	27348
815.539	27389
815.68	27294
815.821	27283
815.962	27401
816.103	27192
816.244	27344
816.385	27157
816.526	27146
816.666	27017
816.807	26826
816.948	26796
817.089	26990
817.23	26861
817.371	26887
817.512	26815
817.653	26872
817.793	26731
817.934	26819
818.075	26891
818.216	26830
818.356	26796
818.497	26594
818.638	26465
818.778	26461
818.919	26579
819.06	26606
819.2	26571
819.341	26872
819.481	26857
819.622	26994
819.762	27062
819.903	26940
820.043	27020
820.184	26967
820.324	26956
820.465	26982
820.605	27066
820.746	26769
820.886	26792
821.026	26883
821.167	26910
821.307	26929
821.447	26826
821.588	26838
821.728	26724
821.868	26545
822.008	26267
822.149	26275
822.289	26210
822.429	26016
822.569	26058
822.709	25909
822.849	25887
822.99	25868
823.13	25620
823.27	25750
823.41	25628
823.55	25594
823.69	25540
823.83	25677
823.97	25666
824.11	25521
824.25	25384
824.389	25354
824.529	25495
824.669	25472
824.809	25601
824.949	25441
825.089	25609
825.228	25540
825.368	25285
825.508	25282
825.648	25407
825.787	25358
825.927	25324
826.067	25187
826.206	25247
826.346	25457
826.485	25282
826.625	25377
826.765	25396
826.904	25388
827.044	25015
827.183	24943
827.323	24867
827.462	25122
827.601	24943
827.741	24958
827.88	24989
828.02	24810
828.159	25057
828.298	24935
828.437	25061
828.577	25012
828.716	25053
828.855	25004
828.994	24719
829.134	24707
829.273	24768
829.412	24642
829.551	24620
829.69	24673
829.829	24810
829.968	24882
830.107	24688
830.246	24635
830.385	24566
830.524	24563
830.663	24540
830.802	24456
830.941	24388
831.08	24247
831.219	24505
831.357	24399
831.496	24490
831.635	24327
831.774	24311
831.913	24194
832.051	24110
832.19	24247
832.329	24178
832.467	23939
832.606	23931
832.744	23863
832.883	23961
833.022	23980
833.16	23984
833.299	24015
833.437	24064
833.576	23999
833.714	23973
833.852	24095
833.991	24068
834.129	24076
834.267	24121
834.406	24003
834.544	24174
834.682	24114
834.821	23954
834.959	24209
835.097	23996
835.235	24034
835.373	23935
835.511	23942
835.65	23882
835.788	23969
835.926	23752
836.064	23779
836.202	23649
836.34	23824
836.478	23893
836.615	23901
836.753	23843
836.891	23988
837.029	23790
837.167	23783
837.305	23771
837.443	23824
837.58	23748
837.718	23790
837.856	23783
837.993	23524
838.131	23646
838.269	23566
838.406	23627
838.544	23516
838.681	23391
838.819	23273
838.956	23265
839.094	23136
839.231	23197
839.369	23410
839.506	23505
839.643	23337
839.781	23242
839.918	23102
840.055	23193
840.193	23261
840.33	23033
840.467	23067
840.604	23102
840.742	23406
840.879	23048
841.016	23003
841.153	22869
841.29	23044
841.427	23136
841.564	23197
841.701	23025
841.838	23060
841.975	22961
842.112	23003
842.249	22809
842.385	22816
842.522	22919
842.659	22911
842.796	22847
842.933	22797
843.069	22740
843.206	22949
843.343	22965
843.479	22824
843.616	22793
843.752	22710
843.889	22561
844.025	22778
844.162	22683
844.298	22710
844.435	22580
844.571	22481
844.708	22664
844.844	22847
844.98	22615
845.117	22755
845.253	22447
845.389	22573
845.525	22527
845.661	22409
845.798	22451
845.934	22318
846.07	22382
846.206	22409
846.342	22424
846.478	22367
846.614	22147
846.75	22044
846.886	22135
847.022	22036
847.158	22162
847.294	22185
847.429	22131
847.565	22006
847.701	22299
847.837	21831
847.972	21785
848.108	21922
848.244	21865
848.379	21743
848.515	21667
848.65	21686
848.786	21709
848.921	21637
849.057	21861
849.192	21766
849.328	21720
849.463	21648
849.598	21591
849.734	21545
849.869	21534
850.004	21435
850.14	21530
850.275	21496
850.41	21458
850.545	21405
850.68	21416
850.815	21420
850.95	21416
851.085	21519
851.22	21507
851.355	21454
851.49	21420
851.625	21355
851.76	21367
851.895	21355
852.03	21272
852.165	21519
852.299	21576
852.434	21450
852.569	21416
852.703	21545
852.838	21485
852.973	21667
853.107	21492
853.242	21332
853.376	21214
853.511	21096
853.645	21108
853.78	21428
853.914	21264
854.048	21226
854.183	21150
854.317	21268
854.451	21481
854.585	21389
854.72	21272
854.854	21283
854.988	21081
855.122	21226
855.256	21233
855.39	21313
855.524	21291
855.658	21207
855.792	21237
855.926	21310
856.06	21386
856.194	21207
856.327	21154
856.461	21150
856.595	21112
856.729	21249
856.862	21325
856.996	21287
857.13	21279
857.263	21329
857.397	21439
857.53	21260
857.664	21321
857.797	21283
857.931	21393
858.064	21218
858.197	21389
858.331	21317
858.464	21154
858.597	21199
858.731	21173
858.864	21214
858.997	21294
859.13	21329
859.263	21306
859.396	21439
859.529	21207
859.662	21096
859.795	21272
859.928	21291
860.061	21443
860.194	21458
860.327	21344
860.46	21207
860.592	21504
860.725	21348
860.858	21481
860.99	21188
861.123	21176
861.256	21127
861.388	21241
861.521	21846
861.653	21074
861.786	21020
861.918	21108
862.05	21077
862.183	21211
862.315	21199
862.447	21211
862.58	21085
862.712	21017
862.844	20830
862.976	21146
863.108	21024
863.24	21382
863.372	20979
863.504	21047
863.636	20921
863.768	21001
863.9	21051
864.032	20944
864.164	20910
864.296	20868
864.428	21032
864.559	21081
864.691	21112
864.823	20872
864.954	20944
865.086	20868
865.217	20849
865.349	20804
865.48	20781
865.612	20834
865.743	20990
865.875	20804
866.006	20796
866.137	20762
866.269	20853
866.4	20765
866.531	20678
866.662	20701
866.793	20781
866.924	20899
867.055	20819
867.186	20899
867.317	20689
867.448	20667
867.579	20788
867.71	20651
867.841	20746
867.972	20716
868.103	20861
868.233	20781
868.364	20849
868.495	20758
868.625	20986
868.756	21146
868.886	20948
869.017	21047
869.147	21062
869.278	21180
869.408	21017
869.539	21058
869.669	21058
869.799	21138
869.929	21017
870.06	21131
870.19	21260
870.32	21344
870.45	21367
870.58	21336
870.71	21576
870.84	21553
870.97	21325
871.1	21530
871.23	21610
871.36	21610
871.489	21637
871.619	21557
871.749	21561
871.879	21561
872.008	21709
872.138	21637
872.267	21614
872.397	21496
872.526	21481
872.656	21401
872.785	21447
872.915	21469
873.044	21785
873.173	21587
873.303	21663
873.432	21682
873.561	21774
873.69	21610
873.819	21549
873.948	21747
874.077	21591
874.206	21652
874.335	21622
874.464	21618
874.593	21911
874.722	21701
874.851	21838
874.979	21865
875.108	21770
875.237	21842
875.365	21846
875.494	21876
875.623	22002
875.751	21751
875.88	21911
876.008	21991
876.136	21979
876.265	22246
876.393	22333
876.521	22409
876.65	22253
876.778	22200
876.906	22215
877.034	22109
877.162	22188
877.29	22120
877.418	22242
877.546	22196
877.674	22261
877.802	22238
877.93	22272
878.058	22101
878.185	22147
878.313	22109
878.441	22238
878.568	22078
878.696	22032
878.824	22329
878.951	22268
879.079	22344
879.206	22561
879.333	22341
879.461	22166
879.588	22234
879.715	22447
879.842	22424
879.97	22272
880.097	22070
880.224	21968
880.351	22029
880.478	21926
880.605	22006
880.732	22017
880.859	22135
880.986	21991
881.112	22032
881.239	21953
881.366	21774
881.493	21644
881.619	21511
881.746	21603
881.872	21595
881.999	21671
882.125	21496
882.252	21705
882.378	21561
882.505	21709
882.631	21492
882.757	21325
882.883	21477
883.01	21291
883.136	21214
883.262	21230
883.388	21138
883.514	21332
883.64	21272
883.766	21176
883.892	20990
884.018	21127
884.143	21378
884.269	21363
884.395	21032
884.52	20990
884.646	20921
884.772	20735
884.897	20868
885.023	20963
885.148	20986
885.274	21135
885.399	21036
885.524	20842
885.65	21036
885.775	20887
885.9	20952
886.025	20948
886.15	21104
886.275	20899
886.4	20823
886.525	20853
886.65	20792
886.775	20952
886.9	21207
887.025	21203
887.149	20921
887.274	20792
887.399	20686
887.523	20823
887.648	20644
887.773	20613
887.897	20765
888.021	20617
888.146	20636
888.27	20754
888.395	20853
888.519	20777
888.643	20750
888.767	20739
888.891	20488
889.015	20541
889.139	20590
889.263	20480
889.387	20613
889.511	20750
889.635	20560
889.759	20412
889.883	20556
890.006	20514
890.13	20492
890.254	20446
890.377	20541
890.501	20339
890.624	20229
890.748	20282
890.871	20191
890.995	20058
891.118	20176
891.241	20187
891.364	20062
891.488	20225
891.611	20020
891.734	20130
891.857	20107
891.98	20111
892.103	20096
892.226	20103
892.349	19970
892.471	19906
892.594	20035
892.717	20077
892.839	19947
892.962	20058
893.085	20149
893.207	19974
893.33	19879
893.452	19849
893.575	19974
893.697	19925
893.819	20195
893.941	20259
894.064	20100
894.186	19822
894.308	19925
894.43	20096
894.552	20111
894.674	20111
894.796	19791
894.918	19944
895.04	19955
895.161	19993
895.283	20084
895.405	19967
895.526	20043
895.648	19921
895.769	20046
895.891	20046
896.012	20122
896.134	19989
896.255	20031
896.376	20001
896.498	20012
896.619	20035
896.74	20088
896.861	20073
896.982	20244
897.103	20408
897.224	20233
897.345	20187
897.466	20084
897.587	20172
897.708	20237
897.828	20347
897.949	20214
898.07	20111
898.19	20031
898.311	20294
898.431	20214
898.552	20218
898.672	20332
898.792	20187
898.913	20202
899.033	20024
899.153	20035
899.273	19906
899.393	20126
899.513	19894
899.633	19932
899.753	19936
899.873	19890
899.993	20050
900.113	19864
900.232	19993
900.352	19871
900.472	19890
900.591	19715
900.711	19738
900.83	19765
900.95	19833
901.069	19967
901.189	19628
901.308	19460
901.427	19346
901.546	19358
901.665	19388
901.784	19209
901.904	19194
902.023	19114
902.141	18928
902.26	18905
902.379	18924
902.498	18848
902.617	18856
902.735	18962
902.854	18833
902.973	18791
903.091	18570
903.21	18593
903.328	18555
903.446	18384
903.565	18209
903.683	18300
903.801	18270
903.919	18216
904.038	18334
904.156	18079
904.274	18163
904.392	18076
904.51	18087
904.627	18117
904.745	17980
904.863	18152
904.981	17874
905.098	17779
905.216	17809
905.334	17824
905.451	17764
905.569	17821
905.686	17779
905.803	17767
905.921	17581
906.038	17592
906.155	17611
906.272	17455
906.389	17433
906.506	17353
906.623	17220
906.74	17311
906.857	17105
906.974	17193
907.091	17334
907.208	17452
907.324	17391
907.441	17147
907.557	17014
907.674	17014
907.79	16877
907.907	16965
908.023	17056
908.139	17083
908.256	16999
908.372	16934
908.488	16858
908.604	16748
908.72	16630
908.836	16717
908.952	16626
909.068	16740
909.184	16854
909.3	16675
909.415	16786
909.531	16729
909.647	16516
909.762	16432
909.878	16398
909.993	16508
910.108	16409
910.224	16306
910.339	16394
910.454	16253
910.57	16257
910.685	16230
910.8	16462
910.915	16226
911.03	16211
911.145	16116
911.259	16093
911.374	16063
911.489	15991
911.604	15857
911.718	15774
911.833	15892
911.947	15690
912.062	15557
912.176	15778
912.291	15797
912.405	15743
912.519	16059
912.633	15991
912.748	15835
912.862	15739
912.976	15561
913.09	15492
913.204	15584
913.318	15572
913.431	15736
913.545	15660
913.659	15667
913.772	15561
913.886	15462
914	15443
914.113	15530
914.226	15568
914.34	15412
914.453	15306
914.566	15408
914.68	15302
914.793	15226
914.906	15108
915.019	15009
915.132	14956
915.245	14986
915.358	15028
915.47	15039
915.583	15009
915.696	15032
915.809	15097
915.921	15116
916.034	15017
916.146	14853
916.259	15024
916.371	14948
916.483	14914
916.595	14830
916.708	14845
916.82	14838
916.932	14705
917.044	14823
917.156	14800
917.268	14667
917.38	14632
917.491	14644
917.603	14636
917.715	14800
917.826	14727
917.938	14625
918.049	14400
918.161	14533
918.272	14720
918.384	14712
918.495	14556
918.606	14469
918.717	14366
918.828	14480
918.939	14412
919.05	14324
919.161	14415
919.272	14278
919.383	14317
919.494	14419
919.604	14556
919.715	14393
919.826	14343
919.936	14389
920.047	14457
920.157	14400
920.267	14522
920.378	14396
920.488	14393
920.598	14571
920.708	14648
920.818	14522
920.928	14438
921.038	14743
921.148	14625
921.258	14393
921.368	14248
921.477	14138
921.587	14164
921.697	14084
921.806	14130
921.916	13944
922.025	13799
922.134	13772
922.244	13715
922.353	13742
922.462	13605
922.571	13537
922.68	13457
922.789	13438
922.898	13365
923.007	13392
923.116	13460
923.224	13358
923.333	13438
923.442	13282
923.55	13240
923.659	13228
923.767	13289
923.876	13209
923.984	13202
924.092	13225
924.201	13244
924.309	13133
924.417	13149
924.525	13099
924.633	13099
924.741	13833
924.849	12947
924.956	13015
925.064	12909
925.172	12734
925.279	12768
925.387	12844
925.494	12894
925.602	12920
925.709	12886
925.816	12817
925.924	12802
926.031	12875
926.138	12768
926.245	12837
926.352	12616
926.459	12821
926.566	12719
926.673	12753
926.779	12486
926.886	12547
926.993	12460
927.099	12483
927.206	12426
927.312	12323
927.419	12460
927.525	12380
927.631	12407
927.737	12422
927.843	12251
927.95	12213
928.056	12273
928.162	12342
928.267	12338
928.373	12913
928.479	12277
928.585	12095
928.69	12144
928.796	12136
928.901	12049
929.007	11984
929.112	12091
929.218	12072
929.323	11996
929.428	12030
929.533	12064
929.638	11813
929.743	11843
929.848	11889
929.953	11969
930.058	11790
930.163	11680
930.267	11665
930.372	11779
930.477	11611
930.581	11855
930.685	11684
930.79	11490
930.894	11589
930.998	11547
931.103	11688
931.207	11280
931.311	11223
931.415	11132
931.519	10934
931.623	10801
