Data from test_V78500241_1953.txt Node
Date: Fri Mar 25 15:23:27 CST 2022
User: usil
Spectrometer: V785-0024
Trigger mode: 0
Integration Time (sec): 4.000000E-1
Scans to average: 1
Nonlinearity correction enabled: false
Boxcar width: 0
Storing dark spectrum: false
XAxis mode: Wavelengths
Number of Pixels in Spectrum: 1024
>>>>>Begin Spectral Data<<<<<
801.071	27732
801.214	27511
801.356	27447
801.499	27169
801.641	27176
801.783	27241
801.926	27283
802.068	27218
802.211	27180
802.353	27070
802.496	27009
802.638	26819
802.78	26819
802.923	26792
803.065	26773
803.208	26819
803.35	26807
803.492	27017
803.635	27024
803.777	26807
803.919	26956
804.061	27302
804.204	27157
804.346	27017
804.488	26883
804.63	27096
804.773	26880
804.915	27024
805.057	27104
805.199	26990
805.341	27127
805.483	27146
805.626	27116
805.768	26929
805.91	27070
806.052	27123
806.194	26914
806.336	27321
806.478	27127
806.62	26937
806.762	27298
806.904	27321
807.046	27587
807.188	27511
807.33	27561
807.472	27492
807.614	27568
807.756	27610
807.898	27386
808.04	27252
808.182	27329
808.324	27359
808.465	27408
808.607	27538
808.749	27713
808.891	27819
809.033	27827
809.174	27804
809.316	27736
809.458	27724
809.6	27663
809.741	27816
809.883	27724
810.025	27960
810.166	27994
810.308	27926
810.45	27930
810.591	27850
810.733	27831
810.875	27679
811.016	27663
811.158	27447
811.299	27660
811.441	27857
811.582	27838
811.724	27694
811.865	27694
812.007	27682
812.148	27587
812.29	27774
812.431	27846
812.573	28036
812.714	28097
812.855	28226
812.997	28386
813.138	28386
813.279	28280
813.421	28177
813.562	28249
813.703	28093
813.845	27850
813.986	27679
814.127	27466
814.268	27477
814.41	27622
814.551	27291
814.692	27412
814.833	27481
814.974	27317
815.115	27431
815.256	27329
815.397	27268
815.539	27325
815.68	27051
815.821	27036
815.962	27131
816.103	27116
816.244	27123
816.385	27020
816.526	27013
816.666	26765
816.807	26762
816.948	26708
817.089	26864
817.23	26705
817.371	26762
817.512	26674
817.653	26655
817.793	26632
817.934	26720
818.075	26640
818.216	26765
818.356	26556
818.497	26617
818.638	26332
818.778	26377
818.919	26427
819.06	26556
819.2	26606
819.341	26556
819.481	26746
819.622	26754
819.762	27142
819.903	26979
820.043	26960
820.184	26769
820.324	26819
820.465	26876
820.605	26746
820.746	26674
820.886	26663
821.026	26777
821.167	26655
821.307	26830
821.447	26743
821.588	26579
821.728	26629
821.868	26362
822.008	26172
822.149	26351
822.289	26073
822.429	25856
822.569	25807
822.709	25845
822.849	25681
822.99	25700
823.13	25628
823.27	25658
823.41	25449
823.55	25460
823.69	25597
823.83	25487
823.97	25430
824.11	25228
824.25	25327
824.389	25320
824.529	25320
824.669	25426
824.809	25419
824.949	25445
825.089	25331
825.228	25354
825.368	25263
825.508	25145
825.648	25179
825.787	25354
825.927	25343
826.067	25099
826.206	25209
826.346	25240
826.485	25103
826.625	25266
826.765	25324
826.904	25202
827.044	24947
827.183	24859
827.323	24833
827.462	24977
827.601	24989
827.741	24749
827.88	25031
828.02	24798
828.159	24935
828.298	24924
828.437	24947
828.577	24821
828.716	24894
828.855	24928
828.994	24623
829.134	24669
829.273	24517
829.412	24559
829.551	24528
829.69	24635
829.829	24669
829.968	24635
830.107	24631
830.246	24658
830.385	24570
830.524	24490
830.663	24464
830.802	24346
830.941	24243
831.08	24277
831.219	24296
831.357	24433
831.496	24464
831.635	24315
831.774	24155
831.913	24304
832.051	24076
832.19	24022
832.329	24098
832.467	23939
832.606	23916
832.744	23889
832.883	23893
833.022	23946
833.16	23874
833.299	24011
833.437	23912
833.576	24083
833.714	23950
833.852	23935
833.991	24087
834.129	24102
834.267	23821
834.406	23958
834.544	24007
834.682	23965
834.821	23988
834.959	24129
835.097	23904
835.235	24049
835.373	23897
835.511	23946
835.65	23855
835.788	23760
835.926	23756
836.064	23619
836.202	23676
836.34	23805
836.478	23969
836.615	23821
836.753	23703
836.891	23851
837.029	23828
837.167	23828
837.305	23790
837.443	23722
837.58	23726
837.718	23657
837.856	23726
837.993	23539
838.131	23638
838.269	23478
838.406	23524
838.544	23520
838.681	23303
838.819	23288
838.956	23124
839.094	23170
839.231	23159
839.369	23433
839.506	23608
839.643	23436
839.781	23067
839.918	23033
840.055	23235
840.193	23170
840.33	23014
840.467	23151
840.604	23140
840.742	23364
840.879	22828
841.016	22866
841.153	23033
841.29	23227
841.427	23098
841.564	23162
841.701	23067
841.838	23071
841.975	22828
842.112	23014
842.249	22877
842.385	22820
842.522	23090
842.659	22782
842.796	22828
842.933	22824
843.069	22672
843.206	22889
843.343	22927
843.479	22683
843.616	22790
843.752	22630
843.889	22634
844.025	22694
844.162	22626
844.298	22759
844.435	22580
844.571	22557
844.708	22592
844.844	22607
844.98	22717
845.117	22649
845.253	22561
845.389	22436
845.525	22462
845.661	22447
845.798	22204
845.934	22303
846.07	22299
846.206	22363
846.342	22417
846.478	22303
846.614	22090
846.75	22093
846.886	22010
847.022	22177
847.158	22162
847.294	22101
847.429	22143
847.565	22002
847.701	22280
847.837	21759
847.972	21747
848.108	21869
848.244	21759
848.379	21698
848.515	21732
848.65	21641
848.786	21648
848.921	21675
849.057	21762
849.192	21682
849.328	21686
849.463	21682
849.598	21572
849.734	21534
849.869	21534
850.004	21397
850.14	21587
850.275	21458
850.41	21325
850.545	21321
850.68	21332
850.815	21500
850.95	21382
851.085	21603
851.22	21557
851.355	21405
851.49	21329
851.625	21382
851.76	21336
851.895	21302
852.03	21310
852.165	21507
852.299	21435
852.434	21408
852.569	21420
852.703	21504
852.838	21408
852.973	21599
853.107	21458
853.242	21329
853.376	21367
853.511	21135
853.645	21112
853.78	21313
853.914	21302
854.048	21135
854.183	21264
854.317	21241
854.451	21355
854.585	21294
854.72	21256
854.854	21374
854.988	21169
855.122	21321
855.256	21036
855.39	21165
855.524	21291
855.658	21294
855.792	21310
855.926	21306
856.06	21264
856.194	21367
856.327	21199
856.461	21165
856.595	21165
856.729	21214
856.862	21348
856.996	21260
857.13	21321
857.263	21416
857.397	21264
857.53	21272
857.664	21252
857.797	21214
857.931	21344
858.064	21351
858.197	21317
858.331	21241
858.464	21142
858.597	21226
858.731	21249
858.864	21176
858.997	21154
859.13	21294
859.263	21116
859.396	21325
859.529	21150
859.662	21146
859.795	21112
859.928	21207
860.061	21378
860.194	21424
860.327	21252
860.46	21283
860.592	21348
860.725	21329
860.858	21275
860.99	21154
861.123	20979
861.256	21272
861.388	21245
861.521	21876
861.653	21096
861.786	21081
861.918	21047
862.05	21066
862.183	21116
862.315	21176
862.447	21256
862.58	21184
862.712	20952
862.844	20895
862.976	21131
863.108	20982
863.24	21435
863.372	20815
863.504	20876
863.636	20933
863.768	20887
863.9	20895
864.032	20773
864.164	20887
864.296	21017
864.428	21066
864.559	21104
864.691	21108
864.823	20906
864.954	20887
865.086	20948
865.217	20720
865.349	20872
865.48	20872
865.612	20864
865.743	20921
865.875	20868
866.006	20971
866.137	20902
866.269	20750
866.4	20842
866.531	20868
866.662	20727
866.793	20838
866.924	20853
867.055	20842
867.186	20739
867.317	20674
867.448	20606
867.579	20716
867.71	20575
867.841	20739
867.972	20724
868.103	20678
868.233	20750
868.364	20720
868.495	20724
868.625	21017
868.756	21062
868.886	21039
869.017	21036
869.147	21119
869.278	21089
869.408	20982
869.539	20948
869.669	21127
869.799	21017
869.929	21169
870.06	21077
870.19	21283
870.32	21157
870.45	21374
870.58	21408
870.71	21507
870.84	21492
870.97	21496
871.1	21386
871.23	21576
871.36	21603
871.489	21549
871.619	21637
871.749	21641
871.879	21523
872.008	21751
872.138	21652
872.267	21580
872.397	21408
872.526	21557
872.656	21435
872.785	21412
872.915	21701
873.044	21629
873.173	21587
873.303	21675
873.432	21698
873.561	21599
873.69	21629
873.819	21534
873.948	21603
874.077	21717
874.206	21507
874.335	21572
874.464	21610
874.593	21903
874.722	21823
874.851	21979
874.979	21797
875.108	21899
875.237	21732
875.365	21755
875.494	21785
875.623	21838
875.751	21694
875.88	21911
876.008	21926
876.136	22017
876.265	22211
876.393	22333
876.521	22280
876.65	22276
876.778	22284
876.906	22158
877.034	22147
877.162	22215
877.29	22173
877.418	22177
877.546	22284
877.674	22143
877.802	22181
877.93	22128
878.058	22207
878.185	22074
878.313	22109
878.441	22173
878.568	22090
878.696	22086
878.824	22173
878.951	22272
879.079	22356
879.206	22557
879.333	22284
879.461	22291
879.588	22375
879.715	22478
879.842	22561
879.97	22314
880.097	22143
880.224	22032
880.351	21987
880.478	21998
880.605	21888
880.732	21979
880.859	22291
880.986	22120
881.112	22051
881.239	21968
881.366	21728
881.493	21580
881.619	21618
881.746	21663
881.872	21587
881.999	21705
882.125	21561
882.252	21618
882.378	21660
882.505	21629
882.631	21542
882.757	21450
882.883	21359
883.01	21367
883.136	21233
883.262	21161
883.388	21104
883.514	21237
883.64	21306
883.766	21195
883.892	21157
884.018	21272
884.143	21355
884.269	21401
884.395	21005
884.52	20975
884.646	20906
884.772	20948
884.897	20838
885.023	21047
885.148	21036
885.274	21211
885.399	21013
885.524	20979
885.65	20880
885.775	20990
885.9	20826
886.025	20967
886.15	21028
886.275	20921
886.4	20887
886.525	20853
886.65	20853
886.775	20765
886.9	21062
887.025	21093
887.149	20861
887.274	20743
887.399	20686
887.523	20773
887.648	20765
887.773	20689
887.897	20796
888.021	20815
888.146	20552
888.27	20891
888.395	20769
888.519	20743
888.643	20800
888.767	20750
888.891	20613
889.015	20480
889.139	20556
889.263	20465
889.387	20556
889.511	20765
889.635	20556
889.759	20514
889.883	20465
890.006	20488
890.13	20606
890.254	20503
890.377	20275
890.501	20221
890.624	20240
890.748	20244
890.871	20164
890.995	20088
891.118	20008
891.241	20027
891.364	20016
891.488	20164
891.611	20073
891.734	20111
891.857	20012
891.98	20081
892.103	20065
892.226	20134
892.349	19970
892.471	19928
892.594	19890
892.717	20005
892.839	19963
892.962	20107
893.085	20046
893.207	20043
893.33	19841
893.452	19902
893.575	20084
893.697	19833
893.819	20008
893.941	20313
894.064	20096
894.186	19940
894.308	19761
894.43	20103
894.552	20058
894.674	20054
894.796	19875
894.918	19890
895.04	19906
895.161	20008
895.283	20035
895.405	19879
895.526	19993
895.648	19909
895.769	20035
895.891	19928
896.012	20001
896.134	19970
896.255	19978
896.376	19940
896.498	19974
896.619	20069
896.74	19989
896.861	20016
896.982	20324
897.103	20488
897.224	20195
897.345	20195
897.466	20122
897.587	20263
897.708	20351
897.828	20195
897.949	20088
898.07	20111
898.19	20122
898.311	20168
898.431	20134
898.552	20191
898.672	20309
898.792	20324
898.913	20240
899.033	20073
899.153	20046
899.273	19868
899.393	20103
899.513	20024
899.633	19788
899.753	19940
899.873	19849
899.993	19967
900.113	19822
900.232	19906
900.352	19837
900.472	19772
900.591	19662
900.711	19734
900.83	19704
900.95	19727
901.069	19715
901.189	19533
901.308	19263
901.427	19255
901.546	19335
901.665	19160
901.784	19358
901.904	19141
902.023	19114
902.141	18943
902.26	18859
902.379	18787
902.498	18924
902.617	18821
902.735	18856
902.854	18848
902.973	18783
903.091	18502
903.21	18479
903.328	18456
903.446	18506
903.565	18247
903.683	18372
903.801	18152
903.919	18243
904.038	18273
904.156	18026
904.274	18163
904.392	18030
904.51	17908
904.627	18057
904.745	18102
904.863	18121
904.981	17760
905.098	17737
905.216	17695
905.334	17748
905.451	17752
905.569	17805
905.686	17703
905.803	17748
905.921	17482
906.038	17653
906.155	17535
906.272	17532
906.389	17566
906.506	17277
906.623	17417
906.74	17284
906.857	17181
906.974	17094
907.091	17345
907.208	17436
907.324	17284
907.441	17181
907.557	17075
907.674	17067
907.79	16984
907.907	17018
908.023	16995
908.139	16968
908.256	16961
908.372	16934
908.488	16885
908.604	16748
908.72	16717
908.836	16694
908.952	16721
909.068	16778
909.184	16736
909.3	16744
909.415	16862
909.531	16653
909.647	16474
909.762	16394
909.878	16523
909.993	16417
910.108	16447
910.224	16325
910.339	16432
910.454	16192
910.57	16200
910.685	16295
910.8	16447
910.915	16341
911.03	16337
911.145	16063
911.259	16044
911.374	16048
911.489	15937
911.604	15880
911.718	15717
911.833	15823
911.947	15694
912.062	15561
912.176	15694
912.291	15823
912.405	15671
912.519	15911
912.633	15930
912.748	15808
912.862	15762
912.976	15667
913.09	15393
913.204	15606
913.318	15587
913.431	15717
913.545	15580
913.659	15686
913.772	15485
913.886	15450
914	15382
914.113	15488
914.226	15496
914.34	15466
914.453	15336
914.566	15431
914.68	15230
914.793	15256
914.906	14963
915.019	15116
915.132	15001
915.245	15005
915.358	15108
915.47	14967
915.583	14960
915.696	14979
915.809	15161
915.921	15100
916.034	14982
916.146	14899
916.259	14899
916.371	14967
916.483	14914
916.595	14880
916.708	14792
916.82	14899
916.932	14826
917.044	14826
917.156	14720
917.268	14640
917.38	14750
917.491	14667
917.603	14667
917.715	14765
917.826	14853
917.938	14636
918.049	14541
918.161	14606
918.272	14720
918.384	14769
918.495	14606
918.606	14427
918.717	14400
918.828	14511
918.939	14442
919.05	14309
919.161	14434
919.272	14237
919.383	14168
919.494	14503
919.604	14583
919.715	14351
919.826	14275
919.936	14286
920.047	14438
920.157	14389
920.267	14484
920.378	14366
920.488	14271
920.598	14610
920.708	14670
920.818	14549
920.928	14545
921.038	14583
921.148	14594
921.258	14332
921.368	14195
921.477	14168
921.587	14077
921.697	13902
921.806	14043
921.916	13967
922.025	13849
922.134	13780
922.244	13761
922.353	13761
922.462	13575
922.571	13575
922.68	13449
922.789	13430
922.898	13468
923.007	13384
923.116	13434
923.224	13327
923.333	13388
923.442	13343
923.55	13190
923.659	13362
923.767	13263
923.876	13217
923.984	13244
924.092	13175
924.201	13206
924.309	13183
924.417	13156
924.525	13061
924.633	13091
924.741	14081
924.849	12837
924.956	13042
925.064	12802
925.172	12905
925.279	12779
925.387	12859
925.494	12802
925.602	13008
925.709	12928
925.816	12715
925.924	12776
926.031	12863
926.138	12741
926.245	12871
926.352	12578
926.459	12833
926.566	12848
926.673	12772
926.779	12684
926.886	12448
926.993	12464
927.099	12372
927.206	12384
927.312	12384
927.419	12475
927.525	12410
927.631	12334
927.737	12334
927.843	12277
927.95	12064
928.056	12239
928.162	12273
928.267	12216
928.373	12726
928.479	12289
928.585	12091
928.69	12171
928.796	12205
928.901	12049
929.007	11999
929.112	12068
929.218	12026
929.323	11908
929.428	11897
929.533	12064
929.638	11923
929.743	11863
929.848	11908
929.953	11874
930.058	11863
930.163	11547
930.267	11699
930.372	11798
930.477	11649
930.581	11836
930.685	11703
930.79	11528
930.894	11554
930.998	11497
931.103	11551
931.207	11277
931.311	11231
931.415	11151
931.519	10961
931.623	10934
