Data from test_V78500241_3005.txt Node
Date: Fri Mar 25 15:30:47 CST 2022
User: usil
Spectrometer: V785-0024
Trigger mode: 0
Integration Time (sec): 4.000000E-1
Scans to average: 1
Nonlinearity correction enabled: false
Boxcar width: 0
Storing dark spectrum: false
XAxis mode: Wavelengths
Number of Pixels in Spectrum: 1024
>>>>>Begin Spectral Data<<<<<
801.071	27317
801.214	27116
801.356	26929
801.499	26925
801.641	26864
801.783	26667
801.926	26944
802.068	26861
802.211	26571
802.353	26590
802.496	26473
802.638	26465
802.78	26492
802.923	26343
803.065	26286
803.208	26355
803.35	26484
803.492	26575
803.635	26724
803.777	26545
803.919	26568
804.061	26960
804.204	26594
804.346	26396
804.488	26393
804.63	26518
804.773	26533
804.915	26552
805.057	26689
805.199	26575
805.341	26568
805.483	26697
805.626	26693
805.768	26651
805.91	26648
806.052	26705
806.194	26480
806.336	26792
806.478	26697
806.62	26697
806.762	26849
806.904	26906
807.046	27161
807.188	27077
807.33	27017
807.472	27237
807.614	27039
807.756	27104
807.898	26994
808.04	26823
808.182	26823
808.324	26956
808.465	26979
808.607	27119
808.749	27268
808.891	27492
809.033	27530
809.174	27321
809.316	27397
809.458	27329
809.6	27150
809.741	27359
809.883	27412
810.025	27538
810.166	27561
810.308	27507
810.45	27488
810.591	27447
810.733	27386
810.875	27268
811.016	27195
811.158	27055
811.299	27405
811.441	27564
811.582	27538
811.724	27218
811.865	27245
812.007	27287
812.148	27340
812.29	27348
812.431	27344
812.573	27618
812.714	27667
812.855	27709
812.997	27823
813.138	28036
813.279	27899
813.421	27797
813.562	27675
813.703	27595
813.845	27340
813.986	27260
814.127	26975
814.268	27028
814.41	26994
814.551	26925
814.692	27028
814.833	26994
814.974	26891
815.115	27024
815.256	26769
815.397	26845
815.539	26796
815.68	26621
815.821	26735
815.962	26727
816.103	26625
816.244	26750
816.385	26442
816.526	26408
816.666	26358
816.807	26168
816.948	26252
817.089	26324
817.23	26187
817.371	26282
817.512	26229
817.653	26119
817.793	26050
817.934	26237
818.075	26168
818.216	26191
818.356	26145
818.497	26130
818.638	25917
818.778	25902
818.919	26088
819.06	26008
819.2	26031
819.341	26145
819.481	26043
819.622	26313
819.762	26644
819.903	26396
820.043	26355
820.184	26313
820.324	26161
820.465	26355
820.605	26320
820.746	26195
820.886	26043
821.026	26259
821.167	26244
821.307	26336
821.447	26210
821.588	26100
821.728	25917
821.868	25841
822.008	25651
822.149	25662
822.289	25677
822.429	25499
822.569	25244
822.709	25289
822.849	25225
822.99	25164
823.13	25023
823.27	25038
823.41	24981
823.55	24856
823.69	24992
823.83	24825
823.97	24905
824.11	24707
824.25	24711
824.389	24795
824.529	24871
824.669	24703
824.809	24764
824.949	24894
825.089	24783
825.228	24753
825.368	24597
825.508	24544
825.648	24654
825.787	24703
825.927	24715
826.067	24601
826.206	24597
826.346	24688
826.485	24768
826.625	24764
826.765	24684
826.904	24738
827.044	24422
827.183	24467
827.323	24338
827.462	24456
827.601	24277
827.741	24361
827.88	24334
828.02	24330
828.159	24433
828.298	24266
828.437	24429
828.577	24262
828.716	24437
828.855	24266
828.994	24079
829.134	23980
829.273	24106
829.412	24015
829.551	24003
829.69	23901
829.829	24076
829.968	24076
830.107	24034
830.246	23980
830.385	23958
830.524	24011
830.663	23870
830.802	23809
830.941	23726
831.08	23707
831.219	23680
831.357	23824
831.496	23935
831.635	23592
831.774	23531
831.913	23531
832.051	23307
832.19	23486
832.329	23402
832.467	23322
832.606	23284
832.744	23235
832.883	23395
833.022	23307
833.16	23212
833.299	23334
833.437	23345
833.576	23414
833.714	23212
833.852	23296
833.991	23471
834.129	23341
834.267	23471
834.406	23398
834.544	23509
834.682	23284
834.821	23311
834.959	23562
835.097	23235
835.235	23429
835.373	23364
835.511	23345
835.65	23242
835.788	23250
835.926	23090
836.064	22999
836.202	23132
836.34	23193
836.478	23261
836.615	23265
836.753	23208
836.891	23204
837.029	23277
837.167	23181
837.305	23014
837.443	23174
837.58	23083
837.718	23200
837.856	23048
837.993	23064
838.131	23064
838.269	23098
838.406	22995
838.544	22915
838.681	22759
838.819	22569
838.956	22478
839.094	22512
839.231	22687
839.369	22733
839.506	22965
839.643	22797
839.781	22542
839.918	22493
840.055	22580
840.193	22440
840.33	22478
840.467	22413
840.604	22386
840.742	22824
840.879	22474
841.016	22356
841.153	22333
841.29	22493
841.427	22432
841.564	22577
841.701	22455
841.838	22402
841.975	22394
842.112	22417
842.249	22287
842.385	22280
842.522	22516
842.659	22249
842.796	22268
842.933	22257
843.069	22135
843.206	22196
843.343	22272
843.479	22135
843.616	22204
843.752	22067
843.889	22105
844.025	22215
844.162	22010
844.298	22109
844.435	22021
844.571	21979
844.708	22002
844.844	22109
844.98	22116
845.117	22086
845.253	21903
845.389	21899
845.525	21865
845.661	21800
845.798	21789
845.934	21804
846.07	21739
846.206	21682
846.342	21785
846.478	21778
846.614	21641
846.75	21500
846.886	21355
847.022	21443
847.158	21443
847.294	21443
847.429	21393
847.565	21412
847.701	21686
847.837	21146
847.972	21108
848.108	21211
848.244	21252
848.379	21123
848.515	21043
848.65	21062
848.786	20990
848.921	21020
849.057	21112
849.192	21150
849.328	21093
849.463	21047
849.598	21001
849.734	20967
849.869	20906
850.004	20861
850.14	20849
850.275	20967
850.41	20826
850.545	20689
850.68	20838
850.815	20857
850.95	20686
851.085	21074
851.22	20914
851.355	20800
851.49	20842
851.625	20758
851.76	20720
851.895	20754
852.03	20754
852.165	20792
852.299	20834
852.434	20941
852.569	20804
852.703	20887
852.838	20902
852.973	20880
853.107	20918
853.242	20754
853.376	20693
853.511	20598
853.645	20541
853.78	20765
853.914	20731
854.048	20590
854.183	20640
854.317	20655
854.451	20788
854.585	20758
854.72	20583
854.854	20826
854.988	20560
855.122	20655
855.256	20571
855.39	20480
855.524	20705
855.658	20625
855.792	20613
855.926	20648
856.06	20545
856.194	20823
856.327	20617
856.461	20629
856.595	20530
856.729	20480
856.862	20811
856.996	20659
857.13	20648
857.263	20705
857.397	20899
857.53	20678
857.664	20663
857.797	20648
857.931	20727
858.064	20735
858.197	20712
858.331	20564
858.464	20613
858.597	20606
858.731	20636
858.864	20606
858.997	20488
859.13	20701
859.263	20769
859.396	20712
859.529	20552
859.662	20644
859.795	20495
859.928	20598
860.061	20769
860.194	20785
860.327	20663
860.46	20636
860.592	20758
860.725	20705
860.858	20807
860.99	20724
861.123	20575
861.256	20530
861.388	20625
861.521	21176
861.653	20450
861.786	20473
861.918	20488
862.05	20469
862.183	20613
862.315	20495
862.447	20629
862.58	20484
862.712	20404
862.844	20347
862.976	20499
863.108	20450
863.24	20830
863.372	20278
863.504	20450
863.636	20309
863.768	20370
863.9	20442
864.032	20298
864.164	20275
864.296	20294
864.428	20530
864.559	20461
864.691	20408
864.823	20298
864.954	20324
865.086	20351
865.217	20317
865.349	20202
865.48	20282
865.612	20275
865.743	20495
865.875	20244
866.006	20149
866.137	20214
866.269	20286
866.4	20259
866.531	20225
866.662	20126
866.793	20157
866.924	20275
867.055	20199
867.186	20199
867.317	20092
867.448	20130
867.579	20191
867.71	20062
867.841	20016
867.972	20256
868.103	20073
868.233	20142
868.364	20305
868.495	20358
868.625	20442
868.756	20461
868.886	20339
869.017	20450
869.147	20507
869.278	20492
869.408	20526
869.539	20362
869.669	20552
869.799	20415
869.929	20518
870.06	20644
870.19	20834
870.32	20777
870.45	20697
870.58	20963
870.71	20838
870.84	20971
870.97	20693
871.1	21005
871.23	21039
871.36	21195
871.489	20990
871.619	21017
871.749	21062
871.879	21127
872.008	21157
872.138	21157
872.267	20986
872.397	20929
872.526	20921
872.656	20811
872.785	20842
872.915	20963
873.044	21188
873.173	21055
873.303	21051
873.432	21123
873.561	21188
873.69	21085
873.819	21001
873.948	21116
874.077	21116
874.206	21062
874.335	21119
874.464	21131
874.593	21389
874.722	21245
874.851	21382
874.979	21370
875.108	21412
875.237	21256
875.365	21218
875.494	21287
875.623	21386
875.751	21184
875.88	21363
876.008	21454
876.136	21496
876.265	21835
876.393	21876
876.521	21755
876.65	21686
876.778	21614
876.906	21736
877.034	21679
877.162	21698
877.29	21644
877.418	21736
877.546	21717
877.674	21641
877.802	21686
877.93	21679
878.058	21667
878.185	21568
878.313	21652
878.441	21667
878.568	21386
878.696	21606
878.824	21755
878.951	21656
879.079	21808
879.206	21953
879.333	21888
879.461	21614
879.588	21625
879.715	21831
879.842	22002
879.97	21816
880.097	21507
880.224	21466
880.351	21553
880.478	21633
880.605	21633
880.732	21488
880.859	21739
880.986	21614
881.112	21564
881.239	21443
881.366	21336
881.493	21131
881.619	21100
881.746	21020
881.872	21062
881.999	21154
882.125	20967
882.252	21089
882.378	21165
882.505	21199
882.631	20929
882.757	20788
882.883	20880
883.01	20788
883.136	20697
883.262	20724
883.388	20648
883.514	20788
883.64	20842
883.766	20735
883.892	20606
884.018	20708
884.143	20750
884.269	20727
884.395	20514
884.52	20457
884.646	20393
884.772	20362
884.897	20396
885.023	20556
885.148	20541
885.274	20689
885.399	20499
885.524	20358
885.65	20480
885.775	20514
885.9	20404
886.025	20526
886.15	20522
886.275	20393
886.4	20393
886.525	20431
886.65	20317
886.775	20290
886.9	20530
887.025	20609
887.149	20408
887.274	20271
887.399	20084
887.523	20328
887.648	20202
887.773	20119
887.897	20313
888.021	20191
888.146	20202
888.27	20256
888.395	20324
888.519	20161
888.643	20225
888.767	20229
888.891	20107
889.015	20092
889.139	19955
889.263	20077
889.387	20065
889.511	20294
889.635	20168
889.759	19997
889.883	20012
890.006	20084
890.13	20180
890.254	19944
890.377	19887
890.501	19845
890.624	19689
890.748	19894
890.871	19681
890.995	19620
891.118	19373
891.241	19700
891.364	19597
891.488	19856
891.611	19613
891.734	19643
891.857	19689
891.98	19578
892.103	19662
892.226	19575
892.349	19537
892.471	19464
892.594	19597
892.717	19544
892.839	19483
892.962	19460
893.085	19544
893.207	19480
893.33	19362
893.452	19411
893.575	19575
893.697	19487
893.819	19655
893.941	19704
894.064	19689
894.186	19556
894.308	19499
894.43	19624
894.552	19727
894.674	19552
894.796	19384
894.918	19529
895.04	19468
895.161	19628
895.283	19502
895.405	19403
895.526	19578
895.648	19468
895.769	19487
895.891	19529
896.012	19655
896.134	19472
896.255	19449
896.376	19320
896.498	19582
896.619	19685
896.74	19613
896.861	19544
896.982	19841
897.103	19997
897.224	19818
897.345	19719
897.466	19719
897.587	19784
897.708	19822
897.828	19841
897.949	19780
898.07	19643
898.19	19731
898.311	19795
898.431	19715
898.552	19902
898.672	19822
898.792	19860
898.913	19890
899.033	19620
899.153	19502
899.273	19510
899.393	19590
899.513	19578
899.633	19544
899.753	19563
899.873	19556
899.993	19651
900.113	19586
900.232	19540
900.352	19430
900.472	19381
900.591	19335
900.711	19308
900.83	19304
900.95	19445
901.069	19369
901.189	19247
901.308	19091
901.427	18844
901.546	18924
901.665	18977
901.784	18897
901.904	18798
902.023	18646
902.141	18483
902.26	18464
902.379	18547
902.498	18437
902.617	18395
902.735	18475
902.854	18361
902.973	18369
903.091	18102
903.21	18098
903.328	18152
903.446	18045
903.565	17920
903.683	17882
903.801	17779
903.919	17999
904.038	17866
904.156	17642
904.274	17718
904.392	17668
904.51	17672
904.627	17642
904.745	17699
904.863	17748
904.981	17532
905.098	17349
905.216	17356
905.334	17372
905.451	17471
905.569	17379
905.686	17433
905.803	17341
905.921	17067
906.038	17273
906.155	17083
906.272	17170
906.389	17090
906.506	16900
906.623	16915
906.74	16972
906.857	16706
906.974	16862
907.091	16961
907.208	17037
907.324	16927
907.441	16828
907.557	16637
907.674	16596
907.79	16546
907.907	16508
908.023	16641
908.139	16641
908.256	16558
908.372	16428
908.488	16489
908.604	16432
908.72	16352
908.836	16337
908.952	16226
909.068	16257
909.184	16485
909.3	16356
909.415	16390
909.531	16322
909.647	16048
909.762	16105
909.878	16078
909.993	16071
910.108	16010
910.224	15937
910.339	16071
910.454	15865
910.57	15876
910.685	15751
910.8	16059
910.915	16013
911.03	15884
911.145	15675
911.259	15625
911.374	15652
911.489	15614
911.604	15496
911.718	15393
911.833	15519
911.947	15317
912.062	15329
912.176	15428
912.291	15454
912.405	15488
912.519	15584
912.633	15656
912.748	15397
912.862	15355
912.976	15306
913.09	15043
913.204	15203
913.318	15283
913.431	15310
913.545	15325
913.659	15294
913.772	15089
913.886	15055
914	14979
914.113	15192
914.226	15138
914.34	15180
914.453	14990
914.566	15058
914.68	14937
914.793	14842
914.906	14632
915.019	14594
915.132	14526
915.245	14583
915.358	14708
915.47	14640
915.583	14621
915.696	14670
915.809	14758
915.921	14697
916.034	14556
916.146	14598
916.259	14499
916.371	14705
916.483	14499
916.595	14526
916.708	14488
916.82	14522
916.932	14461
917.044	14404
917.156	14503
917.268	14305
917.38	14351
917.491	14374
917.603	14336
917.715	14358
917.826	14537
917.938	14313
918.049	14142
918.161	14263
918.272	14442
918.384	14423
918.495	14317
918.606	14176
918.717	14058
918.828	14096
918.939	14031
919.05	13970
919.161	14058
919.272	13811
919.383	13974
919.494	14214
919.604	14275
919.715	14092
919.826	13982
919.936	14077
920.047	14157
920.157	14088
920.267	14237
920.378	14065
920.488	13974
920.598	14183
920.708	14366
920.818	14229
920.928	14142
921.038	14446
921.148	14301
921.258	14084
921.368	13883
921.477	13837
921.587	13837
921.697	13620
921.806	13799
921.916	13628
922.025	13613
922.134	13540
922.244	13487
922.353	13441
922.462	13411
922.571	13308
922.68	13156
922.789	13057
922.898	13133
923.007	13034
923.116	13190
923.224	13141
923.333	13072
923.442	12993
923.55	12989
923.659	12985
923.767	12977
923.876	12875
923.984	13004
924.092	12848
924.201	12928
924.309	12973
924.417	12882
924.525	12814
924.633	12745
924.741	13483
924.849	12578
924.956	12711
925.064	12593
925.172	12532
925.279	12608
925.387	12597
925.494	12544
925.602	12681
925.709	12612
925.816	12498
925.924	12525
926.031	12582
926.138	12547
926.245	12528
926.352	12429
926.459	12502
926.566	12547
926.673	12433
926.779	12281
926.886	12342
926.993	12213
927.099	12232
927.206	12110
927.312	12045
927.419	12136
927.525	12041
927.631	12163
927.737	11988
927.843	12034
927.95	11954
928.056	11961
928.162	11942
928.267	11942
928.373	12635
928.479	12083
928.585	11821
928.69	11904
928.796	11843
928.901	11790
929.007	11615
929.112	11874
929.218	11805
929.323	11691
929.428	11752
929.533	11874
929.638	11596
929.743	11608
929.848	11722
929.953	11661
930.058	11566
930.163	11372
930.267	11417
930.372	11581
930.477	11364
930.581	11611
930.685	11474
930.79	11288
930.894	11231
930.998	11284
931.103	11368
931.207	10987
931.311	10968
931.415	10820
931.519	10679
931.623	10729
