Data from test_V78500241_3585.txt Node
Date: Fri Mar 25 15:34:49 CST 2022
User: usil
Spectrometer: V785-0024
Trigger mode: 0
Integration Time (sec): 4.000000E-1
Scans to average: 1
Nonlinearity correction enabled: false
Boxcar width: 0
Storing dark spectrum: false
XAxis mode: Wavelengths
Number of Pixels in Spectrum: 1024
>>>>>Begin Spectral Data<<<<<
801.071	27370
801.214	27344
801.356	27005
801.499	27104
801.641	26994
801.783	27009
801.926	26979
802.068	26918
802.211	26986
802.353	26606
802.496	26708
802.638	26514
802.78	26453
802.923	26438
803.065	26484
803.208	26530
803.35	26518
803.492	26636
803.635	26792
803.777	26621
803.919	26781
804.061	27017
804.204	26686
804.346	26621
804.488	26476
804.63	26568
804.773	26579
804.915	26701
805.057	26804
805.199	26667
805.341	26891
805.483	26845
805.626	26781
805.768	26754
805.91	26777
806.052	26788
806.194	26720
806.336	26982
806.478	26899
806.62	26891
806.762	26868
806.904	27058
807.046	27313
807.188	27070
807.33	27313
807.472	27321
807.614	27017
807.756	27112
807.898	26998
808.04	26887
808.182	27024
808.324	27001
808.465	27100
808.607	27321
808.749	27401
808.891	27458
809.033	27599
809.174	27496
809.316	27492
809.458	27363
809.6	27329
809.741	27458
809.883	27447
810.025	27686
810.166	27682
810.308	27831
810.45	27580
810.591	27747
810.733	27416
810.875	27416
811.016	27325
811.158	27184
811.299	27454
811.441	27515
811.582	27534
811.724	27466
811.865	27313
812.007	27325
812.148	27332
812.29	27359
812.431	27625
812.573	27800
812.714	27865
812.855	27842
812.997	27953
813.138	28070
813.279	28158
813.421	27888
813.562	27705
813.703	27705
813.845	27694
813.986	27374
814.127	27066
814.268	27157
814.41	27036
814.551	26960
814.692	27287
814.833	26979
814.974	27058
815.115	27009
815.256	26948
815.397	26921
815.539	27039
815.68	26929
815.821	26773
815.962	26864
816.103	26682
816.244	26655
816.385	26590
816.526	26590
816.666	26396
816.807	26389
816.948	26358
817.089	26423
817.23	26404
817.371	26317
817.512	26351
817.653	26225
817.793	26183
817.934	26480
818.075	26446
818.216	26275
818.356	26328
818.497	26252
818.638	25947
818.778	26100
818.919	26229
819.06	26172
819.2	26298
819.341	26381
819.481	26362
819.622	26476
819.762	26636
819.903	26541
820.043	26629
820.184	26366
820.324	26480
820.465	26476
820.605	26488
820.746	26533
820.886	26259
821.026	26332
821.167	26301
821.307	26339
821.447	26282
821.588	26157
821.728	26058
821.868	26039
822.008	25833
822.149	25723
822.289	25715
822.429	25525
822.569	25388
822.709	25441
822.849	25400
822.99	25464
823.13	25133
823.27	25259
823.41	25202
823.55	24985
823.69	25171
823.83	24962
823.97	25057
824.11	24905
824.25	24802
824.389	24909
824.529	25042
824.669	24932
824.809	25084
824.949	25095
825.089	24958
825.228	24924
825.368	24821
825.508	24791
825.648	24825
825.787	24749
825.927	24905
826.067	24787
826.206	24772
826.346	24741
826.485	24886
826.625	24749
826.765	24871
826.904	24935
827.044	24570
827.183	24555
827.323	24570
827.462	24597
827.601	24540
827.741	24498
827.88	24635
828.02	24357
828.159	24498
828.298	24665
828.437	24547
828.577	24490
828.716	24601
828.855	24479
828.994	24300
829.134	24258
829.273	24186
829.412	24110
829.551	24045
829.69	24194
829.829	24129
829.968	24285
830.107	24327
830.246	24220
830.385	24174
830.524	24167
830.663	24133
830.802	23969
830.941	23855
831.08	23817
831.219	23908
831.357	23954
831.496	23942
831.635	23855
831.774	23748
831.913	23665
832.051	23672
832.19	23589
832.329	23604
832.467	23482
832.606	23577
832.744	23528
832.883	23581
833.022	23398
833.16	23493
833.299	23600
833.437	23558
833.576	23611
833.714	23539
833.852	23726
833.991	23630
834.129	23699
834.267	23741
834.406	23573
834.544	23672
834.682	23589
834.821	23493
834.959	23840
835.097	23634
835.235	23573
835.373	23524
835.511	23486
835.65	23372
835.788	23452
835.926	23372
836.064	23349
836.202	23299
836.34	23444
836.478	23611
836.615	23383
836.753	23455
836.891	23493
837.029	23463
837.167	23322
837.305	23303
837.443	23356
837.58	23368
837.718	23334
837.856	23345
837.993	23273
838.131	23292
838.269	23273
838.406	23174
838.544	23166
838.681	22904
838.819	22881
838.956	22927
839.094	22843
839.231	22850
839.369	22892
839.506	23231
839.643	22938
839.781	22752
839.918	22706
840.055	22850
840.193	22713
840.33	22717
840.467	22755
840.604	22618
840.742	22961
840.879	22641
841.016	22656
841.153	22763
841.29	22782
841.427	22698
841.564	22744
841.701	22615
841.838	22706
841.975	22569
842.112	22626
842.249	22538
842.385	22634
842.522	22710
842.659	22527
842.796	22531
842.933	22523
843.069	22462
843.206	22413
843.343	22409
843.479	22542
843.616	22398
843.752	22219
843.889	22169
844.025	22440
844.162	22173
844.298	22318
844.435	22280
844.571	22303
844.708	22272
844.844	22379
844.98	22341
845.117	22318
845.253	22192
845.389	22086
845.525	22128
845.661	22120
845.798	21983
845.934	21987
846.07	22006
846.206	22010
846.342	22105
846.478	21907
846.614	21701
846.75	21686
846.886	21812
847.022	21812
847.158	21705
847.294	21751
847.429	21728
847.565	21827
847.701	21926
847.837	21466
847.972	21424
848.108	21720
848.244	21557
848.379	21420
848.515	21363
848.65	21165
848.786	21382
848.921	21401
849.057	21389
849.192	21439
849.328	21424
849.463	21306
849.598	21332
849.734	21233
849.869	21135
850.004	21146
850.14	21066
850.275	21119
850.41	21036
850.545	21142
850.68	20960
850.815	21157
850.95	21032
851.085	21214
851.22	21173
851.355	21203
851.49	21135
851.625	21138
851.76	21051
851.895	20956
852.03	20960
852.165	21150
852.299	21119
852.434	21169
852.569	20990
852.703	21104
852.838	21173
852.973	21226
853.107	21237
853.242	20967
853.376	20899
853.511	20796
853.645	20876
853.78	21005
853.914	20937
854.048	20857
854.183	20948
854.317	20967
854.451	21131
854.585	20921
854.72	20910
854.854	20880
854.988	20826
855.122	20899
855.256	20830
855.39	20872
855.524	21001
855.658	20918
855.792	20895
855.926	20891
856.06	20921
856.194	20952
856.327	20842
856.461	20819
856.595	20746
856.729	20823
856.862	21051
856.996	20944
857.13	21077
857.263	20906
857.397	20906
857.53	20925
857.664	20994
857.797	20975
857.931	21017
858.064	21058
858.197	21039
858.331	20868
858.464	20849
858.597	20769
858.731	20937
858.864	20823
858.997	20838
859.13	20906
859.263	20895
859.396	20979
859.529	20963
859.662	20853
859.795	20811
859.928	20845
860.061	21108
860.194	21119
860.327	20861
860.46	21039
860.592	21039
860.725	21131
860.858	21108
860.99	20853
861.123	20895
861.256	20815
861.388	20925
861.521	21644
861.653	20765
861.786	20590
861.918	20838
862.05	20716
862.183	20842
862.315	20777
862.447	20876
862.58	20765
862.712	20670
862.844	20617
862.976	20697
863.108	20693
863.24	21108
863.372	20503
863.504	20682
863.636	20629
863.768	20693
863.9	20602
864.032	20571
864.164	20556
864.296	20648
864.428	20796
864.559	20731
864.691	20686
864.823	20670
864.954	20514
865.086	20571
865.217	20514
865.349	20476
865.48	20518
865.612	20598
865.743	20564
865.875	20518
866.006	20415
866.137	20530
866.269	20495
866.4	20492
866.531	20465
866.662	20434
866.793	20480
866.924	20461
867.055	20461
867.186	20476
867.317	20465
867.448	20317
867.579	20457
867.71	20499
867.841	20427
867.972	20450
868.103	20484
868.233	20465
868.364	20442
868.495	20476
868.625	20655
868.756	20864
868.886	20625
869.017	20655
869.147	20800
869.278	20902
869.408	20697
869.539	20651
869.669	20743
869.799	20705
869.929	20792
870.06	20819
870.19	21024
870.32	21009
870.45	21116
870.58	21119
870.71	21173
870.84	21100
870.97	21173
871.1	21028
871.23	21279
871.36	21313
871.489	21306
871.619	21249
871.749	21287
871.879	21374
872.008	21363
872.138	21443
872.267	21329
872.397	21218
872.526	21123
872.656	21176
872.785	21142
872.915	21393
873.044	21351
873.173	21302
873.303	21466
873.432	21367
873.561	21485
873.69	21329
873.819	21325
873.948	21313
874.077	21230
874.206	21256
874.335	21416
874.464	21454
874.593	21637
874.722	21564
874.851	21610
874.979	21618
875.108	21591
875.237	21622
875.365	21454
875.494	21561
875.623	21656
875.751	21462
875.88	21599
876.008	21701
876.136	21869
876.265	21983
876.393	22048
876.521	21972
876.65	22040
876.778	22059
876.906	21960
877.034	21926
877.162	21911
877.29	21846
877.418	21972
877.546	22013
877.674	22013
877.802	22090
877.93	21816
878.058	21869
878.185	21667
878.313	21922
878.441	21888
878.568	21827
878.696	21884
878.824	22082
878.951	21937
879.079	22166
879.206	22375
879.333	22090
879.461	21960
879.588	22006
879.715	22048
879.842	22230
879.97	21975
880.097	21766
880.224	21816
880.351	21861
880.478	21755
880.605	21675
880.732	21766
880.859	22105
880.986	21804
881.112	21850
881.239	21583
881.366	21481
881.493	21386
881.619	21382
881.746	21435
881.872	21283
881.999	21260
882.125	21374
882.252	21374
882.378	21401
882.505	21447
882.631	21245
882.757	21241
882.883	21279
883.01	21077
883.136	21074
883.262	20933
883.388	20891
883.514	21024
883.64	21055
883.766	21028
883.892	20750
884.018	20914
884.143	21001
884.269	21123
884.395	20845
884.52	20743
884.646	20842
884.772	20739
884.897	20682
885.023	20811
885.148	20701
885.274	20899
885.399	20807
885.524	20659
885.65	20788
885.775	20857
885.9	20689
886.025	20887
886.15	20750
886.275	20686
886.4	20701
886.525	20735
886.65	20644
886.775	20621
886.9	20823
887.025	20944
887.149	20754
887.274	20533
887.399	20503
887.523	20552
887.648	20442
887.773	20408
887.897	20564
888.021	20480
888.146	20427
888.27	20648
888.395	20556
888.519	20537
888.643	20507
888.767	20499
888.891	20381
889.015	20332
889.139	20286
889.263	20240
889.387	20442
889.511	20431
889.635	20461
889.759	20290
889.883	20244
890.006	20324
890.13	20389
890.254	20206
890.377	20202
890.501	20020
890.624	20020
890.748	19993
890.871	19997
890.995	19913
891.118	19791
891.241	19940
891.364	19799
891.488	19890
891.611	19890
891.734	19860
891.857	19951
891.98	19898
892.103	19868
892.226	19753
892.349	19761
892.471	19540
892.594	19765
892.717	19784
892.839	19693
892.962	19746
893.085	19822
893.207	19795
893.33	19693
893.452	19776
893.575	19780
893.697	19807
893.819	19868
893.941	19955
894.064	19875
894.186	19772
894.308	19746
894.43	19860
894.552	19909
894.674	19822
894.796	19723
894.918	19822
895.04	19681
895.161	19811
895.283	19856
895.405	19753
895.526	19765
895.648	19750
895.769	19662
895.891	19689
896.012	19890
896.134	19921
896.255	19734
896.376	19715
896.498	19799
896.619	19761
896.74	19769
896.861	19807
896.982	20142
897.103	20313
897.224	20103
897.345	20062
897.466	19997
897.587	19955
897.708	20145
897.828	20050
897.949	19951
898.07	19875
898.19	19860
898.311	20115
898.431	19963
898.552	20035
898.672	20046
898.792	20016
898.913	20035
899.033	19959
899.153	19791
899.273	19715
899.393	19655
899.513	19856
899.633	19704
899.753	19799
899.873	19685
899.993	19704
900.113	19643
900.232	19677
900.352	19616
900.472	19514
900.591	19491
900.711	19548
900.83	19540
900.95	19681
901.069	19727
901.189	19400
901.308	19202
901.427	19194
901.546	19095
901.665	19133
901.784	19141
901.904	18958
902.023	18871
902.141	18745
902.26	18585
902.379	18707
902.498	18604
902.617	18601
902.735	18612
902.854	18696
902.973	18563
903.091	18395
903.21	18376
903.328	18384
903.446	18167
903.565	18110
903.683	18110
903.801	18007
903.919	17958
904.038	18136
904.156	17954
904.274	18057
904.392	17935
904.51	17901
904.627	17874
904.745	17893
904.863	17923
904.981	17726
905.098	17661
905.216	17592
905.334	17600
905.451	17642
905.569	17573
905.686	17615
905.803	17642
905.921	17288
906.038	17524
906.155	17311
906.272	17178
906.389	17315
906.506	17143
906.623	17189
906.74	17052
906.857	17045
906.974	16968
907.091	17159
907.208	17258
907.324	17037
907.441	17033
907.557	16805
907.674	16881
907.79	16816
907.907	16748
908.023	16816
908.139	16793
908.256	16790
908.372	16599
908.488	16698
908.604	16649
908.72	16550
908.836	16550
908.952	16546
909.068	16523
909.184	16626
909.3	16565
909.415	16569
909.531	16481
909.647	16177
909.762	16204
909.878	16272
909.993	16291
910.108	16280
910.224	16162
910.339	16166
910.454	16063
910.57	16135
910.685	16044
910.8	16344
910.915	16154
911.03	16059
911.145	15907
911.259	15911
911.374	15804
911.489	15736
911.604	15732
911.718	15633
911.833	15644
911.947	15443
912.062	15488
912.176	15610
912.291	15717
912.405	15675
912.519	15736
912.633	15747
912.748	15625
912.862	15538
912.976	15538
913.09	15370
913.204	15466
913.318	15401
913.431	15466
913.545	15462
913.659	15469
913.772	15348
913.886	15321
914	15249
914.113	15321
914.226	15302
914.34	15283
914.453	15131
914.566	15138
914.68	15176
914.793	15055
914.906	14883
915.019	14944
915.132	14815
915.245	14716
915.358	14887
915.47	14921
915.583	14804
915.696	14979
915.809	14990
915.921	14921
916.034	14849
916.146	14697
916.259	14724
916.371	14830
916.483	14739
916.595	14667
916.708	14697
916.82	14727
916.932	14655
917.044	14663
917.156	14644
917.268	14571
917.38	14526
917.491	14499
917.603	14465
917.715	14583
917.826	14587
917.938	14461
918.049	14412
918.161	14358
918.272	14579
918.384	14571
918.495	14518
918.606	14259
918.717	14248
918.828	14309
918.939	14309
919.05	14172
919.161	14263
919.272	14126
919.383	14157
919.494	14202
919.604	14419
919.715	14237
919.826	14176
919.936	14202
920.047	14305
920.157	14267
920.267	14396
920.378	14206
920.488	14267
920.598	14400
920.708	14434
920.818	14377
920.928	14381
921.038	14518
921.148	14583
921.258	14195
921.368	14103
921.477	14046
921.587	13978
921.697	13906
921.806	13974
921.916	13841
922.025	13639
922.134	13704
922.244	13567
922.353	13571
922.462	13499
922.571	13388
922.68	13358
922.789	13251
922.898	13381
923.007	13206
923.116	13282
923.224	13263
923.333	13236
923.442	13217
923.55	13141
923.659	13133
923.767	13152
923.876	13126
923.984	13103
924.092	13042
924.201	13031
924.309	13110
924.417	13000
924.525	12981
924.633	12977
924.741	13887
924.849	12760
924.956	12878
925.064	12779
925.172	12673
925.279	12795
925.387	12715
925.494	12757
925.602	12878
925.709	12745
925.816	12585
925.924	12646
926.031	12726
926.138	12677
926.245	12673
926.352	12635
926.459	12650
926.566	12772
926.673	12517
926.779	12441
926.886	12407
926.993	12414
927.099	12342
927.206	12270
927.312	12220
927.419	12342
927.525	12232
927.631	12308
927.737	12224
927.843	12144
927.95	11965
928.056	12098
928.162	12144
928.267	12155
928.373	12688
928.479	12216
928.585	11923
928.69	12121
928.796	12098
928.901	12011
929.007	11828
929.112	11988
929.218	11882
929.323	11912
929.428	11836
929.533	11958
929.638	11752
929.743	11748
929.848	11897
929.953	11718
930.058	11699
930.163	11551
930.267	11524
930.372	11695
930.477	11444
930.581	11745
930.685	11497
930.79	11395
930.894	11433
930.998	11425
931.103	11478
931.207	11132
931.311	11090
931.415	10980
931.519	10862
931.623	10778
