Data from test_V78500241_2816.txt Node
Date: Fri Mar 25 15:29:28 CST 2022
User: usil
Spectrometer: V785-0024
Trigger mode: 0
Integration Time (sec): 4.000000E-1
Scans to average: 1
Nonlinearity correction enabled: false
Boxcar width: 0
Storing dark spectrum: false
XAxis mode: Wavelengths
Number of Pixels in Spectrum: 1024
>>>>>Begin Spectral Data<<<<<
801.071	27188
801.214	27165
801.356	27036
801.499	26883
801.641	26724
801.783	26549
801.926	26739
802.068	26788
802.211	26678
802.353	26598
802.496	26480
802.638	26332
802.78	26438
802.923	26393
803.065	26256
803.208	26434
803.35	26221
803.492	26480
803.635	26533
803.777	26438
803.919	26507
804.061	26762
804.204	26575
804.346	26427
804.488	26526
804.63	26503
804.773	26290
804.915	26446
805.057	26526
805.199	26530
805.341	26518
805.483	26549
805.626	26663
805.768	26469
805.91	26629
806.052	26651
806.194	26632
806.336	26785
806.478	26598
806.62	26594
806.762	26834
806.904	26960
807.046	27154
807.188	27070
807.33	27142
807.472	27116
807.614	26963
807.756	27028
807.898	26883
808.04	26788
808.182	26724
808.324	26880
808.465	26906
808.607	27081
808.749	27222
808.891	27412
809.033	27321
809.174	27279
809.316	27192
809.458	27287
809.6	27157
809.741	27313
809.883	27511
810.025	27519
810.166	27462
810.308	27439
810.45	27370
810.591	27397
810.733	27272
810.875	27252
811.016	27096
811.158	27146
811.299	27245
811.441	27496
811.582	27382
811.724	27218
811.865	27077
812.007	27116
812.148	27180
812.29	27180
812.431	27454
812.573	27542
812.714	27485
812.855	27671
812.997	27781
813.138	27998
813.279	27755
813.421	27671
813.562	27675
813.703	27397
813.845	27382
813.986	27055
814.127	27013
814.268	26921
814.41	26944
814.551	26819
814.692	26944
814.833	26689
814.974	26925
815.115	26826
815.256	26678
815.397	26758
815.539	26769
815.68	26541
815.821	26507
815.962	26651
816.103	26598
816.244	26465
816.385	26423
816.526	26400
816.666	26298
816.807	26027
816.948	26157
817.089	26172
817.23	26130
817.371	26077
817.512	26092
817.653	26176
817.793	25970
817.934	26134
818.075	26084
818.216	26111
818.356	26065
818.497	25966
818.638	25772
818.778	25811
818.919	25837
819.06	25955
819.2	25830
819.341	26005
819.481	26035
819.622	26199
819.762	26412
819.903	26278
820.043	26229
820.184	26161
820.324	26115
820.465	26282
820.605	26221
820.746	26214
820.886	26027
821.026	26172
821.167	26035
821.307	26267
821.447	26115
821.588	25951
821.728	25902
821.868	25746
822.008	25571
822.149	25476
822.289	25518
822.429	25297
822.569	25221
822.709	25377
822.849	25004
822.99	25023
823.13	25034
823.27	24932
823.41	24973
823.55	24757
823.69	25004
823.83	24947
823.97	24738
824.11	24551
824.25	24578
824.389	24661
824.529	24852
824.669	24696
824.809	24821
824.949	24791
825.089	24776
825.228	24749
825.368	24547
825.508	24547
825.648	24528
825.787	24650
825.927	24623
826.067	24525
826.206	24536
826.346	24692
826.485	24578
826.625	24536
826.765	24635
826.904	24555
827.044	24224
827.183	24277
827.323	24095
827.462	24350
827.601	24315
827.741	24163
827.88	24209
828.02	24262
828.159	24133
828.298	24315
828.437	24205
828.577	24296
828.716	24262
828.855	24220
828.994	23958
829.134	23958
829.273	24049
829.412	23916
829.551	23965
829.69	23843
829.829	24038
829.968	24011
830.107	23996
830.246	23965
830.385	23958
830.524	23927
830.663	23767
830.802	23707
830.941	23535
831.08	23482
831.219	23623
831.357	23630
831.496	23676
831.635	23524
831.774	23421
831.913	23349
832.051	23490
832.19	23330
832.329	23406
832.467	23280
832.606	23296
832.744	23155
832.883	23315
833.022	23143
833.16	23056
833.299	23265
833.437	23147
833.576	23242
833.714	23227
833.852	23280
833.991	23337
834.129	23334
834.267	23299
834.406	23296
834.544	23387
834.682	23269
834.821	23337
834.959	23417
835.097	23231
835.235	23288
835.373	23299
835.511	23334
835.65	23292
835.788	23151
835.926	22995
836.064	22862
836.202	22968
836.34	23200
836.478	23200
836.615	23159
836.753	23166
836.891	23269
837.029	23113
837.167	23105
837.305	22930
837.443	22919
837.58	22991
837.718	22984
837.856	22987
837.993	22911
838.131	22995
838.269	22801
838.406	22858
838.544	22755
838.681	22679
838.819	22508
838.956	22455
839.094	22565
839.231	22584
839.369	22603
839.506	22961
839.643	22607
839.781	22497
839.918	22402
840.055	22519
840.193	22459
840.33	22291
840.467	22390
840.604	22432
840.742	22656
840.879	22325
841.016	22318
841.153	22162
841.29	22493
841.427	22386
841.564	22440
841.701	22348
841.838	22371
841.975	22234
842.112	22367
842.249	22059
842.385	22166
842.522	22413
842.659	22211
842.796	22097
842.933	22181
843.069	22230
843.206	22105
843.343	22257
843.479	22097
843.616	22135
843.752	21892
843.889	21903
844.025	22063
844.162	21922
844.298	22044
844.435	21899
844.571	21983
844.708	21979
844.844	21945
844.98	22070
845.117	21911
845.253	21804
845.389	21614
845.525	21816
845.661	21682
845.798	21705
845.934	21679
846.07	21599
846.206	21720
846.342	21770
846.478	21553
846.614	21389
846.75	21439
846.886	21294
847.022	21606
847.158	21420
847.294	21386
847.429	21443
847.565	21393
847.701	21618
847.837	21119
847.972	21093
848.108	21203
848.244	21138
848.379	21055
848.515	20941
848.65	20842
848.786	20921
848.921	21028
849.057	21013
849.192	21119
849.328	21039
849.463	20971
849.598	20899
849.734	20819
849.869	20853
850.004	20823
850.14	20807
850.275	20785
850.41	20655
850.545	20674
850.68	20640
850.815	20739
850.95	20625
851.085	20880
851.22	20762
851.355	20826
851.49	20746
851.625	20735
851.76	20807
851.895	20507
852.03	20655
852.165	20804
852.299	20807
852.434	20796
852.569	20754
852.703	20807
852.838	20743
852.973	20826
853.107	20902
853.242	20648
853.376	20602
853.511	20465
853.645	20480
853.78	20693
853.914	20682
854.048	20476
854.183	20552
854.317	20587
854.451	20781
854.585	20568
854.72	20450
854.854	20705
854.988	20526
855.122	20613
855.256	20514
855.39	20617
855.524	20651
855.658	20579
855.792	20644
855.926	20629
856.06	20606
856.194	20674
856.327	20644
856.461	20533
856.595	20552
856.729	20587
856.862	20712
856.996	20533
857.13	20587
857.263	20754
857.397	20644
857.53	20450
857.664	20609
857.797	20564
857.931	20655
858.064	20678
858.197	20609
858.331	20556
858.464	20469
858.597	20389
858.731	20526
858.864	20514
858.997	20495
859.13	20530
859.263	20621
859.396	20674
859.529	20514
859.662	20545
859.795	20705
859.928	20499
860.061	20735
860.194	20750
860.327	20621
860.46	20526
860.592	20655
860.725	20777
860.858	20708
860.99	20598
861.123	20522
861.256	20396
861.388	20651
861.521	21165
861.653	20408
861.786	20278
861.918	20415
862.05	20370
862.183	20518
862.315	20568
862.447	20587
862.58	20450
862.712	20366
862.844	20408
862.976	20320
863.108	20301
863.24	20830
863.372	20351
863.504	20210
863.636	20298
863.768	20271
863.9	20218
864.032	20286
864.164	20263
864.296	20313
864.428	20423
864.559	20317
864.691	20404
864.823	20313
864.954	20259
865.086	20267
865.217	20202
865.349	20084
865.48	20267
865.612	20138
865.743	20305
865.875	20172
866.006	20168
866.137	20267
866.269	20275
866.4	20096
866.531	20073
866.662	20001
866.793	20168
866.924	20088
867.055	20161
867.186	20191
867.317	20073
867.448	20107
867.579	20119
867.71	20077
867.841	20046
867.972	20119
868.103	20062
868.233	19982
868.364	20172
868.495	20278
868.625	20366
868.756	20423
868.886	20320
869.017	20355
869.147	20457
869.278	20488
869.408	20328
869.539	20427
869.669	20419
869.799	20518
869.929	20556
870.06	20549
870.19	20800
870.32	20701
870.45	20754
870.58	20762
870.71	20804
870.84	20910
870.97	20769
871.1	20796
871.23	21051
871.36	21001
871.489	20861
871.619	20918
871.749	20933
871.879	20956
872.008	21062
872.138	20956
872.267	20944
872.397	20746
872.526	20746
872.656	20804
872.785	20777
872.915	21047
873.044	20979
873.173	21024
873.303	21017
873.432	21085
873.561	21081
873.69	20998
873.819	21058
873.948	20929
874.077	20994
874.206	20902
874.335	20971
874.464	21104
874.593	21359
874.722	21180
874.851	21264
874.979	21306
875.108	21249
875.237	21275
875.365	21165
875.494	21230
875.623	21344
875.751	21131
875.88	21226
876.008	21336
876.136	21477
876.265	21747
876.393	21743
876.521	21648
876.65	21755
876.778	21675
876.906	21572
877.034	21504
877.162	21583
877.29	21519
877.418	21580
877.546	21660
877.674	21618
877.802	21622
877.93	21519
878.058	21622
878.185	21500
878.313	21523
878.441	21606
878.568	21370
878.696	21572
878.824	21492
878.951	21679
879.079	21876
879.206	21823
879.333	21629
879.461	21622
879.588	21686
879.715	21656
879.842	21823
879.97	21720
880.097	21393
880.224	21485
880.351	21447
880.478	21408
880.605	21279
880.732	21431
880.859	21641
880.986	21340
881.112	21511
881.239	21386
881.366	21211
881.493	21203
881.619	20948
881.746	20994
881.872	20948
881.999	20853
882.125	20941
882.252	21013
882.378	20910
882.505	21077
882.631	20853
882.757	20754
882.883	20788
883.01	20693
883.136	20686
883.262	20568
883.388	20571
883.514	20819
883.64	20727
883.766	20644
883.892	20518
884.018	20488
884.143	20708
884.269	20743
884.395	20362
884.52	20385
884.646	20347
884.772	20286
884.897	20240
885.023	20358
885.148	20377
885.274	20503
885.399	20408
885.524	20286
885.65	20301
885.775	20336
885.9	20309
886.025	20446
886.15	20454
886.275	20278
886.4	20119
886.525	20370
886.65	20122
886.775	20317
886.9	20366
887.025	20415
887.149	20324
887.274	20172
887.399	20145
887.523	20100
887.648	20054
887.773	20016
887.897	20176
888.021	20119
888.146	20111
888.27	20267
888.395	20358
888.519	20126
888.643	20088
888.767	20214
888.891	20077
889.015	19925
889.139	20008
889.263	19898
889.387	19906
889.511	20050
889.635	20138
889.759	19921
889.883	19811
890.006	19898
890.13	20081
890.254	19917
890.377	19841
890.501	19734
890.624	19567
890.748	19772
890.871	19658
890.995	19518
891.118	19510
891.241	19605
891.364	19480
891.488	19628
891.611	19468
891.734	19502
891.857	19518
891.98	19365
892.103	19540
892.226	19506
892.349	19403
892.471	19270
892.594	19396
892.717	19434
892.839	19426
892.962	19400
893.085	19419
893.207	19514
893.33	19251
893.452	19354
893.575	19464
893.697	19457
893.819	19559
893.941	19746
894.064	19575
894.186	19438
894.308	19369
894.43	19601
894.552	19601
894.674	19533
894.796	19312
894.918	19304
895.04	19514
895.161	19563
895.283	19533
895.405	19422
895.526	19457
895.648	19449
895.769	19552
895.891	19510
896.012	19373
896.134	19445
896.255	19438
896.376	19419
896.498	19468
896.619	19491
896.74	19445
896.861	19487
896.982	19750
897.103	19822
897.224	19757
897.345	19700
897.466	19624
897.587	19704
897.708	19761
897.828	19655
897.949	19685
898.07	19449
898.19	19639
898.311	19708
898.431	19613
898.552	19769
898.672	19689
898.792	19772
898.913	19757
899.033	19624
899.153	19483
899.273	19468
899.393	19441
899.513	19441
899.633	19491
899.753	19457
899.873	19464
899.993	19422
900.113	19426
900.232	19381
900.352	19407
900.472	19232
900.591	19255
900.711	19187
900.83	19263
900.95	19301
901.069	19411
901.189	19152
901.308	19004
901.427	18753
901.546	18825
901.665	18951
901.784	18814
901.904	18726
902.023	18544
902.141	18506
902.26	18422
902.379	18547
902.498	18330
902.617	18304
902.735	18334
902.854	18319
902.973	18178
903.091	18041
903.21	18034
903.328	18095
903.446	17954
903.565	17965
903.683	17885
903.801	17828
903.919	17840
904.038	17722
904.156	17687
904.274	17718
904.392	17604
904.51	17509
904.627	17547
904.745	17703
904.863	17611
904.981	17463
905.098	17227
905.216	17376
905.334	17417
905.451	17216
905.569	17227
905.686	17284
905.803	17239
905.921	17006
906.038	17231
906.155	17113
906.272	17003
906.389	16999
906.506	16839
906.623	16725
906.74	16831
906.857	16782
906.974	16664
907.091	16942
907.208	16946
907.324	16885
907.441	16694
907.557	16531
907.674	16527
907.79	16527
907.907	16538
908.023	16596
908.139	16546
908.256	16485
908.372	16443
908.488	16459
908.604	16303
908.72	16242
908.836	16394
908.952	16177
909.068	16268
909.184	16398
909.3	16276
909.415	16295
909.531	16352
909.647	16063
909.762	15968
909.878	15975
909.993	16013
910.108	15915
910.224	15930
910.339	15827
910.454	15873
910.57	15831
910.685	15717
910.8	15991
910.915	15960
911.03	15888
911.145	15553
911.259	15633
911.374	15622
911.489	15500
911.604	15393
911.718	15317
911.833	15420
911.947	15233
912.062	15226
912.176	15435
912.291	15443
912.405	15428
912.519	15538
912.633	15500
912.748	15367
912.862	15344
912.976	15119
913.09	15009
913.204	15127
913.318	15218
913.431	15214
913.545	15184
913.659	15233
913.772	15089
913.886	15047
914	14880
914.113	15108
914.226	15100
914.34	15005
914.453	14796
914.566	15024
914.68	14819
914.793	14788
914.906	14625
915.019	14461
915.132	14461
915.245	14476
915.358	14648
915.47	14632
915.583	14621
915.696	14594
915.809	14678
915.921	14674
916.034	14564
916.146	14473
916.259	14488
916.371	14499
916.483	14442
916.595	14507
916.708	14408
916.82	14427
916.932	14343
917.044	14374
917.156	14389
917.268	14218
917.38	14282
917.491	14191
917.603	14214
917.715	14332
917.826	14320
917.938	14202
918.049	14084
918.161	14202
918.272	14336
918.384	14377
918.495	14225
918.606	14031
918.717	13970
918.828	14039
918.939	14077
919.05	13917
919.161	14054
919.272	13833
919.383	13830
919.494	13967
919.604	14248
919.715	13947
919.826	13932
919.936	13909
920.047	14126
920.157	14020
920.267	14225
920.378	13974
920.488	13989
920.598	14035
920.708	14301
920.818	14244
920.928	14103
921.038	14313
921.148	14320
921.258	14020
921.368	13833
921.477	13750
921.587	13708
921.697	13658
921.806	13696
921.916	13693
922.025	13457
922.134	13384
922.244	13350
922.353	13377
922.462	13240
922.571	13255
922.68	13171
922.789	13061
922.898	13012
923.007	13038
923.116	13034
923.224	13095
923.333	13061
923.442	12966
923.55	12825
923.659	12867
923.767	13069
923.876	12901
923.984	12916
924.092	12783
924.201	12802
924.309	12848
924.417	12875
924.525	12681
924.633	12783
924.741	13460
924.849	12559
924.956	12700
925.064	12471
925.172	12445
925.279	12460
925.387	12513
925.494	12433
925.602	12597
925.709	12547
925.816	12330
925.924	12486
926.031	12471
926.138	12414
926.245	12437
926.352	12414
926.459	12414
926.566	12528
926.673	12376
926.779	12296
926.886	12216
926.993	12201
927.099	12068
927.206	12053
927.312	12034
927.419	12106
927.525	11999
927.631	12091
927.737	11870
927.843	11977
927.95	11882
928.056	11942
928.162	11912
928.267	11980
928.373	12544
928.479	11935
928.585	11726
928.69	11878
928.796	11961
928.901	11771
929.007	11634
929.112	11668
929.218	11824
929.323	11695
929.428	11710
929.533	11767
929.638	11646
929.743	11585
929.848	11657
929.953	11528
930.058	11497
930.163	11318
930.267	11364
930.372	11493
930.477	11296
930.581	11589
930.685	11440
930.79	11269
930.894	11280
930.998	11193
931.103	11315
931.207	11014
931.311	10904
931.415	10824
931.519	10618
931.623	10580
