Data from test_V78500241_705.txt Node
Date: Fri Mar 25 15:14:46 CST 2022
User: usil
Spectrometer: V785-0024
Trigger mode: 0
Integration Time (sec): 4.000000E-1
Scans to average: 1
Nonlinearity correction enabled: false
Boxcar width: 0
Storing dark spectrum: false
XAxis mode: Wavelengths
Number of Pixels in Spectrum: 1024
>>>>>Begin Spectral Data<<<<<
801.071	27972
801.214	27816
801.356	27679
801.499	27736
801.641	27557
801.783	27473
801.926	27652
802.068	27408
802.211	27424
802.353	27291
802.496	27214
802.638	27214
802.78	27249
802.923	27017
803.065	27146
803.208	27173
803.35	27074
803.492	27260
803.635	27412
803.777	27207
803.919	27416
804.061	27637
804.204	27435
804.346	27264
804.488	27389
804.63	27313
804.773	27131
804.915	27427
805.057	27500
805.199	27370
805.341	27370
805.483	27412
805.626	27435
805.768	27321
805.91	27382
806.052	27530
806.194	27424
806.336	27690
806.478	27557
806.62	27420
806.762	27694
806.904	27766
807.046	28017
807.188	27983
807.33	27918
807.472	28063
807.614	28002
807.756	27800
807.898	27797
808.04	27827
808.182	27778
808.324	27701
808.465	27682
808.607	28025
808.749	28112
808.891	28090
809.033	28185
809.174	28162
809.316	28093
809.458	28086
809.6	28097
809.741	28390
809.883	28363
810.025	28527
810.166	28493
810.308	28489
810.45	28440
810.591	28417
810.733	28150
810.875	28116
811.016	28017
811.158	28109
811.299	28287
811.441	28200
811.582	28295
811.724	28226
811.865	28219
812.007	28120
812.148	28147
812.29	28120
812.431	28409
812.573	28485
812.714	28672
812.855	28713
812.997	28706
813.138	28885
813.279	28850
813.421	28824
813.562	28626
813.703	28607
813.845	28386
813.986	28074
814.127	27880
814.268	27857
814.41	27857
814.551	27892
814.692	27934
814.833	27732
814.974	27732
815.115	27842
815.256	27629
815.397	27724
815.539	27530
815.68	27728
815.821	27416
815.962	27622
816.103	27603
816.244	27477
816.385	27382
816.526	27310
816.666	27264
816.807	27058
816.948	27173
817.089	27351
817.23	27085
817.371	27207
817.512	27207
817.653	27062
817.793	27104
817.934	27077
818.075	27199
818.216	27077
818.356	27214
818.497	27085
818.638	26727
818.778	26804
818.919	26948
819.06	27062
819.2	27036
819.341	27214
819.481	27188
819.622	27310
819.762	27340
819.903	27287
820.043	27272
820.184	27325
820.324	27279
820.465	27241
820.605	27222
820.746	27332
820.886	27013
821.026	27230
821.167	27199
821.307	27157
821.447	27146
821.588	27093
821.728	26887
821.868	26743
822.008	26663
822.149	26667
822.289	26594
822.429	26412
822.569	26324
822.709	26450
822.849	26233
822.99	26058
823.13	25993
823.27	26050
823.41	25883
823.55	25700
823.69	25887
823.83	25898
823.97	25887
824.11	25712
824.25	25712
824.389	25750
824.529	25864
824.669	25879
824.809	25841
824.949	25776
825.089	25845
825.228	25799
825.368	25533
825.508	25674
825.648	25662
825.787	25597
825.927	25632
826.067	25624
826.206	25677
826.346	25765
826.485	25662
826.625	25510
826.765	25655
826.904	25681
827.044	25460
827.183	25453
827.323	25362
827.462	25449
827.601	25312
827.741	25194
827.88	25373
828.02	25179
828.159	25270
828.298	25400
828.437	25472
828.577	25206
828.716	25377
828.855	25392
828.994	25034
829.134	25088
829.273	25038
829.412	25148
829.551	25012
829.69	25175
829.829	25015
829.968	25088
830.107	25129
830.246	25069
830.385	24970
830.524	25027
830.663	24875
830.802	24840
830.941	24684
831.08	24661
831.219	24696
831.357	24604
831.496	24859
831.635	24665
831.774	24696
831.913	24502
832.051	24460
832.19	24464
832.329	24483
832.467	24315
832.606	24433
832.744	24311
832.883	24445
833.022	24262
833.16	24376
833.299	24266
833.437	24365
833.576	24509
833.714	24262
833.852	24407
833.991	24433
834.129	24437
834.267	24547
834.406	24323
834.544	24350
834.682	24384
834.821	24353
834.959	24471
835.097	24369
835.235	24361
835.373	24346
835.511	24251
835.65	24247
835.788	24201
835.926	24125
836.064	23999
836.202	24091
836.34	24171
836.478	24319
836.615	24106
836.753	24178
836.891	24308
837.029	24182
837.167	24182
837.305	23954
837.443	24026
837.58	24072
837.718	24057
837.856	24121
837.993	23946
838.131	24030
838.269	23809
838.406	24095
838.544	23885
838.681	23672
838.819	23596
838.956	23528
839.094	23463
839.231	23455
839.369	23653
839.506	23863
839.643	23798
839.781	23604
839.918	23627
840.055	23493
840.193	23414
840.33	23490
840.467	23478
840.604	23539
840.742	23573
840.879	23311
841.016	23425
841.153	23345
841.29	23486
841.427	23440
841.564	23452
841.701	23387
841.838	23280
841.975	23421
842.112	23250
842.249	23212
842.385	23166
842.522	23425
842.659	23143
842.796	23121
842.933	23292
843.069	23216
843.206	23189
843.343	23265
843.479	23159
843.616	23223
843.752	22972
843.889	22980
844.025	23086
844.162	22854
844.298	23014
844.435	22938
844.571	22854
844.708	22949
844.844	23136
844.98	23155
845.117	23071
845.253	22980
845.389	22812
845.525	22843
845.661	22755
845.798	22675
845.934	22786
846.07	22691
846.206	22831
846.342	22862
846.478	22649
846.614	22432
846.75	22428
846.886	22394
847.022	22421
847.158	22432
847.294	22363
847.429	22554
847.565	22424
847.701	22660
847.837	22162
847.972	22040
848.108	22166
848.244	22272
848.379	22093
848.515	21930
848.65	22063
848.786	21972
848.921	22010
849.057	22070
849.192	22200
849.328	22044
849.463	22070
849.598	22070
849.734	21884
849.869	21953
850.004	21762
850.14	21808
850.275	21739
850.41	21717
850.545	21732
850.68	21751
850.815	21869
850.95	21663
851.085	22006
851.22	21819
851.355	21926
851.49	21812
851.625	21720
851.76	21728
851.895	21709
852.03	21709
852.165	21682
852.299	21907
852.434	21857
852.569	21770
852.703	21945
852.838	21903
852.973	21964
853.107	21937
853.242	21724
853.376	21568
853.511	21515
853.645	21542
853.78	21785
853.914	21633
854.048	21435
854.183	21530
854.317	21671
854.451	21846
854.585	21614
854.72	21549
854.854	21606
854.988	21591
855.122	21679
855.256	21492
855.39	21622
855.524	21698
855.658	21701
855.792	21648
855.926	21667
856.06	21682
856.194	21625
856.327	21553
856.461	21504
856.595	21698
856.729	21595
856.862	21724
856.996	21694
857.13	21591
857.263	21625
857.397	21724
857.53	21614
857.664	21656
857.797	21732
857.931	21656
858.064	21656
858.197	21717
858.331	21534
858.464	21564
858.597	21595
858.731	21583
858.864	21466
858.997	21538
859.13	21511
859.263	21564
859.396	21694
859.529	21435
859.662	21538
859.795	21500
859.928	21587
860.061	21671
860.194	21831
860.327	21656
860.46	21644
860.592	21686
860.725	21747
860.858	21778
860.99	21549
861.123	21530
861.256	21496
861.388	21564
861.521	22394
861.653	21542
861.786	21382
861.918	21447
862.05	21450
862.183	21618
862.315	21530
862.447	21542
862.58	21568
862.712	21370
862.844	21279
862.976	21412
863.108	21389
863.24	21545
863.372	21332
863.504	21298
863.636	21283
863.768	21401
863.9	21252
864.032	21298
864.164	21161
864.296	21252
864.428	21439
864.559	21424
864.691	21447
864.823	21272
864.954	21291
865.086	21245
865.217	21226
865.349	21135
865.48	21180
865.612	21245
865.743	21344
865.875	21264
866.006	21169
866.137	21317
866.269	21112
866.4	21176
866.531	21104
866.662	21161
866.793	21020
866.924	21150
867.055	21249
867.186	21173
867.317	21123
867.448	21047
867.579	21085
867.71	21112
867.841	21009
867.972	21123
868.103	21173
868.233	20998
868.364	21112
868.495	21272
868.625	21363
868.756	21443
868.886	21252
869.017	21462
869.147	21511
869.278	21488
869.408	21420
869.539	21355
869.669	21443
869.799	21348
869.929	21477
870.06	21393
870.19	21603
870.32	21614
870.45	21709
870.58	21682
870.71	21686
870.84	21861
870.97	21755
871.1	21739
871.23	21915
871.36	21991
871.489	21823
871.619	22002
871.749	21953
871.879	21968
872.008	22112
872.138	21964
872.267	21888
872.397	21945
872.526	21819
872.656	21694
872.785	21797
872.915	22090
873.044	21949
873.173	21804
873.303	21975
873.432	21994
873.561	22021
873.69	21937
873.819	21979
873.948	21953
874.077	22055
874.206	22055
874.335	21899
874.464	22059
874.593	22086
874.722	22169
874.851	22253
874.979	22272
875.108	22272
875.237	22234
875.365	22166
875.494	22265
875.623	22337
875.751	22166
875.88	22230
876.008	22356
876.136	22261
876.265	22660
876.393	22755
876.521	22653
876.65	22664
876.778	22596
876.906	22584
877.034	22413
877.162	22436
877.29	22371
877.418	22561
877.546	22584
877.674	22451
877.802	22523
877.93	22573
878.058	22508
878.185	22413
878.313	22531
878.441	22519
878.568	22405
878.696	22402
878.824	22580
878.951	22641
879.079	22790
879.206	22873
879.333	22577
879.461	22603
879.588	22717
879.715	22656
879.842	22721
879.97	22607
880.097	22333
880.224	22375
880.351	22405
880.478	22318
880.605	22276
880.732	22402
880.859	22580
880.986	22360
881.112	22352
881.239	22200
881.366	22093
881.493	22021
881.619	21903
881.746	21888
881.872	21987
881.999	21876
882.125	21808
882.252	21934
882.378	21987
882.505	21972
882.631	21701
882.757	21622
882.883	21797
883.01	21667
883.136	21583
883.262	21462
883.388	21401
883.514	21587
883.64	21720
883.766	21477
883.892	21466
884.018	21454
884.143	21496
884.269	21717
884.395	21359
884.52	21275
884.646	21294
884.772	21222
884.897	21192
885.023	21386
885.148	21325
885.274	21408
885.399	21268
885.524	21351
885.65	21260
885.775	21279
885.9	21340
886.025	21363
886.15	21325
886.275	21306
886.4	21165
886.525	21150
886.65	21230
886.775	21199
886.9	21317
887.025	21466
887.149	21329
887.274	21081
887.399	21001
887.523	21077
887.648	21058
887.773	20918
887.897	21089
888.021	21192
888.146	21062
888.27	21245
888.395	21131
888.519	21020
888.643	21077
888.767	21100
888.891	21051
889.015	20819
889.139	20956
889.263	20807
889.387	20998
889.511	21089
889.635	21036
889.759	20845
889.883	20754
890.006	20967
890.13	20921
890.254	20842
890.377	20731
890.501	20621
890.624	20366
890.748	20674
890.871	20556
890.995	20370
891.118	20415
891.241	20385
891.364	20408
891.488	20495
891.611	20374
891.734	20461
891.857	20526
891.98	20514
892.103	20560
892.226	20488
892.349	20374
892.471	20290
892.594	20355
892.717	20396
892.839	20305
892.962	20389
893.085	20377
893.207	20263
893.33	20214
893.452	20282
893.575	20313
893.697	20320
893.819	20522
893.941	20415
894.064	20495
894.186	20267
894.308	20237
894.43	20358
894.552	20480
894.674	20374
894.796	20103
894.918	20305
895.04	20210
895.161	20370
895.283	20347
895.405	20259
895.526	20400
895.648	20317
895.769	20275
895.891	20324
896.012	20469
896.134	20381
896.255	20294
896.376	20286
896.498	20351
896.619	20221
896.74	20332
896.861	20393
896.982	20727
897.103	20712
897.224	20670
897.345	20526
897.466	20461
897.587	20560
897.708	20568
897.828	20693
897.949	20396
898.07	20332
898.19	20530
898.311	20606
898.431	20564
898.552	20541
898.672	20590
898.792	20552
898.913	20522
899.033	20385
899.153	20393
899.273	20320
899.393	20259
899.513	20305
899.633	20282
899.753	20286
899.873	20248
899.993	20271
900.113	20142
900.232	20199
900.352	20263
900.472	20077
900.591	20081
900.711	20195
900.83	20027
900.95	20134
901.069	20005
901.189	19906
901.308	19780
901.427	19647
901.546	19700
901.665	19620
901.784	19742
901.904	19518
902.023	19476
902.141	19278
902.26	19148
902.379	19259
902.498	19240
902.617	19110
902.735	19175
902.854	19065
902.973	19084
903.091	18768
903.21	18844
903.328	18920
903.446	18757
903.565	18665
903.683	18661
903.801	18631
903.919	18650
904.038	18559
904.156	18448
904.274	18475
904.392	18525
904.51	18327
904.627	18327
904.745	18391
904.863	18407
904.981	18292
905.098	18076
905.216	18019
905.334	18148
905.451	18106
905.569	18011
905.686	18072
905.803	18045
905.921	17798
906.038	18022
906.155	17897
906.272	17802
906.389	17760
906.506	17619
906.623	17570
906.74	17558
906.857	17417
906.974	17528
907.091	17653
907.208	17668
907.324	17668
907.441	17486
907.557	17322
907.674	17311
907.79	17353
907.907	17303
908.023	17303
908.139	17341
908.256	17254
908.372	17166
908.488	17162
908.604	17029
908.72	16946
908.836	16999
908.952	16938
909.068	17025
909.184	17159
909.3	16991
909.415	17113
909.531	16995
909.647	16805
909.762	16797
909.878	16698
909.993	16778
910.108	16706
910.224	16778
910.339	16797
910.454	16653
910.57	16569
910.685	16493
910.8	16748
910.915	16649
911.03	16462
911.145	16356
911.259	16261
911.374	16379
911.489	16265
911.604	16192
911.718	16101
911.833	16101
911.947	15972
912.062	15869
912.176	16055
912.291	16074
912.405	16021
912.519	16246
912.633	16147
912.748	15994
912.862	16097
912.976	15835
913.09	15770
913.204	15823
913.318	15770
913.431	15994
913.545	15918
913.659	15953
913.772	15838
913.886	15736
914	15736
914.113	15846
914.226	15778
914.34	15736
914.453	15637
914.566	15709
914.68	15572
914.793	15466
914.906	15367
915.019	15412
915.132	15302
915.245	15275
915.358	15218
915.47	15332
915.583	15245
915.696	15268
915.809	15389
915.921	15306
916.034	15173
916.146	15207
916.259	15108
916.371	15165
916.483	15287
916.595	15157
916.708	15184
916.82	15093
916.932	15074
917.044	14990
917.156	15047
917.268	14853
917.38	14876
917.491	14906
917.603	14918
917.715	14956
917.826	15066
917.938	14853
918.049	14861
918.161	14883
918.272	15043
918.384	14982
918.495	14872
918.606	14758
918.717	14682
918.828	14651
918.939	14724
919.05	14499
919.161	14625
919.272	14530
919.383	14518
919.494	14678
919.604	14815
919.715	14686
919.826	14625
919.936	14655
920.047	14617
920.157	14602
920.267	14899
920.378	14689
920.488	14708
920.598	14712
920.708	14990
920.818	14678
920.928	14750
921.038	14849
921.148	14842
921.258	14545
921.368	14514
921.477	14385
921.587	14381
921.697	14248
921.806	14438
921.916	14290
922.025	14039
922.134	14043
922.244	13974
922.353	14062
922.462	13947
922.571	13883
922.68	13624
922.789	13666
922.898	13704
923.007	13647
923.116	13700
923.224	13597
923.333	13662
923.442	13529
923.55	13457
923.659	13559
923.767	13616
923.876	13400
923.984	13449
924.092	13381
924.201	13483
924.309	13392
924.417	13407
924.525	13335
924.633	13263
924.741	14035
924.849	13118
924.956	13168
925.064	13126
925.172	13019
925.279	13053
925.387	12985
925.494	13015
925.602	13168
925.709	13069
925.816	13027
925.924	12954
926.031	13061
926.138	12951
926.245	13023
926.352	12924
926.459	13023
926.566	13088
926.673	12954
926.779	12787
926.886	12817
926.993	12627
927.099	12608
927.206	12589
927.312	12623
927.419	12608
927.525	12642
927.631	12631
927.737	12528
927.843	12585
927.95	12388
928.056	12452
928.162	12532
928.267	12559
928.373	13046
928.479	12532
928.585	12266
928.69	12399
928.796	12391
928.901	12353
929.007	12201
929.112	12342
929.218	12228
929.323	12266
929.428	12114
929.533	12304
929.638	12015
929.743	12209
929.848	12091
929.953	12148
930.058	11950
930.163	11843
930.267	11904
930.372	11965
930.477	11832
930.581	12045
930.685	11958
930.79	11703
930.894	11718
930.998	11691
931.103	11847
931.207	11509
931.311	11330
931.415	11356
931.519	11109
931.623	11174
