Data from test_V78500241_2626.txt Node
Date: Fri Mar 25 15:28:08 CST 2022
User: usil
Spectrometer: V785-0024
Trigger mode: 0
Integration Time (sec): 4.000000E-1
Scans to average: 1
Nonlinearity correction enabled: false
Boxcar width: 0
Storing dark spectrum: false
XAxis mode: Wavelengths
Number of Pixels in Spectrum: 1024
>>>>>Begin Spectral Data<<<<<
801.071	27302
801.214	27233
801.356	26819
801.499	26918
801.641	26853
801.783	26583
801.926	26670
802.068	26667
802.211	26644
802.353	26678
802.496	26446
802.638	26412
802.78	26362
802.923	26267
803.065	26275
803.208	26317
803.35	26259
803.492	26408
803.635	26537
803.777	26377
803.919	26427
804.061	26800
804.204	26697
804.346	26530
804.488	26374
804.63	26526
804.773	26453
804.915	26484
805.057	26655
805.199	26434
805.341	26518
805.483	26564
805.626	26564
805.768	26423
805.91	26636
806.052	26644
806.194	26492
806.336	26689
806.478	26537
806.62	26495
806.762	26670
806.904	26975
807.046	27176
807.188	27070
807.33	26979
807.472	27077
807.614	26990
807.756	26906
807.898	26826
808.04	26857
808.182	26796
808.324	27005
808.465	26800
808.607	27051
808.749	27176
808.891	27344
809.033	27279
809.174	27184
809.316	27214
809.458	27138
809.6	27180
809.741	27367
809.883	27427
810.025	27367
810.166	27511
810.308	27424
810.45	27389
810.591	27519
810.733	27226
810.875	27173
811.016	27161
811.158	27096
811.299	27397
811.441	27351
811.582	27405
811.724	27180
811.865	27154
812.007	27058
812.148	27131
812.29	27199
812.431	27435
812.573	27363
812.714	27576
812.855	27652
812.997	27633
813.138	27812
813.279	27736
813.421	27724
813.562	27515
813.703	27568
813.845	27329
813.986	27150
814.127	26925
814.268	26861
814.41	26758
814.551	26914
814.692	26861
814.833	26785
814.974	26891
815.115	26769
815.256	26663
815.397	26708
815.539	26701
815.68	26629
815.821	26609
815.962	26750
816.103	26617
816.244	26499
816.385	26457
816.526	26351
816.666	26218
816.807	26069
816.948	26157
817.089	26214
817.23	26043
817.371	26142
817.512	26164
817.653	26092
817.793	26031
817.934	26111
818.075	26103
818.216	26073
818.356	26058
818.497	25936
818.638	25772
818.778	25833
818.919	25860
819.06	25769
819.2	26027
819.341	26153
819.481	26088
819.622	26324
819.762	26514
819.903	26393
820.043	26199
820.184	26298
820.324	26214
820.465	26206
820.605	26271
820.746	26088
820.886	26054
821.026	26218
821.167	26210
821.307	26183
821.447	26016
821.588	26088
821.728	25795
821.868	25746
822.008	25571
822.149	25624
822.289	25460
822.429	25324
822.569	25343
822.709	25285
822.849	25057
822.99	24977
823.13	25103
823.27	25000
823.41	25008
823.55	24894
823.69	24867
823.83	24962
823.97	24871
824.11	24795
824.25	24608
824.389	24661
824.529	24905
824.669	24642
824.809	24715
824.949	24719
825.089	24738
825.228	24669
825.368	24665
825.508	24612
825.648	24654
825.787	24601
825.927	24509
826.067	24551
826.206	24650
826.346	24650
826.485	24639
826.625	24593
826.765	24692
826.904	24601
827.044	24456
827.183	24407
827.323	24258
827.462	24277
827.601	24342
827.741	24471
827.88	24304
828.02	24186
828.159	24194
828.298	24220
828.437	24330
828.577	24266
828.716	24418
828.855	24281
828.994	23969
829.134	23973
829.273	24022
829.412	24022
829.551	23916
829.69	23992
829.829	23961
829.968	23996
830.107	24068
830.246	23996
830.385	23878
830.524	23923
830.663	23882
830.802	23783
830.941	23539
831.08	23615
831.219	23718
831.357	23684
831.496	23836
831.635	23672
831.774	23463
831.913	23406
832.051	23376
832.19	23353
832.329	23398
832.467	23258
832.606	23326
832.744	23356
832.883	23341
833.022	23307
833.16	23235
833.299	23379
833.437	23250
833.576	23334
833.714	23429
833.852	23425
833.991	23410
834.129	23459
834.267	23429
834.406	23212
834.544	23406
834.682	23349
834.821	23288
834.959	23467
835.097	23345
835.235	23356
835.373	23524
835.511	23379
835.65	23200
835.788	23185
835.926	23181
836.064	22965
836.202	23060
836.34	23284
836.478	23280
836.615	23239
836.753	23200
836.891	23250
837.029	23299
837.167	23204
837.305	23140
837.443	23124
837.58	22991
837.718	23075
837.856	23170
837.993	23033
838.131	23052
838.269	22942
838.406	23086
838.544	22793
838.681	22767
838.819	22744
838.956	22497
839.094	22466
839.231	22577
839.369	22687
839.506	22915
839.643	22706
839.781	22653
839.918	22451
840.055	22489
840.193	22561
840.33	22512
840.467	22432
840.604	22546
840.742	22782
840.879	22352
841.016	22375
841.153	22462
841.29	22531
841.427	22455
841.564	22470
841.701	22440
841.838	22500
841.975	22424
842.112	22360
842.249	22363
842.385	22272
842.522	22409
842.659	22318
842.796	22207
842.933	22177
843.069	22154
843.206	22192
843.343	22421
843.479	22192
843.616	22306
843.752	21983
843.889	22006
844.025	22162
844.162	21895
844.298	22070
844.435	22044
844.571	22029
844.708	21998
844.844	22200
844.98	22181
845.117	22109
845.253	21930
845.389	21865
845.525	21934
845.661	21964
845.798	21751
845.934	21865
846.07	21797
846.206	21686
846.342	21994
846.478	21690
846.614	21568
846.75	21462
846.886	21420
847.022	21538
847.158	21416
847.294	21504
847.429	21458
847.565	21469
847.701	21747
847.837	21138
847.972	21195
848.108	21252
848.244	21249
848.379	21089
848.515	21135
848.65	21093
848.786	21150
848.921	21123
849.057	21119
849.192	21188
849.328	21108
849.463	21074
849.598	20963
849.734	21009
849.869	20910
850.004	20823
850.14	20891
850.275	20796
850.41	20739
850.545	20895
850.68	20864
850.815	20823
850.95	20876
851.085	20990
851.22	20872
851.355	20857
851.49	20807
851.625	20724
851.76	20819
851.895	20689
852.03	20716
852.165	20792
852.299	20842
852.434	20743
852.569	20750
852.703	20720
852.838	20853
852.973	21005
853.107	20963
853.242	20708
853.376	20838
853.511	20571
853.645	20648
853.78	20716
853.914	20716
854.048	20602
854.183	20598
854.317	20670
854.451	20804
854.585	20708
854.72	20575
854.854	20731
854.988	20533
855.122	20632
855.256	20636
855.39	20670
855.524	20621
855.658	20705
855.792	20621
855.926	20712
856.06	20720
856.194	20807
856.327	20712
856.461	20720
856.595	20632
856.729	20587
856.862	20712
856.996	20609
857.13	20754
857.263	20777
857.397	20743
857.53	20689
857.664	20796
857.797	20788
857.931	20731
858.064	20617
858.197	20792
858.331	20697
858.464	20533
858.597	20568
858.731	20568
858.864	20583
858.997	20609
859.13	20590
859.263	20697
859.396	20701
859.529	20655
859.662	20492
859.795	20552
859.928	20678
860.061	20746
860.194	20838
860.327	20667
860.46	20648
860.592	20800
860.725	20762
860.858	20705
860.99	20629
861.123	20579
861.256	20583
861.388	20746
861.521	21310
861.653	20648
861.786	20503
861.918	20594
862.05	20625
862.183	20655
862.315	20640
862.447	20640
862.58	20492
862.712	20370
862.844	20290
862.976	20514
863.108	20366
863.24	20853
863.372	20336
863.504	20355
863.636	20347
863.768	20469
863.9	20339
864.032	20290
864.164	20358
864.296	20495
864.428	20484
864.559	20431
864.691	20457
864.823	20366
864.954	20358
865.086	20412
865.217	20183
865.349	20153
865.48	20278
865.612	20130
865.743	20328
865.875	20328
866.006	20183
866.137	20294
866.269	20259
866.4	20233
866.531	20164
866.662	20225
866.793	20267
866.924	20271
867.055	20210
867.186	20294
867.317	20214
867.448	20115
867.579	20218
867.71	20138
867.841	20096
867.972	20237
868.103	20183
868.233	20176
868.364	20282
868.495	20252
868.625	20503
868.756	20480
868.886	20480
869.017	20526
869.147	20625
869.278	20537
869.408	20518
869.539	20457
869.669	20541
869.799	20518
869.929	20609
870.06	20427
870.19	20788
870.32	20781
870.45	20830
870.58	20921
870.71	20895
870.84	20910
870.97	20823
871.1	20864
871.23	21077
871.36	21001
871.489	20925
871.619	20921
871.749	21051
871.879	21127
872.008	21230
872.138	21123
872.267	20986
872.397	20933
872.526	20937
872.656	20979
872.785	20876
872.915	21051
873.044	21161
873.173	21135
873.303	21230
873.432	21123
873.561	21256
873.69	21096
873.819	21100
873.948	21188
874.077	21005
874.206	20929
874.335	21211
874.464	21138
874.593	21393
874.722	21176
874.851	21386
874.979	21241
875.108	21344
875.237	21325
875.365	21275
875.494	21317
875.623	21439
875.751	21359
875.88	21454
876.008	21393
876.136	21473
876.265	21789
876.393	21838
876.521	21785
876.65	21861
876.778	21755
876.906	21542
877.034	21675
877.162	21724
877.29	21553
877.418	21736
877.546	21671
877.674	21671
877.802	21766
877.93	21682
878.058	21667
878.185	21511
878.313	21610
878.441	21648
878.568	21595
878.696	21473
878.824	21778
878.951	21785
879.079	21774
879.206	21956
879.333	21918
879.461	21823
879.588	21747
879.715	21907
879.842	21876
879.97	21713
880.097	21496
880.224	21504
880.351	21538
880.478	21545
880.605	21416
880.732	21633
880.859	21739
880.986	21530
881.112	21439
881.239	21443
881.366	21214
881.493	21207
881.619	21135
881.746	21119
881.872	20925
881.999	21051
882.125	20975
882.252	21176
882.378	21001
882.505	21039
882.631	20891
882.757	20887
882.883	20880
883.01	20868
883.136	20826
883.262	20716
883.388	20564
883.514	20807
883.64	20906
883.766	20693
883.892	20541
884.018	20549
884.143	20815
884.269	20853
884.395	20518
884.52	20370
884.646	20488
884.772	20454
884.897	20355
885.023	20480
885.148	20541
885.274	20629
885.399	20537
885.524	20461
885.65	20503
885.775	20480
885.9	20530
886.025	20522
886.15	20579
886.275	20362
886.4	20377
886.525	20457
886.65	20377
886.775	20400
886.9	20503
887.025	20514
887.149	20454
887.274	20317
887.399	20100
887.523	20180
887.648	20290
887.773	20237
887.897	20263
888.021	20221
888.146	20168
888.27	20396
888.395	20275
888.519	20172
888.643	20195
888.767	20259
888.891	20031
889.015	19928
889.139	20073
889.263	19951
889.387	20138
889.511	20206
889.635	20145
889.759	20092
889.883	20027
890.006	19875
890.13	20149
890.254	20069
890.377	19951
890.501	19791
890.624	19753
890.748	19731
890.871	19704
890.995	19571
891.118	19594
891.241	19643
891.364	19556
891.488	19799
891.611	19658
891.734	19647
891.857	19715
891.98	19674
892.103	19658
892.226	19582
892.349	19506
892.471	19377
892.594	19563
892.717	19689
892.839	19491
892.962	19658
893.085	19582
893.207	19582
893.33	19411
893.452	19419
893.575	19639
893.697	19590
893.819	19765
893.941	19757
894.064	19651
894.186	19544
894.308	19510
894.43	19704
894.552	19731
894.674	19594
894.796	19525
894.918	19525
895.04	19487
895.161	19616
895.283	19685
895.405	19537
895.526	19601
895.648	19559
895.769	19628
895.891	19601
896.012	19552
896.134	19643
896.255	19556
896.376	19487
896.498	19480
896.619	19601
896.74	19666
896.861	19689
896.982	19822
897.103	20073
897.224	19875
897.345	19803
897.466	19681
897.587	19803
897.708	19936
897.828	19784
897.949	19868
898.07	19788
898.19	19788
898.311	19837
898.431	19757
898.552	19826
898.672	19925
898.792	19845
898.913	19780
899.033	19635
899.153	19609
899.273	19601
899.393	19472
899.513	19537
899.633	19578
899.753	19567
899.873	19518
899.993	19662
900.113	19529
900.232	19571
900.352	19449
900.472	19365
900.591	19320
900.711	19369
900.83	19362
900.95	19369
901.069	19381
901.189	19164
901.308	19031
901.427	18909
901.546	18905
901.665	18871
901.784	18928
901.904	18715
902.023	18616
902.141	18612
902.26	18498
902.379	18551
902.498	18452
902.617	18395
902.735	18399
902.854	18441
902.973	18403
903.091	18277
903.21	18239
903.328	18079
903.446	18095
903.565	17965
903.683	17969
903.801	17901
903.919	17836
904.038	17897
904.156	17813
904.274	17855
904.392	17745
904.51	17668
904.627	17726
904.745	17703
904.863	17741
904.981	17425
905.098	17448
905.216	17391
905.334	17376
905.451	17490
905.569	17421
905.686	17345
905.803	17341
905.921	17151
906.038	17242
906.155	17220
906.272	17086
906.389	17075
906.506	16991
906.623	16995
906.74	16904
906.857	16809
906.974	16767
907.091	16930
907.208	17010
907.324	16881
907.441	16862
907.557	16721
907.674	16645
907.79	16622
907.907	16634
908.023	16710
908.139	16668
908.256	16535
908.372	16577
908.488	16485
908.604	16440
908.72	16417
908.836	16280
908.952	16268
909.068	16318
909.184	16375
909.3	16451
909.415	16337
909.531	16344
909.647	16055
909.762	16090
909.878	16063
909.993	16051
910.108	16078
910.224	16040
910.339	16059
910.454	15854
910.57	15945
910.685	15812
910.8	16131
910.915	16021
911.03	15907
911.145	15633
911.259	15675
911.374	15663
911.489	15580
911.604	15610
911.718	15431
911.833	15401
911.947	15458
912.062	15294
912.176	15469
912.291	15530
912.405	15496
912.519	15671
912.633	15595
912.748	15401
912.862	15359
912.976	15237
913.09	15188
913.204	15195
913.318	15272
913.431	15367
913.545	15313
913.659	15367
913.772	15313
913.886	15066
914	15112
914.113	15161
914.226	15142
914.34	15123
914.453	14956
914.566	15100
914.68	14986
914.793	15005
914.906	14800
915.019	14583
915.132	14670
915.245	14727
915.358	14617
915.47	14727
915.583	14674
915.696	14682
915.809	14777
915.921	14705
916.034	14564
916.146	14541
916.259	14606
916.371	14655
916.483	14663
916.595	14412
916.708	14610
916.82	14454
916.932	14511
917.044	14442
917.156	14469
917.268	14332
917.38	14385
917.491	14362
917.603	14355
917.715	14495
917.826	14476
917.938	14237
918.049	14233
918.161	14298
918.272	14412
918.384	14389
918.495	14328
918.606	14172
918.717	14119
918.828	14176
918.939	14240
919.05	13989
919.161	14043
919.272	13879
919.383	13932
919.494	14149
919.604	14278
919.715	14088
919.826	14054
919.936	14043
920.047	14138
920.157	14157
920.267	14252
920.378	14164
920.488	14103
920.598	14290
920.708	14362
920.818	14142
920.928	14244
921.038	14393
921.148	14317
921.258	14092
921.368	13917
921.477	13871
921.587	13776
921.697	13685
921.806	13868
921.916	13647
922.025	13457
922.134	13582
922.244	13491
922.353	13521
922.462	13354
922.571	13358
922.68	13190
922.789	13251
922.898	13198
923.007	12996
923.116	13190
923.224	13091
923.333	13099
923.442	12951
923.55	13008
923.659	12985
923.767	13103
923.876	12939
923.984	12996
924.092	12905
924.201	12928
924.309	12863
924.417	12928
924.525	12844
924.633	12878
924.741	13811
924.849	12498
924.956	12791
925.064	12601
925.172	12464
925.279	12506
925.387	12601
925.494	12494
925.602	12631
925.709	12616
925.816	12483
925.924	12585
926.031	12574
926.138	12464
926.245	12627
926.352	12414
926.459	12589
926.566	12570
926.673	12471
926.779	12327
926.886	12369
926.993	12243
927.099	12155
927.206	12117
927.312	12133
927.419	12228
927.525	12117
927.631	12087
927.737	11961
927.843	12091
927.95	11828
928.056	11973
928.162	12045
928.267	12133
928.373	12483
928.479	11980
928.585	11813
928.69	11889
928.796	11996
928.901	11897
929.007	11676
929.112	11828
929.218	11767
929.323	11726
929.428	11672
929.533	11885
929.638	11665
929.743	11657
929.848	11752
929.953	11627
930.058	11600
930.163	11448
930.267	11402
930.372	11535
930.477	11254
930.581	11665
930.685	11528
930.79	11284
930.894	11307
930.998	11269
931.103	11315
931.207	11113
931.311	11048
931.415	10919
931.519	10622
931.623	10641
