Data from test_V78500241_2244.txt Node
Date: Fri Mar 25 15:25:29 CST 2022
User: usil
Spectrometer: V785-0024
Trigger mode: 0
Integration Time (sec): 4.000000E-1
Scans to average: 1
Nonlinearity correction enabled: false
Boxcar width: 0
Storing dark spectrum: false
XAxis mode: Wavelengths
Number of Pixels in Spectrum: 1024
>>>>>Begin Spectral Data<<<<<
801.071	27869
801.214	27671
801.356	27374
801.499	27382
801.641	27313
801.783	27264
801.926	27443
802.068	27370
802.211	27180
802.353	27184
802.496	27047
802.638	26982
802.78	26963
802.923	26937
803.065	26739
803.208	26887
803.35	26868
803.492	27142
803.635	27195
803.777	26982
803.919	27138
804.061	27462
804.204	27214
804.346	27020
804.488	27131
804.63	27230
804.773	27165
804.915	27192
805.057	27389
805.199	27169
805.341	27093
805.483	27249
805.626	27294
805.768	27074
805.91	27272
806.052	27340
806.194	27233
806.336	27416
806.478	27233
806.62	27241
806.762	27291
806.904	27667
807.046	27747
807.188	27637
807.33	27675
807.472	27850
807.614	27698
807.756	27667
807.898	27496
808.04	27507
808.182	27431
808.324	27656
808.465	27656
808.607	27785
808.749	27945
808.891	27991
809.033	28143
809.174	27994
809.316	27914
809.458	27846
809.6	27781
809.741	27998
809.883	28055
810.025	28185
810.166	28223
810.308	28234
810.45	28249
810.591	28196
810.733	27907
810.875	27983
811.016	27762
811.158	27857
811.299	27968
811.441	28181
811.582	28082
811.724	27930
811.865	27960
812.007	27934
812.148	27732
812.29	27907
812.431	27991
812.573	28048
812.714	28310
812.855	28382
812.997	28409
813.138	28698
813.279	28694
813.421	28314
813.562	28322
813.703	28105
813.845	28059
813.986	27793
814.127	27583
814.268	27564
814.41	27633
814.551	27488
814.692	27618
814.833	27576
814.974	27591
815.115	27717
815.256	27378
815.397	27401
815.539	27469
815.68	27306
815.821	27317
815.962	27416
816.103	27367
816.244	27233
816.385	27218
816.526	27100
816.666	27077
816.807	26925
816.948	26876
817.089	27005
817.23	26792
817.371	26940
817.512	26804
817.653	26804
817.793	26796
817.934	26921
818.075	26777
818.216	26944
818.356	26785
818.497	26712
818.638	26579
818.778	26697
818.919	26678
819.06	26697
819.2	26765
819.341	26880
819.481	26872
819.622	27062
819.762	27104
819.903	27093
820.043	27047
820.184	27009
820.324	27074
820.465	26906
820.605	26975
820.746	26952
820.886	26796
821.026	26929
821.167	26914
821.307	26815
821.447	26864
821.588	26762
821.728	26670
821.868	26434
822.008	26271
822.149	26278
822.289	26199
822.429	26008
822.569	26005
822.709	26065
822.849	25776
822.99	25837
823.13	25742
823.27	25742
823.41	25590
823.55	25613
823.69	25601
823.83	25578
823.97	25601
824.11	25327
824.25	25499
824.389	25373
824.529	25362
824.669	25521
824.809	25658
824.949	25537
825.089	25495
825.228	25582
825.368	25285
825.508	25225
825.648	25236
825.787	25327
825.927	25476
826.067	25308
826.206	25358
826.346	25343
826.485	25289
826.625	25381
826.765	25297
826.904	25346
827.044	25156
827.183	25206
827.323	25148
827.462	25110
827.601	25019
827.741	25110
827.88	25004
828.02	24791
828.159	24989
828.298	25008
828.437	25114
828.577	24977
828.716	25141
828.855	25099
828.994	24642
829.134	24730
829.273	24768
829.412	24654
829.551	24661
829.69	24646
829.829	24578
829.968	24688
830.107	24741
830.246	24692
830.385	24738
830.524	24547
830.663	24601
830.802	24441
830.941	24338
831.08	24228
831.219	24376
831.357	24410
831.496	24563
831.635	24502
831.774	24228
831.913	24194
832.051	24228
832.19	24155
832.329	24159
832.467	24079
832.606	23935
832.744	23855
832.883	24076
833.022	24026
833.16	23897
833.299	23939
833.437	23973
833.576	24057
833.714	24026
833.852	24049
833.991	24174
834.129	24163
834.267	24114
834.406	24015
834.544	24079
834.682	24049
834.821	24095
834.959	24247
835.097	23950
835.235	24098
835.373	23988
835.511	23969
835.65	23878
835.788	23878
835.926	23821
836.064	23695
836.202	23672
836.34	23935
836.478	24015
836.615	23950
836.753	23901
836.891	23996
837.029	23889
837.167	23859
837.305	23710
837.443	23691
837.58	23691
837.718	23748
837.856	23741
837.993	23672
838.131	23729
838.269	23562
838.406	23680
838.544	23505
838.681	23406
838.819	23307
838.956	23113
839.094	23124
839.231	23326
839.369	23258
839.506	23520
839.643	23467
839.781	23235
839.918	23162
840.055	23181
840.193	23185
840.33	23132
840.467	23113
840.604	23048
840.742	23345
840.879	22961
841.016	23010
841.153	23014
841.29	23159
841.427	23022
841.564	23071
841.701	23075
841.838	22904
841.975	22946
842.112	22968
842.249	22942
842.385	22824
842.522	23037
842.659	22915
842.796	22793
842.933	22885
843.069	22930
843.206	22801
843.343	22850
843.479	22881
843.616	22976
843.752	22710
843.889	22622
844.025	22839
844.162	22702
844.298	22725
844.435	22573
844.571	22596
844.708	22653
844.844	22763
844.98	22793
845.117	22755
845.253	22626
845.389	22554
845.525	22542
845.661	22474
845.798	22352
845.934	22417
846.07	22238
846.206	22356
846.342	22447
846.478	22386
846.614	22173
846.75	21972
846.886	22131
847.022	22158
847.158	22139
847.294	22086
847.429	22166
847.565	22086
847.701	22337
847.837	21861
847.972	21857
848.108	21953
848.244	21842
848.379	21778
848.515	21793
848.65	21720
848.786	21644
848.921	21622
849.057	21865
849.192	21778
849.328	21736
849.463	21690
849.598	21690
849.734	21629
849.869	21568
850.004	21500
850.14	21511
850.275	21393
850.41	21500
850.545	21538
850.68	21344
850.815	21504
850.95	21481
851.085	21507
851.22	21507
851.355	21439
851.49	21359
851.625	21370
851.76	21454
851.895	21272
852.03	21348
852.165	21435
852.299	21435
852.434	21439
852.569	21526
852.703	21450
852.838	21473
852.973	21534
853.107	21561
853.242	21378
853.376	21283
853.511	21142
853.645	21233
853.78	21401
853.914	21332
854.048	21336
854.183	21348
854.317	21367
854.451	21564
854.585	21329
854.72	21188
854.854	21233
854.988	21302
855.122	21203
855.256	21127
855.39	21135
855.524	21291
855.658	21370
855.792	21268
855.926	21256
856.06	21241
856.194	21408
856.327	21249
856.461	21195
856.595	21123
856.729	21230
856.862	21321
856.996	21211
857.13	21363
857.263	21336
857.397	21469
857.53	21272
857.664	21351
857.797	21386
857.931	21477
858.064	21344
858.197	21382
858.331	21272
858.464	21241
858.597	21085
858.731	21252
858.864	21176
858.997	21275
859.13	21249
859.263	21321
859.396	21389
859.529	21329
859.662	21268
859.795	21131
859.928	21214
860.061	21443
860.194	21504
860.327	21466
860.46	21298
860.592	21321
860.725	21359
860.858	21363
860.99	21192
861.123	21226
861.256	21169
861.388	21283
861.521	21861
861.653	21203
861.786	21176
861.918	21104
862.05	21173
862.183	21184
862.315	21226
862.447	21283
862.58	21249
862.712	20868
862.844	20963
862.976	21108
863.108	21051
863.24	21355
863.372	20872
863.504	20918
863.636	20914
863.768	20967
863.9	20990
864.032	20952
864.164	21020
864.296	21032
864.428	21108
864.559	21009
864.691	21108
864.823	21024
864.954	20998
865.086	20906
865.217	20986
865.349	20811
865.48	20902
865.612	20956
865.743	21100
865.875	20819
866.006	20693
866.137	20773
866.269	20899
866.4	20750
866.531	20762
866.662	20857
866.793	20739
866.924	20750
867.055	20834
867.186	20899
867.317	20876
867.448	20746
867.579	20769
867.71	20701
867.841	20773
867.972	20880
868.103	20773
868.233	20853
868.364	20788
868.495	20864
868.625	21001
868.756	21142
868.886	21047
869.017	20994
869.147	21138
869.278	21195
869.408	21077
869.539	21108
869.669	21108
869.799	21108
869.929	21230
870.06	21070
870.19	21329
870.32	21313
870.45	21325
870.58	21447
870.71	21644
870.84	21549
870.97	21485
871.1	21504
871.23	21523
871.36	21625
871.489	21507
871.619	21587
871.749	21652
871.879	21686
872.008	21770
872.138	21629
872.267	21557
872.397	21576
872.526	21488
872.656	21511
872.785	21412
872.915	21667
873.044	21846
873.173	21648
873.303	21618
873.432	21663
873.561	21774
873.69	21728
873.819	21690
873.948	21759
874.077	21610
874.206	21538
874.335	21622
874.464	21800
874.593	21831
874.722	21838
874.851	21865
874.979	22059
875.108	21865
875.237	21800
875.365	21785
875.494	21846
875.623	22025
875.751	21804
875.88	21953
876.008	22097
876.136	21934
876.265	22375
876.393	22367
876.521	22356
876.65	22398
876.778	22360
876.906	22207
877.034	22158
877.162	22226
877.29	22207
877.418	22310
877.546	22314
877.674	22284
877.802	22188
877.93	22139
878.058	22226
878.185	22082
878.313	22181
878.441	22120
878.568	22128
878.696	22234
878.824	22379
878.951	22375
879.079	22371
879.206	22497
879.333	22398
879.461	22291
879.588	22352
879.715	22405
879.842	22592
879.97	22276
880.097	22051
880.224	22051
880.351	22154
880.478	22055
880.605	22055
880.732	22093
880.859	22310
880.986	22082
881.112	22150
881.239	22021
881.366	21690
881.493	21717
881.619	21606
881.746	21736
881.872	21572
881.999	21595
882.125	21633
882.252	21739
882.378	21675
882.505	21663
882.631	21496
882.757	21420
882.883	21348
883.01	21363
883.136	21249
883.262	21199
883.388	21180
883.514	21439
883.64	21428
883.766	21329
883.892	21047
884.018	21157
884.143	21093
884.269	21386
884.395	20941
884.52	21047
884.646	20994
884.772	20952
884.897	20895
885.023	21024
885.148	21169
885.274	21047
885.399	21089
885.524	20971
885.65	21043
885.775	20918
885.9	20937
886.025	21039
886.15	21062
886.275	21001
886.4	20861
886.525	20990
886.65	20857
886.775	20910
886.9	21077
887.025	21237
887.149	21005
887.274	20804
887.399	20712
887.523	20762
887.648	20663
887.773	20617
887.897	20861
888.021	20868
888.146	20754
888.27	20800
888.395	20880
888.519	20781
888.643	20663
888.767	20883
888.891	20594
889.015	20621
889.139	20606
889.263	20602
889.387	20708
889.511	20826
889.635	20625
889.759	20381
889.883	20503
890.006	20583
890.13	20564
890.254	20415
890.377	20434
890.501	20256
890.624	20195
890.748	20393
890.871	20142
890.995	20115
891.118	20092
891.241	20221
891.364	20199
891.488	20153
891.611	20122
891.734	20142
891.857	20069
891.98	20122
892.103	20126
892.226	20176
892.349	20084
892.471	19822
892.594	20096
892.717	20134
892.839	19997
892.962	19940
893.085	20168
893.207	20092
893.33	19963
893.452	19951
893.575	20107
893.697	19963
893.819	20183
893.941	20164
894.064	20180
894.186	20035
894.308	19864
894.43	20157
894.552	20233
894.674	20069
894.796	20008
894.918	19982
895.04	19978
895.161	20221
895.283	20027
895.405	19978
895.526	20024
895.648	19997
895.769	20046
895.891	19959
896.012	19997
896.134	20077
896.255	19883
896.376	19989
896.498	19959
896.619	20024
896.74	20088
896.861	20172
896.982	20518
897.103	20533
897.224	20389
897.345	20240
897.466	20130
897.587	20229
897.708	20385
897.828	20351
897.949	20195
898.07	20046
898.19	20210
898.311	20404
898.431	20191
898.552	20267
898.672	20336
898.792	20290
898.913	20267
899.033	20164
899.153	20035
899.273	20039
899.393	20027
899.513	20103
899.633	19997
899.753	19997
899.873	19928
899.993	19947
900.113	20058
900.232	20001
900.352	19860
900.472	19887
900.591	19765
900.711	19826
900.83	19742
900.95	19761
901.069	19902
901.189	19765
901.308	19392
901.427	19392
901.546	19362
901.665	19426
901.784	19354
901.904	19236
902.023	19168
902.141	19012
902.26	19031
902.379	19072
902.498	18924
902.617	18825
902.735	18951
902.854	18901
902.973	18734
903.091	18639
903.21	18464
903.328	18528
903.446	18467
903.565	18418
903.683	18467
903.801	18353
903.919	18304
904.038	18254
904.156	18064
904.274	18197
904.392	18045
904.51	18155
904.627	18110
904.745	18194
904.863	18057
904.981	17999
905.098	17665
905.216	17752
905.334	17802
905.451	17847
905.569	17786
905.686	17802
905.803	17813
905.921	17577
906.038	17771
906.155	17611
906.272	17452
906.389	17566
906.506	17337
906.623	17315
906.74	17216
906.857	17235
906.974	17303
907.091	17379
907.208	17448
907.324	17204
907.441	17261
907.557	17151
907.674	17045
907.79	16976
907.907	16965
908.023	17094
908.139	17071
908.256	16957
908.372	16965
908.488	16961
908.604	16774
908.72	16763
908.836	16801
908.952	16698
909.068	16858
909.184	16915
909.3	16759
909.415	16831
909.531	16767
909.647	16611
909.762	16577
909.878	16443
909.993	16360
910.108	16485
910.224	16337
910.339	16360
910.454	16360
910.57	16314
910.685	16272
910.8	16432
910.915	16402
911.03	16253
911.145	16109
911.259	16097
911.374	16101
911.489	15991
911.604	15911
911.718	15808
911.833	15774
911.947	15701
912.062	15705
912.176	15770
912.291	15766
912.405	15823
912.519	15987
912.633	15945
912.748	15785
912.862	15755
912.976	15656
913.09	15652
913.204	15568
913.318	15530
913.431	15618
913.545	15701
913.659	15675
913.772	15538
913.886	15454
914	15450
914.113	15454
914.226	15538
914.34	15469
914.453	15279
914.566	15454
914.68	15272
914.793	15283
914.906	15089
915.019	15017
915.132	15024
915.245	14960
915.358	15055
915.47	15070
915.583	15051
915.696	15043
915.809	15161
915.921	15195
916.034	15017
916.146	14910
916.259	14857
916.371	15001
916.483	14861
916.595	14864
916.708	14807
916.82	14807
916.932	14918
917.044	14750
917.156	14807
917.268	14697
917.38	14708
917.491	14625
917.603	14777
917.715	14724
917.826	14777
917.938	14644
918.049	14507
918.161	14602
918.272	14781
918.384	14693
918.495	14632
918.606	14499
918.717	14393
918.828	14488
918.939	14488
919.05	14389
919.161	14389
919.272	14187
919.383	14351
919.494	14514
919.604	14617
919.715	14450
919.826	14305
919.936	14454
920.047	14518
920.157	14385
920.267	14560
920.378	14446
920.488	14412
920.598	14613
920.708	14682
920.818	14587
920.928	14533
921.038	14739
921.148	14689
921.258	14320
921.368	14309
921.477	14206
921.587	14123
921.697	14123
921.806	14161
921.916	14077
922.025	13830
922.134	13822
922.244	13719
922.353	13761
922.462	13651
922.571	13685
922.68	13464
922.789	13392
922.898	13441
923.007	13415
923.116	13491
923.224	13384
923.333	13457
923.442	13350
923.55	13263
923.659	13320
923.767	13301
923.876	13232
923.984	13289
924.092	13046
924.201	13236
924.309	13202
924.417	13129
924.525	13133
924.633	13164
924.741	13830
924.849	12928
924.956	13091
925.064	12886
925.172	12825
925.279	12924
925.387	12901
925.494	12882
925.602	13072
925.709	12867
925.816	12768
925.924	12875
926.031	12901
926.138	12760
926.245	12738
926.352	12779
926.459	12924
926.566	12848
926.673	12764
926.779	12593
926.886	12654
926.993	12502
927.099	12407
927.206	12456
927.312	12418
927.419	12448
927.525	12399
927.631	12456
927.737	12422
927.843	12323
927.95	12117
928.056	12251
928.162	12220
928.267	12292
928.373	12928
928.479	12357
928.585	12091
928.69	12194
928.796	12144
928.901	12163
929.007	11973
929.112	12194
929.218	12068
929.323	12083
929.428	11969
929.533	12095
929.638	11942
929.743	12007
929.848	11984
929.953	11923
930.058	11809
930.163	11695
930.267	11604
930.372	11760
930.477	11676
930.581	11832
930.685	11722
930.79	11558
930.894	11585
930.998	11577
931.103	11672
931.207	11277
931.311	11296
931.415	11086
931.519	11022
931.623	11033
