Data from test_V78500241_1338.txt Node
Date: Fri Mar 25 15:19:10 CST 2022
User: usil
Spectrometer: V785-0024
Trigger mode: 0
Integration Time (sec): 4.000000E-1
Scans to average: 1
Nonlinearity correction enabled: false
Boxcar width: 0
Storing dark spectrum: false
XAxis mode: Wavelengths
Number of Pixels in Spectrum: 1024
>>>>>Begin Spectral Data<<<<<
801.071	28032
801.214	27884
801.356	27747
801.499	27576
801.641	27492
801.783	27462
801.926	27667
802.068	27515
802.211	27443
802.353	27416
802.496	27233
802.638	27264
802.78	27108
802.923	27108
803.065	27089
803.208	27108
803.35	27157
803.492	27408
803.635	27462
803.777	27302
803.919	27389
804.061	27614
804.204	27511
804.346	27408
804.488	27264
804.63	27317
804.773	27241
804.915	27439
805.057	27466
805.199	27275
805.341	27447
805.483	27614
805.626	27424
805.768	27355
805.91	27382
806.052	27587
806.194	27462
806.336	27625
806.478	27576
806.62	27671
806.762	27637
806.904	27907
807.046	27979
807.188	27960
807.33	28067
807.472	27842
807.614	27911
807.756	27911
807.898	27888
808.04	27800
808.182	27793
808.324	27865
808.465	27884
808.607	28032
808.749	28147
808.891	28261
809.033	28295
809.174	28367
809.316	28192
809.458	28090
809.6	28154
809.741	28299
809.883	28390
810.025	28443
810.166	28451
810.308	28356
810.45	28310
810.591	28348
810.733	28265
810.875	28185
811.016	28097
811.158	28162
811.299	28246
811.441	28428
811.582	28379
811.724	28226
811.865	28124
812.007	28177
812.148	28158
812.29	28268
812.431	28459
812.573	28440
812.714	28687
812.855	28793
812.997	28801
813.138	28957
813.279	28831
813.421	28767
813.562	28698
813.703	28531
813.845	28462
813.986	28150
814.127	28120
814.268	27972
814.41	27937
814.551	27892
814.692	27991
814.833	27743
814.974	27842
815.115	28074
815.256	27690
815.397	27781
815.539	27869
815.68	27797
815.821	27595
815.962	27876
816.103	27682
816.244	27557
816.385	27450
816.526	27458
816.666	27393
816.807	27081
816.948	27180
817.089	27344
817.23	27123
817.371	27214
817.512	27287
817.653	27237
817.793	27077
817.934	27184
818.075	27135
818.216	27283
818.356	27127
818.497	27039
818.638	27047
818.778	26982
818.919	26960
819.06	26986
819.2	27161
819.341	27157
819.481	27203
819.622	27275
819.762	27599
819.903	27431
820.043	27374
820.184	27135
820.324	27359
820.465	27302
820.605	27393
820.746	27214
820.886	27104
821.026	27207
821.167	27135
821.307	27230
821.447	27100
821.588	27127
821.728	27028
821.868	26895
822.008	26670
822.149	26689
822.289	26625
822.429	26404
822.569	26317
822.709	26431
822.849	26176
822.99	26138
823.13	26187
823.27	26119
823.41	26043
823.55	25925
823.69	26096
823.83	26001
823.97	26005
824.11	25761
824.25	25791
824.389	25738
824.529	25734
824.669	25849
824.809	25936
824.949	25879
825.089	26027
825.228	25906
825.368	25628
825.508	25723
825.648	25662
825.787	25723
825.927	25761
826.067	25757
826.206	25670
826.346	25757
826.485	25616
826.625	25616
826.765	25712
826.904	25670
827.044	25495
827.183	25544
827.323	25518
827.462	25533
827.601	25491
827.741	25324
827.88	25407
828.02	25339
828.159	25297
828.298	25434
828.437	25464
828.577	25324
828.716	25479
828.855	25304
828.994	25168
829.134	25012
829.273	25209
829.412	25114
829.551	25137
829.69	25145
829.829	25057
829.968	25171
830.107	25331
830.246	25110
830.385	24928
830.524	24989
830.663	24875
830.802	24829
830.941	24810
831.08	24574
831.219	24753
831.357	24730
831.496	24875
831.635	24665
831.774	24696
831.913	24582
832.051	24479
832.19	24486
832.329	24623
832.467	24357
832.606	24350
832.744	24479
832.883	24308
833.022	24323
833.16	24509
833.299	24445
833.437	24418
833.576	24494
833.714	24498
833.852	24547
833.991	24528
834.129	24547
834.267	24498
834.406	24547
834.544	24433
834.682	24403
834.821	24391
834.959	24627
835.097	24285
835.235	24422
835.373	24452
835.511	24365
835.65	24277
835.788	24258
835.926	24114
836.064	24072
836.202	24095
836.34	24346
836.478	24304
836.615	24292
836.753	24281
836.891	24353
837.029	24239
837.167	24152
837.305	24216
837.443	24220
837.58	24167
837.718	24201
837.856	24076
837.993	24015
838.131	24087
838.269	23904
838.406	23992
838.544	23878
838.681	23889
838.819	23687
838.956	23668
839.094	23573
839.231	23623
839.369	23707
839.506	24079
839.643	23889
839.781	23627
839.918	23600
840.055	23649
840.193	23604
840.33	23467
840.467	23668
840.604	23509
840.742	23703
840.879	23429
841.016	23334
841.153	23372
841.29	23665
841.427	23570
841.564	23528
841.701	23482
841.838	23509
841.975	23455
842.112	23360
842.249	23277
842.385	23326
842.522	23429
842.659	23315
842.796	23311
842.933	23208
843.069	23170
843.206	23322
843.343	23440
843.479	23391
843.616	23239
843.752	23151
843.889	23090
844.025	23121
844.162	22965
844.298	23212
844.435	23098
844.571	23048
844.708	23022
844.844	23189
844.98	23121
845.117	23200
845.253	22938
845.389	22824
845.525	23025
845.661	22854
845.798	22721
845.934	22919
846.07	22771
846.206	22755
846.342	22980
846.478	22759
846.614	22622
846.75	22371
846.886	22603
847.022	22580
847.158	22580
847.294	22519
847.429	22679
847.565	22459
847.701	22786
847.837	22211
847.972	22322
848.108	22382
848.244	22398
848.379	22135
848.515	22109
848.65	22147
848.786	22040
848.921	22173
849.057	22204
849.192	22249
849.328	22287
849.463	22093
849.598	22143
849.734	22067
849.869	21884
850.004	21956
850.14	21987
850.275	21793
850.41	21789
850.545	21762
850.68	21850
850.815	21941
850.95	21854
851.085	21865
851.22	21979
851.355	21800
851.49	21930
851.625	21739
851.76	21751
851.895	21827
852.03	21755
852.165	21781
852.299	21846
852.434	21953
852.569	21934
852.703	21899
852.838	22002
852.973	21876
853.107	21949
853.242	21800
853.376	21793
853.511	21759
853.645	21629
853.78	21808
853.914	21762
854.048	21660
854.183	21652
854.317	21682
854.451	21857
854.585	21675
854.72	21705
854.854	21698
854.988	21675
855.122	21652
855.256	21538
855.39	21622
855.524	21789
855.658	21785
855.792	21736
855.926	21808
856.06	21804
856.194	21751
856.327	21603
856.461	21538
856.595	21572
856.729	21705
856.862	21797
856.996	21747
857.13	21743
857.263	21728
857.397	21720
857.53	21789
857.664	21759
857.797	21766
857.931	21800
858.064	21720
858.197	21770
858.331	21534
858.464	21542
858.597	21538
858.731	21576
858.864	21542
858.997	21618
859.13	21637
859.263	21625
859.396	21747
859.529	21720
859.662	21610
859.795	21606
859.928	21652
860.061	21827
860.194	21838
860.327	21732
860.46	21736
860.592	21869
860.725	21850
860.858	21819
860.99	21785
861.123	21564
861.256	21625
861.388	21827
861.521	22405
861.653	21363
861.786	21492
861.918	21530
862.05	21614
862.183	21610
862.315	21732
862.447	21606
862.58	21660
862.712	21329
862.844	21401
862.976	21538
863.108	21504
863.24	21808
863.372	21420
863.504	21237
863.636	21397
863.768	21370
863.9	21428
864.032	21272
864.164	21469
864.296	21405
864.428	21431
864.559	21485
864.691	21408
864.823	21481
864.954	21393
865.086	21298
865.217	21447
865.349	21211
865.48	21321
865.612	21367
865.743	21511
865.875	21306
866.006	21233
866.137	21184
866.269	21165
866.4	21310
866.531	21207
866.662	21169
866.793	21207
866.924	21275
867.055	21268
867.186	21264
867.317	21195
867.448	21131
867.579	21169
867.71	21142
867.841	21104
867.972	21188
868.103	21112
868.233	21203
868.364	21226
868.495	21222
868.625	21408
868.756	21496
868.886	21298
869.017	21336
869.147	21481
869.278	21561
869.408	21458
869.539	21359
869.669	21485
869.799	21488
869.929	21542
870.06	21595
870.19	21736
870.32	21644
870.45	21785
870.58	21797
870.71	21994
870.84	21892
870.97	21884
871.1	21892
871.23	22029
871.36	22017
871.489	21846
871.619	22013
871.749	22124
871.879	22173
872.008	22207
872.138	22124
872.267	22006
872.397	21823
872.526	21953
872.656	21926
872.785	21835
872.915	21979
873.044	22116
873.173	22006
873.303	22207
873.432	22070
873.561	22219
873.69	22101
873.819	21945
873.948	22128
874.077	22147
874.206	21903
874.335	22090
874.464	22147
874.593	22314
874.722	22238
874.851	22181
874.979	22352
875.108	22265
875.237	22196
875.365	22124
875.494	22162
875.623	22344
875.751	22200
875.88	22284
876.008	22337
876.136	22436
876.265	22660
876.393	22759
876.521	22801
876.65	22793
876.778	22672
876.906	22470
877.034	22550
877.162	22668
877.29	22618
877.418	22508
877.546	22584
877.674	22653
877.802	22554
877.93	22656
878.058	22584
878.185	22550
878.313	22596
878.441	22702
878.568	22485
878.696	22531
878.824	22683
878.951	22622
879.079	22892
879.206	22934
879.333	22828
879.461	22535
879.588	22839
879.715	22889
879.842	22858
879.97	22660
880.097	22538
880.224	22474
880.351	22500
880.478	22409
880.605	22341
880.732	22405
880.859	22793
880.986	22402
881.112	22497
881.239	22242
881.366	22162
881.493	22253
881.619	22040
881.746	22067
881.872	22055
881.999	22017
882.125	21915
882.252	22040
882.378	22029
882.505	22093
882.631	21903
882.757	21743
882.883	21736
883.01	21679
883.136	21759
883.262	21557
883.388	21466
883.514	21766
883.64	21705
883.766	21663
883.892	21519
884.018	21485
884.143	21618
884.269	21713
884.395	21435
884.52	21336
884.646	21378
884.772	21321
884.897	21245
885.023	21511
885.148	21481
885.274	21496
885.399	21382
885.524	21287
885.65	21344
885.775	21291
885.9	21317
886.025	21507
886.15	21397
886.275	21283
886.4	21176
886.525	21367
886.65	21154
886.775	21233
886.9	21431
887.025	21492
887.149	21275
887.274	21272
887.399	21165
887.523	21024
887.648	21017
887.773	20906
887.897	21081
888.021	21089
888.146	21093
888.27	21150
888.395	21157
888.519	21176
888.643	21207
888.767	21112
888.891	20975
889.015	20948
889.139	20986
889.263	20948
889.387	20956
889.511	21275
889.635	21013
889.759	20849
889.883	20861
890.006	20990
890.13	20952
890.254	20918
890.377	20811
890.501	20716
890.624	20663
890.748	20834
890.871	20530
890.995	20427
891.118	20404
891.241	20575
891.364	20549
891.488	20689
891.611	20484
891.734	20541
891.857	20514
891.98	20450
892.103	20488
892.226	20533
892.349	20446
892.471	20119
892.594	20381
892.717	20404
892.839	20408
892.962	20415
893.085	20412
893.207	20336
893.33	20271
893.452	20256
893.575	20377
893.697	20351
893.819	20473
893.941	20556
894.064	20377
894.186	20343
894.308	20271
894.43	20431
894.552	20473
894.674	20446
894.796	20225
894.918	20301
895.04	20385
895.161	20461
895.283	20351
895.405	20263
895.526	20298
895.648	20282
895.769	20442
895.891	20301
896.012	20446
896.134	20282
896.255	20374
896.376	20233
896.498	20336
896.619	20381
896.74	20286
896.861	20465
896.982	20602
897.103	20872
897.224	20655
897.345	20427
897.466	20469
897.587	20564
897.708	20762
897.828	20632
897.949	20480
898.07	20389
898.19	20442
898.311	20655
898.431	20545
898.552	20606
898.672	20712
898.792	20579
898.913	20575
899.033	20484
899.153	20339
899.273	20225
899.393	20347
899.513	20507
899.633	20324
899.753	20377
899.873	20404
899.993	20377
900.113	20031
900.232	20339
900.352	20183
900.472	20157
900.591	19974
900.711	20202
900.83	19982
900.95	20195
901.069	20206
901.189	19986
901.308	19677
901.427	19723
901.546	19620
901.665	19681
901.784	19719
901.904	19597
902.023	19487
902.141	19221
902.26	19190
902.379	19285
902.498	19179
902.617	19236
902.735	19259
902.854	19141
902.973	19152
903.091	18951
903.21	18954
903.328	18772
903.446	18768
903.565	18703
903.683	18658
903.801	18525
903.919	18639
904.038	18604
904.156	18448
904.274	18502
904.392	18327
904.51	18376
904.627	18403
904.745	18410
904.863	18422
904.981	18194
905.098	18003
905.216	18068
905.334	18076
905.451	18136
905.569	18060
905.686	18114
905.803	17969
905.921	17878
906.038	17973
906.155	18007
906.272	17794
906.389	17882
906.506	17668
906.623	17562
906.74	17589
906.857	17493
906.974	17524
907.091	17638
907.208	17729
907.324	17661
907.441	17581
907.557	17376
907.674	17341
907.79	17235
907.907	17296
908.023	17425
908.139	17368
908.256	17204
908.372	17269
908.488	17220
908.604	17086
908.72	17155
908.836	17105
908.952	17048
909.068	17067
909.184	17075
909.3	17025
909.415	17064
909.531	17090
909.647	16729
909.762	16748
909.878	16786
909.993	16706
910.108	16748
910.224	16710
910.339	16733
910.454	16683
910.57	16569
910.685	16516
910.8	16763
910.915	16710
911.03	16527
911.145	16512
911.259	16306
911.374	16386
911.489	16284
911.604	16329
911.718	16109
911.833	16112
911.947	15987
912.062	15926
912.176	16063
912.291	16017
912.405	15956
912.519	16249
912.633	16268
912.748	16097
912.862	16135
912.976	15922
913.09	15720
913.204	15930
913.318	15972
913.431	15964
913.545	16013
913.659	15987
913.772	15892
913.886	15789
914	15759
914.113	15800
914.226	15831
914.34	15797
914.453	15641
914.566	15766
914.68	15667
914.793	15603
914.906	15443
915.019	15268
915.132	15222
915.245	15211
915.358	15397
915.47	15374
915.583	15336
915.696	15321
915.809	15351
915.921	15428
916.034	15275
916.146	15169
916.259	15237
916.371	15302
916.483	15283
916.595	15214
916.708	15214
916.82	15154
916.932	15150
917.044	15112
917.156	14982
917.268	15005
917.38	15089
917.491	14944
917.603	14986
917.715	15058
917.826	15077
917.938	14906
918.049	14731
918.161	14918
918.272	15062
918.384	14982
918.495	14887
918.606	14910
918.717	14663
918.828	14674
918.939	14811
919.05	14659
919.161	14705
919.272	14632
919.383	14655
919.494	14746
919.604	14823
919.715	14724
919.826	14716
919.936	14651
920.047	14720
920.157	14720
920.267	14769
920.378	14750
920.488	14655
920.598	14842
920.708	15028
920.818	14727
920.928	14754
921.038	14921
921.148	14883
921.258	14648
921.368	14560
921.477	14518
921.587	14423
921.697	14320
921.806	14301
921.916	14244
922.025	14164
922.134	14069
922.244	14012
922.353	14103
922.462	13871
922.571	13788
922.68	13712
922.789	13636
922.898	13822
923.007	13723
923.116	13780
923.224	13651
923.333	13689
923.442	13510
923.55	13495
923.659	13590
923.767	13548
923.876	13388
923.984	13537
924.092	13487
924.201	13354
924.309	13377
924.417	13392
924.525	13358
924.633	13438
924.741	14305
924.849	13145
924.956	13369
925.064	13209
925.172	13053
925.279	13179
925.387	13107
925.494	13095
925.602	13251
925.709	13118
925.816	12920
925.924	13004
926.031	13156
926.138	13099
926.245	13080
926.352	12916
926.459	13107
926.566	13114
926.673	12958
926.779	12760
926.886	12837
926.993	12734
927.099	12707
927.206	12631
927.312	12593
927.419	12662
927.525	12639
927.631	12753
927.737	12601
927.843	12498
927.95	12418
928.056	12475
928.162	12521
928.267	12563
928.373	13133
928.479	12597
928.585	12289
928.69	12418
928.796	12589
928.901	12308
929.007	12133
929.112	12418
929.218	12346
929.323	12292
929.428	12258
929.533	12308
929.638	12152
929.743	12197
929.848	12232
929.953	12197
930.058	12095
930.163	11935
930.267	11893
930.372	12019
930.477	11863
930.581	11996
930.685	11870
930.79	11760
930.894	11840
930.998	11783
931.103	11817
931.207	11573
931.311	11497
931.415	11318
931.519	11181
931.623	11162
