Data from test_V78500241_2080.txt Node
Date: Fri Mar 25 15:24:20 CST 2022
User: usil
Spectrometer: V785-0024
Trigger mode: 0
Integration Time (sec): 4.000000E-1
Scans to average: 1
Nonlinearity correction enabled: false
Boxcar width: 0
Storing dark spectrum: false
XAxis mode: Wavelengths
Number of Pixels in Spectrum: 1024
>>>>>Begin Spectral Data<<<<<
801.071	27736
801.214	27671
801.356	27405
801.499	27427
801.641	27279
801.783	27298
801.926	27272
802.068	27519
802.211	27237
802.353	27329
802.496	27017
802.638	26914
802.78	26914
802.923	26925
803.065	26864
803.208	26864
803.35	26899
803.492	26948
803.635	27146
803.777	27024
803.919	27214
804.061	27340
804.204	27218
804.346	27195
804.488	27138
804.63	27169
804.773	27093
804.915	27093
805.057	27268
805.199	27112
805.341	27146
805.483	27245
805.626	27306
805.768	27074
805.91	27184
806.052	27249
806.194	27306
806.336	27401
806.478	27264
806.62	27256
806.762	27405
806.904	27469
807.046	27816
807.188	27812
807.33	27701
807.472	27759
807.614	27576
807.756	27462
807.898	27355
808.04	27435
808.182	27431
808.324	27698
808.465	27667
808.607	27899
808.749	27770
808.891	27987
809.033	28143
809.174	28154
809.316	27850
809.458	27857
809.6	27831
809.741	28086
809.883	28147
810.025	28093
810.166	28082
810.308	28147
810.45	28246
810.591	28044
810.733	28070
810.875	27789
811.016	27694
811.158	27701
811.299	27854
811.441	28078
811.582	28032
811.724	27918
811.865	27789
812.007	27899
812.148	27945
812.29	27838
812.431	28105
812.573	28242
812.714	28325
812.855	28436
812.997	28481
813.138	28618
813.279	28409
813.421	28516
813.562	28348
813.703	28135
813.845	28040
813.986	27857
814.127	27625
814.268	27572
814.41	27614
814.551	27530
814.692	27606
814.833	27576
814.974	27576
815.115	27606
815.256	27389
815.397	27386
815.539	27401
815.68	27359
815.821	27211
815.962	27393
816.103	27192
816.244	27192
816.385	27154
816.526	27161
816.666	26940
816.807	26956
816.948	26883
817.089	26731
817.23	26857
817.371	26861
817.512	26925
817.653	26933
817.793	26689
817.934	26826
818.075	26864
818.216	26811
818.356	26910
818.497	26716
818.638	26564
818.778	26640
818.919	26522
819.06	26686
819.2	26720
819.341	26792
819.481	26937
819.622	26971
819.762	27226
819.903	27081
820.043	27074
820.184	26906
820.324	27020
820.465	26975
820.605	26952
820.746	27051
820.886	26845
821.026	26944
821.167	26815
821.307	27089
821.447	26815
821.588	26640
821.728	26640
821.868	26374
822.008	26301
822.149	26240
822.289	26164
822.429	26046
822.569	26001
822.709	26073
822.849	25868
822.99	25932
823.13	25734
823.27	25864
823.41	25700
823.55	25677
823.69	25620
823.83	25609
823.97	25487
824.11	25445
824.25	25297
824.389	25514
824.529	25521
824.669	25407
824.809	25613
824.949	25445
825.089	25495
825.228	25434
825.368	25278
825.508	25388
825.648	25362
825.787	25468
825.927	25324
826.067	25259
826.206	25304
826.346	25293
826.485	25339
826.625	25365
826.765	25434
826.904	25457
827.044	25008
827.183	25190
827.323	25042
827.462	25103
827.601	25122
827.741	25145
827.88	25301
828.02	24886
828.159	25046
828.298	25000
828.437	25012
828.577	25004
828.716	25274
828.855	24951
828.994	24730
829.134	24711
829.273	24779
829.412	24635
829.551	24783
829.69	24677
829.829	24798
829.968	24753
830.107	24722
830.246	24817
830.385	24521
830.524	24620
830.663	24490
830.802	24536
830.941	24357
831.08	24270
831.219	24365
831.357	24486
831.496	24585
831.635	24391
831.774	24209
831.913	24289
832.051	24262
832.19	24087
832.329	24110
832.467	24098
832.606	24041
832.744	23958
832.883	23961
833.022	23912
833.16	23969
833.299	24057
833.437	24095
833.576	24102
833.714	24125
833.852	24220
833.991	24049
834.129	24182
834.267	24091
834.406	24152
834.544	24129
834.682	24129
834.821	24053
834.959	24319
835.097	23931
835.235	24194
835.373	24098
835.511	23965
835.65	23901
835.788	23923
835.926	23707
836.064	23817
836.202	23748
836.34	23786
836.478	23996
836.615	23939
836.753	23923
836.891	23969
837.029	23992
837.167	23843
837.305	23878
837.443	23745
837.58	23752
837.718	23783
837.856	23646
837.993	23668
838.131	23691
838.269	23573
838.406	23691
838.544	23581
838.681	23395
838.819	23383
838.956	23204
839.094	23227
839.231	23280
839.369	23356
839.506	23623
839.643	23520
839.781	23185
839.918	23185
840.055	23132
840.193	23212
840.33	23117
840.467	23136
840.604	23212
840.742	23353
840.879	22987
841.016	23025
841.153	22976
841.29	23223
841.427	23102
841.564	23181
841.701	23060
841.838	22972
841.975	22987
842.112	23041
842.249	22923
842.385	22869
842.522	23064
842.659	22793
842.796	22881
842.933	22923
843.069	22835
843.206	22866
843.343	23037
843.479	22778
843.616	22782
843.752	22664
843.889	22767
844.025	22915
844.162	22645
844.298	22740
844.435	22698
844.571	22588
844.708	22672
844.844	22824
844.98	22687
845.117	22820
845.253	22687
845.389	22504
845.525	22565
845.661	22409
845.798	22379
845.934	22341
846.07	22337
846.206	22451
846.342	22443
846.478	22306
846.614	22192
846.75	22185
846.886	22169
847.022	22268
847.158	22135
847.294	22200
847.429	22223
847.565	22082
847.701	22341
847.837	21785
847.972	21846
848.108	21854
848.244	21869
848.379	21717
848.515	21759
848.65	21679
848.786	21648
848.921	21690
849.057	21884
849.192	21679
849.328	21778
849.463	21652
849.598	21751
849.734	21553
849.869	21625
850.004	21443
850.14	21549
850.275	21481
850.41	21507
850.545	21260
850.68	21576
850.815	21477
850.95	21428
851.085	21686
851.22	21622
851.355	21519
851.49	21580
851.625	21458
851.76	21492
851.895	21340
852.03	21351
852.165	21355
852.299	21618
852.434	21511
852.569	21462
852.703	21458
852.838	21580
852.973	21614
853.107	21564
853.242	21378
853.376	21344
853.511	21085
853.645	21226
853.78	21485
853.914	21370
854.048	21260
854.183	21336
854.317	21351
854.451	21549
854.585	21279
854.72	21218
854.854	21306
854.988	21268
855.122	21195
855.256	21192
855.39	21237
855.524	21306
855.658	21344
855.792	21272
855.926	21287
856.06	21401
856.194	21302
856.327	21321
856.461	21203
856.595	21268
856.729	21241
856.862	21355
856.996	21214
857.13	21287
857.263	21397
857.397	21378
857.53	21249
857.664	21340
857.797	21378
857.931	21389
858.064	21325
858.197	21397
858.331	21249
858.464	21268
858.597	21161
858.731	21306
858.864	21268
858.997	21237
859.13	21367
859.263	21233
859.396	21359
859.529	21272
859.662	21161
859.795	21298
859.928	21188
860.061	21378
860.194	21447
860.327	21374
860.46	21233
860.592	21359
860.725	21363
860.858	21386
860.99	21332
861.123	21256
861.256	21222
861.388	21310
861.521	22017
861.653	21237
861.786	21123
861.918	21070
862.05	21169
862.183	21157
862.315	21222
862.447	21188
862.58	21218
862.712	21096
862.844	20933
862.976	21135
863.108	21085
863.24	21355
863.372	21024
863.504	20986
863.636	21039
863.768	21100
863.9	21001
864.032	20963
864.164	20982
864.296	20914
864.428	21074
864.559	21009
864.691	21089
864.823	20921
864.954	20990
865.086	20963
865.217	20921
865.349	20701
865.48	20971
865.612	20838
865.743	20963
865.875	20853
866.006	20899
866.137	20883
866.269	20845
866.4	20956
866.531	20842
866.662	20872
866.793	20815
866.924	20925
867.055	20956
867.186	20899
867.317	20823
867.448	20754
867.579	20861
867.71	20823
867.841	20735
867.972	20906
868.103	20861
868.233	20902
868.364	20887
868.495	20994
868.625	21051
868.756	21150
868.886	20998
869.017	21093
869.147	21093
869.278	21104
869.408	21036
869.539	21066
869.669	21268
869.799	21165
869.929	21184
870.06	21100
870.19	21397
870.32	21355
870.45	21313
870.58	21496
870.71	21549
870.84	21488
870.97	21458
871.1	21462
871.23	21705
871.36	21660
871.489	21389
871.619	21686
871.749	21595
871.879	21926
872.008	21774
872.138	21701
872.267	21637
872.397	21530
872.526	21504
872.656	21557
872.785	21462
872.915	21675
873.044	21850
873.173	21743
873.303	21808
873.432	21850
873.561	21831
873.69	21698
873.819	21739
873.948	21713
874.077	21648
874.206	21709
874.335	21629
874.464	21903
874.593	21869
874.722	21827
874.851	21968
874.979	21930
875.108	21972
875.237	21895
875.365	21762
875.494	21915
875.623	22017
875.751	22074
875.88	21937
876.008	22154
876.136	22055
876.265	22257
876.393	22519
876.521	22417
876.65	22455
876.778	22363
876.906	22265
877.034	22188
877.162	22344
877.29	22417
877.418	22253
877.546	22181
877.674	22265
877.802	22238
877.93	22291
878.058	22181
878.185	22215
878.313	22284
878.441	22303
878.568	22139
878.696	22265
878.824	22207
878.951	22466
879.079	22474
879.206	22675
879.333	22390
879.461	22421
879.588	22409
879.715	22375
879.842	22459
879.97	22295
880.097	22105
880.224	22097
880.351	22173
880.478	22223
880.605	22131
880.732	22124
880.859	22223
880.986	22059
881.112	22169
881.239	22055
881.366	21873
881.493	21823
881.619	21694
881.746	21743
881.872	21816
881.999	21728
882.125	21629
882.252	21736
882.378	21694
882.505	21766
882.631	21644
882.757	21370
882.883	21568
883.01	21389
883.136	21374
883.262	21211
883.388	21222
883.514	21462
883.64	21355
883.766	21214
883.892	21173
884.018	21192
884.143	21268
884.269	21481
884.395	21188
884.52	21077
884.646	21085
884.772	20967
884.897	20937
885.023	21070
885.148	21001
885.274	21116
885.399	21176
885.524	21089
885.65	21028
885.775	20975
885.9	20967
886.025	21154
886.15	21100
886.275	20944
886.4	20868
886.525	21017
886.65	20971
886.775	20986
886.9	21070
887.025	21127
887.149	20956
887.274	20792
887.399	20948
887.523	20823
887.648	20773
887.773	20804
887.897	20838
888.021	20857
888.146	20830
888.27	20868
888.395	20842
888.519	20914
888.643	20724
888.767	20781
888.891	20621
889.015	20560
889.139	20674
889.263	20495
889.387	20613
889.511	20800
889.635	20682
889.759	20560
889.883	20636
890.006	20590
890.13	20765
890.254	20575
890.377	20507
890.501	20400
890.624	20286
890.748	20488
890.871	20206
890.995	20103
891.118	20092
891.241	20183
891.364	20039
891.488	20278
891.611	20233
891.734	20103
891.857	20168
891.98	20115
892.103	20180
892.226	20191
892.349	20069
892.471	19932
892.594	20130
892.717	20134
892.839	20111
892.962	20096
893.085	20081
893.207	19997
893.33	19951
893.452	20031
893.575	20084
893.697	20062
893.819	20187
893.941	20320
894.064	20202
894.186	19959
894.308	19959
894.43	20191
894.552	20187
894.674	20164
894.796	19932
894.918	20065
895.04	20012
895.161	20157
895.283	20111
895.405	19959
895.526	20111
895.648	20050
895.769	20065
895.891	20084
896.012	20180
896.134	20172
896.255	20153
896.376	19883
896.498	20077
896.619	20031
896.74	20111
896.861	20065
896.982	20427
897.103	20632
897.224	20320
897.345	20271
897.466	20259
897.587	20301
897.708	20484
897.828	20355
897.949	20218
898.07	20172
898.19	20229
898.311	20423
898.431	20271
898.552	20218
898.672	20221
898.792	20298
898.913	20202
899.033	20221
899.153	20001
899.273	19925
899.393	20046
899.513	20122
899.633	19974
899.753	20126
899.873	19928
899.993	19993
900.113	20008
900.232	20001
900.352	19944
900.472	19883
900.591	19742
900.711	19788
900.83	19666
900.95	19970
901.069	19887
901.189	19670
901.308	19594
901.427	19392
901.546	19487
901.665	19369
901.784	19426
901.904	19209
902.023	19221
902.141	18894
902.26	19065
902.379	19114
902.498	19000
902.617	19023
902.735	19004
902.854	18863
902.973	18821
903.091	18642
903.21	18555
903.328	18559
903.446	18551
903.565	18384
903.683	18346
903.801	18254
903.919	18232
904.038	18304
904.156	18174
904.274	18311
904.392	18098
904.51	18220
904.627	18182
904.745	18205
904.863	18228
904.981	17931
905.098	17855
905.216	17885
905.334	17912
905.451	17954
905.569	17874
905.686	17870
905.803	17764
905.921	17589
906.038	17714
906.155	17600
906.272	17433
906.389	17482
906.506	17402
906.623	17315
906.74	17296
906.857	17242
906.974	17258
907.091	17543
907.208	17444
907.324	17364
907.441	17288
907.557	17048
907.674	17124
907.79	17071
907.907	17025
908.023	17159
908.139	17060
908.256	16961
908.372	17041
908.488	17014
908.604	16801
908.72	16729
908.836	16801
908.952	16759
909.068	16896
909.184	16778
909.3	16839
909.415	16755
909.531	16790
909.647	16542
909.762	16580
909.878	16447
909.993	16451
910.108	16481
910.224	16451
910.339	16478
910.454	16443
910.57	16333
910.685	16162
910.8	16504
910.915	16375
911.03	16424
911.145	16173
911.259	16086
911.374	16166
911.489	15994
911.604	16010
911.718	15880
911.833	15804
911.947	15713
912.062	15542
912.176	15755
912.291	15793
912.405	15781
912.519	16071
912.633	15941
912.748	15991
912.862	15903
912.976	15717
913.09	15504
913.204	15610
913.318	15690
913.431	15709
913.545	15827
913.659	15785
913.772	15572
913.886	15500
914	15485
914.113	15545
914.226	15538
914.34	15496
914.453	15363
914.566	15507
914.68	15397
914.793	15306
914.906	15058
915.019	15116
915.132	15020
915.245	14994
915.358	15131
915.47	15043
915.583	15142
915.696	15180
915.809	15104
915.921	15218
916.034	15085
916.146	14891
916.259	14944
916.371	15230
916.483	15062
916.595	14948
916.708	14819
916.82	14781
916.932	14906
917.044	14819
917.156	14819
917.268	14788
917.38	14765
917.491	14750
917.603	14727
917.715	14762
917.826	14845
917.938	14651
918.049	14564
918.161	14575
918.272	14842
918.384	14773
918.495	14689
918.606	14476
918.717	14454
918.828	14568
918.939	14511
919.05	14442
919.161	14370
919.272	14305
919.383	14305
919.494	14522
919.604	14705
919.715	14560
919.826	14438
919.936	14400
920.047	14473
920.157	14396
920.267	14621
920.378	14343
920.488	14446
920.598	14621
920.708	14670
920.818	14537
920.928	14530
921.038	14693
921.148	14667
921.258	14377
921.368	14313
921.477	14145
921.587	14157
921.697	14046
921.806	14084
921.916	14024
922.025	13894
922.134	13875
922.244	13826
922.353	13757
922.462	13780
922.571	13613
922.68	13460
922.789	13480
922.898	13422
923.007	13460
923.116	13445
923.224	13571
923.333	13487
923.442	13312
923.55	13293
923.659	13354
923.767	13282
923.876	13217
923.984	13221
924.092	13145
924.201	13236
924.309	13240
924.417	13202
924.525	13038
924.633	13133
924.741	13776
924.849	13019
924.956	13076
925.064	12916
925.172	12871
925.279	12810
925.387	12867
925.494	12890
925.602	13050
925.709	12939
925.816	12833
925.924	12802
926.031	12867
926.138	12760
926.245	12875
926.352	12715
926.459	12970
926.566	12867
926.673	12806
926.779	12639
926.886	12703
926.993	12536
927.099	12452
927.206	12547
927.312	12410
927.419	12528
927.525	12410
927.631	12471
927.737	12296
927.843	12353
927.95	12205
928.056	12277
928.162	12254
928.267	12372
928.373	12890
928.479	12369
928.585	12060
928.69	12213
928.796	12243
928.901	12178
929.007	12072
929.112	12163
929.218	12140
929.323	12072
929.428	11942
929.533	12144
929.638	11889
929.743	11992
929.848	12068
929.953	11965
930.058	11821
930.163	11649
930.267	11638
930.372	11843
930.477	11634
930.581	11927
930.685	11817
930.79	11608
930.894	11516
930.998	11611
931.103	11684
931.207	11493
931.311	11250
931.415	11204
931.519	10957
931.623	10949
