Data from test_V78500241_1871.txt Node
Date: Fri Mar 25 15:22:53 CST 2022
User: usil
Spectrometer: V785-0024
Trigger mode: 0
Integration Time (sec): 4.000000E-1
Scans to average: 1
Nonlinearity correction enabled: false
Boxcar width: 0
Storing dark spectrum: false
XAxis mode: Wavelengths
Number of Pixels in Spectrum: 1024
>>>>>Begin Spectral Data<<<<<
801.071	27922
801.214	27941
801.356	27583
801.499	27511
801.641	27329
801.783	27496
801.926	27397
802.068	27389
802.211	27473
802.353	27336
802.496	27017
802.638	27081
802.78	26956
802.923	26967
803.065	26899
803.208	26849
803.35	27077
803.492	27043
803.635	27275
803.777	27131
803.919	27287
804.061	27553
804.204	27306
804.346	27146
804.488	27233
804.63	27176
804.773	27036
804.915	27294
805.057	27424
805.199	27306
805.341	27272
805.483	27443
805.626	27313
805.768	27169
805.91	27435
806.052	27367
806.194	27302
806.336	27583
806.478	27408
806.62	27291
806.762	27534
806.904	27614
807.046	27846
807.188	27724
807.33	27671
807.472	27861
807.614	27561
807.756	27728
807.898	27679
808.04	27591
808.182	27599
808.324	27561
808.465	27667
808.607	27960
808.749	28044
808.891	28120
809.033	28116
809.174	28090
809.316	27884
809.458	28051
809.6	28032
809.741	28063
809.883	28051
810.025	28215
810.166	28230
810.308	28356
810.45	28223
810.591	28234
810.733	27892
810.875	27941
811.016	27793
811.158	27800
811.299	28097
811.441	28181
811.582	28120
811.724	28040
811.865	27949
812.007	28078
812.148	27926
812.29	27975
812.431	28196
812.573	28246
812.714	28500
812.855	28531
812.997	28516
813.138	28831
813.279	28675
813.421	28466
813.562	28363
813.703	28249
813.845	28223
813.986	28006
814.127	27945
814.268	27736
814.41	27701
814.551	27572
814.692	27724
814.833	27595
814.974	27743
815.115	27713
815.256	27545
815.397	27637
815.539	27504
815.68	27363
815.821	27427
815.962	27576
816.103	27275
816.244	27317
816.385	27260
816.526	27154
816.666	27024
816.807	26823
816.948	27089
817.089	27009
817.23	26979
817.371	26998
817.512	26880
817.653	26944
817.793	26887
817.934	26853
818.075	27047
818.216	27062
818.356	26990
818.497	26800
818.638	26640
818.778	26819
818.919	26606
819.06	26746
819.2	26864
819.341	27119
819.481	26880
819.622	27100
819.762	27298
819.903	27180
820.043	27058
820.184	27089
820.324	26948
820.465	27093
820.605	27150
820.746	27135
820.886	27009
821.026	26975
821.167	26979
821.307	27180
821.447	27017
821.588	26823
821.728	26765
821.868	26598
822.008	26476
822.149	26492
822.289	26377
822.429	26065
822.569	26111
822.709	26149
822.849	25890
822.99	25875
823.13	25932
823.27	25898
823.41	25913
823.55	25734
823.69	25784
823.83	25727
823.97	25632
824.11	25548
824.25	25499
824.389	25476
824.529	25651
824.669	25628
824.809	25655
824.949	25833
825.089	25727
825.228	25727
825.368	25479
825.508	25571
825.648	25472
825.787	25438
825.927	25514
826.067	25400
826.206	25327
826.346	25476
826.485	25537
826.625	25495
826.765	25552
826.904	25491
827.044	25331
827.183	25194
827.323	25244
827.462	25228
827.601	25228
827.741	25247
827.88	25164
828.02	25019
828.159	25107
828.298	25232
828.437	25168
828.577	25217
828.716	25266
828.855	25107
828.994	24939
829.134	24920
829.273	24985
829.412	24783
829.551	24878
829.69	24966
829.829	24924
829.968	24905
830.107	24996
830.246	24958
830.385	24886
830.524	24890
830.663	24688
830.802	24555
830.941	24513
831.08	24460
831.219	24601
831.357	24574
831.496	24837
831.635	24593
831.774	24460
831.913	24388
832.051	24247
832.19	24429
832.329	24140
832.467	24095
832.606	24224
832.744	24159
832.883	24186
833.022	24194
833.16	24159
833.299	24186
833.437	24121
833.576	24235
833.714	24220
833.852	24281
833.991	24224
834.129	24311
834.267	24346
834.406	24117
834.544	24262
834.682	24372
834.821	24403
834.959	24342
835.097	24209
835.235	24266
835.373	24216
835.511	24441
835.65	24129
835.788	24194
835.926	24095
836.064	23904
836.202	23840
836.34	24079
836.478	24125
836.615	24041
836.753	24114
836.891	24186
837.029	24125
837.167	24064
837.305	24030
837.443	23942
837.58	24038
837.718	24003
837.856	23950
837.993	23908
838.131	23836
838.269	23817
838.406	23923
838.544	23790
838.681	23642
838.819	23547
838.956	23524
839.094	23387
839.231	23512
839.369	23573
839.506	23703
839.643	23741
839.781	23543
839.918	23414
840.055	23448
840.193	23265
840.33	23318
840.467	23425
840.604	23265
840.742	23444
840.879	23170
841.016	23322
841.153	23170
841.29	23337
841.427	23277
841.564	23433
841.701	23197
841.838	23254
841.975	23284
842.112	23334
842.249	23162
842.385	23128
842.522	23353
842.659	23098
842.796	23132
842.933	23029
843.069	23113
843.206	23014
843.343	23204
843.479	23075
843.616	23079
843.752	22919
843.889	22850
844.025	23052
844.162	22987
844.298	22984
844.435	22850
844.571	22748
844.708	22831
844.844	23067
844.98	22965
845.117	23025
845.253	22820
845.389	22809
845.525	22721
845.661	22622
845.798	22584
845.934	22653
846.07	22531
846.206	22588
846.342	22584
846.478	22516
846.614	22394
846.75	22120
846.886	22314
847.022	22409
847.158	22474
847.294	22276
847.429	22367
847.565	22348
847.701	22497
847.837	21926
847.972	22177
848.108	22109
848.244	22017
848.379	22059
848.515	21983
848.65	21941
848.786	21876
848.921	21964
849.057	21983
849.192	22021
849.328	21941
849.463	21911
849.598	21835
849.734	21759
849.869	21781
850.004	21736
850.14	21770
850.275	21709
850.41	21614
850.545	21660
850.68	21561
850.815	21713
850.95	21720
851.085	21903
851.22	21755
851.355	21656
851.49	21663
851.625	21770
851.76	21660
851.895	21538
852.03	21667
852.165	21690
852.299	21781
852.434	21778
852.569	21606
852.703	21739
852.838	21705
852.973	21736
853.107	21846
853.242	21606
853.376	21526
853.511	21420
853.645	21420
853.78	21549
853.914	21606
854.048	21348
854.183	21500
854.317	21393
854.451	21652
854.585	21523
854.72	21504
854.854	21507
854.988	21595
855.122	21557
855.256	21393
855.39	21492
855.524	21591
855.658	21530
855.792	21587
855.926	21568
856.06	21576
856.194	21515
856.327	21504
856.461	21458
856.595	21443
856.729	21397
856.862	21606
856.996	21504
857.13	21564
857.263	21652
857.397	21576
857.53	21416
857.664	21496
857.797	21644
857.931	21637
858.064	21477
858.197	21599
858.331	21454
858.464	21363
858.597	21389
858.731	21469
858.864	21401
858.997	21447
859.13	21416
859.263	21450
859.396	21679
859.529	21431
859.662	21405
859.795	21439
859.928	21500
860.061	21614
860.194	21736
860.327	21564
860.46	21450
860.592	21511
860.725	21622
860.858	21553
860.99	21462
861.123	21408
861.256	21374
861.388	21549
861.521	22086
861.653	21408
861.786	21272
861.918	21310
862.05	21378
862.183	21424
862.315	21424
862.447	21568
862.58	21279
862.712	21298
862.844	21237
862.976	21264
863.108	21298
863.24	21557
863.372	21138
863.504	21245
863.636	21180
863.768	21203
863.9	21138
864.032	21195
864.164	21157
864.296	21203
864.428	21298
864.559	21279
864.691	21218
864.823	21218
864.954	21173
865.086	21188
865.217	21100
865.349	21017
865.48	21180
865.612	21058
865.743	21207
865.875	21028
866.006	21055
866.137	21024
866.269	21123
866.4	20986
866.531	21028
866.662	20994
866.793	21020
866.924	20994
867.055	21074
867.186	21077
867.317	20941
867.448	20918
867.579	21001
867.71	20971
867.841	20929
867.972	21066
868.103	20990
868.233	20998
868.364	21089
868.495	21173
868.625	21188
868.756	21302
868.886	21241
869.017	21272
869.147	21408
869.278	21245
869.408	21222
869.539	21294
869.669	21325
869.799	21283
869.929	21393
870.06	21420
870.19	21538
870.32	21492
870.45	21618
870.58	21648
870.71	21739
870.84	21720
870.97	21717
871.1	21671
871.23	21861
871.36	21972
871.489	21800
871.619	21937
871.749	21899
871.879	21816
872.008	21983
872.138	21960
872.267	21854
872.397	21774
872.526	21622
872.656	21656
872.785	21717
872.915	21831
873.044	21812
873.173	21979
873.303	22006
873.432	21869
873.561	21903
873.69	21918
873.819	21808
873.948	21846
874.077	21899
874.206	21854
874.335	21895
874.464	22017
874.593	22013
874.722	22082
874.851	22048
874.979	21972
875.108	22238
875.237	22078
875.365	22002
875.494	22105
875.623	22200
875.751	22120
875.88	22188
876.008	22253
876.136	22375
876.265	22440
876.393	22675
876.521	22584
876.65	22542
876.778	22531
876.906	22584
877.034	22367
877.162	22455
877.29	22459
877.418	22512
877.546	22360
877.674	22504
877.802	22436
877.93	22421
878.058	22333
878.185	22363
878.313	22322
878.441	22455
878.568	22230
878.696	22394
878.824	22466
878.951	22557
879.079	22493
879.206	22729
879.333	22603
879.461	22531
879.588	22504
879.715	22603
879.842	22668
879.97	22523
880.097	22329
880.224	22284
880.351	22322
880.478	22246
880.605	22211
880.732	22246
880.859	22493
880.986	22238
881.112	22287
881.239	22219
881.366	22010
881.493	21895
881.619	21739
881.746	21838
881.872	21789
881.999	21861
882.125	21793
882.252	21915
882.378	21899
882.505	21983
882.631	21595
882.757	21595
882.883	21663
883.01	21523
883.136	21507
883.262	21469
883.388	21374
883.514	21564
883.64	21603
883.766	21378
883.892	21393
884.018	21462
884.143	21431
884.269	21686
884.395	21256
884.52	21154
884.646	21150
884.772	21100
884.897	21077
885.023	21226
885.148	21355
885.274	21363
885.399	21298
885.524	21226
885.65	21157
885.775	21176
885.9	21287
886.025	21348
886.15	21218
886.275	21100
886.4	21074
886.525	21116
886.65	21287
886.775	21055
886.9	21321
887.025	21454
887.149	21218
887.274	21036
887.399	20777
887.523	20975
887.648	20937
887.773	20845
887.897	21020
888.021	21047
888.146	20845
888.27	20971
888.395	21001
888.519	21127
888.643	20979
888.767	20872
888.891	20880
889.015	20678
889.139	20906
889.263	20606
889.387	20807
889.511	20933
889.635	20864
889.759	20785
889.883	20708
890.006	20754
890.13	20834
890.254	20693
890.377	20727
890.501	20480
890.624	20396
890.748	20583
890.871	20446
890.995	20339
891.118	20286
891.241	20317
891.364	20347
891.488	20415
891.611	20393
891.734	20218
891.857	20324
891.98	20214
892.103	20355
892.226	20336
892.349	20309
892.471	20199
892.594	20214
892.717	20298
892.839	20180
892.962	20282
893.085	20240
893.207	20324
893.33	20016
893.452	20084
893.575	20256
893.697	20122
893.819	20381
893.941	20393
894.064	20377
894.186	20054
894.308	20168
894.43	20225
894.552	20339
894.674	20202
894.796	20157
894.918	20244
895.04	20122
895.161	20263
895.283	20278
895.405	20218
895.526	20256
895.648	20233
895.769	20134
895.891	20324
896.012	20271
896.134	20092
896.255	20233
896.376	20233
896.498	20115
896.619	20271
896.74	20252
896.861	20199
896.982	20674
897.103	20564
897.224	20450
897.345	20355
897.466	20358
897.587	20400
897.708	20404
897.828	20469
897.949	20355
898.07	20263
898.19	20320
898.311	20431
898.431	20362
898.552	20408
898.672	20495
898.792	20385
898.913	20450
899.033	20320
899.153	20282
899.273	20058
899.393	20259
899.513	20271
899.633	20229
899.753	20149
899.873	20202
899.993	20248
900.113	20054
900.232	20191
900.352	20073
900.472	20046
900.591	19963
900.711	20062
900.83	19852
900.95	19917
901.069	20077
901.189	19822
901.308	19616
901.427	19525
901.546	19483
901.665	19708
901.784	19480
901.904	19445
902.023	19255
902.141	19141
902.26	19072
902.379	19129
902.498	19088
902.617	18989
902.735	19057
902.854	18958
902.973	18878
903.091	18757
903.21	18707
903.328	18707
903.446	18551
903.565	18506
903.683	18506
903.801	18380
903.919	18452
904.038	18525
904.156	18304
904.274	18391
904.392	18266
904.51	18186
904.627	18353
904.745	18289
904.863	18308
904.981	18045
905.098	18049
905.216	17916
905.334	17805
905.451	17980
905.569	17935
905.686	18083
905.803	17897
905.921	17649
906.038	17824
906.155	17764
906.272	17551
906.389	17722
906.506	17577
906.623	17581
906.74	17577
906.857	17493
906.974	17368
907.091	17501
907.208	17535
907.324	17520
907.441	17501
907.557	17242
907.674	17258
907.79	17121
907.907	17162
908.023	17235
908.139	17147
908.256	17140
908.372	17052
908.488	17067
908.604	16984
908.72	16915
908.836	16889
908.952	16915
909.068	16938
909.184	17071
909.3	16980
909.415	17045
909.531	16831
909.647	16698
909.762	16565
909.878	16550
909.993	16649
910.108	16592
910.224	16588
910.339	16649
910.454	16485
910.57	16375
910.685	16329
910.8	16660
910.915	16592
911.03	16424
911.145	16318
911.259	16280
911.374	16291
911.489	16112
911.604	16036
911.718	16067
911.833	15941
911.947	15800
912.062	15842
912.176	15922
912.291	16002
912.405	15888
912.519	16173
912.633	16131
912.748	16025
912.862	15861
912.976	15819
913.09	15709
913.204	15838
913.318	15770
913.431	15972
913.545	15850
913.659	15827
913.772	15671
913.886	15485
914	15603
914.113	15648
914.226	15724
914.34	15656
914.453	15553
914.566	15523
914.68	15443
914.793	15428
914.906	15313
915.019	15104
915.132	15146
915.245	15085
915.358	15127
915.47	15154
915.583	15203
915.696	15199
915.809	15287
915.921	15222
916.034	15104
916.146	14982
916.259	15104
916.371	15112
916.483	15135
916.595	15074
916.708	15017
916.82	15017
916.932	15001
917.044	14967
917.156	14906
917.268	14819
917.38	14868
917.491	14857
917.603	14845
917.715	14895
917.826	14933
917.938	14842
918.049	14651
918.161	14765
918.272	14982
918.384	14857
918.495	14792
918.606	14693
918.717	14545
918.828	14629
918.939	14606
919.05	14564
919.161	14511
919.272	14385
919.383	14450
919.494	14674
919.604	14826
919.715	14598
919.826	14514
919.936	14495
920.047	14583
920.157	14568
920.267	14655
920.378	14705
920.488	14469
920.598	14659
920.708	14921
920.818	14686
920.928	14640
921.038	14887
921.148	14819
921.258	14404
921.368	14434
921.477	14240
921.587	14358
921.697	14164
921.806	14332
921.916	14100
922.025	13982
922.134	13887
922.244	13871
922.353	13955
922.462	13761
922.571	13727
922.68	13616
922.789	13609
922.898	13582
923.007	13609
923.116	13567
923.224	13601
923.333	13544
923.442	13419
923.55	13434
923.659	13377
923.767	13540
923.876	13384
923.984	13525
924.092	13316
924.201	13396
924.309	13362
924.417	13308
924.525	13236
924.633	13282
924.741	14107
924.849	13053
924.956	13164
925.064	13042
925.172	12890
925.279	12932
925.387	12947
925.494	12932
925.602	13061
925.709	12993
925.816	12882
925.924	12871
926.031	13080
926.138	12943
926.245	13027
926.352	12875
926.459	12966
926.566	12916
926.673	12802
926.779	12772
926.886	12768
926.993	12509
927.099	12692
927.206	12506
927.312	12479
927.419	12563
927.525	12551
927.631	12635
927.737	12399
927.843	12376
927.95	12205
928.056	12334
928.162	12388
928.267	12437
928.373	12859
928.479	12467
928.585	12220
928.69	12403
928.796	12251
928.901	12213
929.007	11988
929.112	12319
929.218	12296
929.323	12095
929.428	12140
929.533	12152
929.638	12003
929.743	11984
929.848	12167
929.953	12003
930.058	11897
930.163	11775
930.267	11771
930.372	11980
930.477	11726
930.581	12007
930.685	11802
930.79	11707
930.894	11668
930.998	11726
931.103	11760
931.207	11364
931.311	11303
931.415	11231
931.519	11105
931.623	11033
