Data from test_V78500241_913.txt Node
Date: Fri Mar 25 15:16:12 CST 2022
User: usil
Spectrometer: V785-0024
Trigger mode: 0
Integration Time (sec): 4.000000E-1
Scans to average: 1
Nonlinearity correction enabled: false
Boxcar width: 0
Storing dark spectrum: false
XAxis mode: Wavelengths
Number of Pixels in Spectrum: 1024
>>>>>Begin Spectral Data<<<<<
801.071	28181
801.214	28093
801.356	27964
801.499	27926
801.641	27724
801.783	27739
801.926	27831
802.068	27724
802.211	27610
802.353	27587
802.496	27351
802.638	27393
802.78	27325
802.923	27427
803.065	27348
803.208	27287
803.35	27340
803.492	27542
803.635	27564
803.777	27488
803.919	27648
804.061	27907
804.204	27633
804.346	27625
804.488	27412
804.63	27583
804.773	27427
804.915	27538
805.057	27690
805.199	27572
805.341	27778
805.483	27656
805.626	27743
805.768	27553
805.91	27614
806.052	27686
806.194	27583
806.336	28006
806.478	27762
806.62	27709
806.762	27914
806.904	27911
807.046	28280
807.188	28124
807.33	28158
807.472	28181
807.614	28051
807.756	28219
807.898	27983
808.04	27968
808.182	28105
808.324	27998
808.465	28074
808.607	28344
808.749	28341
808.891	28398
809.033	28584
809.174	28462
809.316	28405
809.458	28295
809.6	28348
809.741	28599
809.883	28523
810.025	28790
810.166	28592
810.308	28554
810.45	28664
810.591	28694
810.733	28360
810.875	28325
811.016	28379
811.158	28185
811.299	28405
811.441	28497
811.582	28565
811.724	28542
811.865	28497
812.007	28337
812.148	28508
812.29	28436
812.431	28573
812.573	28736
812.714	28862
812.855	29003
812.997	28961
813.138	29117
813.279	29041
813.421	28995
813.562	28793
813.703	28637
813.845	28683
813.986	28200
814.127	28090
814.268	28135
814.41	28131
814.551	28074
814.692	28272
814.833	28147
814.974	28162
815.115	28150
815.256	28097
815.397	28040
815.539	28040
815.68	27983
815.821	27812
815.962	27934
816.103	27983
816.244	27728
816.385	27732
816.526	27576
816.666	27549
816.807	27348
816.948	27389
817.089	27530
817.23	27610
817.371	27519
817.512	27363
817.653	27458
817.793	27287
817.934	27435
818.075	27450
818.216	27450
818.356	27496
818.497	27386
818.638	27123
818.778	27184
818.919	27074
819.06	27245
819.2	27325
819.341	27462
819.481	27466
819.622	27580
819.762	27835
819.903	27663
820.043	27454
820.184	27568
820.324	27504
820.465	27625
820.605	27564
820.746	27488
820.886	27313
821.026	27564
821.167	27462
821.307	27462
821.447	27511
821.588	27367
821.728	27184
821.868	27085
822.008	26868
822.149	26899
822.289	26849
822.429	26678
822.569	26625
822.709	26522
822.849	26465
822.99	26507
823.13	26332
823.27	26339
823.41	26180
823.55	26092
823.69	26282
823.83	26252
823.97	26126
824.11	26005
824.25	26005
824.389	26157
824.529	26126
824.669	25955
824.809	26267
824.949	26195
825.089	26107
825.228	26058
825.368	25955
825.508	25849
825.648	25833
825.787	25982
825.927	26054
826.067	25849
826.206	26020
826.346	26027
826.485	25928
826.625	25860
826.765	26092
826.904	25978
827.044	25818
827.183	25689
827.323	25510
827.462	25738
827.601	25571
827.741	25544
827.88	25651
828.02	25445
828.159	25582
828.298	25632
828.437	25708
828.577	25727
828.716	25833
828.855	25605
828.994	25301
829.134	25335
829.273	25384
829.412	25369
829.551	25400
829.69	25297
829.829	25400
829.968	25525
830.107	25556
830.246	25388
830.385	25148
830.524	25384
830.663	25213
830.802	25129
830.941	24989
831.08	24943
831.219	24966
831.357	24966
831.496	25206
831.635	24890
831.774	24852
831.913	24882
832.051	24684
832.19	24795
832.329	24738
832.467	24692
832.606	24650
832.744	24658
832.883	24700
833.022	24715
833.16	24738
833.299	24749
833.437	24677
833.576	24821
833.714	24810
833.852	24875
833.991	24802
834.129	24852
834.267	24825
834.406	24669
834.544	24871
834.682	24726
834.821	24760
834.959	24939
835.097	24574
835.235	24772
835.373	24753
835.511	24703
835.65	24623
835.788	24665
835.926	24410
836.064	24308
836.202	24388
836.34	24509
836.478	24646
836.615	24639
836.753	24486
836.891	24700
837.029	24681
837.167	24528
837.305	24460
837.443	24540
837.58	24391
837.718	24528
837.856	24433
837.993	24350
838.131	24395
838.269	24190
838.406	24232
838.544	24167
838.681	24064
838.819	24095
838.956	23908
839.094	23836
839.231	23893
839.369	23847
839.506	24201
839.643	24209
839.781	23802
839.918	23847
840.055	23904
840.193	23817
840.33	23828
840.467	23786
840.604	23824
840.742	24110
840.879	23687
841.016	23794
841.153	23642
841.29	23942
841.427	23687
841.564	23901
841.701	23668
841.838	23767
841.975	23512
842.112	23756
842.249	23668
842.385	23531
842.522	23707
842.659	23646
842.796	23562
842.933	23528
843.069	23570
843.206	23505
843.343	23649
843.479	23551
843.616	23459
843.752	23284
843.889	23356
844.025	23497
844.162	23235
844.298	23425
844.435	23277
844.571	23239
844.708	23360
844.844	23425
844.98	23570
845.117	23315
845.253	23258
845.389	23155
845.525	23178
845.661	23193
845.798	23071
845.934	22991
846.07	23022
846.206	23064
846.342	23227
846.478	23018
846.614	22847
846.75	22828
846.886	22778
847.022	22790
847.158	22790
847.294	22755
847.429	22873
847.565	22771
847.701	22972
847.837	22577
847.972	22451
848.108	22618
848.244	22588
848.379	22329
848.515	22394
848.65	22303
848.786	22413
848.921	22386
849.057	22375
849.192	22436
849.328	22500
849.463	22356
849.598	22424
849.734	22204
849.869	22188
850.004	22177
850.14	21937
850.275	22139
850.41	22120
850.545	22082
850.68	22059
850.815	22116
850.95	22162
851.085	22341
851.22	22181
851.355	22120
851.49	22078
851.625	22070
851.76	22032
851.895	22025
852.03	21968
852.165	22112
852.299	22204
852.434	22211
852.569	22246
852.703	22143
852.838	22238
852.973	22272
853.107	22268
853.242	22097
853.376	22036
853.511	21895
853.645	21972
853.78	22021
853.914	21937
854.048	21968
854.183	21945
854.317	22082
854.451	22150
854.585	22013
854.72	21838
854.854	22032
854.988	21812
855.122	21895
855.256	21835
855.39	21918
855.524	21937
855.658	21964
855.792	21975
855.926	21960
856.06	21918
856.194	22120
856.327	21857
856.461	21774
856.595	21964
856.729	21857
856.862	21983
856.996	21937
857.13	21934
857.263	22188
857.397	22097
857.53	21922
857.664	21968
857.797	21911
857.931	22063
858.064	21968
858.197	22109
858.331	21956
858.464	21835
858.597	21800
858.731	21854
858.864	21934
858.997	21831
859.13	21892
859.263	21934
859.396	21998
859.529	21880
859.662	21846
859.795	21804
859.928	21926
860.061	22105
860.194	22017
860.327	22029
860.46	21960
860.592	22166
860.725	22120
860.858	22044
860.99	21926
861.123	21838
861.256	21960
861.388	21899
861.521	22790
861.653	21842
861.786	21682
861.918	21888
862.05	21861
862.183	21869
862.315	21800
862.447	21907
862.58	21831
862.712	21770
862.844	21728
862.976	21679
863.108	21622
863.24	21991
863.372	21568
863.504	21591
863.636	21656
863.768	21603
863.9	21698
864.032	21709
864.164	21633
864.296	21770
864.428	21755
864.559	21682
864.691	21728
864.823	21682
864.954	21568
865.086	21568
865.217	21466
865.349	21466
865.48	21523
865.612	21599
865.743	21663
865.875	21557
866.006	21591
866.137	21477
866.269	21477
866.4	21564
866.531	21450
866.662	21348
866.793	21431
866.924	21485
867.055	21405
867.186	21488
867.317	21416
867.448	21492
867.579	21428
867.71	21332
867.841	21348
867.972	21382
868.103	21382
868.233	21519
868.364	21538
868.495	21500
868.625	21705
868.756	21797
868.886	21587
869.017	21648
869.147	21785
869.278	21953
869.408	21671
869.539	21823
869.669	21759
869.799	21660
869.929	21892
870.06	21797
870.19	22013
870.32	21911
870.45	21937
870.58	22025
870.71	22124
870.84	22162
870.97	22059
871.1	22036
871.23	22207
871.36	22276
871.489	22112
871.619	22223
871.749	22154
871.879	22322
872.008	22436
872.138	22348
872.267	22322
872.397	22139
872.526	22090
872.656	22112
872.785	22090
872.915	22382
873.044	22363
873.173	22306
873.303	22272
873.432	22371
873.561	22284
873.69	22306
873.819	22253
873.948	22333
874.077	22360
874.206	22306
874.335	22215
874.464	22424
874.593	22497
874.722	22516
874.851	22592
874.979	22485
875.108	22542
875.237	22451
875.365	22356
875.494	22531
875.623	22618
875.751	22569
875.88	22656
876.008	22653
876.136	22679
876.265	22835
876.393	22915
876.521	23086
876.65	22987
876.778	22835
876.906	22831
877.034	22904
877.162	23014
877.29	22778
877.418	22896
877.546	22911
877.674	22847
877.802	22885
877.93	22987
878.058	22744
878.185	22755
878.313	22862
878.441	22702
878.568	22885
878.696	22759
878.824	22961
878.951	22972
879.079	22995
879.206	23204
879.333	23018
879.461	22892
879.588	23006
879.715	23056
879.842	23174
879.97	23003
880.097	22812
880.224	22675
880.351	22721
880.478	22694
880.605	22561
880.732	22641
880.859	22858
880.986	22611
881.112	22664
881.239	22519
881.366	22421
881.493	22238
881.619	22177
881.746	22314
881.872	22188
881.999	22249
882.125	22341
882.252	22192
882.378	22272
882.505	22306
882.631	22135
882.757	21892
882.883	21934
883.01	21857
883.136	21918
883.262	21888
883.388	21660
883.514	21857
883.64	21895
883.766	21903
883.892	21732
884.018	21762
884.143	21774
884.269	21865
884.395	21633
884.52	21606
884.646	21606
884.772	21542
884.897	21458
885.023	21644
885.148	21682
885.274	21759
885.399	21705
885.524	21572
885.65	21587
885.775	21530
885.9	21652
886.025	21580
886.15	21610
886.275	21652
886.4	21500
886.525	21576
886.65	21382
886.775	21469
886.9	21591
887.025	21629
887.149	21553
887.274	21397
887.399	21389
887.523	21382
887.648	21287
887.773	21279
887.897	21374
888.021	21367
888.146	21283
888.27	21389
888.395	21378
888.519	21329
888.643	21344
888.767	21496
888.891	21135
889.015	21165
889.139	21241
889.263	21146
889.387	21199
889.511	21355
889.635	21264
889.759	21119
889.883	21222
890.006	21039
890.13	21199
890.254	21017
890.377	21017
890.501	20956
890.624	20849
890.748	20838
890.871	20811
890.995	20720
891.118	20613
891.241	20651
891.364	20689
891.488	20769
891.611	20693
891.734	20765
891.857	20724
891.98	20583
892.103	20712
892.226	20682
892.349	20640
892.471	20450
892.594	20655
892.717	20724
892.839	20571
892.962	20549
893.085	20530
893.207	20533
893.33	20434
893.452	20415
893.575	20712
893.697	20488
893.819	20750
893.941	20952
894.064	20727
894.186	20530
894.308	20438
894.43	20602
894.552	20682
894.674	20697
894.796	20552
894.918	20492
895.04	20621
895.161	20621
895.283	20564
895.405	20431
895.526	20530
895.648	20438
895.769	20640
895.891	20568
896.012	20674
896.134	20644
896.255	20598
896.376	20514
896.498	20667
896.619	20629
896.74	20629
896.861	20621
896.982	20971
897.103	20876
897.224	20758
897.345	20739
897.466	20716
897.587	20716
897.708	20895
897.828	20823
897.949	20689
898.07	20621
898.19	20720
898.311	20899
898.431	20602
898.552	20777
898.672	20785
898.792	20948
898.913	20769
899.033	20560
899.153	20659
899.273	20533
899.393	20598
899.513	20526
899.633	20454
899.753	20579
899.873	20336
899.993	20556
900.113	20480
900.232	20488
900.352	20385
900.472	20419
900.591	20301
900.711	20339
900.83	20366
900.95	20347
901.069	20362
901.189	20259
901.308	20024
901.427	19742
901.546	20020
901.665	19856
901.784	19890
901.904	19712
902.023	19537
902.141	19362
902.26	19392
902.379	19430
902.498	19518
902.617	19346
902.735	19434
902.854	19225
902.973	19278
903.091	19091
903.21	18951
903.328	18947
903.446	18947
903.565	18875
903.683	18920
903.801	18635
903.919	18772
904.038	18768
904.156	18692
904.274	18700
904.392	18578
904.51	18509
904.627	18601
904.745	18604
904.863	18593
904.981	18388
905.098	18254
905.216	18197
905.334	18239
905.451	18281
905.569	18304
905.686	18327
905.803	18262
905.921	17961
906.038	18220
906.155	18064
906.272	18064
906.389	17965
906.506	17843
906.623	17665
906.74	17866
906.857	17737
906.974	17821
907.091	17802
907.208	17889
907.324	17726
907.441	17695
907.557	17604
907.674	17554
907.79	17467
907.907	17490
908.023	17570
908.139	17467
908.256	17440
908.372	17353
908.488	17299
908.604	17288
908.72	17307
908.836	17303
908.952	17170
909.068	17212
909.184	17246
909.3	17261
909.415	17261
909.531	17174
909.647	16995
909.762	16915
909.878	16968
909.993	16923
910.108	16862
910.224	16953
910.339	16854
910.454	16824
910.57	16759
910.685	16660
910.8	16835
910.915	16919
911.03	16713
911.145	16607
911.259	16493
911.374	16596
911.489	16481
911.604	16428
911.718	16333
911.833	16265
911.947	16109
912.062	16044
912.176	16322
912.291	16257
912.405	16219
912.519	16356
912.633	16314
912.748	16341
912.862	16242
912.976	16086
913.09	15972
913.204	15922
913.318	16128
913.431	16086
913.545	16291
913.659	16215
913.772	16044
913.886	15926
914	15915
914.113	15964
914.226	15956
914.34	15884
914.453	15835
914.566	15949
914.68	15785
914.793	15724
914.906	15538
915.019	15450
915.132	15405
915.245	15447
915.358	15526
915.47	15439
915.583	15500
915.696	15568
915.809	15587
915.921	15618
916.034	15325
916.146	15405
916.259	15397
916.371	15458
916.483	15412
916.595	15272
916.708	15332
916.82	15264
916.932	15275
917.044	15218
917.156	15161
917.268	15146
917.38	15131
917.491	15150
917.603	15180
917.715	15226
917.826	15089
917.938	15020
918.049	14921
918.161	15036
918.272	15150
918.384	15195
918.495	15017
918.606	14929
918.717	14838
918.828	14944
918.939	14891
919.05	14746
919.161	14807
919.272	14598
919.383	14689
919.494	14864
919.604	15077
919.715	14792
919.826	14804
919.936	14754
920.047	14868
920.157	14815
920.267	14956
920.378	14872
920.488	14716
920.598	15028
920.708	15146
920.818	14982
920.928	14861
921.038	15097
921.148	15039
921.258	14819
921.368	14648
921.477	14526
921.587	14480
921.697	14427
921.806	14530
921.916	14473
922.025	14180
922.134	14202
922.244	14058
922.353	14172
922.462	14092
922.571	14020
922.68	13852
922.789	13799
922.898	13799
923.007	13799
923.116	13856
923.224	13822
923.333	13719
923.442	13677
923.55	13552
923.659	13738
923.767	13616
923.876	13525
923.984	13647
924.092	13483
924.201	13556
924.309	13586
924.417	13514
924.525	13411
924.633	13445
924.741	14191
924.849	13350
924.956	13426
925.064	13228
925.172	13240
925.279	13171
925.387	13236
925.494	13304
925.602	13320
925.709	13270
925.816	13133
925.924	13107
926.031	13320
926.138	13145
926.245	13171
926.352	12996
926.459	13202
926.566	13160
926.673	13156
926.779	12947
926.886	13000
926.993	12791
927.099	12806
927.206	12677
927.312	12757
927.419	12741
927.525	12783
927.631	12810
927.737	12646
927.843	12612
927.95	12486
928.056	12593
928.162	12635
928.267	12665
928.373	13183
928.479	12597
928.585	12407
928.69	12536
928.796	12532
928.901	12433
929.007	12353
929.112	12448
929.218	12395
929.323	12410
929.428	12277
929.533	12391
929.638	12224
929.743	12315
929.848	12270
929.953	12258
930.058	12167
930.163	11999
930.267	12041
930.372	12171
930.477	11992
930.581	12171
930.685	12041
930.79	11840
930.894	11904
930.998	11901
931.103	11980
931.207	11596
931.311	11562
931.415	11463
931.519	11299
931.623	11284
