Data from test_V78500241_1424.txt Node
Date: Fri Mar 25 15:19:46 CST 2022
User: usil
Spectrometer: V785-0024
Trigger mode: 0
Integration Time (sec): 4.000000E-1
Scans to average: 1
Nonlinearity correction enabled: false
Boxcar width: 0
Storing dark spectrum: false
XAxis mode: Wavelengths
Number of Pixels in Spectrum: 1024
>>>>>Begin Spectral Data<<<<<
801.071	27914
801.214	27994
801.356	27686
801.499	27610
801.641	27329
801.783	27485
801.926	27614
802.068	27447
802.211	27431
802.353	27325
802.496	27119
802.638	27146
802.78	27138
802.923	27116
803.065	27039
803.208	27028
803.35	27161
803.492	27241
803.635	27363
803.777	27131
803.919	27359
804.061	27732
804.204	27386
804.346	27291
804.488	27207
804.63	27336
804.773	27359
804.915	27405
805.057	27359
805.199	27325
805.341	27348
805.483	27424
805.626	27458
805.768	27351
805.91	27477
806.052	27473
806.194	27378
806.336	27644
806.478	27526
806.62	27378
806.762	27443
806.904	27816
807.046	27975
807.188	27884
807.33	27930
807.472	27907
807.614	27873
807.756	27816
807.898	27842
808.04	27637
808.182	27728
808.324	27797
808.465	27774
808.607	27880
808.749	28116
808.891	28143
809.033	28230
809.174	28223
809.316	28097
809.458	28051
809.6	28048
809.741	28246
809.883	28230
810.025	28447
810.166	28371
810.308	28436
810.45	28440
810.591	28356
810.733	28204
810.875	28234
811.016	28078
811.158	28044
811.299	28147
811.441	28101
811.582	28207
811.724	28173
811.865	28021
812.007	28120
812.148	28196
812.29	28097
812.431	28276
812.573	28516
812.714	28622
812.855	28603
812.997	28679
813.138	28793
813.279	28752
813.421	28755
813.562	28630
813.703	28554
813.845	28421
813.986	28059
814.127	27903
814.268	27747
814.41	27895
814.551	27812
814.692	27914
814.833	27720
814.974	27633
815.115	27884
815.256	27595
815.397	27690
815.539	27705
815.68	27618
815.821	27660
815.962	27717
816.103	27458
816.244	27469
816.385	27268
816.526	27260
816.666	27165
816.807	27176
816.948	27180
817.089	27272
817.23	27233
817.371	27058
817.512	27032
817.653	26929
817.793	27096
817.934	27108
818.075	27077
818.216	27161
818.356	27123
818.497	27024
818.638	26720
818.778	26838
818.919	26880
819.06	27108
819.2	26960
819.341	27203
819.481	27039
819.622	27226
819.762	27534
819.903	27367
820.043	27336
820.184	27241
820.324	27146
820.465	27154
820.605	27233
820.746	27161
820.886	27188
821.026	27222
821.167	27287
821.307	27249
821.447	27226
821.588	27085
821.728	26914
821.868	26739
822.008	26507
822.149	26514
822.289	26442
822.429	26278
822.569	26221
822.709	26210
822.849	26111
822.99	26157
823.13	26035
823.27	25928
823.41	25757
823.55	25731
823.69	25921
823.83	25791
823.97	25936
824.11	25674
824.25	25772
824.389	25746
824.529	25833
824.669	25643
824.809	25822
824.949	25761
825.089	25864
825.228	25776
825.368	25411
825.508	25601
825.648	25655
825.787	25658
825.927	25582
826.067	25582
826.206	25453
826.346	25575
826.485	25533
826.625	25559
826.765	25529
826.904	25639
827.044	25426
827.183	25392
827.323	25289
827.462	25381
827.601	25312
827.741	25187
827.88	25312
828.02	25266
828.159	25156
828.298	25221
828.437	25468
828.577	25293
828.716	25407
828.855	25263
828.994	25095
829.134	25046
829.273	25110
829.412	24939
829.551	24844
829.69	25103
829.829	25019
829.968	24977
830.107	25061
830.246	25091
830.385	25012
830.524	25004
830.663	24798
830.802	24631
830.941	24642
831.08	24601
831.219	24700
831.357	24722
831.496	24829
831.635	24479
831.774	24517
831.913	24433
832.051	24433
832.19	24414
832.329	24426
832.467	24232
832.606	24273
832.744	24296
832.883	24273
833.022	24251
833.16	24216
833.299	24353
833.437	24334
833.576	24346
833.714	24292
833.852	24292
833.991	24300
834.129	24330
834.267	24361
834.406	24376
834.544	24384
834.682	24346
834.821	24277
834.959	24502
835.097	24190
835.235	24323
835.373	24254
835.511	24216
835.65	24186
835.788	24258
835.926	24049
836.064	24011
836.202	24034
836.34	24247
836.478	24296
836.615	24163
836.753	24121
836.891	24152
837.029	24182
837.167	24011
837.305	24091
837.443	23999
837.58	24003
837.718	24102
837.856	23992
837.993	24022
838.131	23977
838.269	23756
838.406	23908
838.544	23828
838.681	23623
838.819	23490
838.956	23558
839.094	23455
839.231	23452
839.369	23687
839.506	23904
839.643	23703
839.781	23425
839.918	23368
840.055	23452
840.193	23421
840.33	23398
840.467	23349
840.604	23379
840.742	23627
840.879	23315
841.016	23269
841.153	23326
841.29	23455
841.427	23269
841.564	23376
841.701	23509
841.838	23318
841.975	23322
842.112	23143
842.249	23185
842.385	23124
842.522	23227
842.659	23273
842.796	23166
842.933	23216
843.069	23121
843.206	23132
843.343	23155
843.479	23178
843.616	23185
843.752	22858
843.889	22911
844.025	23086
844.162	22866
844.298	23079
844.435	22885
844.571	22850
844.708	23124
844.844	23014
844.98	22965
845.117	23048
845.253	22915
845.389	22755
845.525	22797
845.661	22679
845.798	22702
845.934	22626
846.07	22649
846.206	22569
846.342	22850
846.478	22645
846.614	22379
846.75	22337
846.886	22356
847.022	22287
847.158	22371
847.294	22306
847.429	22344
847.565	22272
847.701	22702
847.837	22211
847.972	22131
848.108	22234
848.244	22147
848.379	21964
848.515	21983
848.65	22112
848.786	22013
848.921	22002
849.057	21983
849.192	22013
849.328	22074
849.463	21968
849.598	21831
849.734	21899
849.869	21793
850.004	21656
850.14	21698
850.275	21762
850.41	21717
850.545	21686
850.68	21641
850.815	21713
850.95	21682
851.085	21873
851.22	21876
851.355	21622
851.49	21713
851.625	21861
851.76	21679
851.895	21564
852.03	21644
852.165	21656
852.299	21781
852.434	21819
852.569	21827
852.703	21755
852.838	21743
852.973	21876
853.107	21888
853.242	21717
853.376	21557
853.511	21397
853.645	21439
853.78	21633
853.914	21625
854.048	21405
854.183	21576
854.317	21603
854.451	21774
854.585	21519
854.72	21447
854.854	21591
854.988	21477
855.122	21507
855.256	21397
855.39	21572
855.524	21679
855.658	21614
855.792	21614
855.926	21713
856.06	21614
856.194	21599
856.327	21542
856.461	21599
856.595	21504
856.729	21523
856.862	21587
856.996	21587
857.13	21614
857.263	21625
857.397	21557
857.53	21511
857.664	21679
857.797	21583
857.931	21667
858.064	21511
858.197	21568
858.331	21545
858.464	21462
858.597	21462
858.731	21564
858.864	21500
858.997	21481
859.13	21576
859.263	21564
859.396	21641
859.529	21534
859.662	21515
859.795	21610
859.928	21599
860.061	21770
860.194	21819
860.327	21637
860.46	21568
860.592	21770
860.725	21720
860.858	21675
860.99	21572
861.123	21454
861.256	21428
861.388	21545
861.521	22139
861.653	21363
861.786	21355
861.918	21412
862.05	21416
862.183	21500
862.315	21389
862.447	21538
862.58	21428
862.712	21233
862.844	21112
862.976	21302
863.108	21298
863.24	21656
863.372	21332
863.504	21237
863.636	21294
863.768	21397
863.9	21291
864.032	21138
864.164	21199
864.296	21332
864.428	21340
864.559	21355
864.691	21332
864.823	21287
864.954	21287
865.086	21226
865.217	21176
865.349	21043
865.48	21203
865.612	21085
865.743	21332
865.875	21241
866.006	21096
866.137	21150
866.269	21161
866.4	21005
866.531	20960
866.662	20914
866.793	21013
866.924	21047
867.055	21085
867.186	21096
867.317	20990
867.448	20986
867.579	21005
867.71	20979
867.841	21009
867.972	21032
868.103	21081
868.233	21077
868.364	21055
868.495	21199
868.625	21256
868.756	21397
868.886	21138
869.017	21321
869.147	21302
869.278	21302
869.408	21332
869.539	21291
869.669	21313
869.799	21310
869.929	21447
870.06	21416
870.19	21629
870.32	21599
870.45	21641
870.58	21492
870.71	21804
870.84	21831
870.97	21755
871.1	21637
871.23	21823
871.36	21899
871.489	21778
871.619	21888
871.749	21934
871.879	21937
872.008	21911
872.138	21816
872.267	21922
872.397	21679
872.526	21618
872.656	21808
872.785	21690
872.915	21915
873.044	22067
873.173	21983
873.303	22059
873.432	21861
873.561	22025
873.69	21934
873.819	21979
873.948	21949
874.077	21892
874.206	21956
874.335	21854
874.464	22021
874.593	22143
874.722	22116
874.851	22158
874.979	22196
875.108	22181
875.237	22021
875.365	22139
875.494	22097
875.623	22314
875.751	22063
875.88	22257
876.008	22287
876.136	22238
876.265	22413
876.393	22710
876.521	22637
876.65	22535
876.778	22557
876.906	22424
877.034	22436
877.162	22440
877.29	22325
877.418	22440
877.546	22508
877.674	22428
877.802	22413
877.93	22550
878.058	22459
878.185	22375
878.313	22500
878.441	22341
878.568	22192
878.696	22466
878.824	22470
878.951	22535
879.079	22683
879.206	22782
879.333	22637
879.461	22462
879.588	22584
879.715	22611
879.842	22759
879.97	22603
880.097	22344
880.224	22257
880.351	22402
880.478	22382
880.605	22325
880.732	22280
880.859	22535
880.986	22371
881.112	22306
881.239	22135
881.366	22063
881.493	21918
881.619	21968
881.746	21873
881.872	21808
881.999	21869
882.125	21934
882.252	21895
882.378	21991
882.505	21903
882.631	21720
882.757	21606
882.883	21614
883.01	21625
883.136	21561
883.262	21393
883.388	21397
883.514	21485
883.64	21656
883.766	21564
883.892	21340
884.018	21397
884.143	21603
884.269	21595
884.395	21279
884.52	21207
884.646	21264
884.772	21199
884.897	21428
885.023	21336
885.148	21344
885.274	21473
885.399	21233
885.524	21211
885.65	21260
885.775	21321
885.9	21192
886.025	21264
886.15	21367
886.275	21150
886.4	21203
886.525	21146
886.65	21161
886.775	21154
886.9	21275
887.025	21458
887.149	21252
887.274	20963
887.399	20971
887.523	21032
887.648	20982
887.773	20937
887.897	21074
888.021	21036
888.146	20990
888.27	21112
888.395	21184
888.519	21055
888.643	21051
888.767	21028
888.891	21024
889.015	20708
889.139	20868
889.263	20792
889.387	20937
889.511	21066
889.635	20948
889.759	20678
889.883	20705
890.006	20762
890.13	20876
890.254	20682
890.377	20644
890.501	20545
890.624	20514
890.748	20564
890.871	20438
890.995	20415
891.118	20305
891.241	20358
891.364	20431
891.488	20507
891.611	20351
891.734	20290
891.857	20389
891.98	20438
892.103	20415
892.226	20282
892.349	20332
892.471	20240
892.594	20370
892.717	20301
892.839	20317
892.962	20286
893.085	20332
893.207	20301
893.33	20138
893.452	20271
893.575	20351
893.697	20332
893.819	20419
893.941	20518
894.064	20396
894.186	20248
894.308	20225
894.43	20286
894.552	20412
894.674	20473
894.796	20210
894.918	20195
895.04	20244
895.161	20343
895.283	20446
895.405	20248
895.526	20332
895.648	20180
895.769	20221
895.891	20400
896.012	20298
896.134	20320
896.255	20332
896.376	20282
896.498	20328
896.619	20267
896.74	20301
896.861	20320
896.982	20629
897.103	20712
897.224	20552
897.345	20571
897.466	20545
897.587	20488
897.708	20571
897.828	20590
897.949	20389
898.07	20309
898.19	20419
898.311	20541
898.431	20480
898.552	20461
898.672	20541
898.792	20465
898.913	20522
899.033	20355
899.153	20343
899.273	20202
899.393	20252
899.513	20347
899.633	20298
899.753	20237
899.873	20161
899.993	20195
900.113	20164
900.232	20248
900.352	20145
900.472	20084
900.591	19974
900.711	20062
900.83	20008
900.95	20035
901.069	20111
901.189	19868
901.308	19590
901.427	19552
901.546	19620
901.665	19639
901.784	19601
901.904	19388
902.023	19388
902.141	19103
902.26	19095
902.379	19232
902.498	19069
902.617	19038
902.735	19042
902.854	18977
902.973	19065
903.091	18791
903.21	18810
903.328	18764
903.446	18684
903.565	18593
903.683	18582
903.801	18410
903.919	18498
904.038	18350
904.156	18414
904.274	18422
904.392	18448
904.51	18388
904.627	18323
904.745	18311
904.863	18403
904.981	18041
905.098	17908
905.216	17901
905.334	18117
905.451	18015
905.569	17973
905.686	18106
905.803	18019
905.921	17786
906.038	17897
906.155	17851
906.272	17741
906.389	17707
906.506	17623
906.623	17589
906.74	17512
906.857	17490
906.974	17558
907.091	17691
907.208	17718
907.324	17562
907.441	17402
907.557	17231
907.674	17261
907.79	17193
907.907	17239
908.023	17292
908.139	17220
908.256	17159
908.372	17151
908.488	17060
908.604	17060
908.72	16938
908.836	17003
908.952	16953
909.068	17079
909.184	17003
909.3	16869
909.415	17003
909.531	16965
909.647	16748
909.762	16820
909.878	16645
909.993	16672
910.108	16656
910.224	16641
910.339	16679
910.454	16577
910.57	16390
910.685	16546
910.8	16626
910.915	16660
911.03	16451
911.145	16295
911.259	16325
911.374	16325
911.489	16185
911.604	16177
911.718	15892
911.833	16032
911.947	15873
912.062	15873
912.176	15972
912.291	15895
912.405	15998
912.519	16181
912.633	16253
912.748	16013
912.862	15972
912.976	15793
913.09	15762
913.204	15785
913.318	15842
913.431	15949
913.545	15895
913.659	15964
913.772	15743
913.886	15663
914	15675
914.113	15789
914.226	15854
914.34	15671
914.453	15454
914.566	15629
914.68	15519
914.793	15473
914.906	15230
915.019	15207
915.132	15252
915.245	15165
915.358	15260
915.47	15283
915.583	15207
915.696	15214
915.809	15374
915.921	15355
916.034	15165
916.146	15131
916.259	15123
916.371	15233
916.483	15176
916.595	15009
916.708	15165
916.82	15112
916.932	14990
917.044	15116
917.156	15005
917.268	14990
917.38	15017
917.491	14910
917.603	14933
917.715	14891
917.826	14861
917.938	14769
918.049	14739
918.161	14914
918.272	14902
918.384	14906
918.495	14804
918.606	14697
918.717	14617
918.828	14773
918.939	14621
919.05	14530
919.161	14640
919.272	14366
919.383	14556
919.494	14697
919.604	14708
919.715	14583
919.826	14507
919.936	14667
920.047	14705
920.157	14560
920.267	14769
920.378	14503
920.488	14632
920.598	14788
920.708	14864
920.818	14769
920.928	14758
921.038	14800
921.148	14777
921.258	14530
921.368	14446
921.477	14339
921.587	14320
921.697	14229
921.806	14351
921.916	14229
922.025	14016
922.134	13974
922.244	13921
922.353	14031
922.462	13856
922.571	13719
922.68	13674
922.789	13559
922.898	13571
923.007	13639
923.116	13712
923.224	13594
923.333	13575
923.442	13510
923.55	13411
923.659	13377
923.767	13449
923.876	13491
923.984	13445
924.092	13274
924.201	13396
924.309	13308
924.417	13343
924.525	13285
924.633	13244
924.741	14145
924.849	13019
924.956	13187
925.064	13133
925.172	13015
925.279	13008
925.387	13042
925.494	12939
925.602	13217
925.709	13103
925.816	12848
925.924	12913
926.031	13107
926.138	13034
926.245	13023
926.352	12916
926.459	13065
926.566	13034
926.673	12916
926.779	12825
926.886	12810
926.993	12544
927.099	12585
927.206	12559
927.312	12551
927.419	12627
927.525	12631
927.631	12547
927.737	12467
927.843	12429
927.95	12300
928.056	12437
928.162	12429
928.267	12456
928.373	12989
928.479	12388
928.585	12155
928.69	12369
928.796	12471
928.901	12292
929.007	12144
929.112	12251
929.218	12224
929.323	12106
929.428	12095
929.533	12239
929.638	12102
929.743	12098
929.848	12091
929.953	12045
930.058	12019
930.163	11840
930.267	11798
930.372	11912
930.477	11733
930.581	11958
930.685	11863
930.79	11718
930.894	11722
930.998	11707
931.103	11893
931.207	11493
931.311	11372
931.415	11258
931.519	11140
931.623	11147
