Data from test_V78500241_219.txt Node
Date: Fri Mar 25 15:11:23 CST 2022
User: usil
Spectrometer: V785-0024
Trigger mode: 0
Integration Time (sec): 4.000000E-1
Scans to average: 1
Nonlinearity correction enabled: false
Boxcar width: 0
Storing dark spectrum: false
XAxis mode: Wavelengths
Number of Pixels in Spectrum: 1024
>>>>>Begin Spectral Data<<<<<
801.071	27717
801.214	27701
801.356	27568
801.499	27454
801.641	27298
801.783	27298
801.926	27336
802.068	27199
802.211	27119
802.353	27005
802.496	27104
802.638	26891
802.78	26979
802.923	26765
803.065	26815
803.208	26781
803.35	26960
803.492	26990
803.635	26944
803.777	26815
803.919	27009
804.061	27367
804.204	27017
804.346	26929
804.488	26902
804.63	26940
804.773	26807
804.915	26861
805.057	27081
805.199	26998
805.341	27096
805.483	27005
805.626	27024
805.768	26975
805.91	27135
806.052	27032
806.194	27032
806.336	27294
806.478	26906
806.62	26834
806.762	27070
806.904	27359
807.046	27542
807.188	27427
807.33	27370
807.472	27545
807.614	27302
807.756	27458
807.898	27287
808.04	27310
808.182	27108
808.324	27154
808.465	27195
808.607	27500
808.749	27542
808.891	27625
809.033	27842
809.174	27622
809.316	27629
809.458	27564
809.6	27648
809.741	27797
809.883	27682
810.025	27850
810.166	27838
810.308	27804
810.45	27823
810.591	27717
810.733	27667
810.875	27587
811.016	27458
811.158	27408
811.299	27523
811.441	27713
811.582	27766
811.724	27515
811.865	27488
812.007	27500
812.148	27652
812.29	27622
812.431	27717
812.573	27861
812.714	27911
812.855	28070
812.997	28299
813.138	28253
813.279	28078
813.421	28067
813.562	28173
813.703	27857
813.845	27835
813.986	27488
814.127	27382
814.268	27180
814.41	27192
814.551	27055
814.692	27359
814.833	27138
814.974	27135
815.115	27222
815.256	26956
815.397	27028
815.539	27070
815.68	26887
815.821	26876
815.962	26910
816.103	26918
816.244	26842
816.385	26625
816.526	26769
816.666	26541
816.807	26332
816.948	26541
817.089	26583
817.23	26370
817.371	26393
817.512	26252
817.653	26343
817.793	26202
817.934	26465
818.075	26305
818.216	26256
818.356	26347
818.497	26218
818.638	25940
818.778	26077
818.919	26054
819.06	26202
819.2	26256
819.341	26218
819.481	26396
819.622	26480
819.762	26533
819.903	26484
820.043	26514
820.184	26408
820.324	26457
820.465	26446
820.605	26419
820.746	26317
820.886	26248
821.026	26347
821.167	26199
821.307	26514
821.447	26309
821.588	26164
821.728	26046
821.868	25940
822.008	25708
822.149	25708
822.289	25803
822.429	25495
822.569	25358
822.709	25537
822.849	25335
822.99	25346
823.13	25171
823.27	25110
823.41	25110
823.55	24928
823.69	25175
823.83	25145
823.97	24916
824.11	24757
824.25	24798
824.389	24951
824.529	24909
824.669	24817
824.809	25027
824.949	24935
825.089	24821
825.228	24913
825.368	24677
825.508	24745
825.648	24696
825.787	24764
825.927	24726
826.067	24563
826.206	24745
826.346	24582
826.485	24715
826.625	24547
826.765	24764
826.904	24719
827.044	24361
827.183	24369
827.323	24342
827.462	24486
827.601	24228
827.741	24232
827.88	24369
828.02	24117
828.159	24361
828.298	24414
828.437	24372
828.577	24251
828.716	24334
828.855	24304
828.994	24182
829.134	24076
829.273	24136
829.412	24003
829.551	24083
829.69	24159
829.829	24106
829.968	24136
830.107	23999
830.246	24098
830.385	23939
830.524	23939
830.663	23843
830.802	23634
830.941	23687
831.08	23638
831.219	23680
831.357	23748
831.496	23794
831.635	23509
831.774	23509
831.913	23562
832.051	23387
832.19	23372
832.329	23436
832.467	23395
832.606	23277
832.744	23284
832.883	23235
833.022	23223
833.16	23318
833.299	23391
833.437	23318
833.576	23307
833.714	23216
833.852	23410
833.991	23433
834.129	23364
834.267	23372
834.406	23474
834.544	23349
834.682	23334
834.821	23239
834.959	23512
835.097	23334
835.235	23349
835.373	23223
835.511	23280
835.65	23181
835.788	23140
835.926	23094
836.064	22938
836.202	23064
836.34	23109
836.478	23204
836.615	23140
836.753	23037
836.891	23250
837.029	23181
837.167	23113
837.305	23003
837.443	23033
837.58	23075
837.718	23071
837.856	23185
837.993	22889
838.131	22877
838.269	22858
838.406	22911
838.544	22691
838.681	22618
838.819	22557
838.956	22497
839.094	22360
839.231	22432
839.369	22622
839.506	22759
839.643	22797
839.781	22409
839.918	22341
840.055	22440
840.193	22455
840.33	22367
840.467	22379
840.604	22546
840.742	22649
840.879	22226
841.016	22242
841.153	22238
841.29	22500
841.427	22402
841.564	22303
841.701	22398
841.838	22265
841.975	22070
842.112	22181
842.249	22120
842.385	22105
842.522	22204
842.659	21956
842.796	22150
842.933	22181
843.069	22021
843.206	22055
843.343	22177
843.479	22082
843.616	22169
843.752	21861
843.889	21880
844.025	22093
844.162	21926
844.298	21892
844.435	21854
844.571	21838
844.708	21949
844.844	22025
844.98	21998
845.117	22036
845.253	21713
845.389	21793
845.525	21671
845.661	21686
845.798	21534
845.934	21614
846.07	21656
846.206	21606
846.342	21682
846.478	21507
846.614	21447
846.75	21306
846.886	21359
847.022	21340
847.158	21386
847.294	21321
847.429	21344
847.565	21275
847.701	21530
847.837	21070
847.972	21074
848.108	21096
848.244	21028
848.379	20914
848.515	20838
848.65	20754
848.786	20929
848.921	20796
849.057	21005
849.192	21058
849.328	20971
849.463	20796
849.598	20960
849.734	20724
849.869	20754
850.004	20640
850.14	20613
850.275	20819
850.41	20579
850.545	20689
850.68	20613
850.815	20636
850.95	20545
851.085	20826
851.22	20617
851.355	20644
851.49	20674
851.625	20617
851.76	20545
851.895	20537
852.03	20579
852.165	20609
852.299	20651
852.434	20689
852.569	20754
852.703	20648
852.838	20708
852.973	20602
853.107	20754
853.242	20503
853.376	20469
853.511	20244
853.645	20484
853.78	20427
853.914	20514
854.048	20377
854.183	20381
854.317	20465
854.451	20651
854.585	20427
854.72	20396
854.854	20511
854.988	20381
855.122	20351
855.256	20263
855.39	20317
855.524	20556
855.658	20336
855.792	20560
855.926	20488
856.06	20412
856.194	20499
856.327	20503
856.461	20271
856.595	20457
856.729	20358
856.862	20507
856.996	20415
857.13	20507
857.263	20488
857.397	20484
857.53	20438
857.664	20511
857.797	20400
857.931	20594
858.064	20366
858.197	20545
858.331	20408
858.464	20343
858.597	20256
858.731	20427
858.864	20305
858.997	20389
859.13	20374
859.263	20423
859.396	20590
859.529	20408
859.662	20396
859.795	20298
859.928	20400
860.061	20465
860.194	20689
860.327	20396
860.46	20347
860.592	20492
860.725	20587
860.858	20469
860.99	20320
861.123	20332
861.256	20366
861.388	20381
861.521	21039
861.653	20225
861.786	20263
861.918	20183
862.05	20301
862.183	20263
862.315	20438
862.447	20427
862.58	20431
862.712	20062
862.844	20119
862.976	20336
863.108	20252
863.24	20606
863.372	20024
863.504	20096
863.636	20016
863.768	20187
863.9	20111
864.032	19993
864.164	20077
864.296	20134
864.428	20210
864.559	20164
864.691	20168
864.823	20084
864.954	20119
865.086	20058
865.217	20149
865.349	20001
865.48	20012
865.612	20046
865.743	20092
865.875	20058
866.006	19890
866.137	19963
866.269	20027
866.4	20001
866.531	19917
866.662	19860
866.793	19811
866.924	19860
867.055	19871
867.186	19936
867.317	19894
867.448	19875
867.579	19814
867.71	19921
867.841	19906
867.972	19928
868.103	19936
868.233	20005
868.364	19951
868.495	20077
868.625	20153
868.756	20210
868.886	20024
869.017	20267
869.147	20313
869.278	20301
869.408	20206
869.539	20202
869.669	20324
869.799	20278
869.929	20320
870.06	20191
870.19	20400
870.32	20526
870.45	20461
870.58	20606
870.71	20541
870.84	20613
870.97	20514
871.1	20568
871.23	20792
871.36	20735
871.489	20697
871.619	20731
871.749	20765
871.879	20868
872.008	20914
872.138	20632
872.267	20762
872.397	20670
872.526	20537
872.656	20651
872.785	20632
872.915	20804
873.044	20960
873.173	20754
873.303	20967
873.432	20880
873.561	20952
873.69	20815
873.819	20941
873.948	20925
874.077	20758
874.206	20701
874.335	20724
874.464	20963
874.593	21123
874.722	20937
874.851	21017
874.979	21184
875.108	21131
875.237	20937
875.365	20998
875.494	21142
875.623	21055
875.751	21085
875.88	21077
876.008	21119
876.136	21252
876.265	21454
876.393	21629
876.521	21526
876.65	21511
876.778	21397
876.906	21408
877.034	21351
877.162	21359
877.29	21363
877.418	21466
877.546	21329
877.674	21485
877.802	21405
877.93	21435
878.058	21313
878.185	21192
878.313	21416
878.441	21348
878.568	21245
878.696	21374
878.824	21382
878.951	21481
879.079	21603
879.206	21743
879.333	21580
879.461	21553
879.588	21500
879.715	21576
879.842	21671
879.97	21477
880.097	21249
880.224	21123
880.351	21169
880.478	21279
880.605	21146
880.732	21154
880.859	21389
880.986	21233
881.112	21348
881.239	20960
881.366	20910
881.493	20876
881.619	20902
881.746	20967
881.872	20769
881.999	20739
882.125	20720
882.252	20914
882.378	20777
882.505	20872
882.631	20670
882.757	20609
882.883	20575
883.01	20629
883.136	20564
883.262	20385
883.388	20381
883.514	20583
883.64	20507
883.766	20583
883.892	20313
884.018	20324
884.143	20499
884.269	20537
884.395	20210
884.52	20126
884.646	20240
884.772	20191
884.897	20069
885.023	20191
885.148	20142
885.274	20393
885.399	20347
885.524	20092
885.65	20267
885.775	20214
885.9	20043
886.025	20237
886.15	20240
886.275	20088
886.4	20039
886.525	20183
886.65	20115
886.775	19940
886.9	20252
887.025	20427
887.149	20020
887.274	20065
887.399	20054
887.523	19955
887.648	19944
887.773	19841
887.897	19864
888.021	19951
888.146	19856
888.27	19993
888.395	20046
888.519	19997
888.643	19989
888.767	19959
888.891	19883
889.015	19761
889.139	19864
889.263	19757
889.387	19753
889.511	19947
889.635	19928
889.759	19731
889.883	19658
890.006	19860
890.13	19830
890.254	19670
890.377	19605
890.501	19502
890.624	19343
890.748	19559
890.871	19438
890.995	19324
891.118	19232
891.241	19259
891.364	19282
891.488	19430
891.611	19346
891.734	19365
891.857	19396
891.98	19354
892.103	19343
892.226	19282
892.349	19274
892.471	19084
892.594	19373
892.717	19324
892.839	19221
892.962	19285
893.085	19247
893.207	19133
893.33	19206
893.452	19168
893.575	19274
893.697	19110
893.819	19365
893.941	19457
894.064	19335
894.186	19168
894.308	19084
894.43	19331
894.552	19415
894.674	19339
894.796	19156
894.918	19209
895.04	19160
895.161	19377
895.283	19232
895.405	19308
895.526	19263
895.648	19377
895.769	19304
895.891	19274
896.012	19422
896.134	19209
896.255	19312
896.376	19145
896.498	19221
896.619	19373
896.74	19354
896.861	19400
896.982	19624
897.103	19849
897.224	19597
897.345	19529
897.466	19548
897.587	19499
897.708	19696
897.828	19609
897.949	19384
898.07	19354
898.19	19514
898.311	19620
898.431	19495
898.552	19400
898.672	19578
898.792	19514
898.913	19384
899.033	19430
899.153	19270
899.273	19076
899.393	19263
899.513	19202
899.633	19133
899.753	19274
899.873	19088
899.993	19225
900.113	19190
900.232	19304
900.352	19141
900.472	19152
900.591	18928
900.711	19053
900.83	18981
900.95	19145
901.069	19152
901.189	18928
901.308	18719
901.427	18620
901.546	18684
901.665	18661
901.784	18741
901.904	18551
902.023	18346
902.141	18216
902.26	18201
902.379	18304
902.498	18243
902.617	18163
902.735	18220
902.854	18136
902.973	17992
903.091	17954
903.21	17786
903.328	17779
903.446	17718
903.565	17672
903.683	17748
903.801	17501
903.919	17619
904.038	17509
904.156	17349
904.274	17459
904.392	17364
904.51	17296
904.627	17429
904.745	17455
904.863	17467
904.981	17216
905.098	17083
905.216	17121
905.334	17132
905.451	16942
905.569	17094
905.686	17018
905.803	17109
905.921	16972
906.038	17086
906.155	16847
906.272	16748
906.389	16797
906.506	16668
906.623	16626
906.74	16466
906.857	16428
906.974	16504
907.091	16675
907.208	16645
907.324	16725
907.441	16554
907.557	16303
907.674	16333
907.79	16204
907.907	16215
908.023	16291
908.139	16207
908.256	16303
908.372	16185
908.488	16154
908.604	16169
908.72	15968
908.836	15937
908.952	15975
909.068	16086
909.184	16147
909.3	16097
909.415	16086
909.531	16101
909.647	15705
909.762	15709
909.878	15808
909.993	15793
910.108	15705
910.224	15610
910.339	15656
910.454	15724
910.57	15504
910.685	15538
910.8	15751
910.915	15690
911.03	15618
911.145	15272
911.259	15287
911.374	15268
911.489	15325
911.604	15097
911.718	15036
911.833	15112
911.947	14986
912.062	14880
912.176	15081
912.291	14967
912.405	15036
912.519	15291
912.633	15207
912.748	15074
912.862	15085
912.976	14921
913.09	14788
913.204	14887
913.318	14899
913.431	14914
913.545	15024
913.659	15043
913.772	14765
913.886	14678
914	14712
914.113	14743
914.226	14762
914.34	14777
914.453	14617
914.566	14670
914.68	14636
914.793	14625
914.906	14434
915.019	14275
915.132	14240
915.245	14347
915.358	14347
915.47	14339
915.583	14347
915.696	14389
915.809	14465
915.921	14381
916.034	14317
916.146	14229
916.259	14183
916.371	14400
916.483	14362
916.595	14229
916.708	14126
916.82	14149
916.932	14176
917.044	14088
917.156	14100
917.268	14031
917.38	14088
917.491	13925
917.603	14039
917.715	14119
917.826	14081
917.938	13871
918.049	13814
918.161	14039
918.272	14134
918.384	14138
918.495	14031
918.606	13761
918.717	13856
918.828	13852
918.939	13928
919.05	13666
919.161	13845
919.272	13548
919.383	13628
919.494	13837
919.604	13951
919.715	13860
919.826	13677
919.936	13772
920.047	13833
920.157	13715
920.267	13932
920.378	13723
920.488	13666
920.598	13890
920.708	13993
920.818	13868
920.928	13753
921.038	14119
921.148	14020
921.258	13712
921.368	13632
921.477	13476
921.587	13453
921.697	13426
921.806	13388
921.916	13266
922.025	13278
922.134	13126
922.244	13122
922.353	13225
922.462	13000
922.571	12913
922.68	12764
922.789	12776
922.898	12814
923.007	12734
923.116	12817
923.224	12863
923.333	12749
923.442	12582
923.55	12642
923.659	12608
923.767	12662
923.876	12654
923.984	12566
924.092	12498
924.201	12620
924.309	12536
924.417	12528
924.525	12486
924.633	12437
924.741	13304
924.849	12327
924.956	12475
925.064	12262
925.172	12220
925.279	12273
925.387	12251
925.494	12182
925.602	12323
925.709	12334
925.816	12186
925.924	12281
926.031	12311
926.138	12300
926.245	12216
926.352	12117
926.459	12258
926.566	12292
926.673	12076
926.779	12083
926.886	11931
926.993	11859
927.099	11843
927.206	11813
927.312	11794
927.419	11874
927.525	11885
927.631	11843
927.737	11695
927.843	11748
927.95	11562
928.056	11630
928.162	11718
928.267	11729
928.373	12334
928.479	11691
928.585	11566
928.69	11668
928.796	11745
928.901	11600
929.007	11391
929.112	11554
929.218	11448
929.323	11452
929.428	11448
929.533	11505
929.638	11337
929.743	11318
929.848	11402
929.953	11296
930.058	11277
930.163	11128
930.267	11079
930.372	11288
930.477	11117
930.581	11273
930.685	11220
930.79	10946
930.894	11048
930.998	10961
931.103	11140
931.207	10717
931.311	10714
931.415	10565
931.519	10428
931.623	10436
