Data from test_V78500241_824.txt Node
Date: Fri Mar 25 15:15:35 CST 2022
User: usil
Spectrometer: V785-0024
Trigger mode: 0
Integration Time (sec): 4.000000E-1
Scans to average: 1
Nonlinearity correction enabled: false
Boxcar width: 0
Storing dark spectrum: false
XAxis mode: Wavelengths
Number of Pixels in Spectrum: 1024
>>>>>Begin Spectral Data<<<<<
801.071	28375
801.214	28303
801.356	27987
801.499	28025
801.641	27899
801.783	27861
801.926	27930
802.068	27759
802.211	27789
802.353	27709
802.496	27523
802.638	27545
802.78	27519
802.923	27679
803.065	27526
803.208	27481
803.35	27663
803.492	27500
803.635	27698
803.777	27504
803.919	27819
804.061	28078
804.204	27797
804.346	27656
804.488	27629
804.63	27739
804.773	27504
804.915	27850
805.057	27819
805.199	27648
805.341	27842
805.483	27884
805.626	27888
805.768	27785
805.91	27888
806.052	27789
806.194	27778
806.336	28036
806.478	28002
806.62	27926
806.762	28010
806.904	28223
807.046	28417
807.188	28287
807.33	28303
807.472	28371
807.614	28234
807.756	28253
807.898	28139
808.04	28242
808.182	28090
808.324	28375
808.465	28097
808.607	28440
808.749	28565
808.891	28637
809.033	28820
809.174	28599
809.316	28603
809.458	28733
809.6	28565
809.741	28691
809.883	28694
810.025	28763
810.166	28885
810.308	28858
810.45	28824
810.591	28748
810.733	28588
810.875	28596
811.016	28451
811.158	28474
811.299	28630
811.441	28713
811.582	28740
811.724	28580
811.865	28371
812.007	28622
812.148	28675
812.29	28599
812.431	28797
812.573	28923
812.714	29029
812.855	29280
812.997	29360
813.138	29364
813.279	29288
813.421	29174
813.562	29204
813.703	28980
813.845	28892
813.986	28561
814.127	28451
814.268	28356
814.41	28249
814.551	28242
814.692	28352
814.833	28291
814.974	28173
815.115	28360
815.256	28242
815.397	28177
815.539	28109
815.68	28204
815.821	27953
815.962	28192
816.103	28059
816.244	27869
816.385	27953
816.526	28063
816.666	27778
816.807	27538
816.948	27641
817.089	27637
817.23	27633
817.371	27789
817.512	27732
817.653	27705
817.793	27568
817.934	27595
818.075	27743
818.216	27671
818.356	27633
818.497	27534
818.638	27367
818.778	27359
818.919	27393
819.06	27488
819.2	27538
819.341	27751
819.481	27595
819.622	27671
819.762	28006
819.903	27880
820.043	27873
820.184	27686
820.324	27641
820.465	27785
820.605	27751
820.746	27797
820.886	27648
821.026	27797
821.167	27652
821.307	27819
821.447	27568
821.588	27557
821.728	27488
821.868	27268
822.008	27055
822.149	27028
822.289	27074
822.429	26849
822.569	26773
822.709	26857
822.849	26480
822.99	26640
823.13	26590
823.27	26590
823.41	26305
823.55	26336
823.69	26381
823.83	26396
823.97	26301
824.11	26187
824.25	26317
824.389	26298
824.529	26336
824.669	26168
824.809	26389
824.949	26248
825.089	26370
825.228	26332
825.368	26176
825.508	26039
825.648	26024
825.787	26168
825.927	26183
826.067	26073
826.206	26149
826.346	26202
826.485	26122
826.625	26092
826.765	26339
826.904	26240
827.044	25887
827.183	25959
827.323	25849
827.462	25940
827.601	25883
827.741	25947
827.88	25868
828.02	25616
828.159	25788
828.298	25871
828.437	25864
828.577	25670
828.716	25822
828.855	25852
828.994	25601
829.134	25590
829.273	25556
829.412	25491
829.551	25441
829.69	25445
829.829	25647
829.968	25609
830.107	25556
830.246	25510
830.385	25422
830.524	25384
830.663	25422
830.802	25232
830.941	25095
831.08	25057
831.219	25285
831.357	25346
831.496	25392
831.635	25160
831.774	25015
831.913	25038
832.051	24909
832.19	24935
832.329	25103
832.467	24928
832.606	24810
832.744	24863
832.883	24840
833.022	24764
833.16	24863
833.299	24863
833.437	24814
833.576	24875
833.714	24787
833.852	24958
833.991	24966
834.129	24977
834.267	24977
834.406	24886
834.544	24947
834.682	25061
834.821	24985
834.959	24989
835.097	24844
835.235	24814
835.373	24924
835.511	24844
835.65	24814
835.788	24772
835.926	24608
836.064	24593
836.202	24570
836.34	24688
836.478	24745
836.615	24654
836.753	24639
836.891	24692
837.029	24639
837.167	24612
837.305	24555
837.443	24692
837.58	24559
837.718	24555
837.856	24654
837.993	24388
838.131	24547
838.269	24391
838.406	24509
838.544	24220
838.681	24110
838.819	24129
838.956	24057
839.094	24041
839.231	24095
839.369	24194
839.506	24353
839.643	24213
839.781	24018
839.918	24018
840.055	23977
840.193	23889
840.33	23828
840.467	23950
840.604	23977
840.742	24289
840.879	23714
841.016	23843
841.153	23809
841.29	23923
841.427	23832
841.564	23950
841.701	23912
841.838	23882
841.975	23718
842.112	23805
842.249	23630
842.385	23589
842.522	23832
842.659	23611
842.796	23589
842.933	23596
843.069	23589
843.206	23695
843.343	23805
843.479	23623
843.616	23733
843.752	23512
843.889	23444
844.025	23531
844.162	23474
844.298	23497
844.435	23547
844.571	23459
844.708	23398
844.844	23710
844.98	23463
845.117	23486
845.253	23402
845.389	23315
845.525	23246
845.661	23269
845.798	23246
845.934	23273
846.07	23189
846.206	23113
846.342	23258
846.478	23010
846.614	22877
846.75	22862
846.886	22923
847.022	23041
847.158	22900
847.294	22824
847.429	22999
847.565	22786
847.701	23048
847.837	22577
847.972	22637
848.108	22634
848.244	22668
848.379	22622
848.515	22527
848.65	22516
848.786	22588
848.921	22527
849.057	22557
849.192	22466
849.328	22504
849.463	22485
849.598	22344
849.734	22344
849.869	22204
850.004	22242
850.14	22329
850.275	22295
850.41	22318
850.545	22284
850.68	22207
850.815	22257
850.95	22268
851.085	22497
851.22	22322
851.355	22306
851.49	22318
851.625	22352
851.76	22230
851.895	22230
852.03	22166
852.165	22280
852.299	22219
852.434	22360
852.569	22356
852.703	22276
852.838	22417
852.973	22531
853.107	22405
853.242	22238
853.376	22143
853.511	22002
853.645	22116
853.78	22196
853.914	22090
854.048	21983
854.183	21945
854.317	22025
854.451	22284
854.585	22093
854.72	22173
854.854	22158
854.988	21983
855.122	22093
855.256	21918
855.39	22105
855.524	22116
855.658	22139
855.792	22036
855.926	22147
856.06	22090
856.194	22261
856.327	22082
856.461	21945
856.595	21979
856.729	22158
856.862	22246
856.996	22093
857.13	22185
857.263	22166
857.397	22112
857.53	22128
857.664	22116
857.797	22188
857.931	22249
858.064	22093
858.197	22196
858.331	22025
858.464	21945
858.597	21915
858.731	22029
858.864	22078
858.997	22055
859.13	22055
859.263	22010
859.396	22093
859.529	21895
859.662	22021
859.795	22090
859.928	22029
860.061	22090
860.194	22215
860.327	22090
860.46	22021
860.592	22185
860.725	22204
860.858	22112
860.99	21964
861.123	22006
861.256	22070
861.388	22181
861.521	22915
861.653	21930
861.786	21835
861.918	21941
862.05	21972
862.183	22006
862.315	22017
862.447	22128
862.58	21994
862.712	21808
862.844	21671
862.976	21991
863.108	21899
863.24	22192
863.372	21732
863.504	21800
863.636	21724
863.768	21808
863.9	21732
864.032	21675
864.164	21576
864.296	21873
864.428	21827
864.559	21892
864.691	21835
864.823	21846
864.954	21759
865.086	21747
865.217	21660
865.349	21576
865.48	21705
865.612	21701
865.743	21774
865.875	21644
866.006	21583
866.137	21717
866.269	21660
866.4	21679
866.531	21671
866.662	21568
866.793	21561
866.924	21709
867.055	21526
867.186	21705
867.317	21614
867.448	21534
867.579	21553
867.71	21492
867.841	21473
867.972	21648
868.103	21614
868.233	21545
868.364	21641
868.495	21747
868.625	21762
868.756	21850
868.886	21766
869.017	21861
869.147	22025
869.278	21934
869.408	21770
869.539	21922
869.669	21888
869.799	21930
869.929	21975
870.06	21888
870.19	22112
870.32	22101
870.45	22162
870.58	22257
870.71	22402
870.84	22238
870.97	22215
871.1	22188
871.23	22390
871.36	22360
871.489	22303
871.619	22409
871.749	22367
871.879	22527
872.008	22390
872.138	22481
872.267	22417
872.397	22257
872.526	22196
872.656	22291
872.785	22185
872.915	22500
873.044	22489
873.173	22375
873.303	22421
873.432	22443
873.561	22546
873.69	22329
873.819	22299
873.948	22382
874.077	22367
874.206	22344
874.335	22284
874.464	22504
874.593	22664
874.722	22637
874.851	22615
874.979	22668
875.108	22797
875.237	22626
875.365	22402
875.494	22672
875.623	22683
875.751	22599
875.88	22615
876.008	22721
876.136	22782
876.265	23044
876.393	23094
876.521	23010
876.65	23079
876.778	23048
876.906	23067
877.034	22866
877.162	23022
877.29	23029
877.418	22892
877.546	23006
877.674	22904
877.802	22980
877.93	22957
878.058	22961
878.185	22881
878.313	22869
878.441	22961
878.568	22763
878.696	22957
878.824	22976
878.951	23102
879.079	23113
879.206	23356
879.333	23212
879.461	23041
879.588	23140
879.715	23140
879.842	23212
879.97	23124
880.097	22721
880.224	22805
880.351	22850
880.478	22850
880.605	22843
880.732	22774
880.859	23003
880.986	22691
881.112	22733
881.239	22611
881.366	22550
881.493	22500
881.619	22356
881.746	22367
881.872	22481
881.999	22265
882.125	22322
882.252	22386
882.378	22375
882.505	22409
882.631	22166
882.757	21964
882.883	22158
883.01	22086
883.136	22070
883.262	21934
883.388	21899
883.514	22021
883.64	21998
883.766	21941
883.892	21819
884.018	21785
884.143	21968
884.269	22048
884.395	21755
884.52	21591
884.646	21717
884.772	21545
884.897	21644
885.023	21808
885.148	21576
885.274	21743
885.399	21724
885.524	21728
885.65	21698
885.775	21648
885.9	21595
886.025	21854
886.15	21755
886.275	21694
886.4	21622
886.525	21667
886.65	21656
886.775	21534
886.9	21838
887.025	21922
887.149	21591
887.274	21488
887.399	21519
887.523	21408
887.648	21382
887.773	21367
887.897	21572
888.021	21538
888.146	21279
888.27	21591
888.395	21431
888.519	21504
888.643	21481
888.767	21329
888.891	21332
889.015	21287
889.139	21268
889.263	21291
889.387	21249
889.511	21428
889.635	21367
889.759	21176
889.883	21180
890.006	21211
890.13	21260
890.254	21264
890.377	21093
890.501	21062
890.624	20887
890.748	21070
890.871	20899
890.995	20785
891.118	20731
891.241	20758
891.364	20823
891.488	20868
891.611	20842
891.734	20773
891.857	20952
891.98	20807
892.103	20933
892.226	20807
892.349	20670
892.471	20568
892.594	20655
892.717	20777
892.839	20693
892.962	20682
893.085	20686
893.207	20746
893.33	20549
893.452	20720
893.575	20796
893.697	20667
893.819	20868
893.941	20792
894.064	20720
894.186	20762
894.308	20568
894.43	20712
894.552	20777
894.674	20769
894.796	20590
894.918	20602
895.04	20762
895.161	20754
895.283	20667
895.405	20648
895.526	20674
895.648	20533
895.769	20617
895.891	20678
896.012	20708
896.134	20689
896.255	20697
896.376	20689
896.498	20735
896.619	20731
896.74	20705
896.861	20708
896.982	20963
897.103	21116
897.224	20910
897.345	20819
897.466	20731
897.587	20819
897.708	21005
897.828	20792
897.949	20838
898.07	20819
898.19	20857
898.311	20994
898.431	20727
898.552	20925
898.672	21001
898.792	20906
898.913	20853
899.033	20788
899.153	20629
899.273	20476
899.393	20518
899.513	20697
899.633	20526
899.753	20560
899.873	20454
899.993	20568
900.113	20530
900.232	20533
900.352	20613
900.472	20393
900.591	20324
900.711	20298
900.83	20343
900.95	20495
901.069	20530
901.189	20183
901.308	20035
901.427	20020
901.546	19944
901.665	19993
901.784	19963
901.904	19811
902.023	19734
902.141	19525
902.26	19525
902.379	19605
902.498	19480
902.617	19514
902.735	19556
902.854	19441
902.973	19373
903.091	19088
903.21	19194
903.328	19228
903.446	19065
903.565	18973
903.683	19031
903.801	18886
903.919	18856
904.038	18878
904.156	18772
904.274	18730
904.392	18673
904.51	18525
904.627	18608
904.745	18681
904.863	18825
904.981	18479
905.098	18407
905.216	18342
905.334	18460
905.451	18391
905.569	18361
905.686	18376
905.803	18308
905.921	18068
906.038	18327
906.155	18076
906.272	18190
906.389	18072
906.506	17973
906.623	17939
906.74	17855
906.857	17760
906.974	17756
907.091	18022
907.208	18045
907.324	17866
907.441	17767
907.557	17714
907.674	17642
907.79	17570
907.907	17604
908.023	17642
908.139	17589
908.256	17592
908.372	17417
908.488	17391
908.604	17410
908.72	17334
908.836	17284
908.952	17326
909.068	17326
909.184	17459
909.3	17254
909.415	17315
909.531	17277
909.647	17166
909.762	16980
909.878	17056
909.993	17041
910.108	16946
910.224	16885
910.339	16934
910.454	16828
910.57	16866
910.685	16881
910.8	17041
910.915	16831
911.03	16771
911.145	16694
911.259	16634
911.374	16508
911.489	16550
911.604	16535
911.718	16268
911.833	16417
911.947	16249
912.062	16150
912.176	16318
912.291	16394
912.405	16284
912.519	16504
912.633	16508
912.748	16440
912.862	16287
912.976	16230
913.09	16059
913.204	16173
913.318	16230
913.431	16265
913.545	16162
913.659	16268
913.772	16055
913.886	15915
914	16051
914.113	16006
914.226	16150
914.34	16040
914.453	15800
914.566	16013
914.68	15934
914.793	15789
914.906	15633
915.019	15557
915.132	15553
915.245	15561
915.358	15576
915.47	15572
915.583	15557
915.696	15557
915.809	15572
915.921	15713
916.034	15538
916.146	15454
916.259	15408
916.371	15542
916.483	15485
916.595	15393
916.708	15329
916.82	15287
916.932	15435
917.044	15306
917.156	15378
917.268	15184
917.38	15260
917.491	15077
917.603	15195
917.715	15173
917.826	15340
917.938	15150
918.049	14967
918.161	15112
918.272	15325
918.384	15260
918.495	15165
918.606	14944
918.717	14902
918.828	14986
918.939	14944
919.05	14819
919.161	14944
919.272	14727
919.383	14891
919.494	14925
919.604	15070
919.715	14899
919.826	14880
919.936	14845
920.047	14941
920.157	14944
920.267	15108
920.378	14868
920.488	14853
920.598	15017
920.708	15142
920.818	14998
920.928	15001
921.038	15070
921.148	15066
921.258	14868
921.368	14705
921.477	14552
921.587	14636
921.697	14461
921.806	14667
921.916	14480
922.025	14290
922.134	14172
922.244	14202
922.353	14271
922.462	14119
922.571	14073
922.68	13917
922.789	13955
922.898	13814
923.007	13852
923.116	13928
923.224	13906
923.333	13909
923.442	13799
923.55	13860
923.659	13849
923.767	13795
923.876	13757
923.984	13761
924.092	13556
924.201	13590
924.309	13674
924.417	13620
924.525	13506
924.633	13495
924.741	14336
924.849	13373
924.956	13460
925.064	13335
925.172	13171
925.279	13263
925.387	13362
925.494	13289
925.602	13480
925.709	13293
925.816	13259
925.924	13244
926.031	13343
926.138	13236
926.245	13293
926.352	13168
926.459	13232
926.566	13354
926.673	13141
926.779	13038
926.886	13004
926.993	12886
927.099	12833
927.206	12669
927.312	12734
927.419	12920
927.525	12924
927.631	12817
927.737	12844
927.843	12616
927.95	12532
928.056	12696
928.162	12730
928.267	12665
928.373	13301
928.479	12745
928.585	12467
928.69	12525
928.796	12688
928.901	12509
929.007	12323
929.112	12467
929.218	12490
929.323	12410
929.428	12418
929.533	12551
929.638	12239
929.743	12323
929.848	12418
929.953	12323
930.058	12220
930.163	12049
930.267	12041
930.372	12194
930.477	12053
930.581	12228
930.685	12152
930.79	12011
930.894	11908
930.998	11904
931.103	12038
931.207	11741
931.311	11589
931.415	11551
931.519	11337
931.623	11246
