Data from test_V78500241_3204.txt Node
Date: Fri Mar 25 15:32:10 CST 2022
User: usil
Spectrometer: V785-0024
Trigger mode: 0
Integration Time (sec): 4.000000E-1
Scans to average: 1
Nonlinearity correction enabled: false
Boxcar width: 0
Storing dark spectrum: false
XAxis mode: Wavelengths
Number of Pixels in Spectrum: 1024
>>>>>Begin Spectral Data<<<<<
801.071	27077
801.214	27043
801.356	26864
801.499	26606
801.641	26587
801.783	26689
801.926	26651
802.068	26522
802.211	26541
802.353	26419
802.496	26237
802.638	26271
802.78	26244
802.923	26187
803.065	26153
803.208	26206
803.35	26180
803.492	26370
803.635	26412
803.777	26256
803.919	26347
804.061	26731
804.204	26419
804.346	26225
804.488	26229
804.63	26294
804.773	26294
804.915	26381
805.057	26541
805.199	26328
805.341	26522
805.483	26400
805.626	26621
805.768	26229
805.91	26522
806.052	26568
806.194	26355
806.336	26724
806.478	26476
806.62	26511
806.762	26442
806.904	26705
807.046	26929
807.188	26933
807.33	26872
807.472	26819
807.614	26948
807.756	26849
807.898	26503
808.04	26537
808.182	26708
808.324	26845
808.465	26762
808.607	26929
808.749	27024
808.891	27249
809.033	27142
809.174	27173
809.316	27165
809.458	27135
809.6	26986
809.741	27218
809.883	27176
810.025	27397
810.166	27359
810.308	27332
810.45	27279
810.591	27431
810.733	27192
810.875	27157
811.016	26994
811.158	27020
811.299	27176
811.441	27180
811.582	27340
811.724	27089
811.865	27051
812.007	26979
812.148	27066
812.29	27165
812.431	27188
812.573	27317
812.714	27408
812.855	27599
812.997	27614
813.138	27686
813.279	27728
813.421	27568
813.562	27561
813.703	27374
813.845	27195
813.986	27047
814.127	26933
814.268	26868
814.41	26868
814.551	26598
814.692	26796
814.833	26758
814.974	26594
815.115	26800
815.256	26453
815.397	26632
815.539	26686
815.68	26526
815.821	26587
815.962	26396
816.103	26446
816.244	26328
816.385	26370
816.526	26168
816.666	26084
816.807	25928
816.948	26035
817.089	26111
817.23	26043
817.371	25955
817.512	26054
817.653	25921
817.793	26005
817.934	25993
818.075	26084
818.216	26134
818.356	25947
818.497	25818
818.638	25666
818.778	25708
818.919	25822
819.06	25814
819.2	25947
819.341	25921
819.481	25944
819.622	26005
819.762	26275
819.903	26233
820.043	26024
820.184	26005
820.324	26016
820.465	26058
820.605	26187
820.746	26161
820.886	26058
821.026	26065
821.167	26008
821.307	26012
821.447	25997
821.588	25970
821.728	25742
821.868	25750
822.008	25502
822.149	25434
822.289	25422
822.429	25221
822.569	25206
822.709	25038
822.849	25095
822.99	24992
823.13	24985
823.27	24909
823.41	24817
823.55	24673
823.69	24722
823.83	24738
823.97	24631
824.11	24566
824.25	24566
824.389	24551
824.529	24631
824.669	24593
824.809	24673
824.949	24593
825.089	24760
825.228	24669
825.368	24437
825.508	24452
825.648	24361
825.787	24426
825.927	24547
826.067	24262
826.206	24475
826.346	24464
826.485	24570
826.625	24452
826.765	24494
826.904	24433
827.044	24304
827.183	24152
827.323	24110
827.462	24182
827.601	24163
827.741	24258
827.88	24194
828.02	23984
828.159	24018
828.298	24247
828.437	24220
828.577	24155
828.716	24300
828.855	24129
828.994	23828
829.134	23984
829.273	23920
829.412	23790
829.551	23901
829.69	23973
829.829	23950
829.968	24022
830.107	23874
830.246	23828
830.385	23779
830.524	23809
830.663	23604
830.802	23623
830.941	23448
831.08	23425
831.219	23600
831.357	23505
831.496	23634
831.635	23543
831.774	23425
831.913	23337
832.051	23326
832.19	23315
832.329	23204
832.467	23208
832.606	23189
832.744	23079
832.883	23200
833.022	23136
833.16	23128
833.299	23094
833.437	23193
833.576	23299
833.714	23212
833.852	23299
833.991	23273
834.129	23406
834.267	23376
834.406	23239
834.544	23315
834.682	23185
834.821	23174
834.959	23356
835.097	23174
835.235	23258
835.373	23170
835.511	23223
835.65	23132
835.788	23159
835.926	23003
836.064	22839
836.202	22987
836.34	23105
836.478	23227
836.615	23014
836.753	23071
836.891	23102
837.029	23003
837.167	22957
837.305	23025
837.443	22976
837.58	22877
837.718	23113
837.856	23048
837.993	22752
838.131	22919
838.269	22843
838.406	22896
838.544	22729
838.681	22569
838.819	22592
838.956	22470
839.094	22360
839.231	22466
839.369	22519
839.506	22850
839.643	22679
839.781	22440
839.918	22379
840.055	22527
840.193	22348
840.33	22417
840.467	22390
840.604	22382
840.742	22596
840.879	22169
841.016	22276
841.153	22253
841.29	22360
841.427	22306
841.564	22360
841.701	22337
841.838	22257
841.975	22238
842.112	22303
842.249	22131
842.385	22173
842.522	22379
842.659	22200
842.796	22090
842.933	22204
843.069	22093
843.206	22101
843.343	22070
843.479	22166
843.616	22116
843.752	21899
843.889	21960
844.025	22124
844.162	21888
844.298	21930
844.435	21915
844.571	21816
844.708	21865
844.844	22112
844.98	22013
845.117	21835
845.253	21823
845.389	21766
845.525	21800
845.661	21762
845.798	21557
845.934	21743
846.07	21595
846.206	21663
846.342	21732
846.478	21526
846.614	21431
846.75	21367
846.886	21568
847.022	21435
847.158	21393
847.294	21428
847.429	21249
847.565	21420
847.701	21599
847.837	21062
847.972	21047
848.108	21157
848.244	21199
848.379	21028
848.515	20902
848.65	20990
848.786	21066
848.921	20998
849.057	20994
849.192	20963
849.328	21017
849.463	21001
849.598	20925
849.734	20948
849.869	20800
850.004	20785
850.14	20785
850.275	20796
850.41	20727
850.545	20712
850.68	20651
850.815	20769
850.95	20716
851.085	20895
851.22	20773
851.355	20765
851.49	20826
851.625	20697
851.76	20587
851.895	20606
852.03	20667
852.165	20845
852.299	20689
852.434	20956
852.569	20640
852.703	20731
852.838	20785
852.973	20823
853.107	20815
853.242	20663
853.376	20617
853.511	20476
853.645	20469
853.78	20693
853.914	20621
854.048	20461
854.183	20518
854.317	20575
854.451	20731
854.585	20594
854.72	20613
854.854	20720
854.988	20522
855.122	20419
855.256	20408
855.39	20408
855.524	20636
855.658	20598
855.792	20594
855.926	20606
856.06	20686
856.194	20655
856.327	20537
856.461	20556
856.595	20541
856.729	20499
856.862	20678
856.996	20541
857.13	20754
857.263	20602
857.397	20560
857.53	20495
857.664	20530
857.797	20613
857.931	20640
858.064	20644
858.197	20602
858.331	20526
858.464	20526
858.597	20419
858.731	20552
858.864	20503
858.997	20412
859.13	20556
859.263	20613
859.396	20583
859.529	20545
859.662	20526
859.795	20495
859.928	20484
860.061	20739
860.194	20663
860.327	20518
860.46	20663
860.592	20655
860.725	20701
860.858	20514
860.99	20629
861.123	20442
861.256	20412
861.388	20457
861.521	21173
861.653	20446
861.786	20347
861.918	20355
862.05	20351
862.183	20454
862.315	20503
862.447	20571
862.58	20469
862.712	20301
862.844	20320
862.976	20328
863.108	20336
863.24	20648
863.372	20126
863.504	20214
863.636	20252
863.768	20313
863.9	20278
864.032	20157
864.164	20343
864.296	20305
864.428	20336
864.559	20362
864.691	20370
864.823	20309
864.954	20370
865.086	20351
865.217	20301
865.349	20058
865.48	20168
865.612	20267
865.743	20343
865.875	20225
866.006	20073
866.137	20183
866.269	20210
866.4	20263
866.531	20100
866.662	19982
866.793	20149
866.924	20054
867.055	20191
867.186	20199
867.317	20122
867.448	20035
867.579	20069
867.71	19978
867.841	19997
867.972	20065
868.103	20069
868.233	20172
868.364	20062
868.495	20214
868.625	20343
868.756	20465
868.886	20221
869.017	20320
869.147	20343
869.278	20476
869.408	20404
869.539	20396
869.669	20419
869.799	20514
869.929	20564
870.06	20549
870.19	20655
870.32	20575
870.45	20724
870.58	20815
870.71	20971
870.84	20963
870.97	20689
871.1	20785
871.23	20834
871.36	20941
871.489	20815
871.619	20853
871.749	20861
871.879	21020
872.008	21108
872.138	20998
872.267	20857
872.397	20883
872.526	20743
872.656	20712
872.785	20720
872.915	20975
873.044	21009
873.173	20921
873.303	21104
873.432	21013
873.561	21058
873.69	20986
873.819	20933
873.948	21138
874.077	20887
874.206	20971
874.335	20979
874.464	21055
874.593	21306
874.722	21180
874.851	21226
874.979	21302
875.108	21294
875.237	21180
875.365	21173
875.494	21173
875.623	21310
875.751	21157
875.88	21306
876.008	21526
876.136	21504
876.265	21747
876.393	21865
876.521	21724
876.65	21793
876.778	21770
876.906	21671
877.034	21526
877.162	21583
877.29	21622
877.418	21538
877.546	21755
877.674	21564
877.802	21603
877.93	21519
878.058	21519
878.185	21466
878.313	21641
878.441	21542
878.568	21408
878.696	21477
878.824	21439
878.951	21690
879.079	21789
879.206	21930
879.333	21720
879.461	21595
879.588	21660
879.715	21808
879.842	21964
879.97	21660
880.097	21454
880.224	21420
880.351	21553
880.478	21469
880.605	21359
880.732	21291
880.859	21523
880.986	21466
881.112	21466
881.239	21294
881.366	21161
881.493	21081
881.619	20960
881.746	20986
881.872	21051
881.999	20979
882.125	20902
882.252	20990
882.378	20986
882.505	20960
882.631	20956
882.757	20678
882.883	20682
883.01	20724
883.136	20507
883.262	20492
883.388	20533
883.514	20765
883.64	20689
883.766	20651
883.892	20556
884.018	20598
884.143	20541
884.269	20834
884.395	20473
884.52	20305
884.646	20465
884.772	20381
884.897	20233
885.023	20377
885.148	20473
885.274	20400
885.399	20454
885.524	20389
885.65	20419
885.775	20469
885.9	20412
886.025	20507
886.15	20545
886.275	20218
886.4	20225
886.525	20355
886.65	20221
886.775	20305
886.9	20431
887.025	20556
887.149	20290
887.274	20100
887.399	20145
887.523	20233
887.648	19963
887.773	20103
887.897	20138
888.021	20176
888.146	20035
888.27	20142
888.395	20199
888.519	20233
888.643	20210
888.767	20286
888.891	20115
889.015	20027
889.139	20031
889.263	19837
889.387	20088
889.511	20202
889.635	20054
889.759	19989
889.883	19932
890.006	19784
890.13	20027
890.254	19894
890.377	19795
890.501	19704
890.624	19712
890.748	19658
890.871	19658
890.995	19529
891.118	19445
891.241	19559
891.364	19563
891.488	19677
891.611	19499
891.734	19468
891.857	19552
891.98	19499
892.103	19529
892.226	19651
892.349	19518
892.471	19419
892.594	19377
892.717	19419
892.839	19403
892.962	19468
893.085	19468
893.207	19411
893.33	19403
893.452	19343
893.575	19483
893.697	19434
893.819	19586
893.941	19613
894.064	19620
894.186	19400
894.308	19324
894.43	19594
894.552	19575
894.674	19502
894.796	19320
894.918	19426
895.04	19453
895.161	19685
895.283	19453
895.405	19381
895.526	19411
895.648	19434
895.769	19483
895.891	19495
896.012	19514
896.134	19499
896.255	19449
896.376	19346
896.498	19483
896.619	19434
896.74	19495
896.861	19472
896.982	19685
897.103	19784
897.224	19666
897.345	19715
897.466	19521
897.587	19674
897.708	19803
897.828	19738
897.949	19658
898.07	19464
898.19	19647
898.311	19750
898.431	19601
898.552	19788
898.672	19788
898.792	19799
898.913	19696
899.033	19506
899.153	19411
899.273	19384
899.393	19377
899.513	19529
899.633	19441
899.753	19377
899.873	19411
899.993	19529
900.113	19381
900.232	19403
900.352	19384
900.472	19324
900.591	19194
900.711	19118
900.83	19259
900.95	19327
901.069	19400
901.189	19088
901.308	18985
901.427	18825
901.546	18897
901.665	18760
901.784	18837
901.904	18692
902.023	18578
902.141	18369
902.26	18304
902.379	18483
902.498	18361
902.617	18232
902.735	18319
902.854	18243
902.973	18213
903.091	18057
903.21	18022
903.328	17988
903.446	17889
903.565	17824
903.683	17821
903.801	17710
903.919	17764
904.038	17824
904.156	17551
904.274	17710
904.392	17562
904.51	17497
904.627	17726
904.745	17733
904.863	17638
904.981	17425
905.098	17341
905.216	17345
905.334	17368
905.451	17250
905.569	17193
905.686	17326
905.803	17174
905.921	17121
906.038	17197
906.155	17166
906.272	17048
906.389	17006
906.506	16736
906.623	16911
906.74	16835
906.857	16782
906.974	16721
907.091	16854
907.208	16984
907.324	16778
907.441	16687
907.557	16561
907.674	16561
907.79	16569
907.907	16577
908.023	16580
908.139	16516
908.256	16421
908.372	16417
908.488	16360
908.604	16348
908.72	16272
908.836	16246
908.952	16272
909.068	16238
909.184	16424
909.3	16299
909.415	16329
909.531	16200
909.647	16120
909.762	15956
909.878	15941
909.993	15972
910.108	15922
910.224	15991
910.339	16006
910.454	15850
910.57	15762
910.685	15652
910.8	15975
910.915	15884
911.03	15816
911.145	15599
911.259	15637
911.374	15542
911.489	15580
911.604	15462
911.718	15310
911.833	15378
911.947	15207
912.062	15203
912.176	15431
912.291	15439
912.405	15355
912.519	15466
912.633	15507
912.748	15420
912.862	15313
912.976	15047
913.09	15100
913.204	15169
913.318	15154
913.431	15222
913.545	15252
913.659	15298
913.772	15085
913.886	15020
914	14925
914.113	14910
914.226	15039
914.34	15051
914.453	14910
914.566	15028
914.68	14868
914.793	14906
914.906	14712
915.019	14564
915.132	14621
915.245	14560
915.358	14613
915.47	14621
915.583	14587
915.696	14575
915.809	14724
915.921	14743
916.034	14568
916.146	14480
916.259	14492
916.371	14640
916.483	14606
916.595	14454
916.708	14400
916.82	14431
916.932	14328
917.044	14412
917.156	14408
917.268	14240
917.38	14320
917.491	14199
917.603	14237
917.715	14225
917.826	14339
917.938	14229
918.049	14142
918.161	14187
918.272	14343
918.384	14339
918.495	14210
918.606	14107
918.717	14035
918.828	13978
918.939	14054
919.05	13959
919.161	13974
919.272	13860
919.383	13947
919.494	14062
919.604	14206
919.715	14039
919.826	13932
919.936	13974
920.047	14111
920.157	13974
920.267	14191
920.378	14039
920.488	13947
920.598	14149
920.708	14286
920.818	14149
920.928	14115
921.038	14320
921.148	14210
921.258	14020
921.368	13906
921.477	13852
921.587	13731
921.697	13575
921.806	13811
921.916	13578
922.025	13426
922.134	13388
922.244	13350
922.353	13339
922.462	13297
922.571	13236
922.68	13027
922.789	13038
922.898	13095
923.007	12966
923.116	13031
923.224	13076
923.333	13008
923.442	12856
923.55	12916
923.659	12962
923.767	13015
923.876	12825
923.984	12882
924.092	12829
924.201	12825
924.309	12886
924.417	12840
924.525	12726
924.633	12821
924.741	13666
924.849	12509
924.956	12677
925.064	12445
925.172	12426
925.279	12486
925.387	12525
925.494	12475
925.602	12555
925.709	12566
925.816	12483
925.924	12388
926.031	12483
926.138	12547
926.245	12422
926.352	12399
926.459	12517
926.566	12563
926.673	12342
926.779	12201
926.886	12197
926.993	12133
927.099	12148
927.206	12022
927.312	12125
927.419	12114
927.525	12045
927.631	12068
927.737	11942
927.843	11920
927.95	11794
928.056	11859
928.162	11897
928.267	11908
928.373	12502
928.479	12053
928.585	11817
928.69	11828
928.796	11950
928.901	11745
929.007	11611
929.112	11813
929.218	11707
929.323	11566
929.428	11638
929.533	11726
929.638	11611
929.743	11646
929.848	11570
929.953	11627
930.058	11532
930.163	11280
930.267	11345
930.372	11459
930.477	11246
930.581	11467
930.685	11414
930.79	11201
930.894	11273
930.998	11258
931.103	11368
931.207	11006
931.311	11003
931.415	10854
931.519	10565
931.623	10668
