Data from test_V78500241_2876.txt Node
Date: Fri Mar 25 15:29:53 CST 2022
User: usil
Spectrometer: V785-0024
Trigger mode: 0
Integration Time (sec): 4.000000E-1
Scans to average: 1
Nonlinearity correction enabled: false
Boxcar width: 0
Storing dark spectrum: false
XAxis mode: Wavelengths
Number of Pixels in Spectrum: 1024
>>>>>Begin Spectral Data<<<<<
801.071	27020
801.214	27135
801.356	26929
801.499	26773
801.641	26807
801.783	26632
801.926	26769
802.068	26754
802.211	26625
802.353	26667
802.496	26423
802.638	26423
802.78	26355
802.923	26309
803.065	26267
803.208	26290
803.35	26271
803.492	26526
803.635	26541
803.777	26431
803.919	26545
804.061	26929
804.204	26579
804.346	26503
804.488	26301
804.63	26503
804.773	26499
804.915	26511
805.057	26674
805.199	26488
805.341	26556
805.483	26849
805.626	26594
805.768	26678
805.91	26693
806.052	26678
806.194	26659
806.336	26800
806.478	26781
806.62	26648
806.762	26758
806.904	26819
807.046	27233
807.188	27070
807.33	27074
807.472	26982
807.614	27062
807.756	27017
807.898	26906
808.04	26762
808.182	26788
808.324	26929
808.465	26982
808.607	27150
808.749	27241
808.891	27298
809.033	27340
809.174	27336
809.316	27332
809.458	27173
809.6	27150
809.741	27321
809.883	27367
810.025	27530
810.166	27515
810.308	27534
810.45	27443
810.591	27485
810.733	27211
810.875	27291
811.016	27317
811.158	27233
811.299	27370
811.441	27408
811.582	27519
811.724	27317
811.865	27192
812.007	27252
812.148	27188
812.29	27351
812.431	27397
812.573	27553
812.714	27610
812.855	27778
812.997	27838
813.138	27911
813.279	27903
813.421	27717
813.562	27759
813.703	27545
813.845	27435
813.986	27161
814.127	26998
814.268	27074
814.41	26895
814.551	26853
814.692	26861
814.833	26940
814.974	27047
815.115	26921
815.256	26788
815.397	26914
815.539	26800
815.68	26716
815.821	26644
815.962	26609
816.103	26682
816.244	26568
816.385	26499
816.526	26427
816.666	26210
816.807	26130
816.948	26233
817.089	26153
817.23	26225
817.371	26244
817.512	26103
817.653	26145
817.793	26065
817.934	26176
818.075	26180
818.216	26240
818.356	26100
818.497	26115
818.638	25928
818.778	26050
818.919	25986
819.06	25890
819.2	26024
819.341	26248
819.481	26271
819.622	26324
819.762	26514
819.903	26389
820.043	26339
820.184	26301
820.324	26145
820.465	26278
820.605	26358
820.746	26096
820.886	26130
821.026	26199
821.167	26161
821.307	26309
821.447	26054
821.588	25997
821.728	25944
821.868	25738
822.008	25529
822.149	25491
822.289	25525
822.429	25396
822.569	25259
822.709	25285
822.849	25232
822.99	25099
823.13	25110
823.27	24924
823.41	24932
823.55	24806
823.69	25027
823.83	24848
823.97	24837
824.11	24814
824.25	24734
824.389	24677
824.529	24856
824.669	24863
824.809	24970
824.949	24909
825.089	24658
825.228	24806
825.368	24536
825.508	24597
825.648	24787
825.787	24760
825.927	24806
826.067	24665
826.206	24601
826.346	24555
826.485	24749
826.625	24585
826.765	24749
826.904	24726
827.044	24437
827.183	24407
827.323	24216
827.462	24380
827.601	24289
827.741	24182
827.88	24243
828.02	24220
828.159	24277
828.298	24209
828.437	24426
828.577	24384
828.716	24540
828.855	24213
828.994	24064
829.134	23958
829.273	24091
829.412	23999
829.551	23935
829.69	24026
829.829	24064
829.968	24129
830.107	23954
830.246	24197
830.385	23984
830.524	24022
830.663	23828
830.802	23726
830.941	23767
831.08	23699
831.219	23802
831.357	23741
831.496	23973
831.635	23710
831.774	23642
831.913	23478
832.051	23566
832.19	23417
832.329	23440
832.467	23261
832.606	23258
832.744	23322
832.883	23261
833.022	23318
833.16	23235
833.299	23376
833.437	23334
833.576	23341
833.714	23402
833.852	23429
833.991	23478
834.129	23497
834.267	23509
834.406	23398
834.544	23444
834.682	23288
834.821	23349
834.959	23642
835.097	23391
835.235	23372
835.373	23414
835.511	23303
835.65	23334
835.788	23261
835.926	23162
836.064	23022
836.202	22915
836.34	23041
836.478	23220
836.615	23208
836.753	23197
836.891	23337
837.029	23181
837.167	23090
837.305	23159
837.443	23185
837.58	22892
837.718	23048
837.856	23121
837.993	22843
838.131	23067
838.269	23037
838.406	22980
838.544	22896
838.681	22835
838.819	22694
838.956	22466
839.094	22508
839.231	22668
839.369	22630
839.506	22839
839.643	22748
839.781	22462
839.918	22535
840.055	22596
840.193	22348
840.33	22550
840.467	22535
840.604	22550
840.742	22679
840.879	22394
841.016	22409
841.153	22432
841.29	22516
841.427	22428
841.564	22573
841.701	22413
841.838	22287
841.975	22322
842.112	22421
842.249	22398
842.385	22322
842.522	22451
842.659	22390
842.796	22322
842.933	22242
843.069	22112
843.206	22215
843.343	22303
843.479	22181
843.616	22291
843.752	22029
843.889	22086
844.025	22143
844.162	21983
844.298	22101
844.435	21968
844.571	21880
844.708	22021
844.844	22192
844.98	22120
845.117	22105
845.253	21930
845.389	21823
845.525	21918
845.661	21888
845.798	21759
845.934	21686
846.07	21747
846.206	21800
846.342	21819
846.478	21762
846.614	21553
846.75	21447
846.886	21496
847.022	21496
847.158	21538
847.294	21507
847.429	21576
847.565	21568
847.701	21595
847.837	21199
847.972	21195
848.108	21302
848.244	21344
848.379	21108
848.515	21051
848.65	21119
848.786	21062
848.921	20982
849.057	21184
849.192	21020
849.328	21180
849.463	21074
849.598	20967
849.734	20887
849.869	20861
850.004	20826
850.14	20807
850.275	20796
850.41	20724
850.545	20849
850.68	20796
850.815	20864
850.95	20861
851.085	20975
851.22	20910
851.355	20944
851.49	20891
851.625	20769
851.76	20792
851.895	20834
852.03	20849
852.165	20845
852.299	20842
852.434	20861
852.569	20823
852.703	20815
852.838	20883
852.973	20952
853.107	20914
853.242	20731
853.376	20670
853.511	20636
853.645	20564
853.78	20811
853.914	20632
854.048	20564
854.183	20594
854.317	20731
854.451	20804
854.585	20629
854.72	20598
854.854	20621
854.988	20594
855.122	20587
855.256	20659
855.39	20602
855.524	20773
855.658	20674
855.792	20651
855.926	20739
856.06	20887
856.194	20811
856.327	20613
856.461	20556
856.595	20644
856.729	20617
856.862	20769
856.996	20651
857.13	20598
857.263	20769
857.397	20625
857.53	20568
857.664	20701
857.797	20644
857.931	20765
858.064	20716
858.197	20644
858.331	20720
858.464	20781
858.597	20450
858.731	20632
858.864	20621
858.997	20526
859.13	20632
859.263	20693
859.396	20777
859.529	20720
859.662	20583
859.795	20583
859.928	20602
860.061	20906
860.194	20811
860.327	20807
860.46	20590
860.592	20765
860.725	20815
860.858	20731
860.99	20617
861.123	20541
861.256	20503
861.388	20587
861.521	21264
861.653	20537
861.786	20480
861.918	20571
862.05	20514
862.183	20613
862.315	20594
862.447	20689
862.58	20621
862.712	20328
862.844	20457
862.976	20415
863.108	20404
863.24	20754
863.372	20267
863.504	20301
863.636	20263
863.768	20313
863.9	20385
864.032	20309
864.164	20332
864.296	20358
864.428	20492
864.559	20434
864.691	20396
864.823	20377
864.954	20248
865.086	20427
865.217	20450
865.349	20180
865.48	20301
865.612	20183
865.743	20328
865.875	20244
866.006	20134
866.137	20252
866.269	20134
866.4	20339
866.531	20214
866.662	20130
866.793	20122
866.924	20172
867.055	20237
867.186	20278
867.317	20195
867.448	20119
867.579	20168
867.71	20168
867.841	20195
867.972	20081
868.103	20157
868.233	20248
868.364	20149
868.495	20145
868.625	20389
868.756	20560
868.886	20320
869.017	20374
869.147	20530
869.278	20499
869.408	20419
869.539	20404
869.669	20579
869.799	20533
869.929	20644
870.06	20617
870.19	20693
870.32	20857
870.45	20701
870.58	20876
870.71	20963
870.84	20979
870.97	20815
871.1	20815
871.23	21047
871.36	21009
871.489	21058
871.619	21039
871.749	21055
871.879	21074
872.008	21119
872.138	21028
872.267	21047
872.397	20887
872.526	20868
872.656	20921
872.785	20952
872.915	21135
873.044	21077
873.173	21039
873.303	21135
873.432	21165
873.561	21119
873.69	21028
873.819	21058
873.948	21184
874.077	20998
874.206	20971
874.335	21043
874.464	21138
874.593	21268
874.722	21214
874.851	21382
874.979	21291
875.108	21348
875.237	21241
875.365	21119
875.494	21237
875.623	21397
875.751	21272
875.88	21275
876.008	21492
876.136	21572
876.265	21686
876.393	21831
876.521	21751
876.65	21599
876.778	21717
876.906	21603
877.034	21652
877.162	21675
877.29	21724
877.418	21648
877.546	21736
877.674	21663
877.802	21675
877.93	21660
878.058	21599
878.185	21488
878.313	21606
878.441	21728
878.568	21568
878.696	21701
878.824	21682
878.951	21652
879.079	21854
879.206	21899
879.333	21819
879.461	21732
879.588	21728
879.715	21846
879.842	21797
879.97	21694
880.097	21408
880.224	21374
880.351	21485
880.478	21485
880.605	21454
880.732	21485
880.859	21808
880.986	21511
881.112	21496
881.239	21344
881.366	21154
881.493	21123
881.619	21146
881.746	21043
881.872	21070
881.999	21032
882.125	20948
882.252	21055
882.378	21077
882.505	21184
882.631	20849
882.757	20754
882.883	20830
883.01	20739
883.136	20632
883.262	20602
883.388	20590
883.514	20800
883.64	20845
883.766	20701
883.892	20473
884.018	20590
884.143	20739
884.269	20815
884.395	20484
884.52	20492
884.646	20431
884.772	20385
884.897	20286
885.023	20457
885.148	20431
885.274	20579
885.399	20507
885.524	20545
885.65	20431
885.775	20362
885.9	20408
886.025	20571
886.15	20552
886.275	20343
886.4	20385
886.525	20355
886.65	20328
886.775	20252
886.9	20423
887.025	20568
887.149	20324
887.274	20206
887.399	20225
887.523	20180
887.648	20100
887.773	20065
887.897	20195
888.021	20214
888.146	20096
888.27	20358
888.395	20267
888.519	20153
888.643	20214
888.767	20256
888.891	20058
889.015	20024
889.139	20020
889.263	20016
889.387	20233
889.511	20191
889.635	20187
889.759	19925
889.883	19959
890.006	19890
890.13	20008
890.254	20020
890.377	19898
890.501	19784
890.624	19746
890.748	19795
890.871	19655
890.995	19559
891.118	19605
891.241	19483
891.364	19620
891.488	19571
891.611	19582
891.734	19658
891.857	19674
891.98	19582
892.103	19662
892.226	19628
892.349	19567
892.471	19396
892.594	19480
892.717	19548
892.839	19502
892.962	19544
893.085	19533
893.207	19491
893.33	19419
893.452	19434
893.575	19548
893.697	19499
893.819	19548
893.941	19704
894.064	19635
894.186	19487
894.308	19422
894.43	19518
894.552	19594
894.674	19582
894.796	19426
894.918	19597
895.04	19483
895.161	19521
895.283	19556
895.405	19453
895.526	19567
895.648	19426
895.769	19616
895.891	19514
896.012	19548
896.134	19575
896.255	19480
896.376	19495
896.498	19476
896.619	19575
896.74	19639
896.861	19548
896.982	19856
897.103	19940
897.224	19811
897.345	19677
897.466	19635
897.587	19693
897.708	19826
897.828	19852
897.949	19658
898.07	19605
898.19	19620
898.311	19769
898.431	19639
898.552	19772
898.672	19932
898.792	19913
898.913	19700
899.033	19601
899.153	19556
899.273	19381
899.393	19620
899.513	19575
899.633	19438
899.753	19537
899.873	19365
899.993	19518
900.113	19384
900.232	19472
900.352	19434
900.472	19384
900.591	19259
900.711	19297
900.83	19209
900.95	19266
901.069	19369
901.189	19175
901.308	19015
901.427	18882
901.546	18856
901.665	18909
901.784	18837
901.904	18844
902.023	18661
902.141	18479
902.26	18475
902.379	18490
902.498	18517
902.617	18273
902.735	18437
902.854	18384
902.973	18228
903.091	18022
903.21	18076
903.328	18038
903.446	17992
903.565	17878
903.683	17946
903.801	17771
903.919	17878
904.038	17817
904.156	17805
904.274	17760
904.392	17547
904.51	17589
904.627	17581
904.745	17737
904.863	17733
904.981	17383
905.098	17360
905.216	17353
905.334	17261
905.451	17337
905.569	17307
905.686	17406
905.803	17376
905.921	17060
906.038	17227
906.155	17113
906.272	16942
906.389	17014
906.506	16869
906.623	16854
906.74	16873
906.857	16755
906.974	16782
907.091	16934
907.208	17090
907.324	16885
907.441	16759
907.557	16763
907.674	16588
907.79	16527
907.907	16489
908.023	16691
908.139	16630
908.256	16618
908.372	16508
908.488	16421
908.604	16291
908.72	16352
908.836	16284
908.952	16306
909.068	16405
909.184	16421
909.3	16303
909.415	16402
909.531	16333
909.647	16063
909.762	15922
909.878	16032
909.993	16154
910.108	15937
910.224	15983
910.339	15964
910.454	15816
910.57	15857
910.685	15797
910.8	15979
910.915	15972
911.03	15819
911.145	15648
911.259	15591
911.374	15610
911.489	15603
911.604	15519
911.718	15336
911.833	15458
911.947	15310
912.062	15226
912.176	15408
912.291	15412
912.405	15393
912.519	15614
912.633	15466
912.748	15401
912.862	15313
912.976	15173
913.09	15256
913.204	15104
913.318	15180
913.431	15313
913.545	15252
913.659	15279
913.772	15184
913.886	15062
914	15070
914.113	14982
914.226	15085
914.34	15100
914.453	14815
914.566	15005
914.68	14838
914.793	14845
914.906	14697
915.019	14590
915.132	14568
915.245	14610
915.358	14590
915.47	14629
915.583	14556
915.696	14651
915.809	14708
915.921	14724
916.034	14571
916.146	14492
916.259	14564
916.371	14537
916.483	14568
916.595	14495
916.708	14480
916.82	14454
916.932	14503
917.044	14499
917.156	14404
917.268	14313
917.38	14389
917.491	14317
917.603	14324
917.715	14412
917.826	14473
917.938	14252
918.049	14187
918.161	14298
918.272	14434
918.384	14461
918.495	14248
918.606	14180
918.717	14024
918.828	14069
918.939	14100
919.05	13936
919.161	14084
919.272	13913
919.383	13940
919.494	14054
919.604	14210
919.715	14119
919.826	13940
919.936	13989
920.047	14046
920.157	14043
920.267	14142
920.378	14050
920.488	14077
920.598	14180
920.708	14434
920.818	14278
920.928	14115
921.038	14332
921.148	14248
921.258	14035
921.368	13890
921.477	13788
921.587	13750
921.697	13693
921.806	13894
921.916	13662
922.025	13495
922.134	13434
922.244	13346
922.353	13464
922.462	13358
922.571	13221
922.68	13145
922.789	13114
922.898	13095
923.007	13042
923.116	13187
923.224	13050
923.333	12989
923.442	13000
923.55	13008
923.659	12928
923.767	12905
923.876	12890
923.984	12939
924.092	12772
924.201	12863
924.309	12856
924.417	12894
924.525	12749
924.633	12783
924.741	13704
924.849	12551
924.956	12631
925.064	12513
925.172	12471
925.279	12582
925.387	12566
925.494	12547
925.602	12627
925.709	12544
925.816	12388
925.924	12452
926.031	12525
926.138	12475
926.245	12467
926.352	12384
926.459	12494
926.566	12696
926.673	12395
926.779	12235
926.886	12330
926.993	12129
927.099	12152
927.206	12049
927.312	12129
927.419	12186
927.525	12049
927.631	12079
927.737	12003
927.843	12060
927.95	11866
928.056	11912
928.162	11977
928.267	11920
928.373	12551
928.479	12019
928.585	11824
928.69	11851
928.796	11965
928.901	11817
929.007	11718
929.112	11752
929.218	11805
929.323	11703
929.428	11668
929.533	11741
929.638	11581
929.743	11592
929.848	11684
929.953	11627
930.058	11524
930.163	11398
930.267	11376
930.372	11501
930.477	11379
930.581	11604
930.685	11459
930.79	11292
930.894	11322
930.998	11261
931.103	11330
931.207	10934
931.311	10972
931.415	10858
931.519	10615
931.623	10694
