Data from test_V78500241_2881.txt Node
Date: Fri Mar 25 15:29:55 CST 2022
User: usil
Spectrometer: V785-0024
Trigger mode: 0
Integration Time (sec): 4.000000E-1
Scans to average: 1
Nonlinearity correction enabled: false
Boxcar width: 0
Storing dark spectrum: false
XAxis mode: Wavelengths
Number of Pixels in Spectrum: 1024
>>>>>Begin Spectral Data<<<<<
801.071	27367
801.214	27081
801.356	26906
801.499	26876
801.641	26826
801.783	26785
801.926	26845
802.068	26762
802.211	26815
802.353	26686
802.496	26461
802.638	26484
802.78	26317
802.923	26351
803.065	26427
803.208	26438
803.35	26358
803.492	26518
803.635	26678
803.777	26579
803.919	26644
804.061	26773
804.204	26678
804.346	26533
804.488	26484
804.63	26587
804.773	26317
804.915	26564
805.057	26670
805.199	26568
805.341	26575
805.483	26727
805.626	26648
805.768	26617
805.91	26735
806.052	26587
806.194	26594
806.336	26895
806.478	26727
806.62	26731
806.762	26792
806.904	26826
807.046	27214
807.188	27074
807.33	27169
807.472	27184
807.614	27036
807.756	27058
807.898	26940
808.04	26876
808.182	26937
808.324	27062
808.465	27005
808.607	27211
808.749	27268
808.891	27351
809.033	27405
809.174	27252
809.316	27268
809.458	27310
809.6	27214
809.741	27378
809.883	27477
810.025	27622
810.166	27561
810.308	27473
810.45	27576
810.591	27412
810.733	27374
810.875	27199
811.016	27256
811.158	27226
811.299	27515
811.441	27488
811.582	27481
811.724	27477
811.865	27131
812.007	27165
812.148	27237
812.29	27211
812.431	27469
812.573	27629
812.714	27736
812.855	27785
812.997	27941
813.138	27983
813.279	27964
813.421	27724
813.562	27720
813.703	27603
813.845	27458
813.986	27081
814.127	27116
814.268	27020
814.41	26933
814.551	26883
814.692	26986
814.833	26933
814.974	27055
815.115	27017
815.256	26826
815.397	26758
815.539	26754
815.68	26819
815.821	26667
815.962	26724
816.103	26693
816.244	26640
816.385	26522
816.526	26457
816.666	26267
816.807	26206
816.948	26317
817.089	26294
817.23	26229
817.371	26122
817.512	26149
817.653	26229
817.793	26058
817.934	26191
818.075	26210
818.216	26202
818.356	26107
818.497	26016
818.638	25936
818.778	25970
818.919	25932
819.06	25917
819.2	25974
819.341	26191
819.481	26237
819.622	26278
819.762	26476
819.903	26294
820.043	26461
820.184	26256
820.324	26332
820.465	26347
820.605	26362
820.746	26145
820.886	26176
821.026	26320
821.167	26172
821.307	26233
821.447	26168
821.588	26122
821.728	26054
821.868	25898
822.008	25666
822.149	25677
822.289	25628
822.429	25293
822.569	25377
822.709	25339
822.849	25217
822.99	25118
823.13	25084
823.27	25050
823.41	24973
823.55	25012
823.69	25008
823.83	24875
823.97	24844
824.11	24878
824.25	24875
824.389	24741
824.529	24741
824.669	24700
824.809	24840
824.949	24939
825.089	24878
825.228	24753
825.368	24597
825.508	24642
825.648	24669
825.787	24760
825.927	24840
826.067	24589
826.206	24669
826.346	24779
826.485	24631
826.625	24707
826.765	24798
826.904	24684
827.044	24414
827.183	24486
827.323	24254
827.462	24410
827.601	24365
827.741	24376
827.88	24285
828.02	24155
828.159	24315
828.298	24334
828.437	24441
828.577	24319
828.716	24407
828.855	24262
828.994	24133
829.134	23980
829.273	24117
829.412	23999
829.551	24068
829.69	24114
829.829	24034
829.968	24148
830.107	23980
830.246	24163
830.385	23916
830.524	24098
830.663	23722
830.802	23756
830.941	23668
831.08	23524
831.219	23767
831.357	23798
831.496	24015
831.635	23691
831.774	23577
831.913	23570
832.051	23372
832.19	23318
832.329	23368
832.467	23315
832.606	23360
832.744	23250
832.883	23311
833.022	23239
833.16	23288
833.299	23296
833.437	23448
833.576	23296
833.714	23296
833.852	23395
833.991	23341
834.129	23482
834.267	23573
834.406	23417
834.544	23448
834.682	23493
834.821	23261
834.959	23600
835.097	23227
835.235	23387
835.373	23337
835.511	23356
835.65	23235
835.788	23147
835.926	22999
836.064	23025
836.202	23121
836.34	23246
836.478	23227
836.615	23189
836.753	23147
836.891	23239
837.029	23136
837.167	23216
837.305	23159
837.443	23064
837.58	23010
837.718	23147
837.856	22972
837.993	23083
838.131	22984
838.269	22953
838.406	22869
838.544	22869
838.681	22809
838.819	22611
838.956	22615
839.094	22569
839.231	22717
839.369	22645
839.506	22961
839.643	22816
839.781	22630
839.918	22622
840.055	22462
840.193	22455
840.33	22371
840.467	22493
840.604	22474
840.742	22729
840.879	22272
841.016	22481
841.153	22325
841.29	22478
841.427	22344
841.564	22424
841.701	22440
841.838	22398
841.975	22322
842.112	22394
842.249	22211
842.385	22116
842.522	22417
842.659	22276
842.796	22147
842.933	22181
843.069	22082
843.206	22238
843.343	22200
843.479	22211
843.616	22253
843.752	22040
843.889	21895
844.025	22169
844.162	21960
844.298	22055
844.435	21930
844.571	21903
844.708	22002
844.844	22124
844.98	22059
845.117	21861
845.253	21888
845.389	21846
845.525	21876
845.661	21865
845.798	21762
845.934	21797
846.07	21679
846.206	21644
846.342	21865
846.478	21823
846.614	21568
846.75	21523
846.886	21492
847.022	21545
847.158	21511
847.294	21412
847.429	21595
847.565	21428
847.701	21720
847.837	21150
847.972	21195
848.108	21340
848.244	21332
848.379	21119
848.515	21081
848.65	21066
848.786	21070
848.921	21142
849.057	21089
849.192	21203
849.328	21077
849.463	21047
849.598	21032
849.734	20819
849.869	21013
850.004	20941
850.14	20952
850.275	20902
850.41	20682
850.545	20792
850.68	20830
850.815	20902
850.95	20887
851.085	20998
851.22	20883
851.355	20765
851.49	20781
851.625	20762
851.76	20701
851.895	20746
852.03	20594
852.165	20796
852.299	20895
852.434	21020
852.569	20979
852.703	20769
852.838	20815
852.973	21009
853.107	20921
853.242	20773
853.376	20712
853.511	20571
853.645	20465
853.78	20849
853.914	20621
854.048	20762
854.183	20568
854.317	20533
854.451	20819
854.585	20667
854.72	20678
854.854	20708
854.988	20617
855.122	20511
855.256	20347
855.39	20590
855.524	20659
855.658	20655
855.792	20541
855.926	20636
856.06	20598
856.194	20762
856.327	20575
856.461	20621
856.595	20606
856.729	20731
856.862	20701
856.996	20594
857.13	20693
857.263	20724
857.397	20697
857.53	20682
857.664	20724
857.797	20712
857.931	20773
858.064	20819
858.197	20743
858.331	20583
858.464	20552
858.597	20412
858.731	20644
858.864	20564
858.997	20632
859.13	20644
859.263	20720
859.396	20659
859.529	20579
859.662	20606
859.795	20511
859.928	20640
860.061	20819
860.194	20834
860.327	20655
860.46	20609
860.592	20689
860.725	20712
860.858	20697
860.99	20670
861.123	20583
861.256	20568
861.388	20609
861.521	21260
861.653	20469
861.786	20400
861.918	20533
862.05	20434
862.183	20564
862.315	20674
862.447	20663
862.58	20571
862.712	20328
862.844	20271
862.976	20434
863.108	20396
863.24	20758
863.372	20328
863.504	20328
863.636	20320
863.768	20408
863.9	20362
864.032	20248
864.164	20343
864.296	20389
864.428	20522
864.559	20385
864.691	20492
864.823	20336
864.954	20404
865.086	20385
865.217	20263
865.349	20172
865.48	20275
865.612	20176
865.743	20313
865.875	20336
866.006	20126
866.137	20336
866.269	20263
866.4	20286
866.531	20119
866.662	20100
866.793	20142
866.924	20229
867.055	20290
867.186	20328
867.317	20229
867.448	20157
867.579	20157
867.71	20107
867.841	20050
867.972	20157
868.103	20111
868.233	20126
868.364	20225
868.495	20271
868.625	20313
868.756	20503
868.886	20400
869.017	20389
869.147	20564
869.278	20549
869.408	20476
869.539	20454
869.669	20549
869.799	20518
869.929	20480
870.06	20560
870.19	20731
870.32	20697
870.45	20689
870.58	20750
870.71	20910
870.84	20937
870.97	20739
871.1	20769
871.23	21081
871.36	20948
871.489	20948
871.619	20956
871.749	21032
871.879	21017
872.008	21127
872.138	21077
872.267	21116
872.397	20948
872.526	20853
872.656	20853
872.785	20868
872.915	21005
873.044	21180
873.173	21085
873.303	21074
873.432	21043
873.561	21074
873.69	20967
873.819	20960
873.948	21184
874.077	20982
874.206	21051
874.335	21017
874.464	21135
874.593	21180
874.722	21321
874.851	21249
874.979	21336
875.108	21370
875.237	21222
875.365	21237
875.494	21382
875.623	21401
875.751	21291
875.88	21317
876.008	21397
876.136	21469
876.265	21587
876.393	21892
876.521	21705
876.65	21762
876.778	21720
876.906	21568
877.034	21511
877.162	21679
877.29	21576
877.418	21728
877.546	21701
877.674	21717
877.802	21644
877.93	21644
878.058	21572
878.185	21549
878.313	21530
878.441	21713
878.568	21504
878.696	21534
878.824	21603
878.951	21895
879.079	21934
879.206	21945
879.333	21827
879.461	21743
879.588	21785
879.715	21762
879.842	21907
879.97	21747
880.097	21443
880.224	21553
880.351	21454
880.478	21576
880.605	21397
880.732	21477
880.859	21667
880.986	21469
881.112	21561
881.239	21393
881.366	21192
881.493	21112
881.619	20979
881.746	21104
881.872	21009
881.999	21055
882.125	20918
882.252	21062
882.378	21119
882.505	21116
882.631	20941
882.757	20864
882.883	20720
883.01	20807
883.136	20556
883.262	20571
883.388	20617
883.514	20716
883.64	20750
883.766	20678
883.892	20575
884.018	20579
884.143	20609
884.269	20697
884.395	20457
884.52	20454
884.646	20381
884.772	20400
884.897	20286
885.023	20419
885.148	20415
885.274	20617
885.399	20583
885.524	20332
885.65	20434
885.775	20427
885.9	20351
886.025	20377
886.15	20438
886.275	20343
886.4	20480
886.525	20275
886.65	20339
886.775	20259
886.9	20511
887.025	20526
887.149	20320
887.274	20214
887.399	20210
887.523	20134
887.648	20092
887.773	20054
887.897	20362
888.021	20256
888.146	20210
888.27	20271
888.395	20142
888.519	20183
888.643	20263
888.767	20180
888.891	20092
889.015	20031
889.139	20103
889.263	19932
889.387	20107
889.511	20183
889.635	20164
889.759	19967
889.883	19951
890.006	20054
890.13	19997
890.254	19913
890.377	19970
890.501	19719
890.624	19868
890.748	19875
890.871	19620
890.995	19556
891.118	19506
891.241	19480
891.364	19647
891.488	19712
891.611	19556
891.734	19556
891.857	19540
891.98	19613
892.103	19628
892.226	19518
892.349	19491
892.471	19324
892.594	19567
892.717	19502
892.839	19480
892.962	19544
893.085	19563
893.207	19438
893.33	19449
893.452	19289
893.575	19483
893.697	19426
893.819	19620
893.941	19746
894.064	19723
894.186	19434
894.308	19430
894.43	19537
894.552	19655
894.674	19567
894.796	19422
894.918	19468
895.04	19312
895.161	19624
895.283	19476
895.405	19441
895.526	19449
895.648	19460
895.769	19567
895.891	19556
896.012	19483
896.134	19472
896.255	19537
896.376	19491
896.498	19495
896.619	19480
896.74	19567
896.861	19548
896.982	19845
897.103	19879
897.224	19647
897.345	19746
897.466	19666
897.587	19712
897.708	19715
897.828	19826
897.949	19681
898.07	19639
898.19	19655
898.311	19670
898.431	19715
898.552	19776
898.672	19837
898.792	19849
898.913	19620
899.033	19727
899.153	19457
899.273	19369
899.393	19556
899.513	19499
899.633	19407
899.753	19571
899.873	19540
899.993	19457
900.113	19460
900.232	19457
900.352	19419
900.472	19251
900.591	19285
900.711	19312
900.83	19304
900.95	19377
901.069	19324
901.189	19194
901.308	18905
901.427	18852
901.546	18875
901.665	18996
901.784	18901
901.904	18791
902.023	18696
902.141	18570
902.26	18414
902.379	18464
902.498	18372
902.617	18338
902.735	18357
902.854	18429
902.973	18254
903.091	18114
903.21	18041
903.328	18057
903.446	17965
903.565	17889
903.683	17965
903.801	17817
903.919	17821
904.038	17863
904.156	17733
904.274	17741
904.392	17771
904.51	17668
904.627	17642
904.745	17802
904.863	17714
904.981	17459
905.098	17273
905.216	17368
905.334	17383
905.451	17379
905.569	17299
905.686	17269
905.803	17337
905.921	17056
906.038	17223
906.155	17189
906.272	17041
906.389	17090
906.506	16881
906.623	16873
906.74	16752
906.857	16782
906.974	16725
907.091	16938
907.208	16923
907.324	16862
907.441	16839
907.557	16573
907.674	16687
907.79	16596
907.907	16618
908.023	16660
908.139	16580
908.256	16554
908.372	16497
908.488	16432
908.604	16325
908.72	16310
908.836	16287
908.952	16337
909.068	16344
909.184	16276
909.3	16238
909.415	16310
909.531	16485
909.647	16063
909.762	15949
909.878	15953
909.993	16013
910.108	16013
910.224	15884
910.339	16067
910.454	15941
910.57	15720
910.685	15816
910.8	15945
910.915	15972
911.03	15804
911.145	15648
911.259	15622
911.374	15686
911.489	15561
911.604	15507
911.718	15348
911.833	15393
911.947	15302
912.062	15291
912.176	15408
912.291	15416
912.405	15488
912.519	15564
912.633	15564
912.748	15424
912.862	15264
912.976	15241
913.09	15009
913.204	15180
913.318	15241
913.431	15378
913.545	15241
913.659	15214
913.772	15195
913.886	15058
914	15085
914.113	15036
914.226	15066
914.34	15028
914.453	14929
914.566	14929
914.68	14853
914.793	14979
914.906	14621
915.019	14590
915.132	14579
915.245	14530
915.358	14682
915.47	14625
915.583	14651
915.696	14606
915.809	14670
915.921	14777
916.034	14560
916.146	14556
916.259	14511
916.371	14556
916.483	14587
916.595	14469
916.708	14427
916.82	14389
916.932	14438
917.044	14473
917.156	14381
917.268	14256
917.38	14320
917.491	14218
917.603	14324
917.715	14415
917.826	14267
917.938	14256
918.049	14126
918.161	14248
918.272	14427
918.384	14343
918.495	14275
918.606	14172
918.717	14024
918.828	14134
918.939	14039
919.05	13967
919.161	14001
919.272	13837
919.383	13940
919.494	14065
919.604	14218
919.715	14027
919.826	13955
919.936	13890
920.047	14153
920.157	13967
920.267	14240
920.378	14062
920.488	14020
920.598	14084
920.708	14374
920.818	14206
920.928	14107
921.038	14290
921.148	14149
921.258	14020
921.368	13959
921.477	13734
921.587	13776
921.697	13696
921.806	13852
921.916	13594
922.025	13548
922.134	13415
922.244	13422
922.353	13430
922.462	13354
922.571	13259
922.68	13247
922.789	13069
922.898	13057
923.007	13099
923.116	13221
923.224	13061
923.333	13088
923.442	12962
923.55	12947
923.659	13023
923.767	12989
923.876	12894
923.984	12928
924.092	12757
924.201	12814
924.309	12779
924.417	12821
924.525	12726
924.633	12715
924.741	13750
924.849	12559
924.956	12734
925.064	12566
925.172	12464
925.279	12433
925.387	12498
925.494	12483
925.602	12639
925.709	12498
925.816	12418
925.924	12502
926.031	12589
926.138	12395
926.245	12528
926.352	12445
926.459	12532
926.566	12521
926.673	12399
926.779	12327
926.886	12304
926.993	12209
927.099	12144
927.206	12007
927.312	12045
927.419	12182
927.525	12110
927.631	12079
927.737	11984
927.843	11961
927.95	11786
928.056	11916
928.162	11958
928.267	12003
928.373	12604
928.479	11984
928.585	11786
928.69	11946
928.796	11916
928.901	11802
929.007	11615
929.112	11870
929.218	11741
929.323	11710
929.428	11657
929.533	11741
929.638	11672
929.743	11718
929.848	11627
929.953	11661
930.058	11524
930.163	11379
930.267	11425
930.372	11455
930.477	11353
930.581	11630
930.685	11364
930.79	11239
930.894	11311
930.998	11307
931.103	11425
931.207	10995
931.311	11006
931.415	10919
931.519	10660
931.623	10634
