Data from test_V78500241_2175.txt Node
Date: Fri Mar 25 15:25:00 CST 2022
User: usil
Spectrometer: V785-0024
Trigger mode: 0
Integration Time (sec): 4.000000E-1
Scans to average: 1
Nonlinearity correction enabled: false
Boxcar width: 0
Storing dark spectrum: false
XAxis mode: Wavelengths
Number of Pixels in Spectrum: 1024
>>>>>Begin Spectral Data<<<<<
801.071	27724
801.214	27610
801.356	27439
801.499	27420
801.641	27443
801.783	27237
801.926	27264
802.068	27237
802.211	27252
802.353	27291
802.496	26937
802.638	26975
802.78	26914
802.923	26975
803.065	26876
803.208	26933
803.35	26940
803.492	27096
803.635	27230
803.777	26918
803.919	27207
804.061	27370
804.204	27173
804.346	26948
804.488	27070
804.63	27135
804.773	26963
804.915	27017
805.057	27135
805.199	27131
805.341	27260
805.483	27302
805.626	27351
805.768	27154
805.91	27279
806.052	27272
806.194	27077
806.336	27439
806.478	27344
806.62	27332
806.762	27348
806.904	27408
807.046	27698
807.188	27781
807.33	27652
807.472	27835
807.614	27595
807.756	27644
807.898	27515
808.04	27622
808.182	27530
808.324	27595
808.465	27545
808.607	27587
808.749	27861
808.891	27972
809.033	28021
809.174	27994
809.316	27892
809.458	27838
809.6	27949
809.741	27968
809.883	28116
810.025	28192
810.166	28211
810.308	28299
810.45	28173
810.591	28090
810.733	27865
810.875	27842
811.016	27751
811.158	27869
811.299	27926
811.441	28154
811.582	28101
811.724	27903
811.865	27766
812.007	27781
812.148	27941
812.29	27835
812.431	27983
812.573	28124
812.714	28234
812.855	28325
812.997	28500
813.138	28565
813.279	28653
813.421	28546
813.562	28352
813.703	28265
813.845	28150
813.986	27857
814.127	27679
814.268	27720
814.41	27671
814.551	27656
814.692	27682
814.833	27488
814.974	27462
815.115	27736
815.256	27329
815.397	27367
815.539	27462
815.68	27405
815.821	27370
815.962	27466
816.103	27325
816.244	27112
816.385	27157
816.526	27184
816.666	27039
816.807	26861
816.948	26921
817.089	26921
817.23	26887
817.371	26861
817.512	26708
817.653	26792
817.793	26720
817.934	26929
818.075	26925
818.216	26914
818.356	26853
818.497	26674
818.638	26667
818.778	26632
818.919	26541
819.06	26629
819.2	26765
819.341	26804
819.481	26921
819.622	27058
819.762	27146
819.903	27214
820.043	27001
820.184	26998
820.324	26963
820.465	27062
820.605	26948
820.746	27020
820.886	26830
821.026	26944
821.167	26807
821.307	26967
821.447	26872
821.588	26697
821.728	26587
821.868	26629
822.008	26362
822.149	26324
822.289	26389
822.429	26039
822.569	25986
822.709	25986
822.849	25841
822.99	25791
823.13	25784
823.27	25807
823.41	25651
823.55	25525
823.69	25677
823.83	25700
823.97	25658
824.11	25346
824.25	25464
824.389	25403
824.529	25548
824.669	25514
824.809	25518
824.949	25438
825.089	25544
825.228	25445
825.368	25369
825.508	25282
825.648	25266
825.787	25343
825.927	25350
826.067	25430
826.206	25350
826.346	25350
826.485	25316
826.625	25236
826.765	25373
826.904	25407
827.044	25187
827.183	25145
827.323	25023
827.462	25110
827.601	24985
827.741	25122
827.88	25027
828.02	24943
828.159	24920
828.298	25008
828.437	25084
828.577	24966
828.716	25053
828.855	25061
828.994	24677
829.134	24692
829.273	24696
829.412	24726
829.551	24703
829.69	24700
829.829	24745
829.968	24856
830.107	24848
830.246	24768
830.385	24681
830.524	24677
830.663	24494
830.802	24536
830.941	24239
831.08	24289
831.219	24418
831.357	24464
831.496	24597
831.635	24357
831.774	24235
831.913	24194
832.051	24182
832.19	24152
832.329	24140
832.467	24015
832.606	24015
832.744	24057
832.883	23961
833.022	23908
833.16	24049
833.299	23965
833.437	23969
833.576	23984
833.714	24026
833.852	24015
833.991	24148
834.129	24102
834.267	24129
834.406	24022
834.544	24106
834.682	23946
834.821	23950
834.959	24224
835.097	23946
835.235	24026
835.373	24034
835.511	24064
835.65	23904
835.788	23889
835.926	23821
836.064	23710
836.202	23634
836.34	23950
836.478	23988
836.615	23722
836.753	23954
836.891	23946
837.029	23969
837.167	23646
837.305	23737
837.443	23874
837.58	23710
837.718	23619
837.856	23840
837.993	23699
838.131	23741
838.269	23672
838.406	23516
838.544	23535
838.681	23398
838.819	23299
838.956	23261
839.094	23143
839.231	23318
839.369	23356
839.506	23581
839.643	23383
839.781	23235
839.918	23216
840.055	23296
840.193	23086
840.33	23025
840.467	23033
840.604	23216
840.742	23486
840.879	23003
841.016	23124
841.153	22961
841.29	23216
841.427	23174
841.564	23193
841.701	23060
841.838	22987
841.975	22889
842.112	23025
842.249	22923
842.385	22820
842.522	23067
842.659	22797
842.796	22847
842.933	22828
843.069	22843
843.206	22881
843.343	23006
843.479	22873
843.616	22949
843.752	22569
843.889	22675
844.025	22729
844.162	22641
844.298	22828
844.435	22641
844.571	22542
844.708	22736
844.844	22812
844.98	22831
845.117	22763
845.253	22580
845.389	22538
845.525	22596
845.661	22497
845.798	22363
845.934	22382
846.07	22379
846.206	22398
846.342	22421
846.478	22341
846.614	22322
846.75	22082
846.886	22097
847.022	22226
847.158	22280
847.294	22131
847.429	22143
847.565	22105
847.701	22428
847.837	21850
847.972	21956
848.108	21975
848.244	22055
848.379	21804
848.515	21743
848.65	21705
848.786	21667
848.921	21762
849.057	21785
849.192	21831
849.328	21892
849.463	21770
849.598	21690
849.734	21549
849.869	21549
850.004	21382
850.14	21439
850.275	21496
850.41	21401
850.545	21405
850.68	21466
850.815	21447
850.95	21580
851.085	21542
851.22	21679
851.355	21420
851.49	21496
851.625	21416
851.76	21485
851.895	21359
852.03	21431
852.165	21450
852.299	21511
852.434	21583
852.569	21576
852.703	21500
852.838	21488
852.973	21568
853.107	21542
853.242	21344
853.376	21214
853.511	21218
853.645	21203
853.78	21340
853.914	21416
854.048	21408
854.183	21180
854.317	21431
854.451	21557
854.585	21344
854.72	21275
854.854	21424
854.988	21192
855.122	21336
855.256	21211
855.39	21283
855.524	21321
855.658	21245
855.792	21321
855.926	21370
856.06	21313
856.194	21359
856.327	21382
856.461	21241
856.595	21146
856.729	21222
856.862	21351
856.996	21298
857.13	21272
857.263	21332
857.397	21382
857.53	21355
857.664	21260
857.797	21485
857.931	21359
858.064	21321
858.197	21302
858.331	21230
858.464	21306
858.597	21310
858.731	21252
858.864	21195
858.997	21321
859.13	21344
859.263	21279
859.396	21477
859.529	21207
859.662	21199
859.795	21180
859.928	21310
860.061	21443
860.194	21401
860.327	21256
860.46	21351
860.592	21428
860.725	21397
860.858	21317
860.99	21386
861.123	21218
861.256	21264
861.388	21249
861.521	21884
861.653	21058
861.786	21127
861.918	21146
862.05	21203
862.183	21188
862.315	21135
862.447	21351
862.58	21138
862.712	21142
862.844	20876
862.976	21089
863.108	21173
863.24	21583
863.372	20830
863.504	21013
863.636	20975
863.768	21028
863.9	21036
864.032	20933
864.164	20925
864.296	21017
864.428	21093
864.559	21051
864.691	20990
864.823	21070
864.954	21028
865.086	21009
865.217	20864
865.349	20807
865.48	20994
865.612	20895
865.743	21009
865.875	20864
866.006	20834
866.137	20853
866.269	20823
866.4	20868
866.531	20746
866.662	20712
866.793	20739
866.924	20830
867.055	20781
867.186	20899
867.317	20826
867.448	20758
867.579	20838
867.71	20830
867.841	20632
867.972	20830
868.103	20762
868.233	20868
868.364	20800
868.495	20967
868.625	21039
868.756	21203
868.886	20929
869.017	20998
869.147	21203
869.278	21272
869.408	21112
869.539	20941
869.669	21226
869.799	21024
869.929	21055
870.06	21085
870.19	21405
870.32	21443
870.45	21405
870.58	21477
870.71	21530
870.84	21549
870.97	21481
871.1	21412
871.23	21652
871.36	21766
871.489	21629
871.619	21656
871.749	21705
871.879	21762
872.008	21812
872.138	21717
872.267	21667
872.397	21564
872.526	21591
872.656	21340
872.785	21500
872.915	21819
873.044	21724
873.173	21755
873.303	21816
873.432	21682
873.561	21915
873.69	21739
873.819	21644
873.948	21797
874.077	21778
874.206	21610
874.335	21713
874.464	21800
874.593	21876
874.722	21793
874.851	21941
874.979	21934
875.108	21960
875.237	21785
875.365	21759
875.494	21785
875.623	21888
875.751	21884
875.88	21937
876.008	22105
876.136	22116
876.265	22287
876.393	22382
876.521	22344
876.65	22371
876.778	22196
876.906	22299
877.034	22196
877.162	22299
877.29	22211
877.418	22379
877.546	22344
877.674	22223
877.802	22238
877.93	22280
878.058	22173
878.185	22055
878.313	22207
878.441	22306
878.568	22074
878.696	22166
878.824	22215
878.951	22226
879.079	22447
879.206	22402
879.333	22322
879.461	22306
879.588	22268
879.715	22344
879.842	22459
879.97	22436
880.097	22200
880.224	22139
880.351	22162
880.478	22109
880.605	22010
880.732	22185
880.859	22230
880.986	22044
881.112	22120
881.239	21998
881.366	21987
881.493	21793
881.619	21618
881.746	21694
881.872	21709
881.999	21698
882.125	21637
882.252	21759
882.378	21488
882.505	21648
882.631	21507
882.757	21405
882.883	21367
883.01	21424
883.136	21389
883.262	21211
883.388	21112
883.514	21355
883.64	21325
883.766	21222
883.892	21169
884.018	21173
884.143	21294
884.269	21393
884.395	20982
884.52	21028
884.646	21085
884.772	20918
884.897	20845
885.023	20990
885.148	21096
885.274	21184
885.399	21154
885.524	20952
885.65	20956
885.775	21047
885.9	21036
886.025	21013
886.15	21127
886.275	20891
886.4	20929
886.525	20887
886.65	20819
886.775	20853
886.9	20952
887.025	21108
887.149	20807
887.274	20804
887.399	20823
887.523	20845
887.648	20708
887.773	20724
887.897	20777
888.021	20777
888.146	20629
888.27	20762
888.395	20834
888.519	20800
888.643	20830
888.767	20792
888.891	20594
889.015	20625
889.139	20511
889.263	20431
889.387	20667
889.511	20731
889.635	20670
889.759	20564
889.883	20613
890.006	20602
890.13	20689
890.254	20313
890.377	20461
890.501	20355
890.624	20298
890.748	20305
890.871	20149
890.995	20149
891.118	20027
891.241	20221
891.364	20149
891.488	20134
891.611	20050
891.734	20214
891.857	20111
891.98	20031
892.103	20248
892.226	20073
892.349	20024
892.471	20046
892.594	19989
892.717	20130
892.839	19989
892.962	20031
893.085	20142
893.207	19890
893.33	19925
893.452	19849
893.575	20103
893.697	19970
893.819	20138
893.941	20259
894.064	20145
894.186	20043
894.308	19951
894.43	20195
894.552	20157
894.674	20195
894.796	19944
894.918	19978
895.04	19925
895.161	20195
895.283	19993
895.405	19974
895.526	20043
895.648	19959
895.769	20096
895.891	20016
896.012	20130
896.134	20111
896.255	19989
896.376	19947
896.498	19997
896.619	20024
896.74	20058
896.861	20119
896.982	20305
897.103	20408
897.224	20229
897.345	20290
897.466	20202
897.587	20214
897.708	20332
897.828	20240
897.949	20168
898.07	20115
898.19	20218
898.311	20434
898.431	20206
898.552	20195
898.672	20438
898.792	20434
898.913	20256
899.033	20195
899.153	20100
899.273	19970
899.393	19986
899.513	19978
899.633	20058
899.753	20065
899.873	19967
899.993	20001
900.113	20027
900.232	20073
900.352	20134
900.472	19833
900.591	19689
900.711	19772
900.83	19780
900.95	19902
901.069	19890
901.189	19757
901.308	19487
901.427	19438
901.546	19324
901.665	19403
901.784	19362
901.904	19213
902.023	19133
902.141	18947
902.26	18916
902.379	18981
902.498	18901
902.617	18837
902.735	18989
902.854	18878
902.973	18814
903.091	18551
903.21	18540
903.328	18665
903.446	18513
903.565	18384
903.683	18380
903.801	18270
903.919	18205
904.038	18285
904.156	18254
904.274	18213
904.392	18148
904.51	18178
904.627	18019
904.745	18220
904.863	18167
904.981	17828
905.098	17878
905.216	17923
905.334	17836
905.451	17805
905.569	17893
905.686	17676
905.803	17733
905.921	17570
906.038	17680
906.155	17699
906.272	17520
906.389	17520
906.506	17398
906.623	17459
906.74	17307
906.857	17181
906.974	17220
907.091	17398
907.208	17467
907.324	17372
907.441	17231
907.557	17121
907.674	17170
907.79	17086
907.907	17136
908.023	17041
908.139	17105
908.256	17079
908.372	16934
908.488	16862
908.604	16805
908.72	16774
908.836	16694
908.952	16729
909.068	16771
909.184	16809
909.3	16634
909.415	16824
909.531	16752
909.647	16603
909.762	16432
909.878	16382
909.993	16447
910.108	16481
910.224	16405
910.339	16405
910.454	16356
910.57	16318
910.685	16284
910.8	16390
910.915	16386
911.03	16257
911.145	16226
911.259	16013
911.374	16105
911.489	15994
911.604	15911
911.718	15838
911.833	15800
911.947	15679
912.062	15614
912.176	15804
912.291	15835
912.405	15743
912.519	15941
912.633	15915
912.748	15857
912.862	15857
912.976	15701
913.09	15622
913.204	15610
913.318	15625
913.431	15854
913.545	15629
913.659	15660
913.772	15561
913.886	15515
914	15462
914.113	15538
914.226	15412
914.34	15519
914.453	15325
914.566	15496
914.68	15382
914.793	15325
914.906	15161
915.019	15036
915.132	14948
915.245	15074
915.358	15119
915.47	14933
915.583	15138
915.696	15013
915.809	15085
915.921	15123
916.034	15093
916.146	14864
916.259	14891
916.371	15001
916.483	14944
916.595	14899
916.708	14937
916.82	14845
916.932	14769
917.044	14891
917.156	14731
917.268	14765
917.38	14777
917.491	14617
917.603	14621
917.715	14777
917.826	14804
917.938	14708
918.049	14613
918.161	14610
918.272	14853
918.384	14849
918.495	14610
918.606	14473
918.717	14495
918.828	14461
918.939	14495
919.05	14362
919.161	14530
919.272	14240
919.383	14324
919.494	14473
919.604	14667
919.715	14461
919.826	14419
919.936	14419
920.047	14522
920.157	14518
920.267	14598
920.378	14434
920.488	14393
920.598	14648
920.708	14800
920.818	14651
920.928	14568
921.038	14727
921.148	14716
921.258	14450
921.368	14320
921.477	14145
921.587	14229
921.697	14008
921.806	14176
921.916	14100
922.025	13875
922.134	13879
922.244	13856
922.353	13917
922.462	13727
922.571	13647
922.68	13453
922.789	13521
922.898	13563
923.007	13343
923.116	13403
923.224	13369
923.333	13472
923.442	13369
923.55	13259
923.659	13460
923.767	13381
923.876	13282
923.984	13377
924.092	13183
924.201	13251
924.309	13259
924.417	13301
924.525	13141
924.633	13179
924.741	13841
924.849	12958
924.956	13057
925.064	12886
925.172	12856
925.279	12890
925.387	12890
925.494	12867
925.602	13103
925.709	12916
925.816	12886
925.924	12897
926.031	12935
926.138	12867
926.245	12833
926.352	12726
926.459	12875
926.566	12875
926.673	12722
926.779	12726
926.886	12631
926.993	12452
927.099	12479
927.206	12403
927.312	12490
927.419	12441
927.525	12418
927.631	12502
927.737	12467
927.843	12361
927.95	12247
928.056	12327
928.162	12334
928.267	12361
928.373	12939
928.479	12319
928.585	12163
928.69	12273
928.796	12197
928.901	12087
929.007	11958
929.112	12205
929.218	12087
929.323	12041
929.428	12011
929.533	12114
929.638	11996
929.743	11908
929.848	11992
929.953	11992
930.058	11748
930.163	11627
930.267	11729
930.372	11923
930.477	11695
930.581	11882
930.685	11752
930.79	11684
930.894	11676
930.998	11596
931.103	11676
931.207	11360
931.311	11307
931.415	11239
931.519	10980
931.623	11037
