Data from test_V78500241_924.txt Node
Date: Fri Mar 25 15:16:17 CST 2022
User: usil
Spectrometer: V785-0024
Trigger mode: 0
Integration Time (sec): 4.000000E-1
Scans to average: 1
Nonlinearity correction enabled: false
Boxcar width: 0
Storing dark spectrum: false
XAxis mode: Wavelengths
Number of Pixels in Spectrum: 1024
>>>>>Begin Spectral Data<<<<<
801.071	28021
801.214	28097
801.356	27778
801.499	27660
801.641	27682
801.783	27671
801.926	27755
802.068	27534
802.211	27561
802.353	27603
802.496	27363
802.638	27313
802.78	27252
802.923	27279
803.065	27237
803.208	27405
803.35	27363
803.492	27481
803.635	27507
803.777	27416
803.919	27454
804.061	27865
804.204	27637
804.346	27382
804.488	27367
804.63	27298
804.773	27427
804.915	27564
805.057	27694
805.199	27420
805.341	27641
805.483	27751
805.626	27599
805.768	27450
805.91	27595
806.052	27561
806.194	27553
806.336	27812
806.478	27690
806.62	27614
806.762	27713
806.904	27892
807.046	28169
807.188	28158
807.33	28006
807.472	28044
807.614	27987
807.756	28059
807.898	28078
808.04	27895
808.182	27930
808.324	27945
808.465	27835
808.607	28207
808.749	28188
808.891	28299
809.033	28405
809.174	28413
809.316	28489
809.458	28443
809.6	28162
809.741	28436
809.883	28390
810.025	28596
810.166	28577
810.308	28618
810.45	28455
810.591	28497
810.733	28375
810.875	28322
811.016	28268
811.158	28154
811.299	28375
811.441	28443
811.582	28246
811.724	28223
811.865	28204
812.007	28390
812.148	28348
812.29	28352
812.431	28535
812.573	28653
812.714	28698
812.855	28847
812.997	28850
813.138	28957
813.279	28938
813.421	28900
813.562	28820
813.703	28569
813.845	28447
813.986	28234
814.127	28078
814.268	27800
814.41	28021
814.551	27987
814.692	27998
814.833	27884
814.974	27907
815.115	27991
815.256	27994
815.397	27842
815.539	27857
815.68	27842
815.821	27720
815.962	27781
816.103	27774
816.244	27739
816.385	27561
816.526	27576
816.666	27439
816.807	27218
816.948	27420
817.089	27519
817.23	27214
817.371	27313
817.512	27382
817.653	27192
817.793	27294
817.934	27378
818.075	27321
818.216	27424
818.356	27279
818.497	27237
818.638	27047
818.778	27108
818.919	27085
819.06	27116
819.2	27180
819.341	27237
819.481	27249
819.622	27542
819.762	27656
819.903	27458
820.043	27485
820.184	27469
820.324	27321
820.465	27507
820.605	27488
820.746	27447
820.886	27272
821.026	27313
821.167	27473
821.307	27515
821.447	27260
821.588	27340
821.728	27024
821.868	26960
822.008	26834
822.149	26902
822.289	26883
822.429	26450
822.569	26545
822.709	26545
822.849	26431
822.99	26339
823.13	26218
823.27	26263
823.41	26172
823.55	26065
823.69	26073
823.83	26065
823.97	26107
824.11	25822
824.25	25833
824.389	26008
824.529	25928
824.669	25982
824.809	26043
824.949	26043
825.089	25997
825.228	26012
825.368	25727
825.508	25913
825.648	25856
825.787	25837
825.927	25921
826.067	25879
826.206	25746
826.346	25807
826.485	25841
826.625	25902
826.765	25822
826.904	25909
827.044	25590
827.183	25563
827.323	25578
827.462	25719
827.601	25647
827.741	25559
827.88	25571
828.02	25457
828.159	25434
828.298	25544
828.437	25510
828.577	25495
828.716	25582
828.855	25373
828.994	25206
829.134	25221
829.273	25297
829.412	25168
829.551	25324
829.69	25266
829.829	25377
829.968	25209
830.107	25343
830.246	25312
830.385	25228
830.524	25099
830.663	24970
830.802	25023
830.941	24890
831.08	24856
831.219	24981
831.357	24890
831.496	24951
831.635	24825
831.774	24749
831.913	24764
832.051	24696
832.19	24559
832.329	24757
832.467	24612
832.606	24502
832.744	24403
832.883	24585
833.022	24369
833.16	24665
833.299	24616
833.437	24669
833.576	24688
833.714	24665
833.852	24715
833.991	24642
834.129	24688
834.267	24696
834.406	24639
834.544	24642
834.682	24623
834.821	24604
834.959	24791
835.097	24509
835.235	24601
835.373	24669
835.511	24696
835.65	24490
835.788	24384
835.926	24209
836.064	24266
836.202	24319
836.34	24433
836.478	24467
836.615	24452
836.753	24502
836.891	24517
837.029	24563
837.167	24418
837.305	24304
837.443	24289
837.58	24418
837.718	24388
837.856	24429
837.993	24194
838.131	24281
838.269	24095
838.406	24117
838.544	24174
838.681	24030
838.819	23939
838.956	23855
839.094	23733
839.231	23923
839.369	23832
839.506	24205
839.643	23920
839.781	23710
839.918	23695
840.055	23710
840.193	23798
840.33	23680
840.467	23649
840.604	23843
840.742	24026
840.879	23611
841.016	23573
841.153	23634
841.29	23741
841.427	23695
841.564	23726
841.701	23760
841.838	23589
841.975	23672
842.112	23600
842.249	23402
842.385	23459
842.522	23570
842.659	23531
842.796	23471
842.933	23497
843.069	23425
843.206	23417
843.343	23478
843.479	23410
843.616	23459
843.752	23246
843.889	23277
844.025	23402
844.162	23098
844.298	23250
844.435	23181
844.571	23212
844.708	23436
844.844	23341
844.98	23379
845.117	23303
845.253	23185
845.389	23121
845.525	23178
845.661	23083
845.798	23033
845.934	22968
846.07	22873
846.206	22976
846.342	23048
846.478	22881
846.614	22752
846.75	22622
846.886	22603
847.022	22782
847.158	22694
847.294	22637
847.429	22713
847.565	22599
847.701	22915
847.837	22512
847.972	22424
848.108	22481
848.244	22573
848.379	22382
848.515	22272
848.65	22348
848.786	22261
848.921	22409
849.057	22333
849.192	22367
849.328	22310
849.463	22280
849.598	22173
849.734	22105
849.869	22234
850.004	21998
850.14	21846
850.275	21979
850.41	21884
850.545	21945
850.68	22067
850.815	22032
850.95	22082
851.085	22207
851.22	22078
851.355	22124
851.49	22029
851.625	22010
851.76	21968
851.895	21953
852.03	21949
852.165	21915
852.299	22109
852.434	22101
852.569	21956
852.703	22006
852.838	22090
852.973	22215
853.107	22200
853.242	22006
853.376	21857
853.511	21808
853.645	21991
853.78	21960
853.914	21819
854.048	21751
854.183	21876
854.317	21968
854.451	22051
854.585	21835
854.72	21804
854.854	21873
854.988	21736
855.122	21682
855.256	21717
855.39	21983
855.524	21857
855.658	21846
855.792	21903
855.926	21793
856.06	21911
856.194	21835
856.327	21895
856.461	21865
856.595	21823
856.729	21876
856.862	21964
856.996	21884
857.13	21983
857.263	21880
857.397	21857
857.53	21854
857.664	21937
857.797	21941
857.931	22013
858.064	21979
858.197	21975
858.331	21899
858.464	21717
858.597	21762
858.731	21842
858.864	21838
858.997	21857
859.13	21892
859.263	21873
859.396	21854
859.529	21850
859.662	21876
859.795	21903
859.928	21922
860.061	22006
860.194	22029
860.327	21873
860.46	21861
860.592	22013
860.725	21911
860.858	21998
860.99	21892
861.123	21804
861.256	21774
861.388	21880
861.521	22542
861.653	21736
861.786	21720
861.918	21759
862.05	21800
862.183	21774
862.315	21823
862.447	21804
862.58	21846
862.712	21583
862.844	21610
862.976	21671
863.108	21675
863.24	21975
863.372	21500
863.504	21504
863.636	21515
863.768	21469
863.9	21504
864.032	21523
864.164	21519
864.296	21526
864.428	21633
864.559	21625
864.691	21576
864.823	21435
864.954	21572
865.086	21492
865.217	21485
865.349	21355
865.48	21462
865.612	21401
865.743	21633
865.875	21477
866.006	21340
866.137	21401
866.269	21405
866.4	21393
866.531	21397
866.662	21397
866.793	21344
866.924	21310
867.055	21416
867.186	21397
867.317	21287
867.448	21264
867.579	21272
867.71	21233
867.841	21313
867.972	21408
868.103	21348
868.233	21473
868.364	21462
868.495	21389
868.625	21587
868.756	21713
868.886	21462
869.017	21614
869.147	21724
869.278	21728
869.408	21538
869.539	21587
869.669	21557
869.799	21732
869.929	21751
870.06	21793
870.19	21903
870.32	21819
870.45	21831
870.58	21994
870.71	22105
870.84	22063
870.97	22051
871.1	21915
871.23	22162
871.36	22268
871.489	21915
871.619	22097
871.749	22086
871.879	22158
872.008	22318
872.138	22120
872.267	22139
872.397	22147
872.526	22120
872.656	22207
872.785	21998
872.915	22181
873.044	22356
873.173	22143
873.303	22322
873.432	22291
873.561	22299
873.69	22169
873.819	22116
873.948	22185
874.077	22318
874.206	22101
874.335	22207
874.464	22348
874.593	22417
874.722	22310
874.851	22413
874.979	22394
875.108	22424
875.237	22424
875.365	22363
875.494	22276
875.623	22440
875.751	22295
875.88	22500
876.008	22596
876.136	22596
876.265	22858
876.393	22934
876.521	22805
876.65	22869
876.778	22869
876.906	22790
877.034	22710
877.162	22740
877.29	22786
877.418	22782
877.546	22752
877.674	22835
877.802	22683
877.93	22831
878.058	22736
878.185	22660
878.313	22763
878.441	22824
878.568	22561
878.696	22653
878.824	22717
878.951	22908
879.079	22892
879.206	23037
879.333	22938
879.461	22717
879.588	22957
879.715	23075
879.842	22869
879.97	22797
880.097	22611
880.224	22599
880.351	22584
880.478	22497
880.605	22451
880.732	22573
880.859	22904
880.986	22599
881.112	22546
881.239	22580
881.366	22379
881.493	22223
881.619	22166
881.746	22196
881.872	22204
881.999	22112
882.125	22097
882.252	22192
882.378	22036
882.505	22325
882.631	22025
882.757	21930
882.883	22021
883.01	21926
883.136	21751
883.262	21770
883.388	21663
883.514	21770
883.64	21808
883.766	21759
883.892	21629
884.018	21561
884.143	21739
884.269	21899
884.395	21583
884.52	21534
884.646	21530
884.772	21443
884.897	21504
885.023	21481
885.148	21629
885.274	21591
885.399	21675
885.524	21420
885.65	21393
885.775	21515
885.9	21477
886.025	21614
886.15	21614
886.275	21469
886.4	21378
886.525	21435
886.65	21287
886.775	21393
886.9	21534
887.025	21720
887.149	21450
887.274	21313
887.399	21192
887.523	21203
887.648	21256
887.773	21188
887.897	21298
888.021	21351
888.146	21188
888.27	21351
888.395	21359
888.519	21351
888.643	21359
888.767	21416
888.891	21089
889.015	21135
889.139	21165
889.263	20998
889.387	21116
889.511	21131
889.635	21230
889.759	21112
889.883	21047
890.006	20979
890.13	21066
890.254	20963
890.377	20929
890.501	20819
890.624	20621
890.748	20781
890.871	20682
890.995	20511
891.118	20621
891.241	20579
891.364	20716
891.488	20804
891.611	20533
891.734	20686
891.857	20743
891.98	20587
892.103	20651
892.226	20651
892.349	20625
892.471	20461
892.594	20484
892.717	20549
892.839	20526
892.962	20408
893.085	20613
893.207	20473
893.33	20473
893.452	20457
893.575	20526
893.697	20488
893.819	20754
893.941	20739
894.064	20720
894.186	20484
894.308	20590
894.43	20583
894.552	20716
894.674	20549
894.796	20408
894.918	20408
895.04	20423
895.161	20549
895.283	20518
895.405	20454
895.526	20499
895.648	20514
895.769	20434
895.891	20617
896.012	20564
896.134	20575
896.255	20446
896.376	20434
896.498	20427
896.619	20606
896.74	20423
896.861	20530
896.982	20830
897.103	20815
897.224	20754
897.345	20674
897.466	20686
897.587	20689
897.708	20948
897.828	20739
897.949	20629
898.07	20674
898.19	20602
898.311	20689
898.431	20609
898.552	20686
898.672	20743
898.792	20777
898.913	20758
899.033	20644
899.153	20469
899.273	20419
899.393	20423
899.513	20564
899.633	20442
899.753	20374
899.873	20381
899.993	20389
900.113	20377
900.232	20450
900.352	20328
900.472	20290
900.591	20126
900.711	20199
900.83	20256
900.95	20259
901.069	20252
901.189	20122
901.308	19947
901.427	19871
901.546	19674
901.665	19803
901.784	19795
901.904	19715
902.023	19571
902.141	19483
902.26	19407
902.379	19350
902.498	19343
902.617	19365
902.735	19270
902.854	19365
902.973	19198
903.091	18989
903.21	18935
903.328	18916
903.446	18916
903.565	18806
903.683	18768
903.801	18741
903.919	18719
904.038	18620
904.156	18452
904.274	18646
904.392	18479
904.51	18544
904.627	18525
904.745	18578
904.863	18566
904.981	18365
905.098	18235
905.216	18102
905.334	18186
905.451	18273
905.569	18121
905.686	18243
905.803	18247
905.921	17984
906.038	18087
906.155	17939
906.272	17904
906.389	17946
906.506	17786
906.623	17805
906.74	17870
906.857	17786
906.974	17653
907.091	17764
907.208	17904
907.324	17710
907.441	17828
907.557	17516
907.674	17421
907.79	17402
907.907	17535
908.023	17452
908.139	17429
908.256	17482
908.372	17364
908.488	17322
908.604	17189
908.72	17220
908.836	17254
908.952	17166
909.068	17254
909.184	17284
909.3	17117
909.415	17337
909.531	17132
909.647	16934
909.762	16927
909.878	16927
909.993	16885
910.108	16873
910.224	16763
910.339	16835
910.454	16786
910.57	16702
910.685	16573
910.8	16927
910.915	16869
911.03	16637
911.145	16481
911.259	16481
911.374	16561
911.489	16360
911.604	16318
911.718	16314
911.833	16219
911.947	16143
912.062	16139
912.176	16215
912.291	16287
912.405	16192
912.519	16375
912.633	16314
912.748	16230
912.862	16310
912.976	16010
913.09	15876
913.204	16013
913.318	16044
913.431	16166
913.545	16116
913.659	16207
913.772	15987
913.886	15873
914	15884
914.113	15838
914.226	15945
914.34	15918
914.453	15728
914.566	15842
914.68	15701
914.793	15705
914.906	15644
915.019	15447
915.132	15340
915.245	15504
915.358	15462
915.47	15469
915.583	15363
915.696	15466
915.809	15538
915.921	15511
916.034	15408
916.146	15393
916.259	15348
916.371	15428
916.483	15351
916.595	15188
916.708	15169
916.82	15252
916.932	15226
917.044	15241
917.156	15157
917.268	15070
917.38	15138
917.491	15195
917.603	15039
917.715	15199
917.826	15108
917.938	15009
918.049	14937
918.161	15066
918.272	15195
918.384	15135
918.495	15051
918.606	14902
918.717	14746
918.828	14857
918.939	14910
919.05	14659
919.161	14739
919.272	14636
919.383	14651
919.494	14842
919.604	15009
919.715	14849
919.826	14739
919.936	14716
920.047	14906
920.157	14765
920.267	15009
920.378	14785
920.488	14762
920.598	14952
920.708	15077
920.818	14796
920.928	14918
921.038	15043
921.148	15077
921.258	14743
921.368	14648
921.477	14473
921.587	14522
921.697	14434
921.806	14560
921.916	14374
922.025	14161
922.134	14199
922.244	14062
922.353	14153
922.462	14069
922.571	13959
922.68	13780
922.789	13780
922.898	13811
923.007	13708
923.116	13731
923.224	13776
923.333	13742
923.442	13658
923.55	13647
923.659	13655
923.767	13811
923.876	13624
923.984	13613
924.092	13464
924.201	13575
924.309	13582
924.417	13514
924.525	13487
924.633	13487
924.741	14366
924.849	13297
924.956	13396
925.064	13324
925.172	13160
925.279	13301
925.387	13187
925.494	13129
925.602	13369
925.709	13217
925.816	13076
925.924	13129
926.031	13183
926.138	13225
926.245	13209
926.352	13008
926.459	13221
926.566	13175
926.673	13095
926.779	12920
926.886	12909
926.993	12806
927.099	12795
927.206	12791
927.312	12639
927.419	12745
927.525	12700
927.631	12814
927.737	12593
927.843	12639
927.95	12525
928.056	12494
928.162	12582
928.267	12608
928.373	13335
928.479	12627
928.585	12426
928.69	12448
928.796	12566
928.901	12410
929.007	12334
929.112	12391
929.218	12388
929.323	12281
929.428	12262
929.533	12456
929.638	12186
929.743	12235
929.848	12239
929.953	12224
930.058	12121
930.163	11942
930.267	11935
930.372	12171
930.477	11950
930.581	12175
930.685	12015
930.79	11870
930.894	11904
930.998	11733
931.103	12041
931.207	11661
931.311	11623
931.415	11459
931.519	11223
931.623	11288
