Data from test_V78500241_1859.txt Node
Date: Fri Mar 25 15:22:48 CST 2022
User: usil
Spectrometer: V785-0024
Trigger mode: 0
Integration Time (sec): 4.000000E-1
Scans to average: 1
Nonlinearity correction enabled: false
Boxcar width: 0
Storing dark spectrum: false
XAxis mode: Wavelengths
Number of Pixels in Spectrum: 1024
>>>>>Begin Spectral Data<<<<<
801.071	27823
801.214	27732
801.356	27389
801.499	27458
801.641	27165
801.783	27317
801.926	27374
802.068	27294
802.211	27230
802.353	27264
802.496	26868
802.638	26914
802.78	26815
802.923	26899
803.065	26914
803.208	26895
803.35	26899
803.492	27256
803.635	27192
803.777	27024
803.919	27055
804.061	27511
804.204	27283
804.346	27214
804.488	27013
804.63	27154
804.773	27104
804.915	27199
805.057	27321
805.199	27036
805.341	27203
805.483	27268
805.626	27279
805.768	27169
805.91	27306
806.052	27230
806.194	27123
806.336	27268
806.478	27355
806.62	27188
806.762	27344
806.904	27523
807.046	27686
807.188	27800
807.33	27660
807.472	27751
807.614	27686
807.756	27728
807.898	27644
808.04	27458
808.182	27462
808.324	27667
808.465	27663
808.607	27739
808.749	27972
808.891	28044
809.033	28105
809.174	27991
809.316	27774
809.458	27842
809.6	27823
809.741	28051
809.883	27987
810.025	28162
810.166	28078
810.308	28150
810.45	28120
810.591	28223
810.733	27968
810.875	27865
811.016	27835
811.158	27736
811.299	27968
811.441	28074
811.582	28021
811.724	27793
811.865	27789
812.007	27770
812.148	27869
812.29	27857
812.431	27987
812.573	28185
812.714	28443
812.855	28352
812.997	28478
813.138	28679
813.279	28656
813.421	28386
813.562	28413
813.703	28169
813.845	27991
813.986	27911
814.127	27682
814.268	27625
814.41	27717
814.551	27538
814.692	27739
814.833	27416
814.974	27633
815.115	27572
815.256	27633
815.397	27530
815.539	27568
815.68	27401
815.821	27363
815.962	27370
816.103	27310
816.244	27275
816.385	27089
816.526	27100
816.666	26929
816.807	26788
816.948	26910
817.089	26952
817.23	27077
817.371	26899
817.512	26823
817.653	26849
817.793	26796
817.934	26914
818.075	26918
818.216	26861
818.356	26880
818.497	26857
818.638	26682
818.778	26579
818.919	26560
819.06	26705
819.2	26895
819.341	26891
819.481	26979
819.622	26929
819.762	27116
819.903	27184
820.043	27081
820.184	27028
820.324	26910
820.465	27108
820.605	27119
820.746	27036
820.886	26765
821.026	26979
821.167	27051
821.307	27116
821.447	26975
821.588	26777
821.728	26575
821.868	26450
822.008	26324
822.149	26324
822.289	26317
822.429	26016
822.569	26058
822.709	26107
822.849	25887
822.99	25928
823.13	25803
823.27	25818
823.41	25590
823.55	25677
823.69	25791
823.83	25765
823.97	25613
824.11	25468
824.25	25445
824.389	25468
824.529	25643
824.669	25563
824.809	25609
824.949	25529
825.089	25655
825.228	25590
825.368	25381
825.508	25350
825.648	25403
825.787	25403
825.927	25365
826.067	25365
826.206	25354
826.346	25384
826.485	25362
826.625	25403
826.765	25487
826.904	25499
827.044	25263
827.183	25236
827.323	25148
827.462	25209
827.601	25194
827.741	25061
827.88	25034
828.02	25004
828.159	24970
828.298	25179
828.437	25190
828.577	25072
828.716	25168
828.855	25012
828.994	24894
829.134	24776
829.273	24821
829.412	24642
829.551	24738
829.69	24928
829.829	24935
829.968	24882
830.107	24962
830.246	24867
830.385	24734
830.524	24840
830.663	24593
830.802	24642
830.941	24452
831.08	24483
831.219	24544
831.357	24464
831.496	24654
831.635	24403
831.774	24228
831.913	24319
832.051	24323
832.19	24273
832.329	24342
832.467	24216
832.606	24060
832.744	24121
832.883	24114
833.022	24083
833.16	24152
833.299	24136
833.437	24053
833.576	24121
833.714	24300
833.852	24213
833.991	24315
834.129	24262
834.267	24281
834.406	24254
834.544	24148
834.682	24251
834.821	24053
834.959	24380
835.097	24136
835.235	24327
835.373	24114
835.511	24152
835.65	24114
835.788	24015
835.926	24022
836.064	23870
836.202	23832
836.34	24064
836.478	24273
836.615	23992
836.753	23980
836.891	24152
837.029	24106
837.167	24041
837.305	23996
837.443	23840
837.58	23870
837.718	23931
837.856	23790
837.993	23821
838.131	23805
838.269	23745
838.406	23798
838.544	23722
838.681	23512
838.819	23573
838.956	23330
839.094	23395
839.231	23440
839.369	23490
839.506	23760
839.643	23756
839.781	23463
839.918	23417
840.055	23383
840.193	23258
840.33	23239
840.467	23258
840.604	23288
840.742	23505
840.879	23140
841.016	23261
841.153	23254
841.29	23318
841.427	23200
841.564	23288
841.701	23231
841.838	23265
841.975	23105
842.112	23193
842.249	23010
842.385	23052
842.522	23170
842.659	23094
842.796	23128
842.933	22976
843.069	23014
843.206	23029
843.343	23140
843.479	23060
843.616	23067
843.752	22786
843.889	22919
844.025	22892
844.162	22828
844.298	22953
844.435	22866
844.571	22679
844.708	22809
844.844	22976
844.98	22896
845.117	22965
845.253	22744
845.389	22698
845.525	22687
845.661	22740
845.798	22432
845.934	22565
846.07	22500
846.206	22580
846.342	22622
846.478	22535
846.614	22348
846.75	22306
846.886	22322
847.022	22421
847.158	22299
847.294	22207
847.429	22322
847.565	22188
847.701	22398
847.837	21972
847.972	21953
848.108	22150
848.244	22078
848.379	21934
848.515	21884
848.65	21888
848.786	21823
848.921	21770
849.057	22013
849.192	21895
849.328	21945
849.463	21915
849.598	21774
849.734	21694
849.869	21682
850.004	21705
850.14	21694
850.275	21751
850.41	21542
850.545	21492
850.68	21652
850.815	21622
850.95	21587
851.085	21797
851.22	21846
851.355	21606
851.49	21629
851.625	21686
851.76	21599
851.895	21644
852.03	21595
852.165	21633
852.299	21686
852.434	21610
852.569	21663
852.703	21656
852.838	21603
852.973	21762
853.107	21713
853.242	21561
853.376	21477
853.511	21344
853.645	21412
853.78	21652
853.914	21412
854.048	21424
854.183	21416
854.317	21504
854.451	21580
854.585	21420
854.72	21382
854.854	21587
854.988	21351
855.122	21447
855.256	21370
855.39	21526
855.524	21416
855.658	21564
855.792	21564
855.926	21401
856.06	21443
856.194	21576
856.327	21389
856.461	21382
856.595	21233
856.729	21416
856.862	21542
856.996	21534
857.13	21561
857.263	21587
857.397	21599
857.53	21340
857.664	21408
857.797	21504
857.931	21564
858.064	21450
858.197	21667
858.331	21283
858.464	21389
858.597	21374
858.731	21511
858.864	21450
858.997	21534
859.13	21530
859.263	21492
859.396	21633
859.529	21458
859.662	21443
859.795	21344
859.928	21515
860.061	21473
860.194	21549
860.327	21564
860.46	21389
860.592	21553
860.725	21603
860.858	21629
860.99	21431
861.123	21431
861.256	21492
861.388	21424
861.521	22063
861.653	21351
861.786	21176
861.918	21256
862.05	21321
862.183	21435
862.315	21367
862.447	21469
862.58	21359
862.712	21207
862.844	21268
862.976	21222
863.108	21294
863.24	21473
863.372	21157
863.504	21150
863.636	21020
863.768	21157
863.9	21287
864.032	21169
864.164	21108
864.296	21245
864.428	21275
864.559	21184
864.691	21245
864.823	21184
864.954	21146
865.086	21192
865.217	20948
865.349	21013
865.48	20990
865.612	20956
865.743	21211
865.875	21039
866.006	20868
866.137	21074
866.269	21123
866.4	20967
866.531	20941
866.662	21009
866.793	20967
866.924	21009
867.055	21066
867.186	21028
867.317	20925
867.448	21077
867.579	20944
867.71	20883
867.841	20929
867.972	21028
868.103	21085
868.233	20937
868.364	20967
868.495	21138
868.625	21180
868.756	21298
868.886	21256
869.017	21264
869.147	21272
869.278	21355
869.408	21199
869.539	21241
869.669	21306
869.799	21393
869.929	21317
870.06	21310
870.19	21542
870.32	21401
870.45	21538
870.58	21504
870.71	21701
870.84	21770
870.97	21614
871.1	21500
871.23	21774
871.36	21876
871.489	21724
871.619	21724
871.749	21701
871.879	21819
872.008	21831
872.138	21808
872.267	21907
872.397	21694
872.526	21568
872.656	21686
872.785	21625
872.915	21876
873.044	21876
873.173	21724
873.303	21892
873.432	21960
873.561	21884
873.69	21854
873.819	21888
873.948	21842
874.077	21915
874.206	21762
874.335	21827
874.464	22002
874.593	22093
874.722	22010
874.851	22067
874.979	22025
875.108	22223
875.237	22101
875.365	21895
875.494	22101
875.623	22238
875.751	22051
875.88	22029
876.008	22158
876.136	22230
876.265	22504
876.393	22557
876.521	22489
876.65	22584
876.778	22459
876.906	22466
877.034	22303
877.162	22500
877.29	22402
877.418	22436
877.546	22379
877.674	22436
877.802	22443
877.93	22424
878.058	22284
878.185	22280
878.313	22436
878.441	22436
878.568	22234
878.696	22405
878.824	22409
878.951	22466
879.079	22500
879.206	22618
879.333	22622
879.461	22546
879.588	22557
879.715	22660
879.842	22752
879.97	22557
880.097	22276
880.224	22223
880.351	22284
880.478	22261
880.605	22238
880.732	22135
880.859	22462
880.986	22272
881.112	22325
881.239	22082
881.366	21934
881.493	21903
881.619	21713
881.746	21751
881.872	21865
881.999	21766
882.125	21717
882.252	21793
882.378	21895
882.505	21941
882.631	21606
882.757	21523
882.883	21580
883.01	21523
883.136	21416
883.262	21370
883.388	21275
883.514	21523
883.64	21485
883.766	21534
883.892	21321
884.018	21321
884.143	21408
884.269	21492
884.395	21188
884.52	21176
884.646	21211
884.772	21043
884.897	21036
885.023	21184
885.148	21233
885.274	21260
885.399	21192
885.524	21199
885.65	21142
885.775	21176
885.9	21127
886.025	21252
886.15	21245
886.275	21150
886.4	21047
886.525	21173
886.65	21161
886.775	21146
886.9	21176
887.025	21488
887.149	21020
887.274	20925
887.399	20918
887.523	21017
887.648	20876
887.773	20849
887.897	20899
888.021	20773
888.146	20845
888.27	20975
888.395	21028
888.519	20929
888.643	20861
888.767	20910
888.891	20868
889.015	20758
889.139	20823
889.263	20640
889.387	20716
889.511	20823
889.635	20838
889.759	20590
889.883	20716
890.006	20762
890.13	20807
890.254	20670
890.377	20632
890.501	20480
890.624	20450
890.748	20415
890.871	20282
890.995	20301
891.118	20248
891.241	20298
891.364	20358
891.488	20317
891.611	20176
891.734	20298
891.857	20172
891.98	20286
892.103	20347
892.226	20202
892.349	20157
892.471	20065
892.594	20240
892.717	20248
892.839	20168
892.962	20202
893.085	20294
893.207	20103
893.33	20031
893.452	20214
893.575	20229
893.697	20149
893.819	20419
893.941	20362
894.064	20324
894.186	20149
894.308	20016
894.43	20351
894.552	20263
894.674	20210
894.796	20001
894.918	20081
895.04	20134
895.161	20229
895.283	20176
895.405	20149
895.526	20183
895.648	20107
895.769	20210
895.891	20218
896.012	20301
896.134	20248
896.255	20130
896.376	20195
896.498	20107
896.619	20199
896.74	20138
896.861	20100
896.982	20511
897.103	20583
897.224	20488
897.345	20385
897.466	20370
897.587	20427
897.708	20412
897.828	20533
897.949	20343
898.07	20233
898.19	20336
898.311	20385
898.431	20347
898.552	20427
898.672	20446
898.792	20480
898.913	20381
899.033	20324
899.153	20161
899.273	20065
899.393	20157
899.513	20088
899.633	20130
899.753	20058
899.873	20092
899.993	20259
900.113	20130
900.232	20134
900.352	20126
900.472	19978
900.591	19788
900.711	19906
900.83	19837
900.95	20012
901.069	20054
901.189	19784
901.308	19582
901.427	19396
901.546	19578
901.665	19441
901.784	19544
901.904	19373
902.023	19187
902.141	19027
902.26	19008
902.379	18973
902.498	19046
902.617	18935
902.735	19015
902.854	19072
902.973	18882
903.091	18696
903.21	18745
903.328	18661
903.446	18722
903.565	18403
903.683	18532
903.801	18357
903.919	18490
904.038	18456
904.156	18239
904.274	18330
904.392	18197
904.51	18197
904.627	18224
904.745	18281
904.863	18311
904.981	17992
905.098	17946
905.216	17942
905.334	17920
905.451	17920
905.569	17882
905.686	18102
905.803	17980
905.921	17798
906.038	17893
906.155	17691
906.272	17585
906.389	17592
906.506	17486
906.623	17505
906.74	17425
906.857	17334
906.974	17322
907.091	17482
907.208	17505
907.324	17455
907.441	17421
907.557	17094
907.674	17193
907.79	17113
907.907	17174
908.023	17178
908.139	17147
908.256	17143
908.372	17064
908.488	17006
908.604	16938
908.72	16934
908.836	16900
908.952	16835
909.068	16831
909.184	17033
909.3	16904
909.415	16911
909.531	16877
909.647	16679
909.762	16569
909.878	16615
909.993	16588
910.108	16611
910.224	16641
910.339	16603
910.454	16531
910.57	16398
910.685	16379
910.8	16626
910.915	16535
911.03	16325
911.145	16272
911.259	16154
911.374	16291
911.489	16032
911.604	16147
911.718	15956
911.833	15899
911.947	15747
912.062	15774
912.176	15895
912.291	15953
912.405	15926
912.519	16082
912.633	16032
912.748	15983
912.862	15888
912.976	15766
913.09	15724
913.204	15717
913.318	15857
913.431	15831
913.545	15797
913.659	15808
913.772	15728
913.886	15553
914	15504
914.113	15682
914.226	15625
914.34	15526
914.453	15374
914.566	15526
914.68	15454
914.793	15351
914.906	15256
915.019	15176
915.132	15233
915.245	15123
915.358	15192
915.47	15154
915.583	15062
915.696	15142
915.809	15275
915.921	15218
916.034	15043
916.146	15074
916.259	15028
916.371	15077
916.483	15112
916.595	15017
916.708	14979
916.82	14956
916.932	14925
917.044	14994
917.156	14952
917.268	14792
917.38	14902
917.491	14788
917.603	14716
917.715	14921
917.826	14872
917.938	14743
918.049	14594
918.161	14724
918.272	14781
918.384	14739
918.495	14765
918.606	14568
918.717	14473
918.828	14613
918.939	14602
919.05	14461
919.161	14511
919.272	14298
919.383	14320
919.494	14503
919.604	14758
919.715	14575
919.826	14438
919.936	14431
920.047	14636
920.157	14526
920.267	14579
920.378	14503
920.488	14530
920.598	14651
920.708	14727
920.818	14571
920.928	14594
921.038	14758
921.148	14849
921.258	14476
921.368	14385
921.477	14206
921.587	14271
921.697	14134
921.806	14248
921.916	14103
922.025	13887
922.134	13879
922.244	13868
922.353	13997
922.462	13799
922.571	13662
922.68	13514
922.789	13582
922.898	13521
923.007	13552
923.116	13506
923.224	13537
923.333	13487
923.442	13422
923.55	13339
923.659	13327
923.767	13434
923.876	13289
923.984	13282
924.092	13221
924.201	13365
924.309	13339
924.417	13259
924.525	13236
924.633	13168
924.741	14081
924.849	13076
924.956	13042
925.064	12985
925.172	13004
925.279	12958
925.387	12977
925.494	13019
925.602	13126
925.709	12943
925.816	12894
925.924	12947
926.031	13061
926.138	12882
926.245	12909
926.352	12928
926.459	13000
926.566	12966
926.673	12844
926.779	12711
926.886	12646
926.993	12601
927.099	12555
927.206	12513
927.312	12414
927.419	12540
927.525	12498
927.631	12502
927.737	12384
927.843	12395
927.95	12224
928.056	12277
928.162	12319
928.267	12391
928.373	12905
928.479	12422
928.585	12190
928.69	12357
928.796	12281
928.901	12178
929.007	12068
929.112	12205
929.218	12152
929.323	12144
929.428	12026
929.533	12201
929.638	11977
929.743	11973
929.848	12045
929.953	11965
930.058	11870
930.163	11779
930.267	11676
930.372	11847
930.477	11756
930.581	11901
930.685	11771
930.79	11611
930.894	11623
930.998	11608
931.103	11786
931.207	11353
931.311	11349
931.415	11402
931.519	11025
931.623	11025
