Data from test_V78500241_3024.txt Node
Date: Fri Mar 25 15:30:54 CST 2022
User: usil
Spectrometer: V785-0024
Trigger mode: 0
Integration Time (sec): 4.000000E-1
Scans to average: 1
Nonlinearity correction enabled: false
Boxcar width: 0
Storing dark spectrum: false
XAxis mode: Wavelengths
Number of Pixels in Spectrum: 1024
>>>>>Begin Spectral Data<<<<<
801.071	27180
801.214	27222
801.356	26925
801.499	26948
801.641	26815
801.783	26861
801.926	26811
802.068	26762
802.211	26727
802.353	26541
802.496	26530
802.638	26545
802.78	26446
802.923	26320
803.065	26408
803.208	26320
803.35	26370
803.492	26480
803.635	26533
803.777	26404
803.919	26518
804.061	26899
804.204	26511
804.346	26423
804.488	26446
804.63	26651
804.773	26469
804.915	26530
805.057	26549
805.199	26518
805.341	26545
805.483	26640
805.626	26644
805.768	26568
805.91	26651
806.052	26667
806.194	26495
806.336	26883
806.478	26598
806.62	26659
806.762	26731
806.904	26845
807.046	27051
807.188	27226
807.33	26975
807.472	27222
807.614	27062
807.756	26937
807.898	26883
808.04	26838
808.182	26948
808.324	27009
808.465	26918
808.607	27184
808.749	27138
808.891	27336
809.033	27511
809.174	27325
809.316	27192
809.458	27268
809.6	27268
809.741	27310
809.883	27488
810.025	27618
810.166	27599
810.308	27648
810.45	27462
810.591	27580
810.733	27336
810.875	27370
811.016	27093
811.158	27180
811.299	27348
811.441	27431
811.582	27553
811.724	27283
811.865	27336
812.007	27294
812.148	27344
812.29	27252
812.431	27481
812.573	27603
812.714	27713
812.855	27747
812.997	27922
813.138	28002
813.279	27911
813.421	27835
813.562	27732
813.703	27622
813.845	27542
813.986	27207
814.127	26994
814.268	26940
814.41	27043
814.551	26796
814.692	27013
814.833	26807
814.974	26891
815.115	26960
815.256	26845
815.397	26800
815.539	26735
815.68	26788
815.821	26727
815.962	26765
816.103	26632
816.244	26495
816.385	26533
816.526	26571
816.666	26168
816.807	26256
816.948	26355
817.089	26195
817.23	26214
817.371	26286
817.512	26244
817.653	26157
817.793	26172
817.934	26164
818.075	26084
818.216	26122
818.356	26180
818.497	26035
818.638	25864
818.778	25852
818.919	25921
819.06	25951
819.2	26020
819.341	26119
819.481	26221
819.622	26313
819.762	26636
819.903	26396
820.043	26351
820.184	26210
820.324	26332
820.465	26271
820.605	26259
820.746	26206
820.886	26130
821.026	26138
821.167	26183
821.307	26229
821.447	26164
821.588	25982
821.728	26024
821.868	25753
822.008	25616
822.149	25708
822.289	25689
822.429	25464
822.569	25251
822.709	25274
822.849	25240
822.99	25160
823.13	25038
823.27	25133
823.41	24951
823.55	24863
823.69	24989
823.83	24962
823.97	24977
824.11	24753
824.25	24798
824.389	24779
824.529	24779
824.669	24741
824.809	24787
824.949	24779
825.089	24821
825.228	24798
825.368	24646
825.508	24566
825.648	24570
825.787	24684
825.927	24665
826.067	24505
826.206	24627
826.346	24665
826.485	24817
826.625	24521
826.765	24852
826.904	24703
827.044	24490
827.183	24418
827.323	24300
827.462	24372
827.601	24372
827.741	24220
827.88	24418
828.02	24315
828.159	24144
828.298	24422
828.437	24277
828.577	24251
828.716	24410
828.855	24121
828.994	24022
829.134	24049
829.273	24079
829.412	24015
829.551	23927
829.69	23950
829.829	24121
829.968	24289
830.107	24121
830.246	24011
830.385	23992
830.524	23904
830.663	23897
830.802	23802
830.941	23668
831.08	23589
831.219	23710
831.357	23741
831.496	23847
831.635	23695
831.774	23627
831.913	23531
832.051	23379
832.19	23292
832.329	23421
832.467	23307
832.606	23170
832.744	23334
832.883	23113
833.022	23303
833.16	23398
833.299	23235
833.437	23360
833.576	23360
833.714	23474
833.852	23448
833.991	23425
834.129	23398
834.267	23486
834.406	23436
834.544	23383
834.682	23425
834.821	23280
834.959	23524
835.097	23265
835.235	23433
835.373	23269
835.511	23277
835.65	23200
835.788	23265
835.926	23155
836.064	23010
836.202	23010
836.34	23204
836.478	23250
836.615	23261
836.753	23204
836.891	23178
837.029	23132
837.167	23094
837.305	23033
837.443	23269
837.58	22999
837.718	23071
837.856	23079
837.993	22961
838.131	23014
838.269	22889
838.406	23056
838.544	22881
838.681	22626
838.819	22713
838.956	22561
839.094	22527
839.231	22634
839.369	22809
839.506	22812
839.643	22721
839.781	22527
839.918	22470
840.055	22497
840.193	22375
840.33	22386
840.467	22470
840.604	22508
840.742	22584
840.879	22481
841.016	22352
841.153	22443
841.29	22561
841.427	22447
841.564	22618
841.701	22432
841.838	22318
841.975	22363
842.112	22421
842.249	22219
842.385	22371
842.522	22523
842.659	22291
842.796	22265
842.933	22390
843.069	22128
843.206	22162
843.343	22230
843.479	22261
843.616	22192
843.752	21941
843.889	21960
844.025	22078
844.162	21945
844.298	22090
844.435	21937
844.571	21880
844.708	22029
844.844	22006
844.98	22211
845.117	21934
845.253	21915
845.389	21846
845.525	21884
845.661	21876
845.798	21618
845.934	21732
846.07	21644
846.206	21686
846.342	21793
846.478	21686
846.614	21485
846.75	21382
846.886	21389
847.022	21557
847.158	21389
847.294	21386
847.429	21564
847.565	21462
847.701	21603
847.837	21245
847.972	21207
848.108	21317
848.244	21138
848.379	21001
848.515	21017
848.65	21043
848.786	21039
848.921	21096
849.057	21028
849.192	21123
849.328	21131
849.463	21089
849.598	20967
849.734	20925
849.869	20998
850.004	20781
850.14	20830
850.275	20788
850.41	20689
850.545	20727
850.68	20667
850.815	20819
850.95	20781
851.085	20944
851.22	20800
851.355	20872
851.49	20933
851.625	20689
851.76	20727
851.895	20823
852.03	20655
852.165	20762
852.299	20910
852.434	20941
852.569	20830
852.703	20785
852.838	20872
852.973	20902
853.107	20994
853.242	20705
853.376	20594
853.511	20533
853.645	20659
853.78	20640
853.914	20598
854.048	20663
854.183	20670
854.317	20629
854.451	20868
854.585	20674
854.72	20743
854.854	20651
854.988	20640
855.122	20629
855.256	20598
855.39	20678
855.524	20594
855.658	20629
855.792	20686
855.926	20667
856.06	20655
856.194	20674
856.327	20644
856.461	20564
856.595	20651
856.729	20659
856.862	20583
856.996	20754
857.13	20636
857.263	20819
857.397	20765
857.53	20587
857.664	20724
857.797	20735
857.931	20861
858.064	20746
858.197	20701
858.331	20579
858.464	20537
858.597	20484
858.731	20602
858.864	20617
858.997	20629
859.13	20705
859.263	20693
859.396	20773
859.529	20667
859.662	20564
859.795	20549
859.928	20545
860.061	20727
860.194	20826
860.327	20686
860.46	20613
860.592	20815
860.725	20906
860.858	20773
860.99	20678
861.123	20533
861.256	20511
861.388	20629
861.521	21249
861.653	20530
861.786	20465
861.918	20476
862.05	20556
862.183	20556
862.315	20488
862.447	20644
862.58	20579
862.712	20370
862.844	20366
862.976	20434
863.108	20412
863.24	20834
863.372	20332
863.504	20324
863.636	20393
863.768	20377
863.9	20412
864.032	20248
864.164	20320
864.296	20381
864.428	20320
864.559	20442
864.691	20317
864.823	20339
864.954	20423
865.086	20313
865.217	20187
865.349	20172
865.48	20134
865.612	20263
865.743	20336
865.875	20351
866.006	20229
866.137	20199
866.269	20214
866.4	20294
866.531	20153
866.662	20145
866.793	20176
866.924	20377
867.055	20298
867.186	20145
867.317	20134
867.448	20130
867.579	20199
867.71	20065
867.841	20164
867.972	20119
868.103	20210
868.233	20176
868.364	20282
868.495	20176
868.625	20461
868.756	20556
868.886	20320
869.017	20347
869.147	20492
869.278	20530
869.408	20465
869.539	20518
869.669	20640
869.799	20495
869.929	20556
870.06	20526
870.19	20743
870.32	20716
870.45	20796
870.58	20880
870.71	20880
870.84	20876
870.97	20781
871.1	20914
871.23	20933
871.36	21043
871.489	20910
871.619	20925
871.749	21062
871.879	21055
872.008	21199
872.138	21036
872.267	20933
872.397	20895
872.526	20941
872.656	20845
872.785	20880
872.915	21112
873.044	21032
873.173	21119
873.303	21123
873.432	21104
873.561	21287
873.69	21131
873.819	21070
873.948	21112
874.077	20990
874.206	21005
874.335	21070
874.464	21131
874.593	21302
874.722	21272
874.851	21367
874.979	21359
875.108	21298
875.237	21260
875.365	21283
875.494	21382
875.623	21443
875.751	21264
875.88	21233
876.008	21462
876.136	21485
876.265	21743
876.393	21918
876.521	21709
876.65	21720
876.778	21709
876.906	21625
877.034	21564
877.162	21686
877.29	21713
877.418	21629
877.546	21542
877.674	21564
877.802	21633
877.93	21637
878.058	21557
878.185	21515
878.313	21690
878.441	21724
878.568	21599
878.696	21701
878.824	21679
878.951	21778
879.079	21724
879.206	21857
879.333	21819
879.461	21667
879.588	21747
879.715	21816
879.842	22059
879.97	21755
880.097	21667
880.224	21428
880.351	21511
880.478	21545
880.605	21351
880.732	21515
880.859	21705
880.986	21549
881.112	21420
881.239	21237
881.366	21157
881.493	21089
881.619	20956
881.746	21005
881.872	21093
881.999	20944
882.125	20967
882.252	21104
882.378	20963
882.505	21089
882.631	20956
882.757	20845
882.883	20796
883.01	20864
883.136	20689
883.262	20750
883.388	20625
883.514	20693
883.64	20743
883.766	20697
883.892	20537
884.018	20537
884.143	20708
884.269	20857
884.395	20533
884.52	20328
884.646	20438
884.772	20393
884.897	20381
885.023	20503
885.148	20594
885.274	20682
885.399	20450
885.524	20427
885.65	20473
885.775	20358
885.9	20473
886.025	20526
886.15	20442
886.275	20454
886.4	20358
886.525	20423
886.65	20282
886.775	20298
886.9	20590
887.025	20568
887.149	20473
887.274	20240
887.399	20142
887.523	20313
887.648	20008
887.773	20153
887.897	20206
888.021	20229
888.146	20103
888.27	20415
888.395	20221
888.519	20309
888.643	20153
888.767	20191
888.891	20092
889.015	20065
889.139	20001
889.263	20001
889.387	20107
889.511	20183
889.635	20039
889.759	20027
889.883	20050
890.006	19982
890.13	19997
890.254	19925
890.377	19894
890.501	19788
890.624	19708
890.748	19856
890.871	19609
890.995	19578
891.118	19544
891.241	19674
891.364	19620
891.488	19712
891.611	19719
891.734	19647
891.857	19552
891.98	19567
892.103	19563
892.226	19514
892.349	19502
892.471	19369
892.594	19495
892.717	19521
892.839	19464
892.962	19537
893.085	19559
893.207	19453
893.33	19346
893.452	19464
893.575	19510
893.697	19620
893.819	19704
893.941	19685
894.064	19693
894.186	19563
894.308	19495
894.43	19655
894.552	19613
894.674	19670
894.796	19453
894.918	19457
895.04	19453
895.161	19590
895.283	19495
895.405	19297
895.526	19457
895.648	19430
895.769	19472
895.891	19578
896.012	19674
896.134	19537
896.255	19518
896.376	19422
896.498	19563
896.619	19453
896.74	19544
896.861	19544
896.982	19818
897.103	19947
897.224	19765
897.345	19658
897.466	19704
897.587	19670
897.708	19814
897.828	19868
897.949	19704
898.07	19582
898.19	19647
898.311	19841
898.431	19734
898.552	19662
898.672	19807
898.792	19780
898.913	19776
899.033	19662
899.153	19563
899.273	19476
899.393	19487
899.513	19540
899.633	19548
899.753	19499
899.873	19578
899.993	19571
900.113	19510
900.232	19403
900.352	19422
900.472	19373
900.591	19255
900.711	19251
900.83	19168
900.95	19320
901.069	19430
901.189	19057
901.308	19034
901.427	18783
901.546	18833
901.665	18939
901.784	18821
901.904	18764
902.023	18612
902.141	18528
902.26	18486
902.379	18555
902.498	18380
902.617	18418
902.735	18464
902.854	18448
902.973	18167
903.091	18205
903.21	18098
903.328	18076
903.446	17999
903.565	17939
903.683	17824
903.801	17691
903.919	17927
904.038	17843
904.156	17600
904.274	17646
904.392	17703
904.51	17524
904.627	17695
904.745	17615
904.863	17699
904.981	17474
905.098	17345
905.216	17341
905.334	17376
905.451	17429
905.569	17387
905.686	17364
905.803	17364
905.921	17102
906.038	17239
906.155	17155
906.272	17075
906.389	16976
906.506	16942
906.623	16953
906.74	16824
906.857	16771
906.974	16866
907.091	16915
907.208	17079
907.324	16915
907.441	16691
907.557	16588
907.674	16660
907.79	16447
907.907	16535
908.023	16694
908.139	16554
908.256	16580
908.372	16428
908.488	16512
908.604	16360
908.72	16268
908.836	16375
908.952	16402
909.068	16382
909.184	16436
909.3	16238
909.415	16341
909.531	16253
909.647	16135
909.762	16048
909.878	16051
909.993	16002
910.108	15953
910.224	15968
910.339	16048
910.454	15926
910.57	15854
910.685	15774
910.8	16029
910.915	16029
911.03	15793
911.145	15759
911.259	15580
911.374	15622
911.489	15644
911.604	15477
911.718	15401
911.833	15313
911.947	15363
912.062	15294
912.176	15420
912.291	15439
912.405	15454
912.519	15671
912.633	15500
912.748	15500
912.862	15351
912.976	15188
913.09	15127
913.204	15173
913.318	15173
913.431	15355
913.545	15264
913.659	15203
913.772	15150
913.886	15032
914	14914
914.113	15131
914.226	15146
914.34	15039
914.453	14838
914.566	15112
914.68	14849
914.793	14914
914.906	14724
915.019	14648
915.132	14556
915.245	14541
915.358	14663
915.47	14610
915.583	14686
915.696	14636
915.809	14762
915.921	14830
916.034	14537
916.146	14530
916.259	14522
916.371	14655
916.483	14617
916.595	14518
916.708	14476
916.82	14495
916.932	14488
917.044	14454
917.156	14450
917.268	14282
917.38	14434
917.491	14248
917.603	14259
917.715	14389
917.826	14412
917.938	14263
918.049	14138
918.161	14256
918.272	14469
918.384	14377
918.495	14256
918.606	14130
918.717	14103
918.828	14142
918.939	14119
919.05	13978
919.161	14081
919.272	13921
919.383	13947
919.494	14157
919.604	14172
919.715	14024
919.826	14035
919.936	14001
920.047	14134
920.157	14073
920.267	14313
920.378	14111
920.488	13936
920.598	14263
920.708	14423
920.818	14187
920.928	14240
921.038	14328
921.148	14294
921.258	13978
921.368	13928
921.477	13883
921.587	13738
921.697	13651
921.806	13814
921.916	13639
922.025	13521
922.134	13464
922.244	13445
922.353	13460
922.462	13274
922.571	13209
922.68	13080
922.789	13038
922.898	13149
923.007	12932
923.116	13179
923.224	13126
923.333	13019
923.442	12966
923.55	12897
923.659	12970
923.767	12962
923.876	12837
923.984	12924
924.092	12817
924.201	12863
924.309	12867
924.417	12802
924.525	12795
924.633	12825
924.741	13499
924.849	12570
924.956	12684
925.064	12559
925.172	12486
925.279	12483
925.387	12608
925.494	12521
925.602	12700
925.709	12483
925.816	12460
925.924	12517
926.031	12582
926.138	12426
926.245	12544
926.352	12372
926.459	12445
926.566	12551
926.673	12418
926.779	12346
926.886	12300
926.993	12175
927.099	12064
927.206	12133
927.312	12049
927.419	12144
927.525	12076
927.631	12098
927.737	12007
927.843	11977
927.95	11874
928.056	11889
928.162	11954
928.267	11946
928.373	12585
928.479	12060
928.585	11794
928.69	11908
928.796	11977
928.901	11912
929.007	11695
929.112	11821
929.218	11771
929.323	11729
929.428	11665
929.533	11737
929.638	11592
929.743	11710
929.848	11611
929.953	11589
930.058	11543
930.163	11368
930.267	11406
930.372	11455
930.477	11273
930.581	11619
930.685	11410
930.79	11227
930.894	11345
930.998	11269
931.103	11284
931.207	10965
931.311	10942
931.415	10919
931.519	10706
931.623	10649
