Data from test_V78500241_156.txt Node
Date: Fri Mar 25 15:10:56 CST 2022
User: usil
Spectrometer: V785-0024
Trigger mode: 0
Integration Time (sec): 4.000000E-1
Scans to average: 1
Nonlinearity correction enabled: false
Boxcar width: 0
Storing dark spectrum: false
XAxis mode: Wavelengths
Number of Pixels in Spectrum: 1024
>>>>>Begin Spectral Data<<<<<
801.071	27994
801.214	28055
801.356	27641
801.499	27663
801.641	27477
801.783	27439
801.926	27515
802.068	27344
802.211	27340
802.353	27412
802.496	27218
802.638	27188
802.78	27116
802.923	27024
803.065	26853
803.208	27032
803.35	27024
803.492	27142
803.635	27348
803.777	27169
803.919	27138
804.061	27504
804.204	27275
804.346	27138
804.488	27013
804.63	27123
804.773	26940
804.915	27104
805.057	27260
805.199	27214
805.341	27127
805.483	27287
805.626	27176
805.768	27188
805.91	27252
806.052	27321
806.194	27104
806.336	27458
806.478	27131
806.62	27214
806.762	27389
806.904	27599
807.046	27720
807.188	27492
807.33	27481
807.472	27576
807.614	27561
807.756	27454
807.898	27416
808.04	27275
808.182	27367
808.324	27481
808.465	27447
808.607	27675
808.749	27732
808.891	27823
809.033	27911
809.174	27724
809.316	27846
809.458	27724
809.6	27835
809.741	27804
809.883	27926
810.025	27994
810.166	27964
810.308	28078
810.45	27994
810.591	27857
810.733	27713
810.875	27686
811.016	27728
811.158	27564
811.299	27880
811.441	27785
811.582	27880
811.724	27686
811.865	27827
812.007	27694
812.148	27800
812.29	27755
812.431	27918
812.573	27964
812.714	28025
812.855	28200
812.997	28272
813.138	28428
813.279	28413
813.421	28337
813.562	28147
813.703	28070
813.845	27934
813.986	27553
814.127	27534
814.268	27492
814.41	27374
814.551	27218
814.692	27526
814.833	27393
814.974	27283
815.115	27344
815.256	27192
815.397	27131
815.539	27123
815.68	27036
815.821	27017
815.962	27173
816.103	27096
816.244	26960
816.385	26914
816.526	26876
816.666	26651
816.807	26686
816.948	26625
817.089	26670
817.23	26575
817.371	26514
817.512	26552
817.653	26511
817.793	26514
817.934	26537
818.075	26446
818.216	26446
818.356	26499
818.497	26122
818.638	26180
818.778	26202
818.919	26256
819.06	26237
819.2	26412
819.341	26503
819.481	26590
819.622	26621
819.762	26689
819.903	26712
820.043	26552
820.184	26590
820.324	26511
820.465	26651
820.605	26465
820.746	26431
820.886	26366
821.026	26396
821.167	26446
821.307	26537
821.447	26415
821.588	26263
821.728	26130
821.868	26050
822.008	25947
822.149	25856
822.289	25875
822.429	25613
822.569	25632
822.709	25510
822.849	25312
822.99	25304
823.13	25407
823.27	25358
823.41	25244
823.55	25190
823.69	25095
823.83	25251
823.97	25023
824.11	24947
824.25	25012
824.389	24977
824.529	24958
824.669	24958
824.809	25015
824.949	25015
825.089	25160
825.228	25008
825.368	24844
825.508	24814
825.648	24821
825.787	24768
825.927	24734
826.067	24719
826.206	24875
826.346	24886
826.485	24787
826.625	24757
826.765	24886
826.904	24859
827.044	24479
827.183	24464
827.323	24426
827.462	24426
827.601	24509
827.741	24395
827.88	24467
828.02	24292
828.159	24330
828.298	24467
828.437	24483
828.577	24277
828.716	24551
828.855	24239
828.994	24049
829.134	24224
829.273	24243
829.412	24057
829.551	24140
829.69	24076
829.829	24159
829.968	24140
830.107	24243
830.246	24072
830.385	24083
830.524	23923
830.663	23984
830.802	23764
830.941	23608
831.08	23691
831.219	23699
831.357	23821
831.496	23946
831.635	23745
831.774	23524
831.913	23619
832.051	23493
832.19	23543
832.329	23490
832.467	23402
832.606	23315
832.744	23436
832.883	23303
833.022	23242
833.16	23421
833.299	23421
833.437	23402
833.576	23421
833.714	23356
833.852	23425
833.991	23531
834.129	23463
834.267	23341
834.406	23235
834.544	23421
834.682	23410
834.821	23292
834.959	23493
835.097	23311
835.235	23410
835.373	23315
835.511	23337
835.65	23170
835.788	23181
835.926	23162
836.064	23014
836.202	23052
836.34	23200
836.478	23330
836.615	23166
836.753	23341
836.891	23223
837.029	23231
837.167	23060
837.305	23060
837.443	23075
837.58	23018
837.718	23064
837.856	23037
837.993	22900
838.131	23056
838.269	22965
838.406	22953
838.544	22809
838.681	22721
838.819	22694
838.956	22561
839.094	22413
839.231	22645
839.369	22630
839.506	22771
839.643	22831
839.781	22428
839.918	22405
840.055	22466
840.193	22466
840.33	22360
840.467	22421
840.604	22497
840.742	22683
840.879	22238
841.016	22249
841.153	22192
841.29	22478
841.427	22276
841.564	22417
841.701	22462
841.838	22242
841.975	22261
842.112	22268
842.249	22150
842.385	22124
842.522	22329
842.659	22287
842.796	22059
842.933	22207
843.069	22112
843.206	22029
843.343	22169
843.479	22032
843.616	22055
843.752	21793
843.889	21838
844.025	21987
844.162	21793
844.298	22029
844.435	21911
844.571	21816
844.708	21827
844.844	22131
844.98	22017
845.117	22044
845.253	21956
845.389	21728
845.525	21812
845.661	21618
845.798	21595
845.934	21625
846.07	21401
846.206	21557
846.342	21709
846.478	21526
846.614	21359
846.75	21283
846.886	21325
847.022	21302
847.158	21245
847.294	21325
847.429	21336
847.565	21389
847.701	21557
847.837	21009
847.972	21112
848.108	20975
848.244	21039
848.379	20960
848.515	20853
848.65	20933
848.786	20792
848.921	20895
849.057	21020
849.192	20990
849.328	20990
849.463	20937
849.598	20872
849.734	20773
849.869	20754
850.004	20667
850.14	20651
850.275	20667
850.41	20609
850.545	20613
850.68	20556
850.815	20648
850.95	20674
851.085	20670
851.22	20765
851.355	20625
851.49	20602
851.625	20583
851.76	20617
851.895	20545
852.03	20457
852.165	20431
852.299	20746
852.434	20670
852.569	20503
852.703	20571
852.838	20682
852.973	20739
853.107	20731
853.242	20518
853.376	20484
853.511	20301
853.645	20366
853.78	20476
853.914	20499
854.048	20381
854.183	20476
854.317	20393
854.451	20590
854.585	20393
854.72	20328
854.854	20473
854.988	20362
855.122	20499
855.256	20199
855.39	20332
855.524	20571
855.658	20484
855.792	20339
855.926	20393
856.06	20473
856.194	20511
856.327	20377
856.461	20396
856.595	20431
856.729	20377
856.862	20469
856.996	20480
857.13	20473
857.263	20465
857.397	20511
857.53	20355
857.664	20442
857.797	20385
857.931	20526
858.064	20415
858.197	20537
858.331	20328
858.464	20366
858.597	20240
858.731	20374
858.864	20339
858.997	20332
859.13	20286
859.263	20385
859.396	20434
859.529	20351
859.662	20408
859.795	20252
859.928	20298
860.061	20522
860.194	20461
860.327	20389
860.46	20454
860.592	20446
860.725	20541
860.858	20434
860.99	20252
861.123	20248
861.256	20328
861.388	20339
861.521	21131
861.653	20153
861.786	20149
861.918	20221
862.05	20256
862.183	20358
862.315	20377
862.447	20465
862.58	20412
862.712	20077
862.844	20176
862.976	20187
863.108	20176
863.24	20366
863.372	20008
863.504	20016
863.636	20111
863.768	20031
863.9	20027
864.032	19986
864.164	20115
864.296	20050
864.428	20130
864.559	20130
864.691	20168
864.823	19989
864.954	19902
865.086	20062
865.217	19963
865.349	19871
865.48	19913
865.612	19879
865.743	20084
865.875	19993
866.006	19963
866.137	19921
866.269	19940
866.4	19879
866.531	19925
866.662	19951
866.793	19959
866.924	19936
867.055	19906
867.186	19902
867.317	19856
867.448	19837
867.579	19830
867.71	19799
867.841	19830
867.972	19769
868.103	19887
868.233	19944
868.364	19951
868.495	19993
868.625	20012
868.756	20240
868.886	20084
869.017	20062
869.147	20164
869.278	20126
869.408	20237
869.539	20096
869.669	20134
869.799	20157
869.929	20263
870.06	20233
870.19	20438
870.32	20461
870.45	20457
870.58	20541
870.71	20727
870.84	20670
870.97	20503
871.1	20469
871.23	20632
871.36	20743
871.489	20735
871.619	20708
871.749	20739
871.879	20781
872.008	20800
872.138	20861
872.267	20785
872.397	20651
872.526	20568
872.656	20533
872.785	20549
872.915	20781
873.044	20800
873.173	20754
873.303	20765
873.432	20826
873.561	20792
873.69	20720
873.819	20823
873.948	20773
874.077	20785
874.206	20511
874.335	20750
874.464	20887
874.593	20906
874.722	20994
874.851	21017
874.979	20914
875.108	21203
875.237	21066
875.365	20910
875.494	20952
875.623	21176
875.751	20979
875.88	21028
876.008	21077
876.136	21310
876.265	21416
876.393	21481
876.521	21500
876.65	21462
876.778	21408
876.906	21329
877.034	21329
877.162	21359
877.29	21241
877.418	21363
877.546	21389
877.674	21298
877.802	21348
877.93	21279
878.058	21272
878.185	21340
878.313	21298
878.441	21260
878.568	21161
878.696	21291
878.824	21458
878.951	21485
879.079	21538
879.206	21667
879.333	21511
879.461	21412
879.588	21500
879.715	21553
879.842	21599
879.97	21321
880.097	21226
880.224	21214
880.351	21203
880.478	21085
880.605	21138
880.732	21112
880.859	21344
880.986	21123
881.112	21176
881.239	21036
881.366	20849
881.493	20849
881.619	20769
881.746	20849
881.872	20762
881.999	20701
882.125	20678
882.252	20796
882.378	20739
882.505	20849
882.631	20674
882.757	20503
882.883	20587
883.01	20507
883.136	20461
883.262	20404
883.388	20332
883.514	20617
883.64	20530
883.766	20408
883.892	20240
884.018	20355
884.143	20518
884.269	20476
884.395	20218
884.52	20206
884.646	20210
884.772	20058
884.897	20096
885.023	20138
885.148	20206
885.274	20214
885.399	20214
885.524	20122
885.65	20153
885.775	20176
885.9	20187
886.025	20214
886.15	20103
886.275	20020
886.4	20024
886.525	20103
886.65	20130
886.775	20050
886.9	20237
887.025	20294
887.149	20202
887.274	20069
887.399	19921
887.523	19993
887.648	19765
887.773	19856
887.897	19997
888.021	19947
888.146	19879
888.27	19947
888.395	19993
888.519	20054
888.643	19883
888.767	19982
888.891	19822
889.015	19643
889.139	19776
889.263	19719
889.387	19803
889.511	19894
889.635	19784
889.759	19788
889.883	19571
890.006	19780
890.13	19856
890.254	19582
890.377	19609
890.501	19445
890.624	19411
890.748	19578
890.871	19362
890.995	19304
891.118	19301
891.241	19339
891.364	19217
891.488	19468
891.611	19221
891.734	19175
891.857	19350
891.98	19320
892.103	19384
892.226	19255
892.349	19293
892.471	19095
892.594	19278
892.717	19384
892.839	19331
892.962	19202
893.085	19240
893.207	19217
893.33	19076
893.452	19118
893.575	19282
893.697	19034
893.819	19384
893.941	19464
894.064	19392
894.186	19152
894.308	19190
894.43	19247
894.552	19358
894.674	19285
894.796	19141
894.918	19221
895.04	19297
895.161	19270
895.283	19206
895.405	19141
895.526	19285
895.648	19148
895.769	19198
895.891	19327
896.012	19388
896.134	19274
896.255	19301
896.376	19297
896.498	19320
896.619	19308
896.74	19365
896.861	19308
896.982	19616
897.103	19719
897.224	19639
897.345	19540
897.466	19563
897.587	19567
897.708	19662
897.828	19624
897.949	19559
898.07	19316
898.19	19426
898.311	19575
898.431	19460
898.552	19491
898.672	19575
898.792	19647
898.913	19575
899.033	19377
899.153	19285
899.273	19133
899.393	19213
899.513	19293
899.633	19118
899.753	19343
899.873	19217
899.993	19308
900.113	19236
900.232	19190
900.352	19285
900.472	19023
900.591	19065
900.711	19069
900.83	19069
900.95	19160
901.069	19076
901.189	18947
901.308	18753
901.427	18639
901.546	18631
901.665	18654
901.784	18700
901.904	18513
902.023	18471
902.141	18213
902.26	18125
902.379	18270
902.498	18220
902.617	18129
902.735	18121
902.854	18064
902.973	18129
903.091	17942
903.21	17783
903.328	17779
903.446	17767
903.565	17570
903.683	17646
903.801	17524
903.919	17558
904.038	17509
904.156	17402
904.274	17398
904.392	17383
904.51	17330
904.627	17353
904.745	17364
904.863	17372
904.981	17242
905.098	17071
905.216	17178
905.334	17204
905.451	17098
905.569	17079
905.686	17071
905.803	17003
905.921	17006
906.038	16885
906.155	16873
906.272	16797
906.389	16752
906.506	16706
906.623	16577
906.74	16622
906.857	16493
906.974	16584
907.091	16691
907.208	16801
907.324	16550
907.441	16424
907.557	16508
907.674	16405
907.79	16226
907.907	16287
908.023	16257
908.139	16211
908.256	16169
908.372	16230
908.488	16188
908.604	16044
908.72	16040
908.836	16048
908.952	16044
909.068	15960
909.184	16078
909.3	15991
909.415	16044
909.531	15953
909.647	15713
909.762	15789
909.878	15637
909.993	15804
910.108	15606
910.224	15606
910.339	15709
910.454	15538
910.57	15466
910.685	15481
910.8	15743
910.915	15644
911.03	15488
911.145	15363
911.259	15447
911.374	15188
911.489	15226
911.604	15176
911.718	15001
911.833	15036
911.947	15032
912.062	14941
912.176	15024
912.291	14971
912.405	14990
912.519	15214
912.633	15249
912.748	15089
912.862	14982
912.976	14880
913.09	14701
913.204	14842
913.318	14861
913.431	15036
913.545	14918
913.659	14994
913.772	14857
913.886	14716
914	14636
914.113	14724
914.226	14781
914.34	14758
914.453	14469
914.566	14617
914.68	14587
914.793	14575
914.906	14347
915.019	14332
915.132	14256
915.245	14259
915.358	14298
915.47	14377
915.583	14259
915.696	14442
915.809	14393
915.921	14434
916.034	14210
916.146	14138
916.259	14240
916.371	14298
916.483	14309
916.595	14172
916.708	14115
916.82	14149
916.932	14073
917.044	14210
917.156	14092
917.268	14088
917.38	13963
917.491	14050
917.603	14031
917.715	14191
917.826	14012
917.938	13959
918.049	13849
918.161	13947
918.272	14039
918.384	14161
918.495	13947
918.606	13928
918.717	13746
918.828	13776
918.939	13871
919.05	13670
919.161	13807
919.272	13548
919.383	13632
919.494	13860
919.604	13963
919.715	13742
919.826	13594
919.936	13719
920.047	13776
920.157	13753
920.267	13944
920.378	13731
920.488	13685
920.598	13906
920.708	13986
920.818	13856
920.928	13807
921.038	14020
921.148	13970
921.258	13685
921.368	13655
921.477	13502
921.587	13400
921.697	13320
921.806	13453
921.916	13236
922.025	13164
922.134	13141
922.244	13038
922.353	13088
922.462	13000
922.571	12939
922.68	12871
922.789	12768
922.898	12757
923.007	12749
923.116	12821
923.224	12673
923.333	12677
923.442	12528
923.55	12642
923.659	12574
923.767	12673
923.876	12574
923.984	12570
924.092	12414
924.201	12547
924.309	12464
924.417	12509
924.525	12433
924.633	12464
924.741	13221
924.849	12266
924.956	12498
925.064	12281
925.172	12197
925.279	12213
925.387	12209
925.494	12251
925.602	12311
925.709	12262
925.816	12209
925.924	12163
926.031	12247
926.138	12228
926.245	12159
926.352	12175
926.459	12292
926.566	12205
926.673	12148
926.779	11965
926.886	12060
926.993	11824
927.099	11847
927.206	11752
927.312	11809
927.419	11836
927.525	11878
927.631	11843
927.737	11699
927.843	11718
927.95	11490
928.056	11699
928.162	11638
928.267	11726
928.373	12232
928.479	11726
928.585	11414
928.69	11596
928.796	11589
928.901	11505
929.007	11311
929.112	11463
929.218	11486
929.323	11471
929.428	11482
929.533	11512
929.638	11284
929.743	11353
929.848	11318
929.953	11349
930.058	11246
930.163	11098
930.267	11086
930.372	11250
930.477	11128
930.581	11220
930.685	11155
930.79	10949
930.894	11014
930.998	10953
931.103	11045
931.207	10706
931.311	10679
931.415	10599
931.519	10409
931.623	10344
