Data from test_V78500241_2449.txt Node
Date: Fri Mar 25 15:26:54 CST 2022
User: usil
Spectrometer: V785-0024
Trigger mode: 0
Integration Time (sec): 4.000000E-1
Scans to average: 1
Nonlinearity correction enabled: false
Boxcar width: 0
Storing dark spectrum: false
XAxis mode: Wavelengths
Number of Pixels in Spectrum: 1024
>>>>>Begin Spectral Data<<<<<
801.071	27161
801.214	27116
801.356	26902
801.499	26754
801.641	26640
801.783	26541
801.926	26674
802.068	26552
802.211	26655
802.353	26594
802.496	26259
802.638	26317
802.78	26084
802.923	26206
803.065	26130
803.208	26199
803.35	26229
803.492	26366
803.635	26347
803.777	26385
803.919	26267
804.061	26777
804.204	26461
804.346	26362
804.488	26259
804.63	26461
804.773	26275
804.915	26355
805.057	26476
805.199	26442
805.341	26446
805.483	26450
805.626	26526
805.768	26465
805.91	26568
806.052	26492
806.194	26495
806.336	26503
806.478	26453
806.62	26434
806.762	26503
806.904	26712
807.046	27028
807.188	26940
807.33	26819
807.472	27138
807.614	26697
807.756	26826
807.898	26727
808.04	26697
808.182	26609
808.324	26876
808.465	26815
808.607	26967
808.749	27142
808.891	27142
809.033	27233
809.174	26986
809.316	27028
809.458	27001
809.6	27100
809.741	27077
809.883	27184
810.025	27283
810.166	27230
810.308	27530
810.45	27226
810.591	27256
810.733	27123
810.875	27081
811.016	26956
811.158	26902
811.299	27108
811.441	27180
811.582	27138
811.724	27089
811.865	27047
812.007	27024
812.148	27028
812.29	27154
812.431	27146
812.573	27408
812.714	27382
812.855	27595
812.997	27572
813.138	27812
813.279	27747
813.421	27572
813.562	27485
813.703	27427
813.845	27157
813.986	27036
814.127	26933
814.268	26788
814.41	26629
814.551	26648
814.692	26678
814.833	26590
814.974	26632
815.115	26750
815.256	26552
815.397	26575
815.539	26442
815.68	26564
815.821	26419
815.962	26396
816.103	26339
816.244	26324
816.385	26278
816.526	26115
816.666	26218
816.807	25883
816.948	26122
817.089	26259
817.23	26016
817.371	25989
817.512	25947
817.653	25845
817.793	25974
817.934	26073
818.075	26073
818.216	26100
818.356	25917
818.497	25913
818.638	25715
818.778	25738
818.919	25613
819.06	25742
819.2	25830
819.341	26016
819.481	25982
819.622	26107
819.762	26278
819.903	26240
820.043	26138
820.184	26035
820.324	26077
820.465	26218
820.605	26001
820.746	26065
820.886	25913
821.026	26035
821.167	26054
821.307	26107
821.447	26043
821.588	25944
821.728	25814
821.868	25525
822.008	25460
822.149	25571
822.289	25407
822.429	25206
822.569	25126
822.709	25034
822.849	24970
822.99	24905
823.13	25038
823.27	24943
823.41	24760
823.55	24703
823.69	24810
823.83	24802
823.97	24802
824.11	24502
824.25	24593
824.389	24532
824.529	24589
824.669	24631
824.809	24578
824.949	24547
825.089	24654
825.228	24639
825.368	24422
825.508	24418
825.648	24467
825.787	24517
825.927	24601
826.067	24532
826.206	24464
826.346	24433
826.485	24433
826.625	24437
826.765	24490
826.904	24517
827.044	24045
827.183	24258
827.323	24060
827.462	24232
827.601	24281
827.741	24178
827.88	24194
828.02	24034
828.159	24167
828.298	24174
828.437	24197
828.577	24038
828.716	24117
828.855	24144
828.994	23920
829.134	23828
829.273	23847
829.412	23821
829.551	23813
829.69	23805
829.829	23916
829.968	23980
830.107	23809
830.246	23859
830.385	23942
830.524	23630
830.663	23771
830.802	23592
830.941	23455
831.08	23414
831.219	23486
831.357	23486
831.496	23653
831.635	23493
831.774	23486
831.913	23334
832.051	23330
832.19	23356
832.329	23227
832.467	23235
832.606	23075
832.744	23132
832.883	23147
833.022	23208
833.16	23121
833.299	23242
833.437	23284
833.576	23155
833.714	23231
833.852	23231
833.991	23227
834.129	23322
834.267	23258
834.406	23174
834.544	23258
834.682	23288
834.821	23113
834.959	23429
835.097	23151
835.235	23200
835.373	23212
835.511	23147
835.65	23185
835.788	23083
835.926	22930
836.064	22915
836.202	22976
836.34	23098
836.478	23044
836.615	23102
836.753	23022
836.891	23208
837.029	23193
837.167	23113
837.305	22942
837.443	22984
837.58	22885
837.718	22923
837.856	22854
837.993	22812
838.131	22949
838.269	22679
838.406	22877
838.544	22790
838.681	22691
838.819	22512
838.956	22443
839.094	22481
839.231	22478
839.369	22599
839.506	22812
839.643	22466
839.781	22478
839.918	22356
840.055	22306
840.193	22303
840.33	22405
840.467	22337
840.604	22333
840.742	22550
840.879	22246
841.016	22242
841.153	22131
841.29	22443
841.427	22386
841.564	22394
841.701	22348
841.838	22322
841.975	22154
842.112	22173
842.249	22120
842.385	22036
842.522	22211
842.659	22150
842.796	22044
842.933	22230
843.069	21972
843.206	21994
843.343	22097
843.479	22078
843.616	22181
843.752	21861
843.889	21895
844.025	21956
844.162	21800
844.298	22036
844.435	21903
844.571	21797
844.708	21804
844.844	22013
844.98	22025
845.117	22029
845.253	21812
845.389	21660
845.525	21789
845.661	21827
845.798	21705
845.934	21610
846.07	21557
846.206	21583
846.342	21739
846.478	21519
846.614	21439
846.75	21252
846.886	21329
847.022	21370
847.158	21386
847.294	21408
847.429	21306
847.565	21279
847.701	21599
847.837	21116
847.972	21066
848.108	21184
848.244	21222
848.379	20937
848.515	20944
848.65	20826
848.786	20929
848.921	21047
849.057	20941
849.192	21047
849.328	20895
849.463	20948
849.598	20842
849.734	20826
849.869	20686
850.004	20735
850.14	20746
850.275	20682
850.41	20769
850.545	20617
850.68	20632
850.815	20739
850.95	20708
851.085	20868
851.22	20925
851.355	20731
851.49	20746
851.625	20514
851.76	20648
851.895	20461
852.03	20511
852.165	20686
852.299	20750
852.434	20651
852.569	20746
852.703	20705
852.838	20693
852.973	20807
853.107	20819
853.242	20678
853.376	20579
853.511	20377
853.645	20541
853.78	20594
853.914	20457
854.048	20590
854.183	20442
854.317	20473
854.451	20765
854.585	20670
854.72	20476
854.854	20590
854.988	20568
855.122	20545
855.256	20393
855.39	20503
855.524	20587
855.658	20594
855.792	20442
855.926	20663
856.06	20545
856.194	20564
856.327	20526
856.461	20461
856.595	20507
856.729	20571
856.862	20667
856.996	20552
857.13	20564
857.263	20590
857.397	20636
857.53	20404
857.664	20629
857.797	20629
857.931	20549
858.064	20560
858.197	20705
858.331	20522
858.464	20526
858.597	20423
858.731	20571
858.864	20465
858.997	20579
859.13	20492
859.263	20495
859.396	20625
859.529	20518
859.662	20541
859.795	20613
859.928	20613
860.061	20689
860.194	20750
860.327	20644
860.46	20583
860.592	20640
860.725	20609
860.858	20659
860.99	20587
861.123	20362
861.256	20530
861.388	20587
861.521	21135
861.653	20389
861.786	20206
861.918	20377
862.05	20442
862.183	20518
862.315	20347
862.447	20446
862.58	20381
862.712	20271
862.844	20195
862.976	20351
863.108	20343
863.24	20648
863.372	20278
863.504	20298
863.636	20271
863.768	20355
863.9	20206
864.032	20100
864.164	20275
864.296	20202
864.428	20339
864.559	20252
864.691	20324
864.823	20366
864.954	20290
865.086	20275
865.217	20221
865.349	20103
865.48	20103
865.612	20214
865.743	20275
865.875	20176
866.006	20161
866.137	20134
866.269	20164
866.4	20202
866.531	20077
866.662	20107
866.793	20039
866.924	20084
867.055	20161
867.186	20122
867.317	20073
867.448	20046
867.579	20142
867.71	20069
867.841	19978
867.972	20153
868.103	19974
868.233	20134
868.364	20065
868.495	20256
868.625	20271
868.756	20454
868.886	20385
869.017	20343
869.147	20309
869.278	20503
869.408	20381
869.539	20309
869.669	20381
869.799	20423
869.929	20492
870.06	20400
870.19	20739
870.32	20727
870.45	20667
870.58	20701
870.71	20838
870.84	20887
870.97	20754
871.1	20716
871.23	20842
871.36	20887
871.489	20834
871.619	20868
871.749	20895
871.879	20902
872.008	20994
872.138	20952
872.267	20975
872.397	20735
872.526	20804
872.656	20811
872.785	20781
872.915	20982
873.044	21062
873.173	21017
873.303	20960
873.432	20990
873.561	21135
873.69	20948
873.819	20956
873.948	20963
874.077	20960
874.206	20979
874.335	20887
874.464	21237
874.593	21344
874.722	21074
874.851	21135
874.979	21180
875.108	21291
875.237	21119
875.365	21043
875.494	21275
875.623	21279
875.751	21199
875.88	21222
876.008	21302
876.136	21454
876.265	21610
876.393	21698
876.521	21606
876.65	21587
876.778	21637
876.906	21580
877.034	21595
877.162	21477
877.29	21477
877.418	21564
877.546	21629
877.674	21610
877.802	21644
877.93	21633
878.058	21603
878.185	21367
878.313	21454
878.441	21545
878.568	21401
878.696	21622
878.824	21549
878.951	21614
879.079	21838
879.206	21819
879.333	21701
879.461	21538
879.588	21675
879.715	21713
879.842	21892
879.97	21603
880.097	21382
880.224	21351
880.351	21416
880.478	21504
880.605	21298
880.732	21401
880.859	21580
880.986	21431
881.112	21515
881.239	21283
881.366	21154
881.493	21096
881.619	21032
881.746	21032
881.872	20967
881.999	20914
882.125	20914
882.252	20960
882.378	20967
882.505	21131
882.631	20861
882.757	20686
882.883	20811
883.01	20701
883.136	20632
883.262	20686
883.388	20602
883.514	20602
883.64	20720
883.766	20613
883.892	20469
884.018	20450
884.143	20537
884.269	20693
884.395	20507
884.52	20244
884.646	20412
884.772	20195
884.897	20324
885.023	20347
885.148	20393
885.274	20370
885.399	20423
885.524	20244
885.65	20385
885.775	20374
885.9	20320
886.025	20533
886.15	20408
886.275	20206
886.4	20134
886.525	20301
886.65	20259
886.775	20271
886.9	20415
887.025	20560
887.149	20290
887.274	20240
887.399	20180
887.523	20096
887.648	20024
887.773	20069
887.897	20233
888.021	20130
888.146	20054
888.27	20199
888.395	20199
888.519	20142
888.643	20138
888.767	20134
888.891	19955
889.015	19887
889.139	19868
889.263	19814
889.387	20069
889.511	20191
889.635	20020
889.759	19890
889.883	19719
890.006	20054
890.13	19970
890.254	19807
890.377	19807
890.501	19674
890.624	19670
890.748	19700
890.871	19628
890.995	19559
891.118	19422
891.241	19552
891.364	19521
891.488	19655
891.611	19529
891.734	19521
891.857	19491
891.98	19487
892.103	19628
892.226	19369
892.349	19445
892.471	19400
892.594	19331
892.717	19529
892.839	19392
892.962	19365
893.085	19392
893.207	19354
893.33	19346
893.452	19373
893.575	19499
893.697	19453
893.819	19540
893.941	19559
894.064	19533
894.186	19388
894.308	19289
894.43	19502
894.552	19544
894.674	19441
894.796	19304
894.918	19354
895.04	19400
895.161	19525
895.283	19411
895.405	19426
895.526	19514
895.648	19483
895.769	19441
895.891	19426
896.012	19438
896.134	19396
896.255	19453
896.376	19434
896.498	19384
896.619	19533
896.74	19445
896.861	19563
896.982	19727
897.103	19974
897.224	19765
897.345	19594
897.466	19628
897.587	19708
897.708	19731
897.828	19605
897.949	19563
898.07	19472
898.19	19609
898.311	19784
898.431	19674
898.552	19662
898.672	19761
898.792	19609
898.913	19651
899.033	19514
899.153	19384
899.273	19422
899.393	19499
899.513	19449
899.633	19430
899.753	19445
899.873	19441
899.993	19422
900.113	19304
900.232	19316
900.352	19228
900.472	19270
900.591	19084
900.711	19266
900.83	19236
900.95	19225
901.069	19312
901.189	19175
901.308	18840
901.427	18806
901.546	18852
901.665	18859
901.784	18776
901.904	18741
902.023	18547
902.141	18319
902.26	18311
902.379	18486
902.498	18281
902.617	18289
902.735	18357
902.854	18178
902.973	18273
903.091	18064
903.21	18114
903.328	18022
903.446	17973
903.565	17779
903.683	17824
903.801	17714
903.919	17767
904.038	17802
904.156	17562
904.274	17634
904.392	17444
904.51	17570
904.627	17592
904.745	17577
904.863	17672
904.981	17299
905.098	17189
905.216	17391
905.334	17360
905.451	17223
905.569	17197
905.686	17254
905.803	17326
905.921	17056
906.038	17132
906.155	16980
906.272	16919
906.389	16896
906.506	16828
906.623	16911
906.74	16786
906.857	16713
906.974	16691
907.091	16820
907.208	16919
907.324	16782
907.441	16748
907.557	16580
907.674	16508
907.79	16470
907.907	16432
908.023	16500
908.139	16440
908.256	16417
908.372	16325
908.488	16424
908.604	16314
908.72	16181
908.836	16242
908.952	16173
909.068	16348
909.184	16238
909.3	16287
909.415	16291
909.531	16257
909.647	15979
909.762	15983
909.878	15941
909.993	15964
910.108	15861
910.224	16006
910.339	15903
910.454	15846
910.57	15755
910.685	15644
910.8	15934
910.915	15899
911.03	15732
911.145	15641
911.259	15511
911.374	15564
911.489	15504
911.604	15420
911.718	15359
911.833	15382
911.947	15222
912.062	15184
912.176	15249
912.291	15245
912.405	15317
912.519	15431
912.633	15458
912.748	15313
912.862	15199
912.976	15123
913.09	15032
913.204	15085
913.318	15119
913.431	15192
913.545	15230
913.659	15264
913.772	15108
913.886	14880
914	14971
914.113	15005
914.226	15074
914.34	15089
914.453	14876
914.566	15123
914.68	14849
914.793	14785
914.906	14610
915.019	14602
915.132	14454
915.245	14598
915.358	14590
915.47	14610
915.583	14598
915.696	14693
915.809	14663
915.921	14727
916.034	14499
916.146	14484
916.259	14533
916.371	14541
916.483	14598
916.595	14393
916.708	14476
916.82	14492
916.932	14343
917.044	14218
917.156	14377
917.268	14298
917.38	14328
917.491	14229
917.603	14317
917.715	14240
917.826	14320
917.938	14153
918.049	14039
918.161	14237
918.272	14351
918.384	14366
918.495	14176
918.606	14058
918.717	13864
918.828	14134
918.939	14035
919.05	13993
919.161	13925
919.272	13788
919.383	13868
919.494	13932
919.604	14161
919.715	14012
919.826	13871
919.936	13940
920.047	14020
920.157	13986
920.267	14092
920.378	13974
920.488	13982
920.598	14206
920.708	14221
920.818	14084
920.928	14046
921.038	14271
921.148	14225
921.258	13928
921.368	13925
921.477	13765
921.587	13772
921.697	13575
921.806	13712
921.916	13662
922.025	13548
922.134	13343
922.244	13343
922.353	13396
922.462	13270
922.571	13194
922.68	13046
922.789	13156
922.898	13149
923.007	12920
923.116	13091
923.224	13072
923.333	13050
923.442	12844
923.55	12848
923.659	12882
923.767	13023
923.876	12825
923.984	12962
924.092	12749
924.201	12833
924.309	12745
924.417	12749
924.525	12673
924.633	12696
924.741	13624
924.849	12502
924.956	12673
925.064	12498
925.172	12426
925.279	12445
925.387	12540
925.494	12498
925.602	12532
925.709	12623
925.816	12361
925.924	12365
926.031	12509
926.138	12357
926.245	12448
926.352	12338
926.459	12502
926.566	12506
926.673	12277
926.779	12285
926.886	12197
926.993	12155
927.099	12019
927.206	12015
927.312	12121
927.419	12152
927.525	12041
927.631	12038
927.737	11935
927.843	11916
927.95	11870
928.056	11912
928.162	11882
928.267	11920
928.373	12563
928.479	11977
928.585	11733
928.69	11832
928.796	11965
928.901	11767
929.007	11596
929.112	11798
929.218	11722
929.323	11676
929.428	11627
929.533	11741
929.638	11600
929.743	11665
929.848	11646
929.953	11596
930.058	11436
930.163	11288
930.267	11341
930.372	11398
930.477	11303
930.581	11471
930.685	11322
930.79	11250
930.894	11254
930.998	11201
931.103	11383
931.207	10984
931.311	10965
931.415	10839
931.519	10615
931.623	10611
