Data from test_V78500241_80.txt Node
Date: Fri Mar 25 15:10:25 CST 2022
User: usil
Spectrometer: V785-0024
Trigger mode: 0
Integration Time (sec): 4.000000E-1
Scans to average: 1
Nonlinearity correction enabled: false
Boxcar width: 0
Storing dark spectrum: false
XAxis mode: Wavelengths
Number of Pixels in Spectrum: 1024
>>>>>Begin Spectral Data<<<<<
801.071	28645
801.214	28478
801.356	28405
801.499	28276
801.641	28196
801.783	28150
801.926	28154
802.068	28173
802.211	28158
802.353	27869
802.496	27736
802.638	27705
802.78	27755
802.923	27743
803.065	27648
803.208	27743
803.35	27671
803.492	27774
803.635	27755
803.777	27709
803.919	27876
804.061	27998
804.204	27888
804.346	27743
804.488	27682
804.63	27663
804.773	27728
804.915	27785
805.057	27808
805.199	27854
805.341	27873
805.483	27876
805.626	27850
805.768	27671
805.91	27918
806.052	27941
806.194	27888
806.336	28147
806.478	27907
806.62	27884
806.762	27949
806.904	28032
807.046	28219
807.188	28147
807.33	28166
807.472	28470
807.614	28192
807.756	28181
807.898	27949
808.04	28010
808.182	27956
808.324	28147
808.465	28143
808.607	28173
808.749	28356
808.891	28485
809.033	28596
809.174	28497
809.316	28257
809.458	28303
809.6	28360
809.741	28401
809.883	28440
810.025	28607
810.166	28660
810.308	28596
810.45	28474
810.591	28367
810.733	28440
810.875	28280
811.016	28287
811.158	28150
811.299	28249
811.441	28382
811.582	28550
811.724	28276
811.865	28143
812.007	28303
812.148	28268
812.29	28318
812.431	28470
812.573	28679
812.714	28584
812.855	28763
812.997	28881
813.138	29052
813.279	28934
813.421	28736
813.562	28847
813.703	28516
813.845	28489
813.986	28196
814.127	27968
814.268	27873
814.41	27914
814.551	27937
814.692	27926
814.833	27819
814.974	27964
815.115	27861
815.256	27827
815.397	27816
815.539	27637
815.68	27526
815.821	27545
815.962	27583
816.103	27660
816.244	27504
816.385	27405
816.526	27355
816.666	27161
816.807	26933
816.948	27108
817.089	27142
817.23	27077
817.371	27070
817.512	27036
817.653	26933
817.793	26990
817.934	27043
818.075	27001
818.216	27100
818.356	27036
818.497	27013
818.638	26762
818.778	26800
818.919	26682
819.06	26788
819.2	26769
819.341	26944
819.481	26830
819.622	27051
819.762	27344
819.903	27074
820.043	27135
820.184	27104
820.324	26975
820.465	27127
820.605	27005
820.746	26990
820.886	26887
821.026	27005
821.167	27051
821.307	27100
821.447	26906
821.588	26906
821.728	26788
821.868	26499
822.008	26381
822.149	26412
822.289	26389
822.429	26062
822.569	26001
822.709	26043
822.849	25879
822.99	25807
823.13	25807
823.27	25772
823.41	25533
823.55	25647
823.69	25658
823.83	25609
823.97	25518
824.11	25449
824.25	25468
824.389	25438
824.529	25377
824.669	25426
824.809	25468
824.949	25453
825.089	25438
825.228	25354
825.368	25293
825.508	25297
825.648	25324
825.787	25312
825.927	25232
826.067	25206
826.206	25217
826.346	25282
826.485	25354
826.625	25240
826.765	25320
826.904	25202
827.044	24909
827.183	25129
827.323	24856
827.462	25095
827.601	24863
827.741	24844
827.88	24951
828.02	24715
828.159	24859
828.298	24859
828.437	24890
828.577	24848
828.716	25023
828.855	24757
828.994	24593
829.134	24741
829.273	24608
829.412	24532
829.551	24521
829.69	24407
829.829	24464
829.968	24654
830.107	24631
830.246	24650
830.385	24403
830.524	24563
830.663	24174
830.802	24315
830.941	23988
831.08	24072
831.219	24201
831.357	24190
831.496	24327
831.635	24140
831.774	23946
831.913	23885
832.051	23885
832.19	23767
832.329	23828
832.467	23870
832.606	23638
832.744	23832
832.883	23756
833.022	23760
833.16	23748
833.299	23821
833.437	23779
833.576	23851
833.714	23851
833.852	23813
833.991	23984
834.129	23878
834.267	23843
834.406	23882
834.544	23794
834.682	23756
834.821	23764
834.959	23958
835.097	23577
835.235	23649
835.373	23585
835.511	23691
835.65	23653
835.788	23566
835.926	23497
836.064	23345
836.202	23581
836.34	23558
836.478	23608
836.615	23665
836.753	23554
836.891	23665
837.029	23619
837.167	23539
837.305	23471
837.443	23379
837.58	23524
837.718	23467
837.856	23311
837.993	23280
838.131	23516
838.269	23265
838.406	23398
838.544	23159
838.681	23029
838.819	22999
838.956	22873
839.094	22824
839.231	22938
839.369	22949
839.506	23140
839.643	23037
839.781	22748
839.918	22782
840.055	22736
840.193	22835
840.33	22721
840.467	22649
840.604	22744
840.742	23029
840.879	22466
841.016	22554
841.153	22542
841.29	22668
841.427	22725
841.564	22664
841.701	22584
841.838	22565
841.975	22580
842.112	22641
842.249	22516
842.385	22375
842.522	22550
842.659	22535
842.796	22421
842.933	22325
843.069	22382
843.206	22295
843.343	22352
843.479	22417
843.616	22310
843.752	22204
843.889	22120
844.025	22299
844.162	22154
844.298	22204
844.435	22124
844.571	22105
844.708	22055
844.844	22333
844.98	22238
845.117	22299
845.253	22032
845.389	22010
845.525	21983
845.661	21968
845.798	21846
845.934	21892
846.07	21895
846.206	21842
846.342	22093
846.478	21793
846.614	21663
846.75	21583
846.886	21629
847.022	21603
847.158	21504
847.294	21504
847.429	21580
847.565	21447
847.701	21930
847.837	21291
847.972	21275
848.108	21439
848.244	21359
848.379	21218
848.515	21169
848.65	21085
848.786	21142
848.921	21123
849.057	21294
849.192	21233
849.328	21089
849.463	21089
849.598	21085
849.734	21089
849.869	20975
850.004	20819
850.14	20910
850.275	20796
850.41	20754
850.545	20716
850.68	20781
850.815	20872
850.95	20948
851.085	21009
851.22	20979
851.355	20792
851.49	20834
851.625	20842
851.76	20857
851.895	20716
852.03	20712
852.165	20826
852.299	20785
852.434	20921
852.569	20765
852.703	20823
852.838	20979
852.973	20883
853.107	20944
853.242	20773
853.376	20667
853.511	20587
853.645	20632
853.78	20792
853.914	20739
854.048	20644
854.183	20636
854.317	20659
854.451	20815
854.585	20613
854.72	20629
854.854	20663
854.988	20617
855.122	20617
855.256	20526
855.39	20659
855.524	20773
855.658	20648
855.792	20754
855.926	20537
856.06	20651
856.194	20705
856.327	20735
856.461	20682
856.595	20495
856.729	20514
856.862	20819
856.996	20682
857.13	20587
857.263	20701
857.397	20670
857.53	20583
857.664	20670
857.797	20788
857.931	20655
858.064	20613
858.197	20845
858.331	20606
858.464	20438
858.597	20465
858.731	20606
858.864	20541
858.997	20511
859.13	20579
859.263	20522
859.396	20727
859.529	20560
859.662	20640
859.795	20454
859.928	20590
860.061	20758
860.194	20651
860.327	20564
860.46	20511
860.592	20773
860.725	20678
860.858	20697
860.99	20575
861.123	20541
861.256	20495
861.388	20511
861.521	21146
861.653	20461
861.786	20362
861.918	20473
862.05	20587
862.183	20469
862.315	20590
862.447	20663
862.58	20629
862.712	20240
862.844	20263
862.976	20317
863.108	20442
863.24	20716
863.372	20240
863.504	20248
863.636	20282
863.768	20240
863.9	20294
864.032	20271
864.164	20172
864.296	20347
864.428	20298
864.559	20366
864.691	20324
864.823	20263
864.954	20252
865.086	20237
865.217	20172
865.349	20073
865.48	20122
865.612	20199
865.743	20336
865.875	20115
866.006	20134
866.137	20202
866.269	20218
866.4	20084
866.531	20001
866.662	20039
866.793	20126
866.924	20046
867.055	20062
867.186	20130
867.317	19989
867.448	19947
867.579	19963
867.71	20073
867.841	19997
867.972	20092
868.103	20031
868.233	20046
868.364	20073
868.495	20195
868.625	20355
868.756	20454
868.886	20263
869.017	20290
869.147	20450
869.278	20492
869.408	20400
869.539	20309
869.669	20545
869.799	20469
869.929	20434
870.06	20336
870.19	20811
870.32	20644
870.45	20750
870.58	20743
870.71	20868
870.84	20883
870.97	20785
871.1	20811
871.23	20971
871.36	20925
871.489	20785
871.619	20906
871.749	20853
871.879	20925
872.008	20963
872.138	20864
872.267	20902
872.397	20861
872.526	20777
872.656	20674
872.785	20804
872.915	20963
873.044	20994
873.173	20937
873.303	20891
873.432	21058
873.561	20971
873.69	20929
873.819	20941
873.948	20979
874.077	20998
874.206	20918
874.335	20929
874.464	21020
874.593	21142
874.722	21055
874.851	21119
874.979	21222
875.108	21340
875.237	21116
875.365	21028
875.494	21131
875.623	21222
875.751	21154
875.88	21218
876.008	21260
876.136	21431
876.265	21591
876.393	21724
876.521	21656
876.65	21755
876.778	21526
876.906	21542
877.034	21473
877.162	21450
877.29	21408
877.418	21515
877.546	21443
877.674	21549
877.802	21439
877.93	21492
878.058	21595
878.185	21500
878.313	21583
878.441	21492
878.568	21393
878.696	21534
878.824	21500
878.951	21690
879.079	21751
879.206	21781
879.333	21747
879.461	21599
879.588	21686
879.715	21713
879.842	21895
879.97	21492
880.097	21469
880.224	21408
880.351	21355
880.478	21363
880.605	21363
880.732	21378
880.859	21549
880.986	21275
881.112	21389
881.239	21252
881.366	21131
881.493	20944
881.619	20963
881.746	20944
881.872	20921
881.999	20944
882.125	20887
882.252	20880
882.378	21043
882.505	21017
882.631	20758
882.757	20693
882.883	20853
883.01	20739
883.136	20689
883.262	20469
883.388	20590
883.514	20708
883.64	20773
883.766	20682
883.892	20389
884.018	20492
884.143	20670
884.269	20777
884.395	20446
884.52	20442
884.646	20305
884.772	20195
884.897	20225
885.023	20415
885.148	20461
885.274	20454
885.399	20396
885.524	20385
885.65	20370
885.775	20336
885.9	20347
886.025	20423
886.15	20347
886.275	20320
886.4	20202
886.525	20180
886.65	20290
886.775	20305
886.9	20385
887.025	20541
887.149	20267
887.274	20161
887.399	20046
887.523	19913
887.648	20149
887.773	20035
887.897	20145
888.021	20145
888.146	19947
888.27	20115
888.395	20267
888.519	20122
888.643	20088
888.767	20229
888.891	19947
889.015	19921
889.139	19936
889.263	19772
889.387	19963
889.511	20096
889.635	20046
889.759	19837
889.883	19860
890.006	19921
890.13	19936
890.254	19693
890.377	19826
890.501	19658
890.624	19616
890.748	19620
890.871	19586
890.995	19396
891.118	19419
891.241	19441
891.364	19415
891.488	19632
891.611	19491
891.734	19510
891.857	19597
891.98	19495
892.103	19533
892.226	19476
892.349	19483
892.471	19270
892.594	19335
892.717	19373
892.839	19350
892.962	19419
893.085	19430
893.207	19335
893.33	19209
893.452	19190
893.575	19491
893.697	19308
893.819	19438
893.941	19537
894.064	19476
894.186	19289
894.308	19244
894.43	19499
894.552	19495
894.674	19480
894.796	19251
894.918	19411
895.04	19422
895.161	19460
895.283	19499
895.405	19304
895.526	19396
895.648	19301
895.769	19426
895.891	19434
896.012	19457
896.134	19403
896.255	19392
896.376	19369
896.498	19392
896.619	19521
896.74	19514
896.861	19578
896.982	19795
897.103	19879
897.224	19666
897.345	19582
897.466	19605
897.587	19738
897.708	19769
897.828	19616
897.949	19628
898.07	19403
898.19	19521
898.311	19704
898.431	19521
898.552	19651
898.672	19723
898.792	19647
898.913	19628
899.033	19487
899.153	19365
899.273	19350
899.393	19358
899.513	19301
899.633	19304
899.753	19324
899.873	19228
899.993	19396
900.113	19282
900.232	19316
900.352	19316
900.472	19137
900.591	19046
900.711	19122
900.83	19076
900.95	19129
901.069	19187
901.189	19133
901.308	18837
901.427	18821
901.546	18791
901.665	18730
901.784	18722
901.904	18540
902.023	18479
902.141	18270
902.26	18178
902.379	18243
902.498	18315
902.617	18178
902.735	18220
902.854	18209
902.973	18125
903.091	17901
903.21	18007
903.328	17920
903.446	17866
903.565	17737
903.683	17745
903.801	17642
903.919	17649
904.038	17592
904.156	17478
904.274	17528
904.392	17505
904.51	17459
904.627	17440
904.745	17364
904.863	17592
904.981	17178
905.098	17151
905.216	17159
905.334	17143
905.451	17185
905.569	17094
905.686	17269
905.803	17124
905.921	16847
906.038	17006
906.155	16976
906.272	16869
906.389	16873
906.506	16694
906.623	16653
906.74	16725
906.857	16519
906.974	16622
907.091	16748
907.208	16862
907.324	16816
907.441	16512
907.557	16413
907.674	16421
907.79	16337
907.907	16318
908.023	16421
908.139	16413
908.256	16375
908.372	16268
908.488	16322
908.604	16086
908.72	15998
908.836	16044
908.952	16101
909.068	16010
909.184	16177
909.3	16059
909.415	16067
909.531	15979
909.647	15759
909.762	15808
909.878	15747
909.993	15743
910.108	15785
910.224	15679
910.339	15838
910.454	15530
910.57	15679
910.685	15542
910.8	15774
910.915	15705
911.03	15572
911.145	15431
911.259	15272
911.374	15378
911.489	15283
911.604	15184
911.718	15123
911.833	15089
911.947	14925
912.062	14796
912.176	15024
912.291	15005
912.405	15001
912.519	15348
912.633	15260
912.748	15039
912.862	15112
912.976	14872
913.09	14807
913.204	14876
913.318	14933
913.431	14960
913.545	14960
913.659	14979
913.772	14910
913.886	14743
914	14705
914.113	14815
914.226	14830
914.34	14769
914.453	14556
914.566	14895
914.68	14533
914.793	14587
914.906	14362
915.019	14309
915.132	14370
915.245	14396
915.358	14431
915.47	14355
915.583	14461
915.696	14309
915.809	14492
915.921	14545
916.034	14233
916.146	14259
916.259	14282
916.371	14385
916.483	14298
916.595	14180
916.708	14199
916.82	14130
916.932	14123
917.044	14145
917.156	14153
917.268	13989
917.38	14005
917.491	14001
917.603	14065
917.715	14157
917.826	14145
917.938	14092
918.049	13921
918.161	13871
918.272	14073
918.384	14134
918.495	13932
918.606	13913
918.717	13799
918.828	13765
918.939	13868
919.05	13769
919.161	13753
919.272	13567
919.383	13582
919.494	13856
919.604	14012
919.715	13750
919.826	13731
919.936	13757
920.047	13860
920.157	13681
920.267	13890
920.378	13780
920.488	13761
920.598	14005
920.708	14065
920.818	13993
920.928	13871
921.038	14020
921.148	13989
921.258	13628
921.368	13510
921.477	13422
921.587	13499
921.697	13324
921.806	13396
921.916	13354
922.025	13228
922.134	13118
922.244	13141
922.353	13114
922.462	13027
922.571	12970
922.68	12856
922.789	12707
922.898	12886
923.007	12703
923.116	12802
923.224	12776
923.333	12730
923.442	12635
923.55	12551
923.659	12604
923.767	12696
923.876	12574
923.984	12684
924.092	12475
924.201	12604
924.309	12536
924.417	12601
924.525	12479
924.633	12456
924.741	13217
924.849	12319
924.956	12475
925.064	12338
925.172	12243
925.279	12205
925.387	12311
925.494	12148
925.602	12342
925.709	12224
925.816	12129
925.924	12254
926.031	12273
926.138	12182
926.245	12239
926.352	12140
926.459	12281
926.566	12220
926.673	12194
926.779	12022
926.886	12121
926.993	11882
927.099	11859
927.206	11756
927.312	11764
927.419	11836
927.525	11775
927.631	11882
927.737	11726
927.843	11676
927.95	11516
928.056	11638
928.162	11783
928.267	11726
928.373	12247
928.479	11760
928.585	11467
928.69	11604
928.796	11554
928.901	11505
929.007	11421
929.112	11478
929.218	11543
929.323	11444
929.428	11414
929.533	11463
929.638	11277
929.743	11353
929.848	11341
929.953	11356
930.058	11208
930.163	11064
930.267	11060
930.372	11258
930.477	11064
930.581	11277
930.685	11075
930.79	10957
930.894	11003
930.998	10965
931.103	11098
931.207	10763
931.311	10721
931.415	10535
931.519	10417
931.623	10341
