Data from test_V78500241_1975.txt Node
Date: Fri Mar 25 15:23:36 CST 2022
User: usil
Spectrometer: V785-0024
Trigger mode: 0
Integration Time (sec): 4.000000E-1
Scans to average: 1
Nonlinearity correction enabled: false
Boxcar width: 0
Storing dark spectrum: false
XAxis mode: Wavelengths
Number of Pixels in Spectrum: 1024
>>>>>Begin Spectral Data<<<<<
801.071	27823
801.214	27781
801.356	27553
801.499	27469
801.641	27405
801.783	27306
801.926	27431
802.068	27355
802.211	27279
802.353	27199
802.496	27074
802.638	27070
802.78	26971
802.923	27043
803.065	26883
803.208	26838
803.35	27024
803.492	27157
803.635	27119
803.777	27119
803.919	27150
804.061	27492
804.204	27256
804.346	27123
804.488	27135
804.63	27055
804.773	27024
804.915	27294
805.057	27401
805.199	27043
805.341	27199
805.483	27302
805.626	27427
805.768	27184
805.91	27275
806.052	27272
806.194	27306
806.336	27485
806.478	27211
806.62	27294
806.762	27340
806.904	27526
807.046	27797
807.188	27709
807.33	27903
807.472	27827
807.614	27572
807.756	27637
807.898	27622
808.04	27496
808.182	27576
808.324	27572
808.465	27793
808.607	27679
808.749	27884
808.891	27956
809.033	28078
809.174	28131
809.316	27937
809.458	27956
809.6	27987
809.741	28013
809.883	28055
810.025	28246
810.166	28169
810.308	28181
810.45	28158
810.591	28173
810.733	28059
810.875	27850
811.016	27804
811.158	27914
811.299	28105
811.441	28013
811.582	27987
811.724	28097
811.865	27941
812.007	27914
812.148	27918
812.29	27865
812.431	28169
812.573	28367
812.714	28314
812.855	28500
812.997	28622
813.138	28588
813.279	28516
813.421	28557
813.562	28504
813.703	28287
813.845	28192
813.986	27823
814.127	27770
814.268	27675
814.41	27580
814.551	27500
814.692	27713
814.833	27591
814.974	27603
815.115	27652
815.256	27427
815.397	27359
815.539	27561
815.68	27382
815.821	27306
815.962	27348
816.103	27424
816.244	27310
816.385	27131
816.526	27180
816.666	27104
816.807	26899
816.948	27062
817.089	27013
817.23	27013
817.371	26864
817.512	26807
817.653	26944
817.793	26872
817.934	26823
818.075	26979
818.216	26971
818.356	26845
818.497	26693
818.638	26663
818.778	26644
818.919	26678
819.06	26636
819.2	26800
819.341	26876
819.481	26986
819.622	27138
819.762	27252
819.903	27131
820.043	27112
820.184	27077
820.324	27131
820.465	26979
820.605	27047
820.746	27096
820.886	26868
821.026	27043
821.167	26994
821.307	26967
821.447	26944
821.588	26762
821.728	26712
821.868	26507
822.008	26347
822.149	26400
822.289	26351
822.429	26271
822.569	26039
822.709	26202
822.849	25868
822.99	25936
823.13	25833
823.27	25879
823.41	25753
823.55	25609
823.69	25902
823.83	25613
823.97	25616
824.11	25354
824.25	25563
824.389	25556
824.529	25681
824.669	25495
824.809	25780
824.949	25571
825.089	25635
825.228	25586
825.368	25381
825.508	25354
825.648	25358
825.787	25479
825.927	25464
826.067	25381
826.206	25472
826.346	25396
826.485	25567
826.625	25304
826.765	25392
826.904	25339
827.044	25175
827.183	25137
827.323	25000
827.462	25209
827.601	25091
827.741	25107
827.88	25236
828.02	25053
828.159	25042
828.298	24996
828.437	25122
828.577	25129
828.716	25266
828.855	24977
828.994	24837
829.134	24806
829.273	24779
829.412	24726
829.551	24753
829.69	24688
829.829	24852
829.968	24856
830.107	24700
830.246	24848
830.385	24604
830.524	24703
830.663	24650
830.802	24509
830.941	24422
831.08	24357
831.219	24559
831.357	24483
831.496	24665
831.635	24403
831.774	24296
831.913	24251
832.051	24372
832.19	24194
832.329	24243
832.467	24144
832.606	24007
832.744	24148
832.883	24053
833.022	24121
833.16	23958
833.299	24045
833.437	24197
833.576	24144
833.714	24102
833.852	24136
833.991	24083
834.129	24201
834.267	24384
834.406	24159
834.544	24190
834.682	24152
834.821	24110
834.959	24311
835.097	24076
835.235	24251
835.373	24106
835.511	24121
835.65	24011
835.788	24007
835.926	23931
836.064	23729
836.202	23893
836.34	23965
836.478	24110
836.615	23882
836.753	24045
836.891	24030
837.029	23916
837.167	24106
837.305	23866
837.443	23920
837.58	23752
837.718	23897
837.856	23916
837.993	23684
838.131	23843
838.269	23718
838.406	23752
838.544	23592
838.681	23490
838.819	23444
838.956	23277
839.094	23261
839.231	23391
839.369	23566
839.506	23687
839.643	23699
839.781	23246
839.918	23322
840.055	23334
840.193	23197
840.33	23174
840.467	23117
840.604	23246
840.742	23471
840.879	23166
841.016	23105
841.153	23170
841.29	23406
841.427	23151
841.564	23208
841.701	23197
841.838	23227
841.975	23121
842.112	23105
842.249	23239
842.385	22999
842.522	23223
842.659	23033
842.796	22987
842.933	23029
843.069	22881
843.206	22980
843.343	23136
843.479	22934
843.616	22949
843.752	22835
843.889	22736
844.025	22991
844.162	22740
844.298	22847
844.435	22763
844.571	22805
844.708	22877
844.844	22961
844.98	22850
845.117	22908
845.253	22717
845.389	22618
845.525	22554
845.661	22584
845.798	22516
845.934	22557
846.07	22538
846.206	22455
846.342	22542
846.478	22577
846.614	22379
846.75	22200
846.886	22158
847.022	22333
847.158	22333
847.294	22196
847.429	22234
847.565	22116
847.701	22432
847.837	22074
847.972	22010
848.108	22002
848.244	22067
848.379	21915
848.515	21857
848.65	21800
848.786	21884
848.921	21827
849.057	21892
849.192	21869
849.328	21739
849.463	21804
849.598	21778
849.734	21804
849.869	21778
850.004	21595
850.14	21625
850.275	21679
850.41	21481
850.545	21416
850.68	21511
850.815	21682
850.95	21534
851.085	21781
851.22	21587
851.355	21743
851.49	21454
851.625	21614
851.76	21549
851.895	21500
852.03	21488
852.165	21561
852.299	21595
852.434	21793
852.569	21614
852.703	21568
852.838	21587
852.973	21747
853.107	21705
853.242	21622
853.376	21530
853.511	21260
853.645	21336
853.78	21526
853.914	21370
854.048	21325
854.183	21291
854.317	21511
854.451	21622
854.585	21477
854.72	21416
854.854	21447
854.988	21454
855.122	21454
855.256	21340
855.39	21469
855.524	21519
855.658	21496
855.792	21370
855.926	21526
856.06	21439
856.194	21412
856.327	21374
856.461	21230
856.595	21283
856.729	21344
856.862	21485
856.996	21424
857.13	21401
857.263	21606
857.397	21622
857.53	21466
857.664	21420
857.797	21538
857.931	21477
858.064	21473
858.197	21534
858.331	21401
858.464	21359
858.597	21291
858.731	21355
858.864	21272
858.997	21405
859.13	21431
859.263	21386
859.396	21447
859.529	21317
859.662	21298
859.795	21386
859.928	21382
860.061	21530
860.194	21488
860.327	21469
860.46	21329
860.592	21504
860.725	21591
860.858	21519
860.99	21504
861.123	21313
861.256	21401
861.388	21507
861.521	22059
861.653	21306
861.786	21233
861.918	21146
862.05	21237
862.183	21294
862.315	21329
862.447	21378
862.58	21332
862.712	21108
862.844	21055
862.976	21256
863.108	21214
863.24	21595
863.372	20982
863.504	21085
863.636	21138
863.768	21199
863.9	21104
864.032	20971
864.164	21043
864.296	21150
864.428	21218
864.559	21256
864.691	21169
864.823	20948
864.954	21146
865.086	21138
865.217	20971
865.349	20895
865.48	20925
865.612	21005
865.743	21017
865.875	20990
866.006	21024
866.137	20925
866.269	20967
866.4	20994
866.531	20781
866.662	20937
866.793	20914
866.924	20910
867.055	21036
867.186	20933
867.317	20971
867.448	20944
867.579	20849
867.71	20845
867.841	20899
867.972	20876
868.103	20883
868.233	20929
868.364	20891
868.495	21039
868.625	21161
868.756	21313
868.886	21093
869.017	21313
869.147	21233
869.278	21298
869.408	21093
869.539	21211
869.669	21287
869.799	21245
869.929	21397
870.06	21275
870.19	21412
870.32	21507
870.45	21469
870.58	21568
870.71	21599
870.84	21717
870.97	21644
871.1	21629
871.23	21774
871.36	21770
871.489	21599
871.619	21778
871.749	21778
871.879	21865
872.008	21956
872.138	21797
872.267	21842
872.397	21629
872.526	21629
872.656	21504
872.785	21564
872.915	21728
873.044	21857
873.173	21804
873.303	21759
873.432	21892
873.561	21926
873.69	21838
873.819	21918
873.948	21865
874.077	21819
874.206	21781
874.335	21720
874.464	21865
874.593	21964
874.722	21884
874.851	21994
874.979	22013
875.108	22074
875.237	22010
875.365	21857
875.494	22093
875.623	22063
875.751	21953
875.88	22006
876.008	22204
876.136	22329
876.265	22379
876.393	22588
876.521	22466
876.65	22542
876.778	22402
876.906	22413
877.034	22424
877.162	22272
877.29	22246
877.418	22405
877.546	22341
877.674	22405
877.802	22390
877.93	22219
878.058	22333
878.185	22318
878.313	22356
878.441	22322
878.568	22196
878.696	22295
878.824	22436
878.951	22466
879.079	22489
879.206	22634
879.333	22554
879.461	22493
879.588	22512
879.715	22447
879.842	22694
879.97	22402
880.097	22242
880.224	22177
880.351	22188
880.478	22169
880.605	22162
880.732	22242
880.859	22538
880.986	22196
881.112	22135
881.239	22090
881.366	22021
881.493	21850
881.619	21701
881.746	21812
881.872	21766
881.999	21724
882.125	21736
882.252	21785
882.378	21880
882.505	21827
882.631	21610
882.757	21492
882.883	21595
883.01	21622
883.136	21424
883.262	21458
883.388	21382
883.514	21428
883.64	21458
883.766	21351
883.892	21291
884.018	21298
884.143	21439
884.269	21485
884.395	21230
884.52	21058
884.646	21119
884.772	21142
884.897	21047
885.023	21199
885.148	21260
885.274	21313
885.399	21169
885.524	21051
885.65	21085
885.775	21222
885.9	21131
886.025	21256
886.15	21237
886.275	21100
886.4	21127
886.525	21142
886.65	21108
886.775	21009
886.9	21226
887.025	21378
887.149	21051
887.274	20956
887.399	20876
887.523	20921
887.648	20872
887.773	20838
887.897	21013
888.021	21070
888.146	20861
888.27	21089
888.395	20956
888.519	20883
888.643	20925
888.767	20975
888.891	20864
889.015	20701
889.139	20689
889.263	20720
889.387	20807
889.511	20979
889.635	20899
889.759	20659
889.883	20674
890.006	20693
890.13	20853
890.254	20712
890.377	20663
890.501	20495
890.624	20457
890.748	20442
890.871	20358
890.995	20301
891.118	20233
891.241	20324
891.364	20278
891.488	20473
891.611	20328
891.734	20221
891.857	20336
891.98	20237
892.103	20244
892.226	20271
892.349	20206
892.471	20096
892.594	20168
892.717	20206
892.839	20115
892.962	20176
893.085	20176
893.207	20107
893.33	20111
893.452	20138
893.575	20305
893.697	20145
893.819	20259
893.941	20381
894.064	20381
894.186	20187
894.308	20092
894.43	20221
894.552	20450
894.674	20244
894.796	20122
894.918	20153
895.04	20012
895.161	20252
895.283	20233
895.405	20012
895.526	20115
895.648	20100
895.769	20153
895.891	20225
896.012	20191
896.134	20202
896.255	20218
896.376	20168
896.498	20096
896.619	20237
896.74	20332
896.861	20187
896.982	20404
897.103	20731
897.224	20389
897.345	20218
897.466	20351
897.587	20476
897.708	20408
897.828	20389
897.949	20404
898.07	20252
898.19	20294
898.311	20351
898.431	20305
898.552	20358
898.672	20518
898.792	20526
898.913	20305
899.033	20168
899.153	20100
899.273	20084
899.393	20126
899.513	20153
899.633	20130
899.753	20134
899.873	20081
899.993	20134
900.113	20001
900.232	20058
900.352	20031
900.472	19963
900.591	19795
900.711	19879
900.83	19978
900.95	20016
901.069	19982
901.189	19852
901.308	19575
901.427	19609
901.546	19464
901.665	19582
901.784	19464
901.904	19422
902.023	19358
902.141	19114
902.26	19019
902.379	19088
902.498	18871
902.617	18993
902.735	18993
902.854	19042
902.973	18871
903.091	18681
903.21	18620
903.328	18658
903.446	18563
903.565	18525
903.683	18559
903.801	18407
903.919	18540
904.038	18391
904.156	18254
904.274	18292
904.392	18239
904.51	18403
904.627	18178
904.745	18361
904.863	18369
904.981	18045
905.098	18007
905.216	17920
905.334	17954
905.451	17958
905.569	17931
905.686	17992
905.803	17916
905.921	17684
906.038	17714
906.155	17680
906.272	17600
906.389	17547
906.506	17463
906.623	17471
906.74	17402
906.857	17311
906.974	17425
907.091	17532
907.208	17566
907.324	17490
907.441	17353
907.557	17311
907.674	17193
907.79	17159
907.907	17212
908.023	17246
908.139	17216
908.256	17143
908.372	17124
908.488	17067
908.604	17025
908.72	16881
908.836	16873
908.952	16881
909.068	16896
909.184	16976
909.3	16911
909.415	16831
909.531	16809
909.647	16664
909.762	16561
909.878	16634
909.993	16668
910.108	16466
910.224	16565
910.339	16573
910.454	16459
910.57	16405
910.685	16451
910.8	16588
910.915	16546
911.03	16367
911.145	16291
911.259	16150
911.374	16169
911.489	16086
911.604	16051
911.718	15926
911.833	15903
911.947	15850
912.062	15675
912.176	15945
912.291	15915
912.405	15945
912.519	16032
912.633	16082
912.748	15987
912.862	15880
912.976	15660
913.09	15576
913.204	15789
913.318	15660
913.431	15873
913.545	15766
913.659	15785
913.772	15690
913.886	15523
914	15519
914.113	15656
914.226	15656
914.34	15572
914.453	15450
914.566	15576
914.68	15416
914.793	15405
914.906	15176
915.019	15062
915.132	15108
915.245	15222
915.358	15157
915.47	15176
915.583	15283
915.696	15180
915.809	15317
915.921	15306
916.034	15123
916.146	15058
916.259	14998
916.371	15108
916.483	15062
916.595	15028
916.708	14918
916.82	14902
916.932	14986
917.044	14956
917.156	14849
917.268	14902
917.38	14830
917.491	14674
917.603	14807
917.715	14906
917.826	14883
917.938	14765
918.049	14727
918.161	14727
918.272	14845
918.384	14887
918.495	14739
918.606	14556
918.717	14530
918.828	14530
918.939	14648
919.05	14507
919.161	14575
919.272	14351
919.383	14492
919.494	14530
919.604	14712
919.715	14476
919.826	14537
919.936	14495
920.047	14530
920.157	14465
920.267	14804
920.378	14617
920.488	14454
920.598	14678
920.708	14887
920.818	14743
920.928	14689
921.038	14811
921.148	14788
921.258	14537
921.368	14393
921.477	14267
921.587	14252
921.697	14187
921.806	14168
921.916	14134
922.025	13967
922.134	13955
922.244	13757
922.353	13887
922.462	13788
922.571	13662
922.68	13651
922.789	13552
922.898	13601
923.007	13556
923.116	13620
923.224	13537
923.333	13533
923.442	13384
923.55	13251
923.659	13362
923.767	13483
923.876	13308
923.984	13434
924.092	13266
924.201	13373
924.309	13324
924.417	13312
924.525	13164
924.633	13171
924.741	13917
924.849	12970
924.956	13190
925.064	12939
925.172	13012
925.279	12848
925.387	12973
925.494	12848
925.602	13004
925.709	12894
925.816	12783
925.924	12897
926.031	12939
926.138	12932
926.245	12901
926.352	12844
926.459	12924
926.566	12954
926.673	12745
926.779	12783
926.886	12749
926.993	12544
927.099	12589
927.206	12460
927.312	12502
927.419	12620
927.525	12486
927.631	12574
927.737	12414
927.843	12338
927.95	12304
928.056	12372
928.162	12338
928.267	12270
928.373	13027
928.479	12418
928.585	12201
928.69	12273
928.796	12304
928.901	12235
929.007	12064
929.112	12239
929.218	12102
929.323	12053
929.428	12064
929.533	12159
929.638	11969
929.743	11965
929.848	12041
929.953	11920
930.058	11889
930.163	11737
930.267	11718
930.372	11996
930.477	11691
930.581	11916
930.685	11805
930.79	11638
930.894	11714
930.998	11611
931.103	11726
931.207	11410
931.311	11337
931.415	11292
931.519	11121
931.623	11098
