Data from test_V78500241_2083.txt Node
Date: Fri Mar 25 15:24:21 CST 2022
User: usil
Spectrometer: V785-0024
Trigger mode: 0
Integration Time (sec): 4.000000E-1
Scans to average: 1
Nonlinearity correction enabled: false
Boxcar width: 0
Storing dark spectrum: false
XAxis mode: Wavelengths
Number of Pixels in Spectrum: 1024
>>>>>Begin Spectral Data<<<<<
801.071	27633
801.214	27888
801.356	27526
801.499	27450
801.641	27405
801.783	27363
801.926	27454
802.068	27374
802.211	27173
802.353	27264
802.496	26921
802.638	27093
802.78	27093
802.923	26990
803.065	26819
803.208	26838
803.35	26872
803.492	27157
803.635	27294
803.777	27138
803.919	27138
804.061	27458
804.204	27089
804.346	27135
804.488	27119
804.63	27279
804.773	27252
804.915	27127
805.057	27169
805.199	27195
805.341	27325
805.483	27329
805.626	27150
805.768	27142
805.91	27405
806.052	27378
806.194	27237
806.336	27519
806.478	27336
806.62	27256
806.762	27386
806.904	27561
807.046	27728
807.188	27660
807.33	27747
807.472	27751
807.614	27728
807.756	27576
807.898	27633
808.04	27454
808.182	27534
808.324	27652
808.465	27656
808.607	27800
808.749	28025
808.891	28067
809.033	28109
809.174	27987
809.316	27869
809.458	27975
809.6	27918
809.741	27991
809.883	28131
810.025	28166
810.166	28223
810.308	28284
810.45	28230
810.591	28112
810.733	28032
810.875	27884
811.016	27739
811.158	27614
811.299	28105
811.441	28219
811.582	28226
811.724	27876
811.865	27827
812.007	27850
812.148	27937
812.29	27903
812.431	28188
812.573	28169
812.714	28261
812.855	28443
812.997	28531
813.138	28599
813.279	28508
813.421	28432
813.562	28451
813.703	28394
813.845	28253
813.986	27854
814.127	27701
814.268	27747
814.41	27686
814.551	27698
814.692	27671
814.833	27454
814.974	27473
815.115	27701
815.256	27557
815.397	27530
815.539	27542
815.68	27466
815.821	27378
815.962	27507
816.103	27412
816.244	27401
816.385	27161
816.526	27093
816.666	27005
816.807	26872
816.948	26887
817.089	27005
817.23	26940
817.371	26834
817.512	26876
817.653	26876
817.793	26880
817.934	26849
818.075	26906
818.216	26853
818.356	26800
818.497	26826
818.638	26705
818.778	26678
818.919	26625
819.06	26686
819.2	26902
819.341	26929
819.481	26910
819.622	27043
819.762	27272
819.903	27146
820.043	27047
820.184	26979
820.324	27051
820.465	27150
820.605	27089
820.746	27036
820.886	26842
821.026	26918
821.167	26895
821.307	27028
821.447	26899
821.588	26845
821.728	26830
821.868	26469
822.008	26374
822.149	26374
822.289	26431
822.429	26164
822.569	25936
822.709	26008
822.849	25906
822.99	25970
823.13	25841
823.27	25932
823.41	25742
823.55	25556
823.69	25860
823.83	25765
823.97	25590
824.11	25575
824.25	25445
824.389	25518
824.529	25677
824.669	25586
824.809	25632
824.949	25666
825.089	25552
825.228	25575
825.368	25362
825.508	25415
825.648	25434
825.787	25506
825.927	25510
826.067	25407
826.206	25453
826.346	25525
826.485	25430
826.625	25419
826.765	25476
826.904	25392
827.044	25282
827.183	25175
827.323	25187
827.462	25194
827.601	25187
827.741	25046
827.88	25114
828.02	24954
828.159	25126
828.298	25171
828.437	25251
828.577	25031
828.716	25213
828.855	25114
828.994	24848
829.134	24730
829.273	24772
829.412	24719
829.551	24707
829.69	24757
829.829	24798
829.968	24916
830.107	24871
830.246	24730
830.385	24650
830.524	24658
830.663	24650
830.802	24703
830.941	24513
831.08	24403
831.219	24502
831.357	24441
831.496	24722
831.635	24353
831.774	24296
831.913	24277
832.051	24285
832.19	24178
832.329	24213
832.467	24083
832.606	24026
832.744	24053
832.883	24011
833.022	24083
833.16	24034
833.299	24121
833.437	24239
833.576	24190
833.714	24129
833.852	24152
833.991	24209
834.129	24247
834.267	24159
834.406	24228
834.544	24098
834.682	24178
834.821	24110
834.959	24388
835.097	24079
835.235	24228
835.373	24186
835.511	24087
835.65	23958
835.788	24060
835.926	23916
836.064	23775
836.202	23794
836.34	24022
836.478	24049
836.615	23954
836.753	23984
836.891	24064
837.029	24030
837.167	23916
837.305	23866
837.443	23912
837.58	23942
837.718	23836
837.856	23748
837.993	23756
838.131	23836
838.269	23710
838.406	23691
838.544	23672
838.681	23410
838.819	23512
838.956	23223
839.094	23208
839.231	23261
839.369	23391
839.506	23642
839.643	23497
839.781	23250
839.918	23189
840.055	23239
840.193	23337
840.33	23353
840.467	23231
840.604	23124
840.742	23547
840.879	23079
841.016	23048
841.153	23098
841.29	23273
841.427	23155
841.564	23083
841.701	23155
841.838	23299
841.975	23086
842.112	23124
842.249	23185
842.385	23060
842.522	23197
842.659	22930
842.796	22942
842.933	22980
843.069	22919
843.206	22923
843.343	23044
843.479	22927
843.616	22942
843.752	22786
843.889	22820
844.025	22850
844.162	22759
844.298	22820
844.435	22892
844.571	22580
844.708	22835
844.844	22942
844.98	22877
845.117	22881
845.253	22706
845.389	22637
845.525	22637
845.661	22679
845.798	22455
845.934	22611
846.07	22485
846.206	22512
846.342	22664
846.478	22500
846.614	22348
846.75	22147
846.886	22284
847.022	22234
847.158	22249
847.294	22246
847.429	22303
847.565	22226
847.701	22291
847.837	21941
847.972	22036
848.108	21998
848.244	22074
848.379	21842
848.515	21823
848.65	21778
848.786	21838
848.921	21766
849.057	21831
849.192	21789
849.328	21865
849.463	21823
849.598	21713
849.734	21789
849.869	21701
850.004	21496
850.14	21519
850.275	21557
850.41	21435
850.545	21526
850.68	21507
850.815	21587
850.95	21652
851.085	21819
851.22	21583
851.355	21660
851.49	21591
851.625	21458
851.76	21500
851.895	21447
852.03	21504
852.165	21564
852.299	21511
852.434	21663
852.569	21481
852.703	21545
852.838	21507
852.973	21671
853.107	21690
853.242	21378
853.376	21424
853.511	21374
853.645	21291
853.78	21443
853.914	21370
854.048	21359
854.183	21393
854.317	21378
854.451	21625
854.585	21355
854.72	21382
854.854	21393
854.988	21245
855.122	21329
855.256	21268
855.39	21313
855.524	21477
855.658	21389
855.792	21408
855.926	21469
856.06	21412
856.194	21340
856.327	21310
856.461	21340
856.595	21283
856.729	21344
856.862	21591
856.996	21332
857.13	21545
857.263	21443
857.397	21519
857.53	21488
857.664	21515
857.797	21443
857.931	21469
858.064	21393
858.197	21500
858.331	21473
858.464	21378
858.597	21287
858.731	21298
858.864	21302
858.997	21211
859.13	21389
859.263	21443
859.396	21507
859.529	21351
859.662	21374
859.795	21454
859.928	21424
860.061	21576
860.194	21568
860.327	21534
860.46	21405
860.592	21614
860.725	21572
860.858	21576
860.99	21355
861.123	21367
861.256	21401
861.388	21435
861.521	22082
861.653	21214
861.786	21275
861.918	21272
862.05	21222
862.183	21279
862.315	21329
862.447	21447
862.58	21291
862.712	21070
862.844	21089
862.976	21176
863.108	21192
863.24	21530
863.372	21036
863.504	21176
863.636	21108
863.768	21169
863.9	21116
864.032	21020
864.164	21032
864.296	21135
864.428	21245
864.559	21039
864.691	21157
864.823	21176
864.954	21077
865.086	21013
865.217	21032
865.349	20944
865.48	20956
865.612	20937
865.743	21081
865.875	21013
866.006	20838
866.137	20975
866.269	20971
866.4	20834
866.531	20819
866.662	20895
866.793	20929
866.924	20979
867.055	20998
867.186	20948
867.317	20887
867.448	20849
867.579	20815
867.71	20868
867.841	20861
867.972	20933
868.103	20845
868.233	20868
868.364	20880
868.495	20952
868.625	21081
868.756	21287
868.886	20975
869.017	21058
869.147	21165
869.278	21214
869.408	21150
869.539	21203
869.669	21313
869.799	21279
869.929	21313
870.06	21237
870.19	21359
870.32	21443
870.45	21481
870.58	21507
870.71	21705
870.84	21679
870.97	21538
871.1	21568
871.23	21656
871.36	21686
871.489	21682
871.619	21587
871.749	21797
871.879	21880
872.008	21789
872.138	21686
872.267	21717
872.397	21496
872.526	21545
872.656	21606
872.785	21439
872.915	21819
873.044	21808
873.173	21861
873.303	21759
873.432	21842
873.561	21854
873.69	21781
873.819	21736
873.948	21774
874.077	21705
874.206	21816
874.335	21698
874.464	21934
874.593	21968
874.722	21911
874.851	22025
874.979	22063
875.108	21994
875.237	21960
875.365	21956
875.494	21816
875.623	22029
875.751	21930
875.88	22070
876.008	22097
876.136	22192
876.265	22329
876.393	22451
876.521	22489
876.65	22565
876.778	22333
876.906	22280
877.034	22413
877.162	22299
877.29	22436
877.418	22379
877.546	22329
877.674	22287
877.802	22371
877.93	22382
878.058	22204
878.185	22128
878.313	22386
878.441	22341
878.568	22219
878.696	22272
878.824	22352
878.951	22386
879.079	22371
879.206	22675
879.333	22618
879.461	22360
879.588	22424
879.715	22478
879.842	22626
879.97	22325
880.097	22242
880.224	22185
880.351	22253
880.478	22207
880.605	22124
880.732	22101
880.859	22447
880.986	22150
881.112	22154
881.239	22112
881.366	21964
881.493	21717
881.619	21701
881.746	21778
881.872	21812
881.999	21781
882.125	21713
882.252	21629
882.378	21671
882.505	21705
882.631	21663
882.757	21370
882.883	21500
883.01	21370
883.136	21363
883.262	21150
883.388	21176
883.514	21462
883.64	21458
883.766	21344
883.892	21173
884.018	21256
884.143	21268
884.269	21492
884.395	21173
884.52	21192
884.646	21085
884.772	21020
884.897	20994
885.023	21005
885.148	21066
885.274	21222
885.399	21241
885.524	21055
885.65	21062
885.775	21058
885.9	20982
886.025	21123
886.15	21142
886.275	21123
886.4	21005
886.525	21036
886.65	20956
886.775	20952
886.9	21176
887.025	21176
887.149	21077
887.274	20895
887.399	20849
887.523	20902
887.648	20864
887.773	20838
887.897	20834
888.021	20883
888.146	20857
888.27	20944
888.395	20921
888.519	20777
888.643	20868
888.767	20830
888.891	20724
889.015	20682
889.139	20708
889.263	20606
889.387	20693
889.511	20941
889.635	20697
889.759	20625
889.883	20568
890.006	20602
890.13	20590
890.254	20602
890.377	20537
890.501	20408
890.624	20355
890.748	20450
890.871	20233
890.995	20176
891.118	20020
891.241	20180
891.364	20183
891.488	20320
891.611	20214
891.734	20256
891.857	20111
891.98	20221
892.103	20214
892.226	20195
892.349	20069
892.471	20008
892.594	20187
892.717	20218
892.839	20115
892.962	20134
893.085	20229
893.207	20145
893.33	19928
893.452	20122
893.575	20164
893.697	20001
893.819	20286
893.941	20328
894.064	20259
894.186	20054
894.308	20027
894.43	20176
894.552	20218
894.674	20084
894.796	20046
894.918	20103
895.04	20035
895.161	20107
895.283	20176
895.405	19951
895.526	20183
895.648	20134
895.769	20134
895.891	20134
896.012	20237
896.134	20069
896.255	20073
896.376	20046
896.498	20077
896.619	20130
896.74	20058
896.861	20153
896.982	20492
897.103	20514
897.224	20454
897.345	20206
897.466	20275
897.587	20431
897.708	20431
897.828	20332
897.949	20374
898.07	20161
898.19	20183
898.311	20381
898.431	20278
898.552	20286
898.672	20469
898.792	20278
898.913	20351
899.033	20237
899.153	20088
899.273	20054
899.393	20183
899.513	20100
899.633	19951
899.753	20077
899.873	20005
899.993	20088
900.113	20012
900.232	20149
900.352	20100
900.472	19925
900.591	19868
900.711	19967
900.83	19795
900.95	19925
901.069	19932
901.189	19693
901.308	19495
901.427	19346
901.546	19426
901.665	19411
901.784	19381
901.904	19282
902.023	19171
902.141	19076
902.26	18966
902.379	19004
902.498	18985
902.617	18905
902.735	19057
902.854	18916
902.973	18806
903.091	18563
903.21	18536
903.328	18536
903.446	18525
903.565	18407
903.683	18601
903.801	18285
903.919	18422
904.038	18441
904.156	18232
904.274	18342
904.392	18148
904.51	18167
904.627	18186
904.745	18114
904.863	18152
904.981	18019
905.098	17843
905.216	17927
905.334	17874
905.451	17942
905.569	17866
905.686	17794
905.803	17840
905.921	17589
906.038	17661
906.155	17646
906.272	17520
906.389	17573
906.506	17459
906.623	17444
906.74	17452
906.857	17269
906.974	17356
907.091	17372
907.208	17463
907.324	17334
907.441	17277
907.557	17132
907.674	17094
907.79	17067
907.907	17121
908.023	17140
908.139	17170
908.256	16976
908.372	17048
908.488	17075
908.604	16892
908.72	16835
908.836	16702
908.952	16866
909.068	16843
909.184	16919
909.3	16748
909.415	16816
909.531	16805
909.647	16637
909.762	16565
909.878	16497
909.993	16504
910.108	16455
910.224	16367
910.339	16455
910.454	16421
910.57	16497
910.685	16268
910.8	16546
910.915	16428
911.03	16310
911.145	16200
911.259	16215
911.374	16097
911.489	16086
911.604	16044
911.718	15808
911.833	15926
911.947	15755
912.062	15709
912.176	15831
912.291	15838
912.405	15937
912.519	16006
912.633	16067
912.748	15774
912.862	15831
912.976	15759
913.09	15523
913.204	15656
913.318	15739
913.431	15838
913.545	15705
913.659	15778
913.772	15584
913.886	15515
914	15466
914.113	15622
914.226	15682
914.34	15568
914.453	15310
914.566	15504
914.68	15310
914.793	15367
914.906	15135
915.019	15123
915.132	15097
915.245	15100
915.358	15112
915.47	15039
915.583	15142
915.696	15104
915.809	15252
915.921	15275
916.034	14956
916.146	14937
916.259	15051
916.371	15013
916.483	15032
916.595	14952
916.708	14967
916.82	14944
916.932	14914
917.044	14899
917.156	14838
917.268	14727
917.38	14785
917.491	14629
917.603	14571
917.715	14853
917.826	14788
917.938	14670
918.049	14556
918.161	14648
918.272	14864
918.384	14785
918.495	14659
918.606	14564
918.717	14457
918.828	14473
918.939	14476
919.05	14351
919.161	14461
919.272	14309
919.383	14408
919.494	14621
919.604	14758
919.715	14488
919.826	14377
919.936	14374
920.047	14530
920.157	14434
920.267	14590
920.378	14488
920.488	14415
920.598	14670
920.708	14712
920.818	14720
920.928	14503
921.038	14785
921.148	14773
921.258	14450
921.368	14336
921.477	14237
921.587	14195
921.697	14008
921.806	14332
921.916	14027
922.025	13898
922.134	13784
922.244	13818
922.353	13795
922.462	13761
922.571	13662
922.68	13563
922.789	13468
922.898	13597
923.007	13480
923.116	13495
923.224	13544
923.333	13540
923.442	13358
923.55	13270
923.659	13331
923.767	13381
923.876	13259
923.984	13411
924.092	13259
924.201	13190
924.309	13278
924.417	13278
924.525	13129
924.633	13160
924.741	13845
924.849	12905
924.956	13103
925.064	12970
925.172	12924
925.279	12837
925.387	12886
925.494	12947
925.602	13042
925.709	13061
925.816	12692
925.924	12825
926.031	12909
926.138	12882
926.245	12954
926.352	12734
926.459	12863
926.566	13023
926.673	12768
926.779	12677
926.886	12707
926.993	12593
927.099	12582
927.206	12418
927.312	12490
927.419	12490
927.525	12418
927.631	12513
927.737	12384
927.843	12395
927.95	12205
928.056	12296
928.162	12308
928.267	12365
928.373	12973
928.479	12445
928.585	12152
928.69	12235
928.796	12228
928.901	12205
929.007	12019
929.112	12159
929.218	12015
929.323	12068
929.428	12038
929.533	12197
929.638	11996
929.743	11969
929.848	11942
929.953	11908
930.058	11920
930.163	11729
930.267	11779
930.372	11832
930.477	11627
930.581	11882
930.685	11775
930.79	11558
930.894	11600
930.998	11573
931.103	11665
931.207	11398
931.311	11292
931.415	11258
931.519	10972
931.623	10976
