Data from test_V78500241_1974.txt Node
Date: Fri Mar 25 15:23:36 CST 2022
User: usil
Spectrometer: V785-0024
Trigger mode: 0
Integration Time (sec): 4.000000E-1
Scans to average: 1
Nonlinearity correction enabled: false
Boxcar width: 0
Storing dark spectrum: false
XAxis mode: Wavelengths
Number of Pixels in Spectrum: 1024
>>>>>Begin Spectral Data<<<<<
801.071	27827
801.214	27675
801.356	27492
801.499	27443
801.641	27249
801.783	27443
801.926	27416
802.068	27378
802.211	27260
802.353	27127
802.496	27066
802.638	27039
802.78	26979
802.923	26876
803.065	26902
803.208	26834
803.35	27032
803.492	27032
803.635	27260
803.777	27104
803.919	27138
804.061	27553
804.204	27180
804.346	27096
804.488	27028
804.63	27275
804.773	27131
804.915	27245
805.057	27279
805.199	27150
805.341	27176
805.483	27344
805.626	27439
805.768	27176
805.91	27226
806.052	27351
806.194	27230
806.336	27538
806.478	27408
806.62	27214
806.762	27427
806.904	27534
807.046	27835
807.188	27728
807.33	27838
807.472	27732
807.614	27641
807.756	27690
807.898	27572
808.04	27515
808.182	27568
808.324	27663
808.465	27705
808.607	27865
808.749	27934
808.891	28093
809.033	28128
809.174	27930
809.316	27869
809.458	27945
809.6	27854
809.741	28101
809.883	28116
810.025	28272
810.166	28246
810.308	28154
810.45	28188
810.591	28082
810.733	27903
810.875	27888
811.016	27941
811.158	27842
811.299	28029
811.441	27960
811.582	28044
811.724	27789
811.865	27956
812.007	27873
812.148	27964
812.29	27987
812.431	28158
812.573	28207
812.714	28230
812.855	28504
812.997	28478
813.138	28618
813.279	28489
813.421	28379
813.562	28424
813.703	28268
813.845	28097
813.986	27903
814.127	27728
814.268	27675
814.41	27625
814.551	27671
814.692	27637
814.833	27629
814.974	27458
815.115	27625
815.256	27618
815.397	27401
815.539	27534
815.68	27538
815.821	27260
815.962	27492
816.103	27504
816.244	27397
816.385	27230
816.526	27104
816.666	27112
816.807	26750
816.948	27020
817.089	26925
817.23	27020
817.371	26811
817.512	26853
817.653	26998
817.793	26834
817.934	26963
818.075	26777
818.216	26891
818.356	26838
818.497	26830
818.638	26549
818.778	26792
818.919	26632
819.06	26708
819.2	26872
819.341	26944
819.481	27009
819.622	26960
819.762	27230
819.903	27055
820.043	27146
820.184	26963
820.324	26967
820.465	27047
820.605	27093
820.746	26963
820.886	27055
821.026	26956
821.167	26933
821.307	26979
821.447	26952
821.588	26819
821.728	26720
821.868	26549
822.008	26332
822.149	26476
822.289	26412
822.429	26199
822.569	26046
822.709	25875
822.849	25898
822.99	25833
823.13	25750
823.27	25837
823.41	25677
823.55	25662
823.69	25784
823.83	25651
823.97	25559
824.11	25434
824.25	25487
824.389	25552
824.529	25639
824.669	25506
824.809	25666
824.949	25696
825.089	25609
825.228	25601
825.368	25373
825.508	25285
825.648	25327
825.787	25354
825.927	25350
826.067	25491
826.206	25320
826.346	25441
826.485	25438
826.625	25346
826.765	25712
826.904	25556
827.044	25289
827.183	25088
827.323	25126
827.462	25171
827.601	25107
827.741	25148
827.88	25061
828.02	25004
828.159	25114
828.298	25141
828.437	25110
828.577	25012
828.716	25175
828.855	25088
828.994	24852
829.134	24814
829.273	24833
829.412	24848
829.551	24669
829.69	24806
829.829	24760
829.968	24776
830.107	24947
830.246	24795
830.385	24829
830.524	24692
830.663	24650
830.802	24544
830.941	24395
831.08	24407
831.219	24471
831.357	24498
831.496	24555
831.635	24494
831.774	24330
831.913	24323
832.051	24350
832.19	24243
832.329	24121
832.467	24072
832.606	24095
832.744	24083
832.883	24045
833.022	23984
833.16	24159
833.299	24213
833.437	24064
833.576	24228
833.714	24182
833.852	24262
833.991	24281
834.129	24254
834.267	24247
834.406	24087
834.544	24273
834.682	24289
834.821	24186
834.959	24369
835.097	24213
835.235	24216
835.373	24342
835.511	24125
835.65	24129
835.788	23961
835.926	23870
836.064	23771
836.202	23855
836.34	24057
836.478	24072
836.615	24026
836.753	24015
836.891	24117
837.029	24068
837.167	23992
837.305	23927
837.443	23870
837.58	23863
837.718	24007
837.856	23874
837.993	23859
838.131	23870
838.269	23630
838.406	23745
838.544	23627
838.681	23509
838.819	23436
838.956	23395
839.094	23322
839.231	23227
839.369	23482
839.506	23634
839.643	23649
839.781	23303
839.918	23425
840.055	23311
840.193	23368
840.33	23227
840.467	23204
840.604	23239
840.742	23493
840.879	23132
841.016	23227
841.153	23094
841.29	23395
841.427	23181
841.564	23235
841.701	23235
841.838	23147
841.975	23140
842.112	23143
842.249	23018
842.385	22885
842.522	23071
842.659	23056
842.796	22980
842.933	22995
843.069	22885
843.206	22972
843.343	23090
843.479	22980
843.616	23060
843.752	22843
843.889	22729
844.025	22961
844.162	22767
844.298	22942
844.435	22820
844.571	22877
844.708	22843
844.844	22805
844.98	22885
845.117	22953
845.253	22752
845.389	22584
845.525	22573
845.661	22626
845.798	22474
845.934	22580
846.07	22489
846.206	22565
846.342	22645
846.478	22428
846.614	22299
846.75	22143
846.886	22257
847.022	22428
847.158	22341
847.294	22265
847.429	22276
847.565	22143
847.701	22402
847.837	21979
847.972	21899
848.108	22135
848.244	21926
848.379	21835
848.515	21762
848.65	21785
848.786	21945
848.921	21884
849.057	21991
849.192	21998
849.328	21873
849.463	21812
849.598	21770
849.734	21739
849.869	21679
850.004	21496
850.14	21606
850.275	21530
850.41	21473
850.545	21576
850.68	21507
850.815	21633
850.95	21507
851.085	21778
851.22	21732
851.355	21576
851.49	21545
851.625	21561
851.76	21439
851.895	21644
852.03	21515
852.165	21576
852.299	21663
852.434	21637
852.569	21545
852.703	21568
852.838	21633
852.973	21739
853.107	21743
853.242	21583
853.376	21485
853.511	21241
853.645	21439
853.78	21485
853.914	21519
854.048	21454
854.183	21340
854.317	21466
854.451	21572
854.585	21428
854.72	21344
854.854	21591
854.988	21454
855.122	21450
855.256	21268
855.39	21336
855.524	21500
855.658	21412
855.792	21553
855.926	21405
856.06	21466
856.194	21564
856.327	21416
856.461	21310
856.595	21355
856.729	21435
856.862	21439
856.996	21386
857.13	21416
857.263	21564
857.397	21443
857.53	21401
857.664	21382
857.797	21412
857.931	21500
858.064	21397
858.197	21481
858.331	21389
858.464	21348
858.597	21233
858.731	21454
858.864	21298
858.997	21332
859.13	21447
859.263	21306
859.396	21485
859.529	21336
859.662	21382
859.795	21462
859.928	21523
860.061	21534
860.194	21564
860.327	21439
860.46	21344
860.592	21622
860.725	21549
860.858	21382
860.99	21412
861.123	21344
861.256	21329
861.388	21386
861.521	22074
861.653	21287
861.786	21222
861.918	21294
862.05	21298
862.183	21378
862.315	21454
862.447	21237
862.58	21336
862.712	21230
862.844	21013
862.976	21226
863.108	21203
863.24	21580
863.372	21230
863.504	21138
863.636	21112
863.768	21135
863.9	21100
864.032	21070
864.164	21142
864.296	21211
864.428	21272
864.559	21287
864.691	21066
864.823	21222
864.954	21058
865.086	21081
865.217	21055
865.349	20948
865.48	20994
865.612	20956
865.743	21169
865.875	20975
866.006	21077
866.137	21055
866.269	20960
866.4	20914
866.531	20960
866.662	20842
866.793	20891
866.924	20864
867.055	20982
867.186	20887
867.317	20979
867.448	20910
867.579	20914
867.71	20842
867.841	20944
867.972	20960
868.103	20914
868.233	20944
868.364	21001
868.495	20941
868.625	21184
868.756	21211
868.886	21017
869.017	21119
869.147	21256
869.278	21325
869.408	21298
869.539	21306
869.669	21211
869.799	21211
869.929	21294
870.06	21389
870.19	21424
870.32	21485
870.45	21568
870.58	21549
870.71	21595
870.84	21652
870.97	21538
871.1	21526
871.23	21770
871.36	21652
871.489	21736
871.619	21755
871.749	21770
871.879	21751
872.008	21857
872.138	21717
872.267	21793
872.397	21656
872.526	21606
872.656	21564
872.785	21545
872.915	21857
873.044	21895
873.173	21808
873.303	21800
873.432	21857
873.561	21869
873.69	21903
873.819	21766
873.948	21934
874.077	21793
874.206	21755
874.335	21827
874.464	21846
874.593	22078
874.722	21911
874.851	21979
874.979	21983
875.108	22040
875.237	21926
875.365	21865
875.494	21934
875.623	22013
875.751	21953
875.88	22010
876.008	22120
876.136	22173
876.265	22371
876.393	22489
876.521	22390
876.65	22504
876.778	22447
876.906	22356
877.034	22443
877.162	22348
877.29	22356
877.418	22280
877.546	22523
877.674	22413
877.802	22310
877.93	22325
878.058	22268
878.185	22344
878.313	22360
878.441	22382
878.568	22284
878.696	22226
878.824	22390
878.951	22451
879.079	22459
879.206	22603
879.333	22584
879.461	22409
879.588	22516
879.715	22382
879.842	22725
879.97	22402
880.097	22291
880.224	22249
880.351	22036
880.478	22219
880.605	21983
880.732	22185
880.859	22382
880.986	22067
881.112	22207
881.239	22067
881.366	22021
881.493	21789
881.619	21739
881.746	21876
881.872	21808
881.999	21720
882.125	21644
882.252	21953
882.378	21739
882.505	21724
882.631	21561
882.757	21466
882.883	21519
883.01	21462
883.136	21416
883.262	21397
883.388	21355
883.514	21526
883.64	21549
883.766	21340
883.892	21218
884.018	21184
884.143	21336
884.269	21538
884.395	21066
884.52	21066
884.646	21214
884.772	21116
884.897	21032
885.023	21104
885.148	21241
885.274	21138
885.399	21249
885.524	21024
885.65	21070
885.775	21096
885.9	21001
886.025	21195
886.15	21096
886.275	20960
886.4	21062
886.525	21150
886.65	20891
886.775	20948
886.9	21161
887.025	21294
887.149	21062
887.274	20811
887.399	20929
887.523	20880
887.648	20838
887.773	20708
887.897	21036
888.021	20990
888.146	20754
888.27	20967
888.395	20948
888.519	20838
888.643	20861
888.767	20891
888.891	20735
889.015	20727
889.139	20739
889.263	20617
889.387	20807
889.511	20941
889.635	20804
889.759	20564
889.883	20659
890.006	20785
890.13	20651
890.254	20549
890.377	20503
890.501	20351
890.624	20377
890.748	20381
890.871	20317
890.995	20183
891.118	20115
891.241	20362
891.364	20282
891.488	20332
891.611	20119
891.734	20218
891.857	20328
891.98	20275
892.103	20347
892.226	20225
892.349	20240
892.471	19970
892.594	20138
892.717	20187
892.839	20218
892.962	20168
893.085	20180
893.207	20199
893.33	20012
893.452	19982
893.575	20180
893.697	20164
893.819	20313
893.941	20256
894.064	20309
894.186	20050
894.308	20100
894.43	20153
894.552	20263
894.674	20210
894.796	20122
894.918	20062
895.04	20084
895.161	20130
895.283	20126
895.405	20153
895.526	20130
895.648	20126
895.769	20088
895.891	20282
896.012	20233
896.134	20210
896.255	20077
896.376	20149
896.498	20157
896.619	20183
896.74	20069
896.861	20164
896.982	20503
897.103	20488
897.224	20374
897.345	20233
897.466	20328
897.587	20275
897.708	20461
897.828	20385
897.949	20343
898.07	20221
898.19	20282
898.311	20385
898.431	20275
898.552	20355
898.672	20442
898.792	20423
898.913	20252
899.033	20218
899.153	20153
899.273	20096
899.393	20065
899.513	20111
899.633	20199
899.753	20195
899.873	20039
899.993	20046
900.113	20008
900.232	20130
900.352	20065
900.472	19856
900.591	19837
900.711	19887
900.83	19852
900.95	20100
901.069	19955
901.189	19917
901.308	19605
901.427	19540
901.546	19567
901.665	19438
901.784	19430
901.904	19240
902.023	19232
902.141	18993
902.26	19034
902.379	19050
902.498	19053
902.617	18897
902.735	19076
902.854	18882
902.973	18791
903.091	18677
903.21	18665
903.328	18593
903.446	18582
903.565	18494
903.683	18391
903.801	18369
903.919	18445
904.038	18410
904.156	18228
904.274	18334
904.392	18232
904.51	18171
904.627	18273
904.745	18266
904.863	18220
904.981	17977
905.098	17954
905.216	17843
905.334	17916
905.451	17916
905.569	17863
905.686	17897
905.803	17813
905.921	17680
906.038	17851
906.155	17615
906.272	17672
906.389	17554
906.506	17429
906.623	17520
906.74	17448
906.857	17299
906.974	17341
907.091	17532
907.208	17463
907.324	17467
907.441	17318
907.557	17117
907.674	17174
907.79	17064
907.907	17006
908.023	17128
908.139	17174
908.256	17029
908.372	17018
908.488	17083
908.604	16915
908.72	16869
908.836	16835
908.952	16896
909.068	16923
909.184	17048
909.3	16805
909.415	16919
909.531	16835
909.647	16660
909.762	16550
909.878	16466
909.993	16531
910.108	16542
910.224	16618
910.339	16554
910.454	16413
910.57	16440
910.685	16371
910.8	16542
910.915	16367
911.03	16371
911.145	16223
911.259	16185
911.374	16234
911.489	16017
911.604	16101
911.718	15884
911.833	16048
911.947	15827
912.062	15800
912.176	15934
912.291	15937
912.405	15915
912.519	16017
912.633	15968
912.748	15918
912.862	15895
912.976	15785
913.09	15545
913.204	15675
913.318	15686
913.431	15884
913.545	15728
913.659	15759
913.772	15732
913.886	15538
914	15504
914.113	15667
914.226	15595
914.34	15557
914.453	15450
914.566	15576
914.68	15408
914.793	15359
914.906	15226
915.019	15074
915.132	15039
915.245	15085
915.358	15268
915.47	15138
915.583	15184
915.696	15116
915.809	15226
915.921	15230
916.034	15058
916.146	14975
916.259	15112
916.371	14914
916.483	14963
916.595	14796
916.708	14925
916.82	14883
916.932	14925
917.044	14883
917.156	14921
917.268	14773
917.38	14819
917.491	14826
917.603	14708
917.715	14880
917.826	14693
917.938	14746
918.049	14590
918.161	14667
918.272	14815
918.384	14811
918.495	14724
918.606	14465
918.717	14564
918.828	14484
918.939	14518
919.05	14332
919.161	14552
919.272	14278
919.383	14317
919.494	14514
919.604	14739
919.715	14507
919.826	14476
919.936	14484
920.047	14583
920.157	14465
920.267	14686
920.378	14438
920.488	14492
920.598	14682
920.708	14845
920.818	14613
920.928	14670
921.038	14735
921.148	14800
921.258	14461
921.368	14267
921.477	14332
921.587	14168
921.697	14024
921.806	14229
921.916	14149
922.025	13974
922.134	13940
922.244	13864
922.353	13898
922.462	13769
922.571	13674
922.68	13674
922.789	13556
922.898	13525
923.007	13438
923.116	13502
923.224	13514
923.333	13552
923.442	13381
923.55	13362
923.659	13369
923.767	13548
923.876	13259
923.984	13358
924.092	13198
924.201	13312
924.309	13255
924.417	13343
924.525	13122
924.633	13202
924.741	13932
924.849	13019
924.956	13213
925.064	13004
925.172	12913
925.279	12951
925.387	12989
925.494	12882
925.602	13042
925.709	12909
925.816	12867
925.924	12913
926.031	12943
926.138	12890
926.245	12928
926.352	12795
926.459	12878
926.566	13027
926.673	12768
926.779	12715
926.886	12601
926.993	12559
927.099	12555
927.206	12467
927.312	12464
927.419	12574
927.525	12399
927.631	12479
927.737	12418
927.843	12369
927.95	12201
928.056	12258
928.162	12334
928.267	12346
928.373	13042
928.479	12350
928.585	12133
928.69	12334
928.796	12330
928.901	12194
929.007	11999
929.112	12239
929.218	12182
929.323	12079
929.428	12057
929.533	12133
929.638	11954
929.743	12015
929.848	12034
929.953	12045
930.058	11942
930.163	11733
930.267	11756
930.372	11885
930.477	11729
930.581	11923
930.685	11809
930.79	11600
930.894	11699
930.998	11604
931.103	11665
931.207	11387
931.311	11269
931.415	11261
931.519	11006
931.623	10953
