Data from test_V78500241_1402.txt Node
Date: Fri Mar 25 15:19:37 CST 2022
User: usil
Spectrometer: V785-0024
Trigger mode: 0
Integration Time (sec): 4.000000E-1
Scans to average: 1
Nonlinearity correction enabled: false
Boxcar width: 0
Storing dark spectrum: false
XAxis mode: Wavelengths
Number of Pixels in Spectrum: 1024
>>>>>Begin Spectral Data<<<<<
801.071	27899
801.214	28017
801.356	27781
801.499	27603
801.641	27500
801.783	27511
801.926	27447
802.068	27496
802.211	27405
802.353	27291
802.496	27272
802.638	27142
802.78	27135
802.923	27123
803.065	27055
803.208	27070
803.35	27089
803.492	27294
803.635	27237
803.777	27154
803.919	27321
804.061	27648
804.204	27443
804.346	27408
804.488	27321
804.63	27424
804.773	27370
804.915	27439
805.057	27538
805.199	27329
805.341	27504
805.483	27496
805.626	27492
805.768	27458
805.91	27542
806.052	27572
806.194	27389
806.336	27682
806.478	27523
806.62	27519
806.762	27595
806.904	27736
807.046	28006
807.188	27956
807.33	27895
807.472	27861
807.614	27956
807.756	27873
807.898	27793
808.04	27854
808.182	27690
808.324	27850
808.465	27873
808.607	28078
808.749	28234
808.891	28287
809.033	28230
809.174	28120
809.316	28059
809.458	28109
809.6	28169
809.741	28272
809.883	28436
810.025	28603
810.166	28409
810.308	28577
810.45	28348
810.591	28196
810.733	28299
810.875	28147
811.016	28078
811.158	28150
811.299	28162
811.441	28268
811.582	28192
811.724	28238
811.865	28188
812.007	28204
812.148	28154
812.29	28135
812.431	28462
812.573	28363
812.714	28599
812.855	28763
812.997	28721
813.138	28839
813.279	28896
813.421	28725
813.562	28790
813.703	28474
813.845	28272
813.986	28204
814.127	27998
814.268	27831
814.41	27922
814.551	27918
814.692	27960
814.833	27907
814.974	27770
815.115	27854
815.256	27759
815.397	27827
815.539	27682
815.68	27663
815.821	27656
815.962	27660
816.103	27667
816.244	27557
816.385	27450
816.526	27412
816.666	27272
816.807	27157
816.948	27127
817.089	27268
817.23	27279
817.371	27074
817.512	27150
817.653	27119
817.793	27039
817.934	27081
818.075	27142
818.216	27195
818.356	27100
818.497	26986
818.638	26838
818.778	26807
818.919	27028
819.06	26982
819.2	27077
819.341	27123
819.481	27077
819.622	27173
819.762	27405
819.903	27389
820.043	27222
820.184	27260
820.324	27287
820.465	27203
820.605	27268
820.746	27294
820.886	27169
821.026	27332
821.167	27252
821.307	27272
821.447	27203
821.588	27032
821.728	26952
821.868	26746
822.008	26568
822.149	26465
822.289	26545
822.429	26320
822.569	26267
822.709	26362
822.849	26062
822.99	26389
823.13	26138
823.27	26111
823.41	25879
823.55	25814
823.69	26031
823.83	25982
823.97	25898
824.11	25761
824.25	25613
824.389	25658
824.529	25860
824.669	25841
824.809	25807
824.949	25871
825.089	25917
825.228	25883
825.368	25601
825.508	25674
825.648	25750
825.787	25738
825.927	25639
826.067	25601
826.206	25601
826.346	25818
826.485	25605
826.625	25544
826.765	25772
826.904	25757
827.044	25441
827.183	25457
827.323	25346
827.462	25407
827.601	25453
827.741	25327
827.88	25445
828.02	25244
828.159	25293
828.298	25255
828.437	25388
828.577	25289
828.716	25411
828.855	25255
828.994	25080
829.134	25152
829.273	25118
829.412	24985
829.551	24985
829.69	25053
829.829	25034
829.968	25126
830.107	25099
830.246	25065
830.385	24821
830.524	24985
830.663	24901
830.802	24730
830.941	24517
831.08	24635
831.219	24719
831.357	24658
831.496	24825
831.635	24650
831.774	24593
831.913	24395
832.051	24414
832.19	24369
832.329	24365
832.467	24281
832.606	24319
832.744	24243
832.883	24292
833.022	24365
833.16	24471
833.299	24285
833.437	24365
833.576	24357
833.714	24479
833.852	24551
833.991	24369
834.129	24540
834.267	24426
834.406	24486
834.544	24384
834.682	24311
834.821	24334
834.959	24551
835.097	24315
835.235	24388
835.373	24262
835.511	24338
835.65	24209
835.788	24277
835.926	24243
836.064	24129
836.202	24327
836.34	24190
836.478	24376
836.615	24148
836.753	24346
836.891	24509
837.029	24277
837.167	24098
837.305	24216
837.443	24045
837.58	24076
837.718	24133
837.856	24194
837.993	23965
838.131	24125
838.269	23920
838.406	24102
838.544	23832
838.681	23649
838.819	23646
838.956	23509
839.094	23657
839.231	23570
839.369	23703
839.506	24022
839.643	23885
839.781	23482
839.918	23474
840.055	23596
840.193	23570
840.33	23406
840.467	23623
840.604	23467
840.742	23798
840.879	23425
841.016	23417
841.153	23330
841.29	23638
841.427	23417
841.564	23360
841.701	23372
841.838	23341
841.975	23471
842.112	23288
842.249	23246
842.385	23235
842.522	23353
842.659	23258
842.796	23334
842.933	23242
843.069	23299
843.206	23197
843.343	23204
843.479	23277
843.616	23280
843.752	22957
843.889	23151
844.025	23105
844.162	22972
844.298	23170
844.435	23090
844.571	22972
844.708	23094
844.844	23231
844.98	23067
845.117	22984
845.253	22949
845.389	22847
845.525	22927
845.661	22843
845.798	22698
845.934	22850
846.07	22736
846.206	22736
846.342	22847
846.478	22706
846.614	22523
846.75	22512
846.886	22417
847.022	22516
847.158	22443
847.294	22443
847.429	22577
847.565	22348
847.701	22736
847.837	22131
847.972	22196
848.108	22306
848.244	22291
848.379	22124
848.515	22097
848.65	21956
848.786	21964
848.921	22097
849.057	22284
849.192	22135
849.328	22063
849.463	22116
849.598	22158
849.734	21979
849.869	21880
850.004	21869
850.14	21884
850.275	21892
850.41	21781
850.545	21713
850.68	21781
850.815	21816
850.95	21907
851.085	21956
851.22	21972
851.355	21857
851.49	21865
851.625	21797
851.76	21743
851.895	21705
852.03	21743
852.165	21812
852.299	21766
852.434	21838
852.569	21838
852.703	21720
852.838	21941
852.973	21911
853.107	21907
853.242	21728
853.376	21599
853.511	21561
853.645	21622
853.78	21755
853.914	21591
854.048	21538
854.183	21629
854.317	21523
854.451	21751
854.585	21606
854.72	21629
854.854	21766
854.988	21564
855.122	21583
855.256	21393
855.39	21606
855.524	21671
855.658	21717
855.792	21682
855.926	21515
856.06	21637
856.194	21656
856.327	21603
856.461	21549
856.595	21530
856.729	21694
856.862	21755
856.996	21724
857.13	21755
857.263	21743
857.397	21720
857.53	21622
857.664	21732
857.797	21694
857.931	21736
858.064	21675
858.197	21705
858.331	21564
858.464	21561
858.597	21538
858.731	21591
858.864	21576
858.997	21633
859.13	21591
859.263	21770
859.396	21819
859.529	21538
859.662	21701
859.795	21511
859.928	21603
860.061	21857
860.194	21781
860.327	21610
860.46	21736
860.592	21762
860.725	21736
860.858	21778
860.99	21599
861.123	21603
861.256	21641
861.388	21648
861.521	22200
861.653	21603
861.786	21397
861.918	21416
862.05	21523
862.183	21462
862.315	21511
862.447	21633
862.58	21450
862.712	21382
862.844	21386
862.976	21408
863.108	21325
863.24	21622
863.372	21157
863.504	21310
863.636	21332
863.768	21370
863.9	21492
864.032	21192
864.164	21268
864.296	21340
864.428	21488
864.559	21492
864.691	21283
864.823	21412
864.954	21321
865.086	21351
865.217	21272
865.349	21127
865.48	21214
865.612	21245
865.743	21348
865.875	21275
866.006	21157
866.137	21161
866.269	21233
866.4	21169
866.531	21157
866.662	21074
866.793	21093
866.924	21135
867.055	21135
867.186	21211
867.317	21161
867.448	21020
867.579	21131
867.71	21199
867.841	21074
867.972	21283
868.103	21176
868.233	21157
868.364	21226
868.495	21260
868.625	21454
868.756	21557
868.886	21443
869.017	21351
869.147	21447
869.278	21424
869.408	21477
869.539	21306
869.669	21496
869.799	21515
869.929	21359
870.06	21561
870.19	21701
870.32	21713
870.45	21717
870.58	21865
870.71	21892
870.84	21876
870.97	21865
871.1	21743
871.23	21941
871.36	21994
871.489	21793
871.619	22002
871.749	21755
871.879	22086
872.008	22162
872.138	21869
872.267	22013
872.397	21937
872.526	21819
872.656	21819
872.785	21755
872.915	22044
873.044	22093
873.173	22002
873.303	21941
873.432	22131
873.561	22044
873.69	22013
873.819	21915
873.948	22070
874.077	21964
874.206	22059
874.335	22002
874.464	22147
874.593	22181
874.722	22109
874.851	22352
874.979	22223
875.108	22284
875.237	22135
875.365	22158
875.494	22048
875.623	22333
875.751	22257
875.88	22150
876.008	22272
876.136	22398
876.265	22607
876.393	22675
876.521	22622
876.65	22694
876.778	22542
876.906	22611
877.034	22493
877.162	22474
877.29	22493
877.418	22546
877.546	22569
877.674	22485
877.802	22497
877.93	22592
878.058	22569
878.185	22348
878.313	22409
878.441	22622
878.568	22344
878.696	22322
878.824	22577
878.951	22440
879.079	22733
879.206	22862
879.333	22683
879.461	22519
879.588	22641
879.715	22733
879.842	22774
879.97	22527
880.097	22402
880.224	22402
880.351	22379
880.478	22360
880.605	22284
880.732	22375
880.859	22733
880.986	22284
881.112	22470
881.239	22261
881.366	22101
881.493	22116
881.619	21880
881.746	21968
881.872	21888
881.999	21975
882.125	21812
882.252	22013
882.378	21835
882.505	22059
882.631	21854
882.757	21762
882.883	21759
883.01	21587
883.136	21633
883.262	21515
883.388	21576
883.514	21698
883.64	21595
883.766	21515
883.892	21382
884.018	21462
884.143	21682
884.269	21538
884.395	21412
884.52	21241
884.646	21359
884.772	21176
884.897	21154
885.023	21268
885.148	21272
885.274	21401
885.399	21435
885.524	21218
885.65	21222
885.775	21180
885.9	21211
886.025	21245
886.15	21424
886.275	21233
886.4	21173
886.525	21157
886.65	21180
886.775	21192
886.9	21367
887.025	21485
887.149	21218
887.274	21100
887.399	20967
887.523	21062
887.648	21013
887.773	20948
887.897	21039
888.021	21119
888.146	20929
888.27	21089
888.395	21157
888.519	21176
888.643	20994
888.767	21062
888.891	20971
889.015	20804
889.139	20979
889.263	20807
889.387	21028
889.511	20941
889.635	20986
889.759	20861
889.883	20796
890.006	20853
890.13	20914
890.254	20792
890.377	20823
890.501	20583
890.624	20533
890.748	20609
890.871	20423
890.995	20484
891.118	20358
891.241	20404
891.364	20423
891.488	20450
891.611	20374
891.734	20457
891.857	20552
891.98	20343
892.103	20434
892.226	20396
892.349	20309
892.471	20347
892.594	20389
892.717	20328
892.839	20237
892.962	20275
893.085	20381
893.207	20358
893.33	20202
893.452	20252
893.575	20438
893.697	20256
893.819	20488
893.941	20526
894.064	20438
894.186	20244
894.308	20187
894.43	20294
894.552	20514
894.674	20339
894.796	20271
894.918	20271
895.04	20294
895.161	20366
895.283	20305
895.405	20313
895.526	20396
895.648	20237
895.769	20336
895.891	20339
896.012	20492
896.134	20358
896.255	20370
896.376	20267
896.498	20305
896.619	20385
896.74	20324
896.861	20271
896.982	20708
897.103	20659
897.224	20571
897.345	20590
897.466	20423
897.587	20514
897.708	20651
897.828	20552
897.949	20492
898.07	20275
898.19	20545
898.311	20750
898.431	20465
898.552	20575
898.672	20663
898.792	20617
898.913	20522
899.033	20374
899.153	20244
899.273	20195
899.393	20290
899.513	20385
899.633	20195
899.753	20199
899.873	20202
899.993	20229
900.113	20153
900.232	20267
900.352	20084
900.472	20107
900.591	20005
900.711	20157
900.83	19936
900.95	20088
901.069	20119
901.189	19822
901.308	19647
901.427	19609
901.546	19571
901.665	19620
901.784	19578
901.904	19480
902.023	19449
902.141	19206
902.26	19179
902.379	19183
902.498	19072
902.617	19099
902.735	19183
902.854	19148
902.973	19118
903.091	18856
903.21	18715
903.328	18791
903.446	18753
903.565	18574
903.683	18681
903.801	18525
903.919	18612
904.038	18490
904.156	18391
904.274	18399
904.392	18437
904.51	18273
904.627	18498
904.745	18323
904.863	18353
904.981	18117
905.098	18064
905.216	17999
905.334	18110
905.451	18098
905.569	18015
905.686	17988
905.803	17874
905.921	17756
906.038	17889
906.155	17809
906.272	17783
906.389	17741
906.506	17497
906.623	17608
906.74	17535
906.857	17455
906.974	17528
907.091	17551
907.208	17786
907.324	17623
907.441	17596
907.557	17334
907.674	17318
907.79	17269
907.907	17326
908.023	17299
908.139	17303
908.256	17250
908.372	17159
908.488	17258
908.604	17029
908.72	17029
908.836	17128
908.952	17075
909.068	16968
909.184	17178
909.3	17048
909.415	17033
909.531	17102
909.647	16790
909.762	16729
909.878	16649
909.993	16645
910.108	16698
910.224	16687
910.339	16664
910.454	16622
910.57	16546
910.685	16516
910.8	16713
910.915	16630
911.03	16588
911.145	16314
911.259	16382
911.374	16226
911.489	16318
911.604	16204
911.718	16036
911.833	16006
911.947	16036
912.062	15930
912.176	15964
912.291	16032
912.405	15998
912.519	16204
912.633	16150
912.748	15945
912.862	15941
912.976	15873
913.09	15781
913.204	15869
913.318	15876
913.431	15873
913.545	16044
913.659	16029
913.772	15747
913.886	15675
914	15603
914.113	15682
914.226	15739
914.34	15739
914.453	15549
914.566	15625
914.68	15519
914.793	15488
914.906	15336
915.019	15211
915.132	15256
915.245	15264
915.358	15370
915.47	15245
915.583	15275
915.696	15230
915.809	15469
915.921	15363
916.034	15131
916.146	15100
916.259	15123
916.371	15226
916.483	15165
916.595	14982
916.708	15131
916.82	15062
916.932	15017
917.044	15089
917.156	14994
917.268	14921
917.38	14963
917.491	14925
917.603	14857
917.715	14887
917.826	14979
917.938	14819
918.049	14823
918.161	14796
918.272	14861
918.384	14937
918.495	14830
918.606	14651
918.717	14556
918.828	14625
918.939	14701
919.05	14488
919.161	14575
919.272	14412
919.383	14518
919.494	14617
919.604	14849
919.715	14583
919.826	14545
919.936	14629
920.047	14823
920.157	14648
920.267	14864
920.378	14644
920.488	14636
920.598	14842
920.708	14899
920.818	14811
920.928	14765
921.038	14902
921.148	14769
921.258	14556
921.368	14571
921.477	14492
921.587	14351
921.697	14278
921.806	14358
921.916	14130
922.025	14046
922.134	13963
922.244	13970
922.353	13967
922.462	13849
922.571	13807
922.68	13616
922.789	13559
922.898	13586
923.007	13525
923.116	13738
923.224	13575
923.333	13639
923.442	13514
923.55	13533
923.659	13464
923.767	13597
923.876	13453
923.984	13422
924.092	13320
924.201	13396
924.309	13373
924.417	13358
924.525	13282
924.633	13335
924.741	14100
924.849	13114
924.956	13194
925.064	13069
925.172	13008
925.279	13023
925.387	12981
925.494	13141
925.602	13152
925.709	13061
925.816	12924
925.924	12928
926.031	13053
926.138	12996
926.245	12966
926.352	12852
926.459	13057
926.566	13000
926.673	12829
926.779	12730
926.886	12802
926.993	12760
927.099	12601
927.206	12612
927.312	12639
927.419	12612
927.525	12627
927.631	12612
927.737	12445
927.843	12407
927.95	12422
928.056	12395
928.162	12418
928.267	12467
928.373	13038
928.479	12479
928.585	12262
928.69	12407
928.796	12365
928.901	12285
929.007	12117
929.112	12311
929.218	12273
929.323	12121
929.428	12114
929.533	12232
929.638	12152
929.743	12072
929.848	12121
929.953	12064
930.058	11958
930.163	11790
930.267	11847
930.372	11961
930.477	11870
930.581	12026
930.685	11836
930.79	11760
930.894	11802
930.998	11699
931.103	11840
931.207	11486
931.311	11391
931.415	11376
931.519	11117
931.623	11037
