Data from test_V78500241_3288.txt Node
Date: Fri Mar 25 15:32:45 CST 2022
User: usil
Spectrometer: V785-0024
Trigger mode: 0
Integration Time (sec): 4.000000E-1
Scans to average: 1
Nonlinearity correction enabled: false
Boxcar width: 0
Storing dark spectrum: false
XAxis mode: Wavelengths
Number of Pixels in Spectrum: 1024
>>>>>Begin Spectral Data<<<<<
801.071	27420
801.214	27264
801.356	27089
801.499	26944
801.641	26887
801.783	26746
801.926	27043
802.068	26861
802.211	26769
802.353	26773
802.496	26533
802.638	26423
802.78	26488
802.923	26431
803.065	26275
803.208	26374
803.35	26465
803.492	26453
803.635	26560
803.777	26625
803.919	26651
804.061	26990
804.204	26731
804.346	26609
804.488	26537
804.63	26686
804.773	26465
804.915	26613
805.057	26781
805.199	26609
805.341	26560
805.483	26800
805.626	26758
805.768	26686
805.91	26781
806.052	26834
806.194	26750
806.336	26952
806.478	26724
806.62	26640
806.762	26887
806.904	26967
807.046	27332
807.188	27207
807.33	27165
807.472	27203
807.614	27039
807.756	27062
807.898	27100
808.04	26880
808.182	27047
808.324	27074
808.465	26952
808.607	27317
808.749	27317
808.891	27397
809.033	27370
809.174	27507
809.316	27313
809.458	27443
809.6	27321
809.741	27450
809.883	27515
810.025	27717
810.166	27591
810.308	27709
810.45	27732
810.591	27488
810.733	27272
810.875	27275
811.016	27226
811.158	27237
811.299	27564
811.441	27652
811.582	27500
811.724	27306
811.865	27211
812.007	27287
812.148	27184
812.29	27412
812.431	27492
812.573	27523
812.714	27667
812.855	27656
812.997	27918
813.138	27930
813.279	27953
813.421	27694
813.562	27850
813.703	27564
813.845	27431
813.986	27161
814.127	27161
814.268	27039
814.41	26868
814.551	26918
814.692	26960
814.833	26842
814.974	27024
815.115	27138
815.256	26895
815.397	26933
815.539	26804
815.68	26853
815.821	26724
815.962	26807
816.103	26781
816.244	26473
816.385	26473
816.526	26514
816.666	26267
816.807	26240
816.948	26465
817.089	26313
817.23	26275
817.371	26183
817.512	26366
817.653	26229
817.793	26119
817.934	26275
818.075	26248
818.216	26237
818.356	26339
818.497	26130
818.638	25966
818.778	26046
818.919	25928
819.06	25944
819.2	26168
819.341	26221
819.481	26221
819.622	26408
819.762	26659
819.903	26526
820.043	26446
820.184	26301
820.324	26408
820.465	26503
820.605	26267
820.746	26275
820.886	26157
821.026	26282
821.167	26286
821.307	26294
821.447	26225
821.588	26183
821.728	26077
821.868	26008
822.008	25734
822.149	25708
822.289	25776
822.429	25525
822.569	25476
822.709	25297
822.849	25209
822.99	25202
823.13	25126
823.27	25316
823.41	25061
823.55	25091
823.69	24996
823.83	25065
823.97	24992
824.11	24970
824.25	24806
824.389	24798
824.529	24837
824.669	24848
824.809	25038
824.949	25004
825.089	24886
825.228	24981
825.368	24707
825.508	24635
825.648	24719
825.787	24863
825.927	24791
826.067	24639
826.206	24738
826.346	24863
826.485	24875
826.625	24779
826.765	24920
826.904	24810
827.044	24574
827.183	24448
827.323	24418
827.462	24540
827.601	24426
827.741	24544
827.88	24498
828.02	24365
828.159	24498
828.298	24570
828.437	24509
828.577	24467
828.716	24540
828.855	24422
828.994	24201
829.134	24155
829.273	24182
829.412	24110
829.551	24251
829.69	24022
829.829	24205
829.968	24277
830.107	24110
830.246	24239
830.385	24079
830.524	24129
830.663	24030
830.802	23794
830.941	23627
831.08	23752
831.219	23828
831.357	23863
831.496	24152
831.635	23680
831.774	23649
831.913	23646
832.051	23634
832.19	23520
832.329	23680
832.467	23455
832.606	23436
832.744	23387
832.883	23429
833.022	23463
833.16	23349
833.299	23414
833.437	23493
833.576	23471
833.714	23596
833.852	23623
833.991	23528
834.129	23539
834.267	23463
834.406	23452
834.544	23596
834.682	23531
834.821	23531
834.959	23684
835.097	23478
835.235	23592
835.373	23501
835.511	23558
835.65	23478
835.788	23387
835.926	23197
836.064	23166
836.202	23242
836.34	23414
836.478	23444
836.615	23322
836.753	23353
836.891	23398
837.029	23292
837.167	23280
837.305	23353
837.443	23379
837.58	23299
837.718	23277
837.856	23296
837.993	23166
838.131	23208
838.269	23220
838.406	23220
838.544	23006
838.681	22934
838.819	22976
838.956	22725
839.094	22816
839.231	22850
839.369	22904
839.506	23056
839.643	22919
839.781	22755
839.918	22672
840.055	22618
840.193	22721
840.33	22615
840.467	22611
840.604	22812
840.742	22930
840.879	22516
841.016	22436
841.153	22569
841.29	22774
841.427	22538
841.564	22588
841.701	22474
841.838	22675
841.975	22656
842.112	22527
842.249	22455
842.385	22409
842.522	22630
842.659	22440
842.796	22451
842.933	22462
843.069	22421
843.206	22314
843.343	22443
843.479	22356
843.616	22306
843.752	22181
843.889	22204
844.025	22310
844.162	22109
844.298	22207
844.435	22219
844.571	22070
844.708	22219
844.844	22135
844.98	22344
845.117	22314
845.253	22166
845.389	22067
845.525	22067
845.661	22013
845.798	22002
845.934	21972
846.07	21857
846.206	21808
846.342	22017
846.478	22097
846.614	21694
846.75	21671
846.886	21671
847.022	21804
847.158	21675
847.294	21663
847.429	21694
847.565	21667
847.701	21854
847.837	21416
847.972	21408
848.108	21424
848.244	21557
848.379	21283
848.515	21230
848.65	21112
848.786	21264
848.921	21218
849.057	21420
849.192	21412
849.328	21249
849.463	21146
849.598	21241
849.734	21176
849.869	21161
850.004	20986
850.14	21138
850.275	20906
850.41	20853
850.545	20994
850.68	20925
850.815	21123
850.95	21112
851.085	21249
851.22	21112
851.355	21017
851.49	21039
851.625	20979
851.76	20899
851.895	20857
852.03	20990
852.165	21032
852.299	20941
852.434	21108
852.569	21036
852.703	21051
852.838	21116
852.973	21161
853.107	21085
853.242	20921
853.376	20830
853.511	20735
853.645	20872
853.78	20975
853.914	20849
854.048	20883
854.183	20682
854.317	20876
854.451	21116
854.585	20807
854.72	20952
854.854	20910
854.988	20743
855.122	20834
855.256	20769
855.39	20811
855.524	20868
855.658	20857
855.792	20960
855.926	20823
856.06	20937
856.194	20838
856.327	20834
856.461	20849
856.595	20815
856.729	20800
856.862	20952
856.996	20811
857.13	20773
857.263	20960
857.397	20952
857.53	20876
857.664	20910
857.797	20785
857.931	20868
858.064	20944
858.197	20857
858.331	20948
858.464	20929
858.597	20644
858.731	20872
858.864	20891
858.997	20788
859.13	20788
859.263	20781
859.396	20845
859.529	20785
859.662	20838
859.795	20914
859.928	20800
860.061	21024
860.194	20982
860.327	20895
860.46	20731
860.592	20994
860.725	21032
860.858	21009
860.99	20815
861.123	20785
861.256	20727
861.388	20819
861.521	21306
861.653	20583
861.786	20651
861.918	20697
862.05	20712
862.183	20716
862.315	20872
862.447	20906
862.58	20739
862.712	20492
862.844	20598
862.976	20579
863.108	20648
863.24	21001
863.372	20488
863.504	20720
863.636	20609
863.768	20640
863.9	20549
864.032	20503
864.164	20503
864.296	20511
864.428	20689
864.559	20590
864.691	20648
864.823	20480
864.954	20503
865.086	20609
865.217	20514
865.349	20400
865.48	20442
865.612	20476
865.743	20598
865.875	20476
866.006	20454
866.137	20442
866.269	20484
866.4	20370
866.531	20374
866.662	20408
866.793	20495
866.924	20533
867.055	20358
867.186	20499
867.317	20423
867.448	20313
867.579	20404
867.71	20366
867.841	20309
867.972	20381
868.103	20355
868.233	20385
868.364	20374
868.495	20400
868.625	20613
868.756	20773
868.886	20587
869.017	20587
869.147	20667
869.278	20689
869.408	20697
869.539	20537
869.669	20750
869.799	20606
869.929	20686
870.06	20785
870.19	21039
870.32	20899
870.45	20944
870.58	20921
870.71	21146
870.84	21146
870.97	21005
871.1	21089
871.23	21150
871.36	21142
871.489	21096
871.619	21306
871.749	21287
871.879	21302
872.008	21329
872.138	21207
872.267	21199
872.397	21180
872.526	21127
872.656	21077
872.785	21161
872.915	21306
873.044	21279
873.173	21214
873.303	21233
873.432	21317
873.561	21447
873.69	21260
873.819	21298
873.948	21378
874.077	21214
874.206	21207
874.335	21275
874.464	21412
874.593	21545
874.722	21477
874.851	21610
874.979	21424
875.108	21553
875.237	21473
875.365	21545
875.494	21473
875.623	21568
875.751	21603
875.88	21580
876.008	21622
876.136	21679
876.265	21880
876.393	22036
876.521	21873
876.65	21979
876.778	21888
876.906	21812
877.034	21724
877.162	21808
877.29	21895
877.418	21873
877.546	21903
877.674	21835
877.802	21800
877.93	21903
878.058	21854
878.185	21827
878.313	21774
878.441	21827
878.568	21751
878.696	21698
878.824	22055
878.951	21991
879.079	21979
879.206	22147
879.333	22070
879.461	21926
879.588	21934
879.715	22154
879.842	22131
879.97	21850
880.097	21819
880.224	21610
880.351	21698
880.478	21755
880.605	21720
880.732	21614
880.859	21922
880.986	21766
881.112	21648
881.239	21488
881.366	21359
881.493	21317
881.619	21203
881.746	21310
881.872	21279
881.999	21260
882.125	21226
882.252	21336
882.378	21306
882.505	21275
882.631	21039
882.757	20967
882.883	20998
883.01	20933
883.136	20891
883.262	20773
883.388	20777
883.514	20960
883.64	21001
883.766	20853
883.892	20773
884.018	20727
884.143	20944
884.269	21020
884.395	20746
884.52	20579
884.646	20720
884.772	20575
884.897	20503
885.023	20648
885.148	20727
885.274	20712
885.399	20689
885.524	20617
885.65	20579
885.775	20575
885.9	20602
886.025	20724
886.15	20682
886.275	20583
886.4	20511
886.525	20404
886.65	20469
886.775	20613
886.9	20693
887.025	20815
887.149	20568
887.274	20389
887.399	20305
887.523	20404
887.648	20412
887.773	20332
887.897	20480
888.021	20442
888.146	20336
888.27	20446
888.395	20389
888.519	20522
888.643	20408
888.767	20412
888.891	20244
889.015	20294
889.139	20298
889.263	20168
889.387	20381
889.511	20408
889.635	20256
889.759	20138
889.883	20073
890.006	20180
890.13	20229
890.254	20103
890.377	20100
890.501	19879
890.624	19940
890.748	19982
890.871	19947
890.995	19795
891.118	19609
891.241	19757
891.364	19772
891.488	19890
891.611	19681
891.734	19807
891.857	19902
891.98	19788
892.103	19784
892.226	19803
892.349	19799
892.471	19567
892.594	19601
892.717	19616
892.839	19647
892.962	19772
893.085	19677
893.207	19586
893.33	19563
893.452	19518
893.575	19700
893.697	19613
893.819	19811
893.941	19791
894.064	19841
894.186	19605
894.308	19567
894.43	19689
894.552	19795
894.674	19826
894.796	19578
894.918	19605
895.04	19651
895.161	19814
895.283	19685
895.405	19635
895.526	19670
895.648	19544
895.769	19753
895.891	19613
896.012	19856
896.134	19738
896.255	19761
896.376	19643
896.498	19578
896.619	19715
896.74	19696
896.861	19719
896.982	19906
897.103	20180
897.224	19913
897.345	19944
897.466	19807
897.587	19807
897.708	19982
897.828	19936
897.949	19970
898.07	19731
898.19	19784
898.311	20081
898.431	19761
898.552	20035
898.672	19982
898.792	19936
898.913	19993
899.033	19894
899.153	19715
899.273	19544
899.393	19590
899.513	19753
899.633	19719
899.753	19674
899.873	19616
899.993	19738
900.113	19685
900.232	19712
900.352	19556
900.472	19502
900.591	19415
900.711	19529
900.83	19285
900.95	19540
901.069	19487
901.189	19392
901.308	19202
901.427	19008
901.546	19027
901.665	19042
901.784	19099
901.904	18871
902.023	18848
902.141	18608
902.26	18612
902.379	18654
902.498	18509
902.617	18540
902.735	18490
902.854	18452
902.973	18388
903.091	18319
903.21	18315
903.328	18232
903.446	18045
903.565	18144
903.683	17958
903.801	17863
903.919	17999
904.038	17878
904.156	17840
904.274	17813
904.392	17790
904.51	17843
904.627	17805
904.745	17885
904.863	17767
904.981	17577
905.098	17505
905.216	17440
905.334	17391
905.451	17501
905.569	17459
905.686	17543
905.803	17360
905.921	17288
906.038	17353
906.155	17315
906.272	17208
906.389	17155
906.506	17010
906.623	17014
906.74	16999
906.857	16896
906.974	17003
907.091	16991
907.208	17166
907.324	17056
907.441	16809
907.557	16717
907.674	16752
907.79	16698
907.907	16755
908.023	16767
908.139	16668
908.256	16778
908.372	16622
908.488	16626
908.604	16508
908.72	16436
908.836	16504
908.952	16462
909.068	16459
909.184	16561
909.3	16417
909.415	16447
909.531	16318
909.647	16109
909.762	16150
909.878	16181
909.993	16169
910.108	16048
910.224	16048
910.339	16185
910.454	16093
910.57	16006
910.685	15949
910.8	16196
910.915	16071
911.03	15888
911.145	15838
911.259	15778
911.374	15770
911.489	15698
911.604	15656
911.718	15488
911.833	15469
911.947	15412
912.062	15408
912.176	15466
912.291	15614
912.405	15549
912.519	15774
912.633	15804
912.748	15576
912.862	15492
912.976	15511
913.09	15264
913.204	15374
913.318	15298
913.431	15389
913.545	15329
913.659	15488
913.772	15393
913.886	15062
914	15085
914.113	15252
914.226	15241
914.34	15275
914.453	15089
914.566	15097
914.68	15093
914.793	15017
914.906	14739
915.019	14697
915.132	14575
915.245	14720
915.358	14758
915.47	14762
915.583	14720
915.696	14667
915.809	14807
915.921	14796
916.034	14602
916.146	14579
916.259	14659
916.371	14769
916.483	14716
916.595	14575
916.708	14617
916.82	14655
916.932	14583
917.044	14613
917.156	14415
917.268	14343
917.38	14423
917.491	14396
917.603	14415
917.715	14488
917.826	14533
917.938	14393
918.049	14263
918.161	14347
918.272	14541
918.384	14431
918.495	14374
918.606	14256
918.717	14161
918.828	14199
918.939	14278
919.05	14145
919.161	14100
919.272	13951
919.383	14073
919.494	14290
919.604	14355
919.715	14161
919.826	14130
919.936	14161
920.047	14267
920.157	14134
920.267	14324
920.378	14176
920.488	14092
920.598	14240
920.708	14412
920.818	14298
920.928	14355
921.038	14480
921.148	14484
921.258	14157
921.368	14062
921.477	13974
921.587	13875
921.697	13883
921.806	13860
921.916	13769
922.025	13544
922.134	13559
922.244	13571
922.353	13563
922.462	13438
922.571	13388
922.68	13228
922.789	13259
922.898	13278
923.007	13152
923.116	13179
923.224	13194
923.333	13152
923.442	13046
923.55	12966
923.659	13042
923.767	13076
923.876	12966
923.984	13042
924.092	12909
924.201	12970
924.309	12928
924.417	12985
924.525	12875
924.633	12837
924.741	13746
924.849	12688
924.956	12787
925.064	12669
925.172	12642
925.279	12498
925.387	12726
925.494	12635
925.602	12722
925.709	12692
925.816	12566
925.924	12642
926.031	12673
926.138	12578
926.245	12578
926.352	12502
926.459	12551
926.566	12627
926.673	12509
926.779	12369
926.886	12464
926.993	12346
927.099	12277
927.206	12129
927.312	12197
927.419	12197
927.525	12201
927.631	12205
927.737	12140
927.843	12110
927.95	11950
928.056	11973
928.162	12098
928.267	12083
928.373	12639
928.479	12117
928.585	11923
928.69	12064
928.796	11992
928.901	11935
929.007	11771
929.112	11908
929.218	11912
929.323	11832
929.428	11790
929.533	11908
929.638	11726
929.743	11710
929.848	11775
929.953	11688
930.058	11577
930.163	11493
930.267	11516
930.372	11646
930.477	11436
930.581	11699
930.685	11543
930.79	11315
930.894	11387
930.998	11353
931.103	11516
931.207	11064
931.311	10991
931.415	11048
931.519	10812
931.623	10744
