Data from test_V78500241_3144.txt Node
Date: Fri Mar 25 15:31:45 CST 2022
User: usil
Spectrometer: V785-0024
Trigger mode: 0
Integration Time (sec): 4.000000E-1
Scans to average: 1
Nonlinearity correction enabled: false
Boxcar width: 0
Storing dark spectrum: false
XAxis mode: Wavelengths
Number of Pixels in Spectrum: 1024
>>>>>Begin Spectral Data<<<<<
801.071	27226
801.214	27199
801.356	26880
801.499	26948
801.641	26735
801.783	26621
801.926	26746
802.068	26568
802.211	26792
802.353	26636
802.496	26495
802.638	26412
802.78	26408
802.923	26343
803.065	26275
803.208	26252
803.35	26320
803.492	26549
803.635	26541
803.777	26351
803.919	26568
804.061	26853
804.204	26495
804.346	26423
804.488	26404
804.63	26488
804.773	26465
804.915	26518
805.057	26655
805.199	26526
805.341	26514
805.483	26495
805.626	26598
805.768	26575
805.91	26613
806.052	26575
806.194	26560
806.336	26693
806.478	26541
806.62	26636
806.762	26640
806.904	26830
807.046	27131
807.188	26940
807.33	27032
807.472	26967
807.614	26952
807.756	26990
807.898	26921
808.04	26708
808.182	26777
808.324	26735
808.465	26910
808.607	27024
808.749	27142
808.891	27370
809.033	27332
809.174	27272
809.316	27066
809.458	27226
809.6	26952
809.741	27260
809.883	27355
810.025	27389
810.166	27416
810.308	27294
810.45	27256
810.591	27317
810.733	27165
810.875	27233
811.016	26982
811.158	27112
811.299	27214
811.441	27264
811.582	27329
811.724	27062
811.865	27093
812.007	27096
812.148	27058
812.29	27256
812.431	27344
812.573	27412
812.714	27485
812.855	27660
812.997	27701
813.138	27941
813.279	27755
813.421	27739
813.562	27724
813.703	27542
813.845	27386
813.986	26876
814.127	27017
814.268	26785
814.41	26815
814.551	26773
814.692	26967
814.833	26845
814.974	26697
815.115	26880
815.256	26769
815.397	26678
815.539	26754
815.68	26545
815.821	26469
815.962	26602
816.103	26739
816.244	26457
816.385	26442
816.526	26339
816.666	26195
816.807	26111
816.948	26103
817.089	26275
817.23	26214
817.371	26096
817.512	25966
817.653	26050
817.793	25917
817.934	26039
818.075	26107
818.216	25986
818.356	26043
818.497	25963
818.638	25757
818.778	25746
818.919	25966
819.06	25818
819.2	26065
819.341	26134
819.481	25826
819.622	26195
819.762	26400
819.903	26301
820.043	26271
820.184	26183
820.324	26138
820.465	26168
820.605	26233
820.746	26077
820.886	26001
821.026	26202
821.167	26176
821.307	26157
821.447	26058
821.588	25932
821.728	25921
821.868	25734
822.008	25563
822.149	25567
822.289	25586
822.429	25293
822.569	25255
822.709	25407
822.849	24981
822.99	25126
823.13	24992
823.27	25031
823.41	24859
823.55	24821
823.69	24913
823.83	24787
823.97	24821
824.11	24551
824.25	24608
824.389	24776
824.529	24696
824.669	24795
824.809	24867
824.949	24764
825.089	24779
825.228	24787
825.368	24475
825.508	24570
825.648	24582
825.787	24684
825.927	24608
826.067	24536
826.206	24620
826.346	24749
826.485	24582
826.625	24661
826.765	24810
826.904	24540
827.044	24441
827.183	24350
827.323	24300
827.462	24300
827.601	24273
827.741	24232
827.88	24201
828.02	24098
828.159	24281
828.298	24273
828.437	24414
828.577	24197
828.716	24471
828.855	24121
828.994	23973
829.134	24117
829.273	24026
829.412	23950
829.551	23954
829.69	24003
829.829	24038
829.968	24060
830.107	24133
830.246	23984
830.385	23878
830.524	23828
830.663	23863
830.802	23726
830.941	23623
831.08	23539
831.219	23577
831.357	23722
831.496	23847
831.635	23653
831.774	23463
831.913	23490
832.051	23227
832.19	23360
832.329	23387
832.467	23372
832.606	23307
832.744	23334
832.883	23318
833.022	23223
833.16	23311
833.299	23376
833.437	23303
833.576	23608
833.714	23391
833.852	23311
833.991	23448
834.129	23368
834.267	23440
834.406	23372
834.544	23478
834.682	23379
834.821	23265
834.959	23452
835.097	23299
835.235	23349
835.373	23387
835.511	23330
835.65	23261
835.788	23193
835.926	23048
836.064	23003
836.202	23147
836.34	23048
836.478	23132
836.615	23204
836.753	23303
836.891	23341
837.029	23166
837.167	23052
837.305	23094
837.443	23052
837.58	23064
837.718	23151
837.856	22949
837.993	23029
838.131	23056
838.269	22949
838.406	22908
838.544	22991
838.681	22755
838.819	22748
838.956	22474
839.094	22478
839.231	22626
839.369	22740
839.506	22847
839.643	22698
839.781	22634
839.918	22470
840.055	22557
840.193	22443
840.33	22489
840.467	22466
840.604	22523
840.742	22717
840.879	22371
841.016	22398
841.153	22295
841.29	22527
841.427	22455
841.564	22451
841.701	22519
841.838	22417
841.975	22268
842.112	22481
842.249	22299
842.385	22139
842.522	22455
842.659	22363
842.796	22268
842.933	22196
843.069	22154
843.206	22147
843.343	22181
843.479	22215
843.616	22070
843.752	22002
843.889	21934
844.025	22207
844.162	22044
844.298	22059
844.435	21975
844.571	21930
844.708	22219
844.844	22162
844.98	22135
845.117	22120
845.253	21953
845.389	21880
845.525	21888
845.661	21884
845.798	21705
845.934	21762
846.07	21561
846.206	21743
846.342	21827
846.478	21637
846.614	21576
846.75	21447
846.886	21656
847.022	21458
847.158	21473
847.294	21663
847.429	21515
847.565	21405
847.701	21610
847.837	21207
847.972	21142
848.108	21283
848.244	21237
848.379	21119
848.515	21165
848.65	21020
848.786	20948
848.921	21039
849.057	21127
849.192	21093
849.328	21119
849.463	21108
849.598	21055
849.734	20941
849.869	20838
850.004	20853
850.14	20861
850.275	20891
850.41	20781
850.545	20868
850.68	20739
850.815	20781
850.95	20857
851.085	20937
851.22	20880
851.355	20902
851.49	20914
851.625	20727
851.76	20735
851.895	20762
852.03	20648
852.165	21005
852.299	20838
852.434	20948
852.569	20891
852.703	20842
852.838	20872
852.973	20937
853.107	21020
853.242	20724
853.376	20800
853.511	20549
853.645	20541
853.78	20746
853.914	20735
854.048	20617
854.183	20667
854.317	20617
854.451	20785
854.585	20655
854.72	20682
854.854	20724
854.988	20674
855.122	20590
855.256	20492
855.39	20701
855.524	20785
855.658	20693
855.792	20518
855.926	20697
856.06	20762
856.194	20769
856.327	20587
856.461	20731
856.595	20640
856.729	20632
856.862	20807
856.996	20621
857.13	20743
857.263	20746
857.397	20750
857.53	20686
857.664	20667
857.797	20621
857.931	20716
858.064	20659
858.197	20758
858.331	20758
858.464	20594
858.597	20530
858.731	20541
858.864	20617
858.997	20552
859.13	20705
859.263	20727
859.396	20781
859.529	20640
859.662	20712
859.795	20621
859.928	20670
860.061	20754
860.194	20864
860.327	20762
860.46	20674
860.592	20792
860.725	20826
860.858	20773
860.99	20693
861.123	20609
861.256	20549
861.388	20644
861.521	21161
861.653	20499
861.786	20480
861.918	20499
862.05	20568
862.183	20537
862.315	20549
862.447	20701
862.58	20602
862.712	20412
862.844	20252
862.976	20423
863.108	20385
863.24	20693
863.372	20423
863.504	20305
863.636	20366
863.768	20347
863.9	20286
864.032	20202
864.164	20377
864.296	20484
864.428	20473
864.559	20450
864.691	20332
864.823	20434
864.954	20370
865.086	20351
865.217	20290
865.349	20187
865.48	20149
865.612	20298
865.743	20336
865.875	20339
866.006	20244
866.137	20271
866.269	20183
866.4	20263
866.531	20157
866.662	20301
866.793	20195
866.924	20187
867.055	20237
867.186	20309
867.317	20122
867.448	20046
867.579	20210
867.71	20145
867.841	20096
867.972	20096
868.103	20077
868.233	20206
868.364	20259
868.495	20259
868.625	20461
868.756	20488
868.886	20423
869.017	20488
869.147	20670
869.278	20568
869.408	20438
869.539	20488
869.669	20583
869.799	20480
869.929	20613
870.06	20552
870.19	20826
870.32	20693
870.45	20758
870.58	20902
870.71	20826
870.84	20971
870.97	20887
871.1	20864
871.23	21036
871.36	21108
871.489	20918
871.619	21058
871.749	21077
871.879	21036
872.008	21123
872.138	21085
872.267	21020
872.397	20914
872.526	20868
872.656	20899
872.785	20982
872.915	20971
873.044	21180
873.173	21081
873.303	21108
873.432	21093
873.561	21108
873.69	21058
873.819	21192
873.948	21135
874.077	21039
874.206	21222
874.335	21108
874.464	21165
874.593	21294
874.722	21256
874.851	21469
874.979	21329
875.108	21420
875.237	21245
875.365	21249
875.494	21249
875.623	21359
875.751	21222
875.88	21321
876.008	21473
876.136	21526
876.265	21686
876.393	21823
876.521	21766
876.65	21816
876.778	21663
876.906	21564
877.034	21618
877.162	21717
877.29	21610
877.418	21633
877.546	21747
877.674	21648
877.802	21778
877.93	21652
878.058	21686
878.185	21599
878.313	21606
878.441	21641
878.568	21511
878.696	21622
878.824	21679
878.951	21701
879.079	21945
879.206	21979
879.333	21713
879.461	21743
879.588	21778
879.715	21762
879.842	21888
879.97	21736
880.097	21439
880.224	21496
880.351	21481
880.478	21504
880.605	21454
880.732	21523
880.859	21762
880.986	21542
881.112	21625
881.239	21325
881.366	21165
881.493	21081
881.619	21089
881.746	21165
881.872	21062
881.999	21074
882.125	21051
882.252	21070
882.378	20960
882.505	21058
882.631	20990
882.757	20792
882.883	20845
883.01	20804
883.136	20682
883.262	20598
883.388	20651
883.514	20735
883.64	20785
883.766	20727
883.892	20526
884.018	20537
884.143	20674
884.269	20834
884.395	20659
884.52	20427
884.646	20400
884.772	20404
884.897	20259
885.023	20385
885.148	20492
885.274	20518
885.399	20434
885.524	20412
885.65	20393
885.775	20507
885.9	20290
886.025	20590
886.15	20446
886.275	20533
886.4	20336
886.525	20480
886.65	20408
886.775	20282
886.9	20507
887.025	20693
887.149	20412
887.274	20218
887.399	20164
887.523	20290
887.648	20126
887.773	20168
887.897	20298
888.021	20263
888.146	20122
888.27	20263
888.395	20199
888.519	20237
888.643	20161
888.767	20332
888.891	20111
889.015	20126
889.139	20103
889.263	19875
889.387	20096
889.511	20176
889.635	20062
889.759	20027
889.883	19951
890.006	19951
890.13	20043
890.254	20039
890.377	19864
890.501	19784
890.624	19750
890.748	19772
890.871	19658
890.995	19605
891.118	19537
891.241	19571
891.364	19635
891.488	19772
891.611	19533
891.734	19567
891.857	19761
891.98	19609
892.103	19674
892.226	19575
892.349	19582
892.471	19381
892.594	19491
892.717	19651
892.839	19540
892.962	19578
893.085	19578
893.207	19422
893.33	19449
893.452	19460
893.575	19586
893.697	19415
893.819	19674
893.941	19677
894.064	19643
894.186	19480
894.308	19411
894.43	19620
894.552	19666
894.674	19738
894.796	19464
894.918	19594
895.04	19537
895.161	19628
895.283	19605
895.405	19449
895.526	19521
895.648	19578
895.769	19491
895.891	19571
896.012	19693
896.134	19677
896.255	19529
896.376	19403
896.498	19476
896.619	19556
896.74	19453
896.861	19609
896.982	19822
897.103	19940
897.224	19852
897.345	19734
897.466	19658
897.587	19666
897.708	19814
897.828	19788
897.949	19712
898.07	19544
898.19	19635
898.311	19856
898.431	19670
898.552	19811
898.672	19769
898.792	19871
898.913	19734
899.033	19597
899.153	19495
899.273	19472
899.393	19487
899.513	19544
899.633	19449
899.753	19575
899.873	19388
899.993	19441
900.113	19415
900.232	19362
900.352	19301
900.472	19278
900.591	19266
900.711	19308
900.83	19217
900.95	19350
901.069	19483
901.189	19206
901.308	18985
901.427	18932
901.546	18939
901.665	19023
901.784	18856
901.904	18817
902.023	18620
902.141	18589
902.26	18372
902.379	18464
902.498	18426
902.617	18357
902.735	18388
902.854	18346
902.973	18266
903.091	18121
903.21	18038
903.328	17969
903.446	18125
903.565	18026
903.683	17824
903.801	17783
903.919	17927
904.038	17836
904.156	17577
904.274	17642
904.392	17710
904.51	17592
904.627	17623
904.745	17638
904.863	17680
904.981	17467
905.098	17345
905.216	17334
905.334	17440
905.451	17284
905.569	17299
905.686	17360
905.803	17353
905.921	17151
906.038	17162
906.155	17193
906.272	17052
906.389	17094
906.506	16934
906.623	16858
906.74	16877
906.857	16828
906.974	16778
907.091	16976
907.208	17006
907.324	16839
907.441	16820
907.557	16611
907.674	16653
907.79	16535
907.907	16672
908.023	16630
908.139	16683
908.256	16630
908.372	16481
908.488	16478
908.604	16367
908.72	16306
908.836	16348
908.952	16207
909.068	16337
909.184	16474
909.3	16287
909.415	16447
909.531	16352
909.647	16051
909.762	16128
909.878	16029
909.993	16021
910.108	16036
910.224	16082
910.339	15903
910.454	15926
910.57	15911
910.685	15785
910.8	16082
910.915	15994
911.03	15812
911.145	15686
911.259	15656
911.374	15686
911.489	15523
911.604	15523
911.718	15481
911.833	15473
911.947	15332
912.062	15302
912.176	15416
912.291	15431
912.405	15412
912.519	15663
912.633	15564
912.748	15397
912.862	15363
912.976	15207
913.09	15127
913.204	15161
913.318	15203
913.431	15252
913.545	15294
913.659	15287
913.772	15203
913.886	15066
914	14975
914.113	15066
914.226	15173
914.34	15131
914.453	14994
914.566	15020
914.68	14887
914.793	14914
914.906	14625
915.019	14571
915.132	14606
915.245	14651
915.358	14552
915.47	14648
915.583	14644
915.696	14716
915.809	14632
915.921	14811
916.034	14613
916.146	14507
916.259	14507
916.371	14678
916.483	14511
916.595	14484
916.708	14518
916.82	14480
916.932	14503
917.044	14484
917.156	14412
917.268	14305
917.38	14377
917.491	14221
917.603	14366
917.715	14313
917.826	14419
917.938	14320
918.049	14161
918.161	14244
918.272	14328
918.384	14347
918.495	14298
918.606	14016
918.717	14035
918.828	14199
918.939	14214
919.05	13947
919.161	14126
919.272	13830
919.383	13871
919.494	14164
919.604	14320
919.715	14123
919.826	13909
919.936	14142
920.047	14069
920.157	14084
920.267	14157
920.378	14077
920.488	14043
920.598	14214
920.708	14366
920.818	14031
920.928	14187
921.038	14324
921.148	14294
921.258	14081
921.368	13955
921.477	13837
921.587	13833
921.697	13757
921.806	13731
921.916	13727
922.025	13594
922.134	13445
922.244	13373
922.353	13460
922.462	13278
922.571	13259
922.68	13114
922.789	13065
922.898	13099
923.007	13027
923.116	13107
923.224	13156
923.333	13042
923.442	12958
923.55	12947
923.659	12943
923.767	13004
923.876	12932
923.984	13012
924.092	12802
924.201	12859
924.309	12848
924.417	12814
924.525	12779
924.633	12791
924.741	13681
924.849	12536
924.956	12642
925.064	12620
925.172	12521
925.279	12528
925.387	12563
925.494	12479
925.602	12604
925.709	12601
925.816	12494
925.924	12445
926.031	12642
926.138	12479
926.245	12494
926.352	12361
926.459	12506
926.566	12593
926.673	12448
926.779	12292
926.886	12300
926.993	12133
927.099	12155
927.206	12121
927.312	12144
927.419	12133
927.525	12079
927.631	12060
927.737	11999
927.843	11950
927.95	11832
928.056	11821
928.162	11999
928.267	11935
928.373	12559
928.479	12049
928.585	11828
928.69	11908
928.796	11965
928.901	11908
929.007	11661
929.112	11779
929.218	11707
929.323	11718
929.428	11672
929.533	11714
929.638	11668
929.743	11710
929.848	11634
929.953	11619
930.058	11532
930.163	11387
930.267	11406
930.372	11406
930.477	11318
930.581	11535
930.685	11452
930.79	11250
930.894	11326
930.998	11265
931.103	11284
931.207	11052
931.311	10934
931.415	10911
931.519	10645
931.623	10664
