Data from test_V78500241_601.txt Node
Date: Fri Mar 25 15:14:02 CST 2022
User: usil
Spectrometer: V785-0024
Trigger mode: 0
Integration Time (sec): 4.000000E-1
Scans to average: 1
Nonlinearity correction enabled: false
Boxcar width: 0
Storing dark spectrum: false
XAxis mode: Wavelengths
Number of Pixels in Spectrum: 1024
>>>>>Begin Spectral Data<<<<<
801.071	27458
801.214	27408
801.356	27100
801.499	27237
801.641	26982
801.783	26994
801.926	27089
802.068	27005
802.211	26933
802.353	26781
802.496	26686
802.638	26686
802.78	26777
802.923	26701
803.065	26495
803.208	26579
803.35	26636
803.492	26777
803.635	26682
803.777	26655
803.919	26845
804.061	26933
804.204	26739
804.346	26644
804.488	26823
804.63	26785
804.773	26758
804.915	26758
805.057	26754
805.199	26655
805.341	26819
805.483	26834
805.626	26792
805.768	26648
805.91	26777
806.052	26880
806.194	26750
806.336	27150
806.478	26986
806.62	27024
806.762	26910
806.904	27108
807.046	27386
807.188	27233
807.33	27397
807.472	27211
807.614	27226
807.756	27203
807.898	27173
808.04	27116
808.182	27230
808.324	27135
808.465	27112
808.607	27344
808.749	27519
808.891	27462
809.033	27679
809.174	27538
809.316	27557
809.458	27469
809.6	27526
809.741	27545
809.883	27580
810.025	27827
810.166	27823
810.308	27846
810.45	27774
810.591	27603
810.733	27564
810.875	27443
811.016	27272
811.158	27458
811.299	27625
811.441	27542
811.582	27500
811.724	27519
811.865	27382
812.007	27382
812.148	27256
812.29	27454
812.431	27686
812.573	27778
812.714	27930
812.855	28017
812.997	28135
813.138	28219
813.279	28181
813.421	28025
813.562	28086
813.703	27914
813.845	27622
813.986	27481
814.127	27222
814.268	27336
814.41	27332
814.551	27020
814.692	27260
814.833	27154
814.974	27100
815.115	27142
815.256	27081
815.397	27100
815.539	27184
815.68	27112
815.821	26933
815.962	26971
816.103	26914
816.244	26845
816.385	26838
816.526	26590
816.666	26564
816.807	26473
816.948	26625
817.089	26724
817.23	26560
817.371	26461
817.512	26438
817.653	26518
817.793	26286
817.934	26332
818.075	26423
818.216	26461
818.356	26396
818.497	26336
818.638	26153
818.778	26286
818.919	26313
819.06	26237
819.2	26294
819.341	26480
819.481	26484
819.622	26571
819.762	26792
819.903	26762
820.043	26758
820.184	26560
820.324	26678
820.465	26705
820.605	26575
820.746	26670
820.886	26568
821.026	26530
821.167	26636
821.307	26613
821.447	26473
821.588	26290
821.728	26305
821.868	26058
822.008	25993
822.149	26008
822.289	25833
822.429	25719
822.569	25609
822.709	25521
822.849	25453
822.99	25396
823.13	25396
823.27	25449
823.41	25324
823.55	25156
823.69	25331
823.83	25285
823.97	25225
824.11	25084
824.25	25145
824.389	25103
824.529	25118
824.669	25202
824.809	25122
824.949	25206
825.089	25179
825.228	25194
825.368	24901
825.508	24932
825.648	25053
825.787	25065
825.927	24985
826.067	24981
826.206	25015
826.346	24985
826.485	24981
826.625	24958
826.765	25004
826.904	25118
827.044	24730
827.183	24677
827.323	24608
827.462	24730
827.601	24570
827.741	24677
827.88	24703
828.02	24540
828.159	24665
828.298	24749
828.437	24654
828.577	24532
828.716	24806
828.855	24521
828.994	24369
829.134	24475
829.273	24505
829.412	24418
829.551	24308
829.69	24391
829.829	24384
829.968	24483
830.107	24494
830.246	24418
830.385	24266
830.524	24330
830.663	24091
830.802	24121
830.941	23882
831.08	24034
831.219	24060
831.357	24083
831.496	24224
831.635	24064
831.774	23836
831.913	23889
832.051	23771
832.19	23866
832.329	23726
832.467	23741
832.606	23535
832.744	23657
832.883	23623
833.022	23600
833.16	23684
833.299	23718
833.437	23680
833.576	23832
833.714	23843
833.852	23695
833.991	23821
834.129	23824
834.267	23813
834.406	23832
834.544	23790
834.682	23786
834.821	23623
834.959	23855
835.097	23539
835.235	23866
835.373	23611
835.511	23813
835.65	23493
835.788	23566
835.926	23539
836.064	23463
836.202	23478
836.34	23547
836.478	23623
836.615	23630
836.753	23634
836.891	23695
837.029	23604
837.167	23406
837.305	23459
837.443	23478
837.58	23429
837.718	23501
837.856	23467
837.993	23406
838.131	23410
838.269	23197
838.406	23231
838.544	23166
838.681	23079
838.819	22991
838.956	22885
839.094	22828
839.231	22976
839.369	23143
839.506	23254
839.643	23083
839.781	22915
839.918	22820
840.055	22991
840.193	22919
840.33	22854
840.467	22824
840.604	22816
840.742	23151
840.879	22645
841.016	22725
841.153	22752
841.29	22877
841.427	22809
841.564	22660
841.701	22850
841.838	22618
841.975	22721
842.112	22641
842.249	22645
842.385	22466
842.522	22698
842.659	22531
842.796	22588
842.933	22618
843.069	22580
843.206	22523
843.343	22607
843.479	22523
843.616	22546
843.752	22367
843.889	22497
844.025	22470
844.162	22291
844.298	22455
844.435	22268
844.571	22382
844.708	22402
844.844	22474
844.98	22440
845.117	22424
845.253	22363
845.389	22356
845.525	22440
845.661	22177
845.798	22029
845.934	22116
846.07	22162
846.206	22131
846.342	22185
846.478	22048
846.614	22021
846.75	21892
846.886	21945
847.022	21960
847.158	21850
847.294	21991
847.429	21854
847.565	21785
847.701	21911
847.837	21614
847.972	21545
848.108	21614
848.244	21568
848.379	21363
848.515	21386
848.65	21370
848.786	21351
848.921	21466
849.057	21488
849.192	21485
849.328	21469
849.463	21515
849.598	21424
849.734	21359
849.869	21230
850.004	21154
850.14	21313
850.275	21173
850.41	21154
850.545	21146
850.68	21180
850.815	21154
850.95	21237
851.085	21283
851.22	21310
851.355	21100
851.49	21127
851.625	21047
851.76	21157
851.895	21036
852.03	21199
852.165	21085
852.299	21180
852.434	21233
852.569	21226
852.703	21230
852.838	21272
852.973	21306
853.107	21321
853.242	21047
853.376	21074
853.511	20857
853.645	20868
853.78	21154
853.914	21108
854.048	21005
854.183	21039
854.317	20918
854.451	21127
854.585	21058
854.72	20963
854.854	21028
854.988	20902
855.122	20941
855.256	20845
855.39	21036
855.524	21138
855.658	21135
855.792	21074
855.926	21032
856.06	21020
856.194	20975
856.327	20891
856.461	20902
856.595	20982
856.729	20963
856.862	21154
856.996	20994
857.13	21100
857.263	21001
857.397	21192
857.53	21017
857.664	21036
857.797	21043
857.931	21104
858.064	21032
858.197	21043
858.331	21047
858.464	20937
858.597	20883
858.731	21051
858.864	21017
858.997	21017
859.13	20990
859.263	21028
859.396	21058
859.529	20979
859.662	21005
859.795	20876
859.928	21024
860.061	21138
860.194	21241
860.327	21100
860.46	20910
860.592	21100
860.725	21142
860.858	21157
860.99	21005
861.123	20929
861.256	20948
861.388	20998
861.521	21793
861.653	20899
861.786	20739
861.918	20735
862.05	20864
862.183	20948
862.315	20941
862.447	20982
862.58	20868
862.712	20785
862.844	20708
862.976	20819
863.108	20720
863.24	21180
863.372	20621
863.504	20743
863.636	20773
863.768	20807
863.9	20781
864.032	20625
864.164	20781
864.296	20739
864.428	20864
864.559	20788
864.691	20800
864.823	20735
864.954	20697
865.086	20697
865.217	20530
865.349	20583
865.48	20499
865.612	20579
865.743	20655
865.875	20686
866.006	20480
866.137	20655
866.269	20716
866.4	20556
866.531	20537
866.662	20556
866.793	20488
866.924	20499
867.055	20503
867.186	20545
867.317	20530
867.448	20476
867.579	20499
867.71	20438
867.841	20446
867.972	20594
868.103	20526
868.233	20530
868.364	20644
868.495	20689
868.625	20842
868.756	20952
868.886	20762
869.017	20811
869.147	20956
869.278	20830
869.408	20872
869.539	20777
869.669	20941
869.799	20853
869.929	20929
870.06	20937
870.19	21138
870.32	21161
870.45	21085
870.58	21176
870.71	21340
870.84	21272
870.97	21169
871.1	21237
871.23	21294
871.36	21428
871.489	21283
871.619	21348
871.749	21310
871.879	21374
872.008	21492
872.138	21408
872.267	21393
872.397	21230
872.526	21104
872.656	21222
872.785	21195
872.915	21359
873.044	21462
873.173	21344
873.303	21382
873.432	21443
873.561	21519
873.69	21424
873.819	21443
873.948	21450
874.077	21340
874.206	21408
874.335	21408
874.464	21450
874.593	21622
874.722	21572
874.851	21671
874.979	21709
875.108	21660
875.237	21633
875.365	21511
875.494	21580
875.623	21641
875.751	21633
875.88	21656
876.008	21663
876.136	21808
876.265	22048
876.393	22166
876.521	21964
876.65	22158
876.778	22036
876.906	22010
877.034	21895
877.162	22032
877.29	21937
877.418	21903
877.546	22051
877.674	22097
877.802	21926
877.93	22010
878.058	22025
878.185	21873
878.313	21930
878.441	21907
878.568	21854
878.696	21972
878.824	21987
878.951	21968
879.079	22120
879.206	22272
879.333	22021
879.461	22021
879.588	22010
879.715	22272
879.842	22318
879.97	22090
880.097	21778
880.224	21819
880.351	21945
880.478	21888
880.605	21781
880.732	21656
880.859	22032
880.986	21956
881.112	21979
881.239	21739
881.366	21587
881.493	21530
881.619	21462
881.746	21416
881.872	21336
881.999	21397
882.125	21355
882.252	21397
882.378	21359
882.505	21431
882.631	21260
882.757	21157
882.883	21233
883.01	21169
883.136	21017
883.262	21036
883.388	20902
883.514	21074
883.64	21142
883.766	21039
883.892	20952
884.018	20990
884.143	21096
884.269	21150
884.395	20773
884.52	20724
884.646	20743
884.772	20689
884.897	20667
885.023	20746
885.148	20792
885.274	20956
885.399	20967
885.524	20746
885.65	20834
885.775	20807
885.9	20727
886.025	20925
886.15	20834
886.275	20777
886.4	20705
886.525	20651
886.65	20667
886.775	20655
886.9	20804
887.025	20887
887.149	20629
887.274	20613
887.399	20571
887.523	20522
887.648	20499
887.773	20393
887.897	20514
888.021	20537
888.146	20389
888.27	20564
888.395	20636
888.519	20552
888.643	20560
888.767	20625
888.891	20396
889.015	20275
889.139	20389
889.263	20355
889.387	20537
889.511	20442
889.635	20450
889.759	20244
889.883	20305
890.006	20332
890.13	20332
890.254	20214
890.377	20172
890.501	20096
890.624	20069
890.748	20134
890.871	19959
890.995	19868
891.118	19734
891.241	19852
891.364	20001
891.488	19986
891.611	19894
891.734	19875
891.857	19871
891.98	19807
892.103	19989
892.226	19921
892.349	19811
892.471	19693
892.594	19719
892.717	19898
892.839	19849
892.962	19883
893.085	19913
893.207	19807
893.33	19693
893.452	19685
893.575	19788
893.697	19894
893.819	20020
893.941	19974
894.064	19913
894.186	19734
894.308	19696
894.43	19860
894.552	19982
894.674	19772
894.796	19742
894.918	19746
895.04	19712
895.161	19852
895.283	19830
895.405	19715
895.526	19765
895.648	19818
895.769	19799
895.891	19860
896.012	19959
896.134	19761
896.255	19772
896.376	19788
896.498	19784
896.619	19845
896.74	19837
896.861	19746
896.982	20115
897.103	20320
897.224	20062
897.345	20020
897.466	19887
897.587	19951
897.708	20119
897.828	20016
897.949	20043
898.07	19803
898.19	19978
898.311	20081
898.431	19921
898.552	19982
898.672	20096
898.792	20039
898.913	19989
899.033	19906
899.153	19852
899.273	19635
899.393	19814
899.513	19795
899.633	19864
899.753	19769
899.873	19712
899.993	19894
900.113	19677
900.232	19807
900.352	19738
900.472	19628
900.591	19571
900.711	19525
900.83	19445
900.95	19681
901.069	19624
901.189	19533
901.308	19240
901.427	19156
901.546	19091
901.665	19099
901.784	19213
901.904	19099
902.023	18947
902.141	18726
902.26	18734
902.379	18703
902.498	18688
902.617	18654
902.735	18722
902.854	18650
902.973	18665
903.091	18334
903.21	18319
903.328	18350
903.446	18243
903.565	18174
903.683	18178
903.801	17980
903.919	18095
904.038	17999
904.156	17996
904.274	17992
904.392	17912
904.51	17840
904.627	17939
904.745	18007
904.863	18057
904.981	17756
905.098	17634
905.216	17604
905.334	17623
905.451	17604
905.569	17585
905.686	17623
905.803	17619
905.921	17391
906.038	17501
906.155	17429
906.272	17303
906.389	17307
906.506	17090
906.623	17185
906.74	17128
906.857	17071
906.974	17006
907.091	17185
907.208	17227
907.324	17025
907.441	17037
907.557	16938
907.674	16774
907.79	16771
907.907	16812
908.023	16915
908.139	16877
908.256	16713
908.372	16774
908.488	16755
908.604	16565
908.72	16531
908.836	16599
908.952	16485
909.068	16626
909.184	16592
909.3	16527
909.415	16519
909.531	16573
909.647	16299
909.762	16291
909.878	16246
909.993	16230
910.108	16253
910.224	16287
910.339	16272
910.454	16253
910.57	16109
910.685	16074
910.8	16265
910.915	16223
911.03	16010
911.145	15857
911.259	15907
911.374	15781
911.489	15835
911.604	15660
911.718	15648
911.833	15606
911.947	15542
912.062	15507
912.176	15663
912.291	15606
912.405	15580
912.519	15755
912.633	15861
912.748	15633
912.862	15667
912.976	15481
913.09	15344
913.204	15412
913.318	15481
913.431	15462
913.545	15500
913.659	15523
913.772	15401
913.886	15378
914	15169
914.113	15378
914.226	15306
914.34	15306
914.453	15093
914.566	15374
914.68	15169
914.793	15108
914.906	14929
915.019	14883
915.132	14823
915.245	14895
915.358	14880
915.47	14800
915.583	14944
915.696	14883
915.809	15043
915.921	14990
916.034	14773
916.146	14807
916.259	14765
916.371	14853
916.483	14792
916.595	14674
916.708	14731
916.82	14743
916.932	14648
917.044	14571
917.156	14648
917.268	14583
917.38	14533
917.491	14526
917.603	14579
917.715	14636
917.826	14655
917.938	14499
918.049	14343
918.161	14511
918.272	14549
918.384	14526
918.495	14412
918.606	14324
918.717	14214
918.828	14290
918.939	14336
919.05	14187
919.161	14263
919.272	14195
919.383	14157
919.494	14294
919.604	14465
919.715	14237
919.826	14107
919.936	14237
920.047	14362
920.157	14256
920.267	14465
920.378	14256
920.488	14256
920.598	14339
920.708	14503
920.818	14366
920.928	14355
921.038	14590
921.148	14438
921.258	14168
921.368	14081
921.477	13974
921.587	13978
921.697	14008
921.806	14027
921.916	13845
922.025	13708
922.134	13601
922.244	13548
922.353	13700
922.462	13480
922.571	13449
922.68	13381
922.789	13373
922.898	13369
923.007	13190
923.116	13285
923.224	13293
923.333	13194
923.442	13194
923.55	13145
923.659	13141
923.767	13198
923.876	13107
923.984	13061
924.092	12993
924.201	13095
924.309	13023
924.417	13034
924.525	12958
924.633	12993
924.741	13731
924.849	12753
924.956	12932
925.064	12749
925.172	12760
925.279	12696
925.387	12677
925.494	12772
925.602	12844
925.709	12741
925.816	12597
925.924	12696
926.031	12779
926.138	12692
926.245	12696
926.352	12563
926.459	12658
926.566	12700
926.673	12597
926.779	12502
926.886	12471
926.993	12323
927.099	12289
927.206	12247
927.312	12220
927.419	12319
927.525	12243
927.631	12338
927.737	12159
927.843	12106
927.95	12049
928.056	12110
928.162	12144
928.267	12178
928.373	12821
928.479	12190
928.585	11980
928.69	12053
928.796	12114
928.901	12026
929.007	11882
929.112	11901
929.218	11958
929.323	11935
929.428	11851
929.533	11969
929.638	11707
929.743	11878
929.848	11889
929.953	11824
930.058	11703
930.163	11608
930.267	11493
930.372	11733
930.477	11497
930.581	11726
930.685	11623
930.79	11482
930.894	11535
930.998	11376
931.103	11539
931.207	11174
931.311	11136
931.415	11083
931.519	10706
931.623	10866
