Data from test_V78500241_1531.txt Node
Date: Fri Mar 25 15:20:31 CST 2022
User: usil
Spectrometer: V785-0024
Trigger mode: 0
Integration Time (sec): 4.000000E-1
Scans to average: 1
Nonlinearity correction enabled: false
Boxcar width: 0
Storing dark spectrum: false
XAxis mode: Wavelengths
Number of Pixels in Spectrum: 1024
>>>>>Begin Spectral Data<<<<<
801.071	28090
801.214	28082
801.356	27774
801.499	27774
801.641	27648
801.783	27496
801.926	27808
802.068	27564
802.211	27488
802.353	27561
802.496	27279
802.638	27344
802.78	27157
802.923	27214
803.065	27222
803.208	27310
803.35	27283
803.492	27325
803.635	27462
803.777	27237
803.919	27439
804.061	27705
804.204	27542
804.346	27439
804.488	27363
804.63	27454
804.773	27382
804.915	27382
805.057	27542
805.199	27557
805.341	27561
805.483	27732
805.626	27557
805.768	27496
805.91	27603
806.052	27542
806.194	27561
806.336	27781
806.478	27557
806.62	27500
806.762	27717
806.904	27857
807.046	28040
807.188	27975
807.33	28067
807.472	28036
807.614	28070
807.756	27945
807.898	27888
808.04	27808
808.182	27842
808.324	27926
808.465	27934
808.607	28082
808.749	28348
808.891	28341
809.033	28295
809.174	28394
809.316	28150
809.458	28394
809.6	27937
809.741	28421
809.883	28223
810.025	28542
810.166	28561
810.308	28542
810.45	28557
810.591	28390
810.733	28360
810.875	28261
811.016	28093
811.158	28124
811.299	28268
811.441	28322
811.582	28310
811.724	28238
811.865	28257
812.007	28162
812.148	28215
812.29	28303
812.431	28413
812.573	28615
812.714	28752
812.855	28649
812.997	28843
813.138	28991
813.279	28873
813.421	28934
813.562	28881
813.703	28557
813.845	28512
813.986	28242
814.127	28112
814.268	27846
814.41	27975
814.551	27972
814.692	27934
814.833	27907
814.974	27854
815.115	28029
815.256	27857
815.397	27937
815.539	27812
815.68	27728
815.821	27698
815.962	27720
816.103	27667
816.244	27694
816.385	27614
816.526	27427
816.666	27389
816.807	27363
816.948	27458
817.089	27260
817.23	27058
817.371	27245
817.512	27218
817.653	27146
817.793	27237
817.934	27287
818.075	27332
818.216	27119
818.356	27096
818.497	27096
818.638	26994
818.778	26864
818.919	27058
819.06	27074
819.2	27017
819.341	27180
819.481	27195
819.622	27405
819.762	27682
819.903	27564
820.043	27405
820.184	27275
820.324	27287
820.465	27405
820.605	27424
820.746	27408
820.886	27192
821.026	27424
821.167	27192
821.307	27427
821.447	27252
821.588	27062
821.728	27036
821.868	26986
822.008	26758
822.149	26826
822.289	26731
822.429	26412
822.569	26396
822.709	26389
822.849	26248
822.99	26275
823.13	26282
823.27	26130
823.41	26005
823.55	25966
823.69	26024
823.83	25978
823.97	25913
824.11	25841
824.25	25807
824.389	25902
824.529	25928
824.669	25822
824.809	26092
824.949	26001
825.089	25993
825.228	25856
825.368	25685
825.508	25753
825.648	25723
825.787	25757
825.927	25860
826.067	25811
826.206	25784
826.346	25776
826.485	25795
826.625	25826
826.765	25856
826.904	25643
827.044	25578
827.183	25521
827.323	25468
827.462	25476
827.601	25495
827.741	25510
827.88	25476
828.02	25453
828.159	25514
828.298	25559
828.437	25438
828.577	25384
828.716	25476
828.855	25316
828.994	25301
829.134	25168
829.273	25244
829.412	25107
829.551	25103
829.69	25053
829.829	25171
829.968	25263
830.107	25156
830.246	25145
830.385	25000
830.524	24996
830.663	25091
830.802	24856
830.941	24764
831.08	24821
831.219	24924
831.357	24802
831.496	25072
831.635	24646
831.774	24700
831.913	24612
832.051	24418
832.19	24559
832.329	24623
832.467	24441
832.606	24395
832.744	24418
832.883	24300
833.022	24311
833.16	24494
833.299	24456
833.437	24330
833.576	24513
833.714	24555
833.852	24536
833.991	24536
834.129	24639
834.267	24582
834.406	24601
834.544	24437
834.682	24509
834.821	24486
834.959	24517
835.097	24384
835.235	24574
835.373	24467
835.511	24505
835.65	24330
835.788	24289
835.926	24251
836.064	24163
836.202	24140
836.34	24311
836.478	24353
836.615	24144
836.753	24395
836.891	24346
837.029	24369
837.167	24323
837.305	24243
837.443	24117
837.58	24129
837.718	24239
837.856	24136
837.993	24220
838.131	24129
838.269	23904
838.406	24091
838.544	23980
838.681	23767
838.819	23733
838.956	23566
839.094	23615
839.231	23764
839.369	23935
839.506	23958
839.643	23855
839.781	23608
839.918	23573
840.055	23672
840.193	23471
840.33	23501
840.467	23558
840.604	23512
840.742	23859
840.879	23345
841.016	23531
841.153	23433
841.29	23676
841.427	23531
841.564	23566
841.701	23684
841.838	23414
841.975	23421
842.112	23261
842.249	23471
842.385	23334
842.522	23493
842.659	23307
842.796	23261
842.933	23288
843.069	23231
843.206	23246
843.343	23398
843.479	23265
843.616	23159
843.752	23010
843.889	23056
844.025	23159
844.162	23083
844.298	23200
844.435	22976
844.571	23079
844.708	23117
844.844	23200
844.98	23280
845.117	23140
845.253	23003
845.389	22968
845.525	23025
845.661	22885
845.798	22824
845.934	22797
846.07	22698
846.206	22759
846.342	22809
846.478	22694
846.614	22603
846.75	22485
846.886	22542
847.022	22637
847.158	22557
847.294	22470
847.429	22519
847.565	22451
847.701	22653
847.837	22299
847.972	22226
848.108	22215
848.244	22272
848.379	22139
848.515	22135
848.65	22109
848.786	22135
848.921	22135
849.057	22097
849.192	22166
849.328	22090
849.463	22147
849.598	22063
849.734	21854
849.869	21975
850.004	21869
850.14	21911
850.275	21827
850.41	21823
850.545	21800
850.68	21797
850.815	21873
850.95	21835
851.085	21960
851.22	21926
851.355	21956
851.49	21895
851.625	21865
851.76	21755
851.895	21842
852.03	21785
852.165	21812
852.299	21949
852.434	22032
852.569	21949
852.703	21854
852.838	21884
852.973	21975
853.107	22006
853.242	21739
853.376	21701
853.511	21561
853.645	21747
853.78	21819
853.914	21759
854.048	21633
854.183	21564
854.317	21561
854.451	21861
854.585	21690
854.72	21732
854.854	21660
854.988	21660
855.122	21648
855.256	21523
855.39	21644
855.524	21641
855.658	21770
855.792	21686
855.926	21743
856.06	21709
856.194	21778
856.327	21637
856.461	21587
856.595	21564
856.729	21633
856.862	21880
856.996	21705
857.13	21838
857.263	21720
857.397	21724
857.53	21618
857.664	21603
857.797	21709
857.931	21854
858.064	21698
858.197	21808
858.331	21603
858.464	21637
858.597	21439
858.731	21599
858.864	21549
858.997	21591
859.13	21652
859.263	21629
859.396	21819
859.529	21641
859.662	21633
859.795	21671
859.928	21553
860.061	21808
860.194	21804
860.327	21698
860.46	21717
860.592	21793
860.725	21857
860.858	21797
860.99	21690
861.123	21523
861.256	21690
861.388	21564
861.521	22424
861.653	21481
861.786	21450
861.918	21523
862.05	21447
862.183	21473
862.315	21580
862.447	21671
862.58	21660
862.712	21450
862.844	21370
862.976	21424
863.108	21382
863.24	21743
863.372	21355
863.504	21367
863.636	21389
863.768	21351
863.9	21332
864.032	21294
864.164	21302
864.296	21317
864.428	21576
864.559	21420
864.691	21500
864.823	21439
864.954	21355
865.086	21321
865.217	21378
865.349	21329
865.48	21226
865.612	21313
865.743	21351
865.875	21306
866.006	21188
866.137	21291
866.269	21249
866.4	21256
866.531	21100
866.662	21142
866.793	21081
866.924	21245
867.055	21252
867.186	21218
867.317	21173
867.448	21203
867.579	21161
867.71	21123
867.841	21074
867.972	21283
868.103	21211
868.233	21066
868.364	21294
868.495	21252
868.625	21408
868.756	21515
868.886	21359
869.017	21401
869.147	21530
869.278	21568
869.408	21386
869.539	21329
869.669	21447
869.799	21393
869.929	21534
870.06	21564
870.19	21743
870.32	21686
870.45	21743
870.58	21724
870.71	21869
870.84	21937
870.97	21698
871.1	21755
871.23	21911
871.36	22017
871.489	21899
871.619	22013
871.749	22044
871.879	22017
872.008	22185
872.138	21994
872.267	21960
872.397	22032
872.526	21873
872.656	21762
872.785	21892
872.915	22017
873.044	22070
873.173	21975
873.303	22124
873.432	22086
873.561	22185
873.69	22044
873.819	22063
873.948	22154
874.077	22017
874.206	21941
874.335	22063
874.464	22143
874.593	22306
874.722	22101
874.851	22314
874.979	22333
875.108	22287
875.237	22181
875.365	22162
875.494	22325
875.623	22265
875.751	22287
875.88	22295
876.008	22329
876.136	22428
876.265	22577
876.393	22664
876.521	22622
876.65	22634
876.778	22683
876.906	22584
877.034	22500
877.162	22622
877.29	22413
877.418	22565
877.546	22717
877.674	22634
877.802	22615
877.93	22603
878.058	22527
878.185	22481
878.313	22580
878.441	22432
878.568	22424
878.696	22413
878.824	22675
878.951	22596
879.079	22793
879.206	22839
879.333	22744
879.461	22607
879.588	22771
879.715	22679
879.842	22805
879.97	22702
880.097	22436
880.224	22485
880.351	22375
880.478	22379
880.605	22386
880.732	22455
880.859	22706
880.986	22405
881.112	22409
881.239	22382
881.366	22253
881.493	22135
881.619	22086
881.746	22036
881.872	22097
881.999	21915
882.125	21739
882.252	21983
882.378	21895
882.505	22067
882.631	21835
882.757	21755
882.883	21736
883.01	21686
883.136	21576
883.262	21523
883.388	21580
883.514	21766
883.64	21778
883.766	21572
883.892	21374
884.018	21412
884.143	21728
884.269	21633
884.395	21336
884.52	21298
884.646	21363
884.772	21321
884.897	21199
885.023	21317
885.148	21336
885.274	21606
885.399	21386
885.524	21389
885.65	21344
885.775	21340
885.9	21275
886.025	21435
886.15	21283
886.275	21264
886.4	21321
886.525	21230
886.65	21157
886.775	21252
886.9	21336
887.025	21488
887.149	21226
887.274	21108
887.399	21142
887.523	21032
887.648	20960
887.773	21024
887.897	21127
888.021	21165
888.146	21047
888.27	21176
888.395	21180
888.519	21142
888.643	21051
888.767	21077
888.891	20975
889.015	20986
889.139	20979
889.263	20967
889.387	21024
889.511	21207
889.635	21051
889.759	20891
889.883	20792
890.006	21017
890.13	20971
890.254	20861
890.377	20834
890.501	20708
890.624	20514
890.748	20659
890.871	20621
890.995	20377
891.118	20400
891.241	20541
891.364	20423
891.488	20644
891.611	20492
891.734	20461
891.857	20541
891.98	20469
892.103	20374
892.226	20423
892.349	20370
892.471	20214
892.594	20290
892.717	20431
892.839	20336
892.962	20362
893.085	20526
893.207	20351
893.33	20259
893.452	20282
893.575	20313
893.697	20233
893.819	20526
893.941	20530
894.064	20381
894.186	20275
894.308	20278
894.43	20404
894.552	20446
894.674	20488
894.796	20267
894.918	20221
895.04	20206
895.161	20488
895.283	20339
895.405	20366
895.526	20374
895.648	20385
895.769	20419
895.891	20339
896.012	20499
896.134	20492
896.255	20324
896.376	20393
896.498	20393
896.619	20389
896.74	20412
896.861	20355
896.982	20708
897.103	20807
897.224	20594
897.345	20674
897.466	20514
897.587	20587
897.708	20670
897.828	20560
897.949	20522
898.07	20495
898.19	20431
898.311	20606
898.431	20511
898.552	20507
898.672	20663
898.792	20590
898.913	20575
899.033	20469
899.153	20377
899.273	20275
899.393	20347
899.513	20210
899.633	20347
899.753	20393
899.873	20191
899.993	20229
900.113	20202
900.232	20336
900.352	20161
900.472	20088
900.591	20081
900.711	20134
900.83	20050
900.95	20111
901.069	20176
901.189	19879
901.308	19655
901.427	19738
901.546	19753
901.665	19643
901.784	19734
901.904	19590
902.023	19460
902.141	19213
902.26	19324
902.379	19240
902.498	19206
902.617	19141
902.735	19217
902.854	19053
902.973	19145
903.091	18783
903.21	18924
903.328	18947
903.446	18848
903.565	18604
903.683	18612
903.801	18551
903.919	18566
904.038	18597
904.156	18479
904.274	18502
904.392	18365
904.51	18395
904.627	18338
904.745	18384
904.863	18429
904.981	18155
905.098	17912
905.216	18190
905.334	18060
905.451	18034
905.569	18079
905.686	18098
905.803	18106
905.921	17828
906.038	17958
906.155	17863
906.272	17764
906.389	17733
906.506	17661
906.623	17642
906.74	17509
906.857	17406
906.974	17474
907.091	17680
907.208	17611
907.324	17687
907.441	17573
907.557	17349
907.674	17254
907.79	17277
907.907	17258
908.023	17292
908.139	17315
908.256	17246
908.372	17117
908.488	17178
908.604	17086
908.72	16957
908.836	17056
908.952	16995
909.068	17048
909.184	17109
909.3	16961
909.415	17094
909.531	17041
909.647	16790
909.762	16755
909.878	16672
909.993	16672
910.108	16721
910.224	16683
910.339	16748
910.454	16649
910.57	16580
910.685	16386
910.8	16672
910.915	16706
911.03	16455
911.145	16284
911.259	16318
911.374	16265
911.489	16219
911.604	16272
911.718	16086
911.833	16166
911.947	15956
912.062	15846
912.176	15994
912.291	16002
912.405	15968
912.519	16257
912.633	16112
912.748	16044
912.862	16177
912.976	15945
913.09	15766
913.204	15888
913.318	15861
913.431	16013
913.545	15968
913.659	15888
913.772	15869
913.886	15667
914	15732
914.113	15755
914.226	15800
914.34	15701
914.453	15534
914.566	15800
914.68	15648
914.793	15595
914.906	15389
915.019	15272
915.132	15245
915.245	15275
915.358	15294
915.47	15355
915.583	15230
915.696	15302
915.809	15351
915.921	15382
916.034	15207
916.146	15184
916.259	15173
916.371	15218
916.483	15218
916.595	15116
916.708	15169
916.82	15127
916.932	15062
917.044	15081
917.156	14937
917.268	15055
917.38	14990
917.491	15020
917.603	14876
917.715	14944
917.826	15028
917.938	14804
918.049	14750
918.161	14842
918.272	15055
918.384	14952
918.495	14819
918.606	14712
918.717	14686
918.828	14705
918.939	14750
919.05	14625
919.161	14693
919.272	14476
919.383	14587
919.494	14632
919.604	14811
919.715	14674
919.826	14686
919.936	14613
920.047	14655
920.157	14708
920.267	14826
920.378	14663
920.488	14632
920.598	14727
920.708	14868
920.818	14762
920.928	14697
921.038	14864
921.148	14762
921.258	14511
921.368	14602
921.477	14415
921.587	14412
921.697	14294
921.806	14309
921.916	14248
922.025	13989
922.134	13944
922.244	14005
922.353	14107
922.462	13799
922.571	13803
922.68	13643
922.789	13658
922.898	13727
923.007	13616
923.116	13681
923.224	13559
923.333	13586
923.442	13544
923.55	13480
923.659	13521
923.767	13438
923.876	13434
923.984	13480
924.092	13251
924.201	13460
924.309	13365
924.417	13403
924.525	13278
924.633	13358
924.741	13986
924.849	13183
924.956	13225
925.064	13160
925.172	13019
925.279	13076
925.387	13046
925.494	13103
925.602	13244
925.709	13031
925.816	13004
925.924	13072
926.031	13042
926.138	13004
926.245	12977
926.352	12905
926.459	12966
926.566	13019
926.673	12867
926.779	12776
926.886	12787
926.993	12623
927.099	12753
927.206	12601
927.312	12544
927.419	12688
927.525	12589
927.631	12616
927.737	12517
927.843	12426
927.95	12448
928.056	12517
928.162	12422
928.267	12502
928.373	13099
928.479	12551
928.585	12277
928.69	12372
928.796	12365
928.901	12315
929.007	12144
929.112	12285
929.218	12209
929.323	12197
929.428	12182
929.533	12266
929.638	12136
929.743	12133
929.848	12201
929.953	12155
930.058	11980
930.163	11836
930.267	11923
930.372	11958
930.477	11790
930.581	12041
930.685	11942
930.79	11843
930.894	11767
930.998	11672
931.103	11851
931.207	11425
931.311	11364
931.415	11265
931.519	11136
931.623	11178
