Data from test_V78500241_979.txt Node
Date: Fri Mar 25 15:16:40 CST 2022
User: usil
Spectrometer: V785-0024
Trigger mode: 0
Integration Time (sec): 4.000000E-1
Scans to average: 1
Nonlinearity correction enabled: false
Boxcar width: 0
Storing dark spectrum: false
XAxis mode: Wavelengths
Number of Pixels in Spectrum: 1024
>>>>>Begin Spectral Data<<<<<
801.071	28306
801.214	28306
801.356	27880
801.499	28101
801.641	27804
801.783	27838
801.926	27930
802.068	27949
802.211	27819
802.353	27663
802.496	27439
802.638	27275
802.78	27485
802.923	27526
803.065	27325
803.208	27481
803.35	27389
803.492	27644
803.635	27667
803.777	27500
803.919	27720
804.061	27979
804.204	27694
804.346	27652
804.488	27774
804.63	27618
804.773	27743
804.915	27694
805.057	27922
805.199	27701
805.341	27953
805.483	27934
805.626	27899
805.768	27637
805.91	27800
806.052	27880
806.194	27812
806.336	28192
806.478	28013
806.62	27987
806.762	28051
806.904	28230
807.046	28459
807.188	28246
807.33	28128
807.472	28188
807.614	28200
807.756	28242
807.898	28093
808.04	28063
808.182	28169
808.324	28048
808.465	28147
808.607	28417
808.749	28527
808.891	28565
809.033	28603
809.174	28546
809.316	28493
809.458	28550
809.6	28493
809.741	28725
809.883	28744
810.025	28866
810.166	28858
810.308	28858
810.45	28755
810.591	28793
810.733	28527
810.875	28550
811.016	28421
811.158	28538
811.299	28516
811.441	28717
811.582	28706
811.724	28470
811.865	28409
812.007	28481
812.148	28398
812.29	28516
812.431	28740
812.573	28949
812.714	28877
812.855	28991
812.997	29075
813.138	29284
813.279	29216
813.421	29140
813.562	29102
813.703	28888
813.845	28816
813.986	28451
814.127	28272
814.268	28329
814.41	28226
814.551	28318
814.692	28310
814.833	28173
814.974	28223
815.115	28154
815.256	28177
815.397	28067
815.539	28101
815.68	28044
815.821	28021
815.962	27987
816.103	28029
816.244	27991
816.385	27914
816.526	27793
816.666	27580
816.807	27561
816.948	27625
817.089	27660
817.23	27485
817.371	27675
817.512	27568
817.653	27488
817.793	27386
817.934	27603
818.075	27507
818.216	27500
818.356	27591
818.497	27332
818.638	27199
818.778	27367
818.919	27344
819.06	27344
819.2	27450
819.341	27618
819.481	27515
819.622	27679
819.762	27918
819.903	27823
820.043	27686
820.184	27644
820.324	27686
820.465	27675
820.605	27728
820.746	27614
820.886	27530
821.026	27755
821.167	27595
821.307	27603
821.447	27542
821.588	27553
821.728	27298
821.868	27138
822.008	27081
822.149	27032
822.289	27017
822.429	26807
822.569	26720
822.709	26731
822.849	26568
822.99	26594
823.13	26526
823.27	26400
823.41	26412
823.55	26278
823.69	26385
823.83	26461
823.97	26305
824.11	26206
824.25	26062
824.389	26347
824.529	26358
824.669	26351
824.809	26347
824.949	26374
825.089	26313
825.228	26221
825.368	25997
825.508	26081
825.648	26130
825.787	26035
825.927	26309
826.067	26065
826.206	26103
826.346	26191
826.485	26054
826.625	26065
826.765	26145
826.904	26180
827.044	25780
827.183	25841
827.323	25727
827.462	25776
827.601	25639
827.741	25837
827.88	25856
828.02	25677
828.159	25879
828.298	25837
828.437	25864
828.577	25689
828.716	25772
828.855	25780
828.994	25377
829.134	25521
829.273	25540
829.412	25479
829.551	25422
829.69	25571
829.829	25434
829.968	25434
830.107	25616
830.246	25594
830.385	25362
830.524	25510
830.663	25324
830.802	25228
830.941	25118
831.08	24992
831.219	25259
831.357	25266
831.496	25259
831.635	25175
831.774	25118
831.913	25061
832.051	24939
832.19	24867
832.329	24947
832.467	24848
832.606	24783
832.744	24684
832.883	24802
833.022	24795
833.16	24840
833.299	24692
833.437	24745
833.576	24878
833.714	24894
833.852	24863
833.991	25053
834.129	24901
834.267	25072
834.406	24897
834.544	24909
834.682	24825
834.821	24989
834.959	24913
835.097	24863
835.235	24882
835.373	24837
835.511	24810
835.65	24730
835.788	24745
835.926	24654
836.064	24494
836.202	24498
836.34	24688
836.478	24768
836.615	24700
836.753	24703
836.891	24692
837.029	24757
837.167	24601
837.305	24616
837.443	24559
837.58	24513
837.718	24589
837.856	24555
837.993	24578
838.131	24486
838.269	24426
838.406	24399
838.544	24258
838.681	24106
838.819	24209
838.956	23920
839.094	24049
839.231	24114
839.369	24281
839.506	24311
839.643	24194
839.781	24068
839.918	23950
840.055	23916
840.193	23977
840.33	23718
840.467	23984
840.604	23901
840.742	24300
840.879	23775
841.016	23904
841.153	23790
841.29	23931
841.427	23885
841.564	23817
841.701	23942
841.838	23748
841.975	23802
842.112	23916
842.249	23722
842.385	23752
842.522	23920
842.659	23851
842.796	23619
842.933	23638
843.069	23638
843.206	23729
843.343	23638
843.479	23684
843.616	23771
843.752	23516
843.889	23535
844.025	23627
844.162	23463
844.298	23531
844.435	23493
844.571	23440
844.708	23414
844.844	23676
844.98	23703
845.117	23634
845.253	23334
845.389	23337
845.525	23334
845.661	23269
845.798	23151
845.934	23288
846.07	23105
846.206	23155
846.342	23254
846.478	23140
846.614	22976
846.75	22946
846.886	22908
847.022	22847
847.158	23033
847.294	22911
847.429	22961
847.565	22866
847.701	23094
847.837	22706
847.972	22596
848.108	22656
848.244	22691
848.379	22584
848.515	22504
848.65	22653
848.786	22577
848.921	22527
849.057	22653
849.192	22611
849.328	22615
849.463	22550
849.598	22573
849.734	22493
849.869	22481
850.004	22329
850.14	22325
850.275	22284
850.41	22261
850.545	22215
850.68	22280
850.815	22192
850.95	22421
851.085	22447
851.22	22379
851.355	22242
851.49	22318
851.625	22276
851.76	22333
851.895	22246
852.03	22272
852.165	22265
852.299	22356
852.434	22497
852.569	22314
852.703	22265
852.838	22272
852.973	22348
853.107	22348
853.242	22234
853.376	22211
853.511	21975
853.645	22010
853.78	22139
853.914	22234
854.048	22048
854.183	22128
854.317	22166
854.451	22291
854.585	22116
854.72	22105
854.854	22158
854.988	22021
855.122	22112
855.256	21899
855.39	22082
855.524	22242
855.658	22143
855.792	22192
855.926	22116
856.06	22109
856.194	22150
856.327	22006
856.461	22070
856.595	22097
856.729	22105
856.862	22276
856.996	22044
857.13	22192
857.263	22109
857.397	22207
857.53	22135
857.664	22093
857.797	22150
857.931	22109
858.064	22070
858.197	22230
858.331	22063
858.464	21991
858.597	22097
858.731	22120
858.864	22040
858.997	22048
859.13	22158
859.263	22093
859.396	22169
859.529	22086
859.662	21968
859.795	22070
859.928	22116
860.061	22238
860.194	22382
860.327	22188
860.46	22154
860.592	22333
860.725	22234
860.858	22242
860.99	22131
861.123	22029
861.256	22063
861.388	22032
861.521	22942
861.653	21846
861.786	21934
861.918	22074
862.05	21953
862.183	22010
862.315	21975
862.447	22135
862.58	22032
862.712	21762
862.844	21873
862.976	21968
863.108	21800
863.24	22219
863.372	21724
863.504	21739
863.636	21808
863.768	21918
863.9	21785
864.032	21823
864.164	21694
864.296	21903
864.428	21918
864.559	21713
864.691	21850
864.823	21759
864.954	21953
865.086	21831
865.217	21694
865.349	21652
865.48	21656
865.612	21682
865.743	21766
865.875	21781
866.006	21606
866.137	21660
866.269	21625
866.4	21644
866.531	21633
866.662	21694
866.793	21542
866.924	21637
867.055	21652
867.186	21614
867.317	21583
867.448	21606
867.579	21641
867.71	21568
867.841	21564
867.972	21728
868.103	21599
868.233	21618
868.364	21530
868.495	21682
868.625	21903
868.756	21888
868.886	21854
869.017	21934
869.147	21873
869.278	21991
869.408	21846
869.539	21880
869.669	21956
869.799	21903
869.929	22032
870.06	21819
870.19	22120
870.32	22078
870.45	22238
870.58	22120
870.71	22398
870.84	22394
870.97	22230
871.1	22154
871.23	22352
871.36	22451
871.489	22363
871.619	22371
871.749	22390
871.879	22497
872.008	22626
872.138	22455
872.267	22375
872.397	22230
872.526	22306
872.656	22314
872.785	22154
872.915	22455
873.044	22569
873.173	22428
873.303	22455
873.432	22440
873.561	22577
873.69	22569
873.819	22531
873.948	22584
874.077	22531
874.206	22428
874.335	22443
874.464	22474
874.593	22755
874.722	22630
874.851	22820
874.979	22542
875.108	22778
875.237	22645
875.365	22580
875.494	22698
875.623	22889
875.751	22630
875.88	22771
876.008	22904
876.136	22885
876.265	23041
876.393	23159
876.521	23086
876.65	23090
876.778	23102
876.906	23060
877.034	23018
877.162	22980
877.29	22911
877.418	23014
877.546	23075
877.674	23098
877.802	22927
877.93	22862
878.058	22892
878.185	22869
878.313	22984
878.441	22892
878.568	22847
878.696	22919
878.824	23006
878.951	23159
879.079	23189
879.206	23296
879.333	23162
879.461	23003
879.588	23041
879.715	23151
879.842	23254
879.97	23094
880.097	22908
880.224	22729
880.351	22847
880.478	22930
880.605	22843
880.732	22911
880.859	23090
880.986	22850
881.112	22736
881.239	22592
881.366	22561
881.493	22626
881.619	22322
881.746	22504
881.872	22405
881.999	22363
882.125	22272
882.252	22318
882.378	22394
882.505	22508
882.631	22253
882.757	22147
882.883	22063
883.01	22078
883.136	22044
883.262	21949
883.388	21991
883.514	22116
883.64	22017
883.766	22040
883.892	21831
884.018	21876
884.143	22055
884.269	22078
884.395	21846
884.52	21781
884.646	21701
884.772	21595
884.897	21622
885.023	21728
885.148	21850
885.274	21884
885.399	21766
885.524	21774
885.65	21686
885.775	21694
885.9	21705
886.025	21869
886.15	21861
886.275	21728
886.4	21701
886.525	21770
886.65	21717
886.775	21637
886.9	21922
887.025	21930
887.149	21694
887.274	21549
887.399	21428
887.523	21473
887.648	21408
887.773	21351
887.897	21523
888.021	21583
888.146	21420
888.27	21496
888.395	21606
888.519	21595
888.643	21515
888.767	21519
888.891	21401
889.015	21363
889.139	21359
889.263	21325
889.387	21389
889.511	21530
889.635	21428
889.759	21252
889.883	21218
890.006	21218
890.13	21321
890.254	21154
890.377	21249
890.501	20967
890.624	21001
890.748	21104
890.871	20994
890.995	20788
891.118	20785
891.241	20819
891.364	20902
891.488	20929
891.611	21036
891.734	20914
891.857	20830
891.98	20781
892.103	20872
892.226	20880
892.349	20807
892.471	20689
892.594	20891
892.717	20792
892.839	20845
892.962	20853
893.085	20735
893.207	20765
893.33	20731
893.452	20716
893.575	20777
893.697	20762
893.819	20918
893.941	21024
894.064	20781
894.186	20739
894.308	20587
894.43	20880
894.552	20963
894.674	20826
894.796	20701
894.918	20720
895.04	20762
895.161	20826
895.283	20819
895.405	20503
895.526	20667
895.648	20583
895.769	20758
895.891	20777
896.012	20785
896.134	20773
896.255	20743
896.376	20606
896.498	20640
896.619	20731
896.74	20670
896.861	20804
896.982	20986
897.103	21142
897.224	21024
897.345	20899
897.466	20925
897.587	20956
897.708	21131
897.828	20815
897.949	20895
898.07	20712
898.19	20819
898.311	20952
898.431	20899
898.552	20998
898.672	20986
898.792	20899
898.913	20929
899.033	20895
899.153	20651
899.273	20484
899.393	20644
899.513	20602
899.633	20678
899.753	20587
899.873	20629
899.993	20613
900.113	20564
900.232	20621
900.352	20549
900.472	20549
900.591	20355
900.711	20461
900.83	20332
900.95	20461
901.069	20503
901.189	20218
901.308	20115
901.427	19997
901.546	20016
901.665	20012
901.784	19970
901.904	19814
902.023	19769
902.141	19605
902.26	19586
902.379	19567
902.498	19559
902.617	19407
902.735	19586
902.854	19430
902.973	19483
903.091	19152
903.21	19175
903.328	19206
903.446	19053
903.565	19091
903.683	19012
903.801	18859
903.919	18814
904.038	18932
904.156	18760
904.274	18753
904.392	18719
904.51	18749
904.627	18612
904.745	18715
904.863	18833
904.981	18536
905.098	18338
905.216	18475
905.334	18391
905.451	18483
905.569	18399
905.686	18414
905.803	18357
905.921	18216
906.038	18270
906.155	18186
906.272	18106
906.389	18155
906.506	17984
906.623	18030
906.74	17988
906.857	17840
906.974	17840
907.091	17996
907.208	18057
907.324	17889
907.441	17832
907.557	17752
907.674	17619
907.79	17638
907.907	17630
908.023	17726
908.139	17528
908.256	17509
908.372	17433
908.488	17528
908.604	17406
908.72	17292
908.836	17417
908.952	17395
909.068	17429
909.184	17448
909.3	17448
909.415	17391
909.531	17315
909.647	17117
909.762	17075
909.878	16995
909.993	17041
910.108	17022
910.224	16980
910.339	17003
910.454	16877
910.57	16900
910.685	16892
910.8	17025
910.915	16911
911.03	16923
911.145	16683
911.259	16626
911.374	16649
911.489	16527
911.604	16493
911.718	16394
911.833	16432
911.947	16253
912.062	16253
912.176	16462
912.291	16287
912.405	16344
912.519	16462
912.633	16500
912.748	16409
912.862	16417
912.976	16188
913.09	16101
913.204	16166
913.318	16154
913.431	16287
913.545	16409
913.659	16242
913.772	16147
913.886	16002
914	15968
914.113	16105
914.226	16101
914.34	16082
914.453	15918
914.566	16074
914.68	15941
914.793	15789
914.906	15671
915.019	15705
915.132	15542
915.245	15610
915.358	15610
915.47	15671
915.583	15553
915.696	15511
915.809	15724
915.921	15614
916.034	15584
916.146	15496
916.259	15481
916.371	15584
916.483	15507
916.595	15458
916.708	15526
916.82	15424
916.932	15412
917.044	15447
917.156	15310
917.268	15302
917.38	15275
917.491	15241
917.603	15218
917.715	15389
917.826	15260
917.938	15100
918.049	15097
918.161	15218
918.272	15378
918.384	15275
918.495	15142
918.606	15058
918.717	14979
918.828	15062
918.939	15017
919.05	14902
919.161	14914
919.272	14750
919.383	14910
919.494	15047
919.604	15188
919.715	14941
919.826	14834
919.936	14849
920.047	14967
920.157	15070
920.267	15138
920.378	14952
920.488	14914
920.598	15135
920.708	15218
920.818	15165
920.928	15051
921.038	15256
921.148	15188
921.258	14948
921.368	14804
921.477	14655
921.587	14720
921.697	14583
921.806	14705
921.916	14427
922.025	14389
922.134	14305
922.244	14252
922.353	14465
922.462	14214
922.571	14123
922.68	13967
922.789	13932
922.898	13959
923.007	13875
923.116	13955
923.224	13970
923.333	13921
923.442	13887
923.55	13696
923.659	13849
923.767	13959
923.876	13719
923.984	13750
924.092	13632
924.201	13689
924.309	13772
924.417	13609
924.525	13609
924.633	13616
924.741	14488
924.849	13506
924.956	13510
925.064	13362
925.172	13346
925.279	13384
925.387	13422
925.494	13354
925.602	13483
925.709	13350
925.816	13198
925.924	13263
926.031	13384
926.138	13190
926.245	13297
926.352	13179
926.459	13335
926.566	13274
926.673	13217
926.779	13103
926.886	13168
926.993	12970
927.099	12951
927.206	12882
927.312	12916
927.419	12837
927.525	12916
927.631	12966
927.737	12840
927.843	12658
927.95	12616
928.056	12772
928.162	12696
928.267	12772
928.373	13225
928.479	12806
928.585	12578
928.69	12719
928.796	12642
928.901	12642
929.007	12448
929.112	12525
929.218	12551
929.323	12410
929.428	12418
929.533	12601
929.638	12433
929.743	12422
929.848	12357
929.953	12330
930.058	12311
930.163	12125
930.267	12106
930.372	12319
930.477	12060
930.581	12304
930.685	12140
930.79	12087
930.894	12091
930.998	11961
931.103	12125
931.207	11760
931.311	11619
931.415	11627
931.519	11349
931.623	11372
