Data from test_V78500241_286.txt Node
Date: Fri Mar 25 15:11:51 CST 2022
User: usil
Spectrometer: V785-0024
Trigger mode: 0
Integration Time (sec): 4.000000E-1
Scans to average: 1
Nonlinearity correction enabled: false
Boxcar width: 0
Storing dark spectrum: false
XAxis mode: Wavelengths
Number of Pixels in Spectrum: 1024
>>>>>Begin Spectral Data<<<<<
801.071	28063
801.214	27998
801.356	27751
801.499	27549
801.641	27561
801.783	27473
801.926	27534
802.068	27454
802.211	27313
802.353	27233
802.496	27252
802.638	27192
802.78	27112
802.923	26921
803.065	27066
803.208	26975
803.35	27161
803.492	27226
803.635	27173
803.777	27237
803.919	27332
804.061	27652
804.204	27348
804.346	27093
804.488	27104
804.63	27108
804.773	27116
804.915	27218
805.057	27279
805.199	27294
805.341	27230
805.483	27348
805.626	27256
805.768	27359
805.91	27355
806.052	27374
806.194	27294
806.336	27340
806.478	27310
806.62	27386
806.762	27492
806.904	27519
807.046	27899
807.188	27873
807.33	27720
807.472	27759
807.614	27614
807.756	27682
807.898	27526
808.04	27549
808.182	27378
808.324	27507
808.465	27526
808.607	27637
808.749	27823
808.891	28101
809.033	28120
809.174	28063
809.316	28055
809.458	27873
809.6	27865
809.741	27953
809.883	28036
810.025	28261
810.166	28150
810.308	28246
810.45	28181
810.591	28207
810.733	27953
810.875	27865
811.016	27869
811.158	27816
811.299	27949
811.441	27964
811.582	28032
811.724	27911
811.865	27937
812.007	27789
812.148	27892
812.29	27914
812.431	28086
812.573	28158
812.714	28382
812.855	28432
812.997	28599
813.138	28725
813.279	28535
813.421	28542
813.562	28322
813.703	28188
813.845	28097
813.986	27793
814.127	27679
814.268	27637
814.41	27694
814.551	27564
814.692	27603
814.833	27454
814.974	27618
815.115	27652
815.256	27374
815.397	27408
815.539	27443
815.68	27310
815.821	27329
815.962	27298
816.103	27408
816.244	27165
816.385	26963
816.526	26979
816.666	26918
816.807	26762
816.948	26849
817.089	27013
817.23	26887
817.371	26887
817.512	26758
817.653	26750
817.793	26750
817.934	26811
818.075	26895
818.216	26807
818.356	26788
818.497	26560
818.638	26492
818.778	26663
818.919	26457
819.06	26530
819.2	26674
819.341	26716
819.481	26716
819.622	26823
819.762	27100
819.903	27039
820.043	26948
820.184	26857
820.324	26895
820.465	26952
820.605	26902
820.746	26773
820.886	26705
821.026	26762
821.167	26720
821.307	26940
821.447	26716
821.588	26537
821.728	26609
821.868	26301
822.008	26172
822.149	26187
822.289	26229
822.429	25966
822.569	25811
822.709	25788
822.849	25712
822.99	25803
823.13	25662
823.27	25563
823.41	25472
823.55	25354
823.69	25514
823.83	25438
823.97	25426
824.11	25411
824.25	25164
824.389	25422
824.529	25304
824.669	25335
824.809	25518
824.949	25411
825.089	25445
825.228	25289
825.368	25171
825.508	25164
825.648	25145
825.787	25129
825.927	25187
826.067	25152
826.206	25141
826.346	25133
826.485	25156
826.625	25240
826.765	25278
826.904	25251
827.044	24916
827.183	25000
827.323	24787
827.462	24935
827.601	24787
827.741	24856
827.88	24935
828.02	24768
828.159	24947
828.298	24814
828.437	24833
828.577	24848
828.716	24989
828.855	24787
828.994	24559
829.134	24585
829.273	24654
829.412	24502
829.551	24490
829.69	24608
829.829	24597
829.968	24582
830.107	24525
830.246	24608
830.385	24486
830.524	24448
830.663	24353
830.802	24258
830.941	24144
831.08	24030
831.219	24102
831.357	24319
831.496	24232
831.635	24201
831.774	23954
831.913	24057
832.051	23992
832.19	23901
832.329	23973
832.467	23882
832.606	23889
832.744	23695
832.883	23821
833.022	23695
833.16	23703
833.299	23718
833.437	23847
833.576	23866
833.714	23973
833.852	23988
833.991	23870
834.129	24018
834.267	24007
834.406	23859
834.544	23885
834.682	23885
834.821	23851
834.959	23931
835.097	23813
835.235	23908
835.373	23805
835.511	23901
835.65	23729
835.788	23733
835.926	23570
836.064	23505
836.202	23558
836.34	23608
836.478	23809
836.615	23710
836.753	23764
836.891	23745
837.029	23729
837.167	23608
837.305	23512
837.443	23638
837.58	23619
837.718	23585
837.856	23589
837.993	23505
838.131	23623
838.269	23455
838.406	23486
838.544	23356
838.681	23079
838.819	23121
838.956	22904
839.094	23143
839.231	22927
839.369	23174
839.506	23296
839.643	23258
839.781	22812
839.918	22953
840.055	22965
840.193	22930
840.33	22885
840.467	22812
840.604	22858
840.742	23166
840.879	22805
841.016	22774
841.153	22767
841.29	22885
841.427	22968
841.564	23014
841.701	22824
841.838	22790
841.975	22740
842.112	22801
842.249	22668
842.385	22588
842.522	22816
842.659	22691
842.796	22561
842.933	22694
843.069	22622
843.206	22580
843.343	22660
843.479	22599
843.616	22599
843.752	22436
843.889	22371
844.025	22607
844.162	22363
844.298	22440
844.435	22367
844.571	22371
844.708	22337
844.844	22573
844.98	22596
845.117	22516
845.253	22253
845.389	22268
845.525	22253
845.661	22188
845.798	22124
845.934	22128
846.07	22093
846.206	22029
846.342	22291
846.478	21975
846.614	21861
846.75	21816
846.886	21762
847.022	21823
847.158	21880
847.294	21804
847.429	21892
847.565	21770
847.701	22090
847.837	21595
847.972	21526
848.108	21656
848.244	21618
848.379	21431
848.515	21401
848.65	21367
848.786	21382
848.921	21511
849.057	21523
849.192	21576
849.328	21393
849.463	21420
849.598	21336
849.734	21389
849.869	21287
850.004	21214
850.14	21176
850.275	21135
850.41	21112
850.545	21142
850.68	21157
850.815	21321
850.95	21233
851.085	21351
851.22	21389
851.355	21230
851.49	21096
851.625	21165
851.76	21001
851.895	21017
852.03	21058
852.165	21077
852.299	21214
852.434	21218
852.569	21252
852.703	21180
852.838	21226
852.973	21313
853.107	21294
853.242	21070
853.376	21028
853.511	20944
853.645	20880
853.78	21154
853.914	20979
854.048	20823
854.183	21036
854.317	21039
854.451	21055
854.585	20880
854.72	20910
854.854	21047
854.988	20979
855.122	20918
855.256	20811
855.39	21013
855.524	21028
855.658	21116
855.792	21013
855.926	20971
856.06	20986
856.194	21028
856.327	20876
856.461	20899
856.595	20918
856.729	20971
856.862	21169
856.996	20952
857.13	21028
857.263	21127
857.397	20994
857.53	20960
857.664	21047
857.797	21085
857.931	21062
858.064	20952
858.197	21051
858.331	20975
858.464	20929
858.597	20838
858.731	20906
858.864	20967
858.997	20902
859.13	20895
859.263	20937
859.396	21066
859.529	20899
859.662	20906
859.795	20853
859.928	21020
860.061	21123
860.194	21119
860.327	21051
860.46	21100
860.592	20937
860.725	21096
860.858	20982
860.99	20963
861.123	20861
861.256	20872
861.388	20986
861.521	21473
861.653	20868
861.786	20788
861.918	20849
862.05	20883
862.183	21009
862.315	20864
862.447	20990
862.58	20849
862.712	20606
862.844	20602
862.976	20762
863.108	20659
863.24	21074
863.372	20708
863.504	20648
863.636	20686
863.768	20708
863.9	20708
864.032	20625
864.164	20636
864.296	20659
864.428	20796
864.559	20864
864.691	20773
864.823	20495
864.954	20579
865.086	20579
865.217	20674
865.349	20522
865.48	20583
865.612	20632
865.743	20705
865.875	20590
866.006	20465
866.137	20450
866.269	20556
866.4	20499
866.531	20488
866.662	20434
866.793	20526
866.924	20415
867.055	20587
867.186	20533
867.317	20446
867.448	20434
867.579	20522
867.71	20370
867.841	20362
867.972	20434
868.103	20396
868.233	20583
868.364	20457
868.495	20560
868.625	20636
868.756	20804
868.886	20598
869.017	20746
869.147	20762
869.278	20788
869.408	20804
869.539	20697
869.669	20792
869.799	20891
869.929	20861
870.06	20762
870.19	20982
870.32	20910
870.45	20986
870.58	21062
870.71	21135
870.84	21188
870.97	21100
871.1	21135
871.23	21241
871.36	21279
871.489	21214
871.619	21233
871.749	21291
871.879	21378
872.008	21469
872.138	21291
872.267	21233
872.397	21214
872.526	21093
872.656	21146
872.785	21150
872.915	21237
873.044	21298
873.173	21329
873.303	21336
873.432	21424
873.561	21496
873.69	21378
873.819	21332
873.948	21325
874.077	21367
874.206	21260
874.335	21389
874.464	21469
874.593	21568
874.722	21435
874.851	21564
874.979	21599
875.108	21553
875.237	21679
875.365	21454
875.494	21568
875.623	21583
875.751	21549
875.88	21515
876.008	21717
876.136	21671
876.265	22040
876.393	22188
876.521	22063
876.65	22055
876.778	22048
876.906	21907
877.034	21953
877.162	21934
877.29	21842
877.418	21892
877.546	21850
877.674	21857
877.802	21857
877.93	21922
878.058	21983
878.185	21808
878.313	21827
878.441	21774
878.568	21759
878.696	21892
878.824	21972
878.951	21979
879.079	22055
879.206	22207
879.333	22013
879.461	21899
879.588	22048
879.715	22086
879.842	22120
879.97	22017
880.097	21816
880.224	21823
880.351	21766
880.478	21846
880.605	21549
880.732	21701
880.859	21911
880.986	21816
881.112	21747
881.239	21515
881.366	21500
881.493	21458
881.619	21344
881.746	21367
881.872	21283
881.999	21332
882.125	21287
882.252	21412
882.378	21523
882.505	21412
882.631	21184
882.757	21020
882.883	21123
883.01	21036
883.136	20944
883.262	20960
883.388	20769
883.514	21051
883.64	21058
883.766	20967
883.892	20716
884.018	20868
884.143	21058
884.269	21085
884.395	20743
884.52	20674
884.646	20701
884.772	20625
884.897	20522
885.023	20773
885.148	20975
885.274	20944
885.399	20781
885.524	20754
885.65	20708
885.775	20644
885.9	20693
886.025	20743
886.15	20716
886.275	20613
886.4	20545
886.525	20594
886.65	20579
886.775	20575
886.9	20804
887.025	20807
887.149	20583
887.274	20590
887.399	20454
887.523	20507
887.648	20355
887.773	20381
887.897	20438
888.021	20514
888.146	20446
888.27	20579
888.395	20492
888.519	20518
888.643	20514
888.767	20404
888.891	20309
889.015	20187
889.139	20278
889.263	20309
889.387	20419
889.511	20415
889.635	20393
889.759	20183
889.883	20058
890.006	20263
890.13	20377
890.254	20103
890.377	20027
890.501	20096
890.624	19902
890.748	20031
890.871	19883
890.995	19753
891.118	19852
891.241	19731
891.364	19696
891.488	19955
891.611	19753
891.734	19811
891.857	19788
891.98	19906
892.103	19822
892.226	19799
892.349	19822
892.471	19567
892.594	19769
892.717	19795
892.839	19590
892.962	19738
893.085	19765
893.207	19784
893.33	19616
893.452	19704
893.575	19772
893.697	19753
893.819	19830
893.941	19902
894.064	19655
894.186	19689
894.308	19571
894.43	19765
894.552	19818
894.674	19704
894.796	19643
894.918	19670
895.04	19605
895.161	19712
895.283	19731
895.405	19635
895.526	19727
895.648	19704
895.769	19795
895.891	19791
896.012	19883
896.134	19887
896.255	19826
896.376	19655
896.498	19704
896.619	19651
896.74	19712
896.861	19864
896.982	20043
897.103	20122
897.224	20065
897.345	20043
897.466	19902
897.587	19970
897.708	20275
897.828	20031
897.949	19776
898.07	19780
898.19	19913
898.311	19940
898.431	19864
898.552	19947
898.672	19963
898.792	20016
898.913	19947
899.033	19799
899.153	19791
899.273	19533
899.393	19594
899.513	19742
899.633	19632
899.753	19723
899.873	19601
899.993	19712
900.113	19677
900.232	19582
900.352	19590
900.472	19468
900.591	19343
900.711	19548
900.83	19419
900.95	19525
901.069	19468
901.189	19362
901.308	19217
901.427	18996
901.546	19168
901.665	19004
901.784	19148
901.904	18947
902.023	18848
902.141	18631
902.26	18646
902.379	18730
902.498	18563
902.617	18403
902.735	18589
902.854	18631
902.973	18547
903.091	18384
903.21	18174
903.328	18117
903.446	18079
903.565	18060
903.683	18049
903.801	18022
903.919	17939
904.038	17999
904.156	17790
904.274	17923
904.392	17771
904.51	17790
904.627	17828
904.745	17843
904.863	17779
904.981	17680
905.098	17493
905.216	17482
905.334	17661
905.451	17482
905.569	17440
905.686	17497
905.803	17509
905.921	17269
906.038	17395
906.155	17284
906.272	17200
906.389	17174
906.506	17056
906.623	16987
906.74	16915
906.857	16877
906.974	16873
907.091	17006
907.208	17151
907.324	17029
907.441	16892
907.557	16850
907.674	16736
907.79	16736
907.907	16531
908.023	16706
908.139	16786
908.256	16645
908.372	16599
908.488	16596
908.604	16500
908.72	16386
908.836	16478
908.952	16379
909.068	16261
909.184	16451
909.3	16558
909.415	16421
909.531	16443
909.647	16166
909.762	16226
909.878	16002
909.993	16135
910.108	16067
910.224	16017
910.339	16139
910.454	16017
910.57	15968
910.685	15934
910.8	16055
910.915	16112
911.03	15949
911.145	15789
911.259	15778
911.374	15736
911.489	15682
911.604	15663
911.718	15500
911.833	15481
911.947	15378
912.062	15283
912.176	15431
912.291	15492
912.405	15462
912.519	15625
912.633	15648
912.748	15515
912.862	15401
912.976	15378
913.09	15184
913.204	15317
913.318	15348
913.431	15435
913.545	15310
913.659	15420
913.772	15275
913.886	15032
914	15093
914.113	15226
914.226	15173
914.34	15249
914.453	15081
914.566	15192
914.68	15020
914.793	14948
914.906	14883
915.019	14773
915.132	14689
915.245	14746
915.358	14746
915.47	14796
915.583	14792
915.696	14899
915.809	14838
915.921	14838
916.034	14621
916.146	14629
916.259	14625
916.371	14697
916.483	14686
916.595	14556
916.708	14533
916.82	14507
916.932	14571
917.044	14533
917.156	14484
917.268	14381
917.38	14400
917.491	14480
917.603	14427
917.715	14495
917.826	14438
917.938	14240
918.049	14313
918.161	14355
918.272	14473
918.384	14454
918.495	14355
918.606	14145
918.717	14123
918.828	14187
918.939	14153
919.05	14115
919.161	14088
919.272	13997
919.383	13913
919.494	14301
919.604	14396
919.715	14134
919.826	14123
919.936	14157
920.047	14191
920.157	14062
920.267	14278
920.378	14180
920.488	14123
920.598	14278
920.708	14473
920.818	14233
920.928	14263
921.038	14351
921.148	14313
921.258	14054
921.368	13970
921.477	13898
921.587	13887
921.697	13731
921.806	13864
921.916	13712
922.025	13578
922.134	13556
922.244	13422
922.353	13495
922.462	13384
922.571	13304
922.68	13236
922.789	13206
922.898	13213
923.007	13038
923.116	13209
923.224	13168
923.333	13133
923.442	13019
923.55	13004
923.659	12954
923.767	13031
923.876	12935
923.984	13053
924.092	12913
924.201	12954
924.309	12897
924.417	12913
924.525	12787
924.633	12802
924.741	13544
924.849	12597
924.956	12677
925.064	12700
925.172	12490
925.279	12578
925.387	12597
925.494	12608
925.602	12719
925.709	12757
925.816	12506
925.924	12506
926.031	12662
926.138	12589
926.245	12570
926.352	12433
926.459	12544
926.566	12604
926.673	12395
926.779	12308
926.886	12327
926.993	12251
927.099	12243
927.206	12087
927.312	12148
927.419	12197
927.525	12247
927.631	12216
927.737	12045
927.843	12022
927.95	11908
928.056	11984
928.162	12030
928.267	12003
928.373	12612
928.479	12083
928.585	11859
928.69	11969
928.796	11863
928.901	11889
929.007	11680
929.112	11893
929.218	11901
929.323	11798
929.428	11684
929.533	11794
929.638	11653
929.743	11695
929.848	11691
929.953	11619
930.058	11668
930.163	11543
930.267	11395
930.372	11539
930.477	11315
930.581	11592
930.685	11391
930.79	11376
930.894	11322
930.998	11201
931.103	11490
931.207	11037
931.311	10980
931.415	10847
931.519	10706
931.623	10771
