Data from test_V78500241_519.txt Node
Date: Fri Mar 25 15:13:28 CST 2022
User: usil
Spectrometer: V785-0024
Trigger mode: 0
Integration Time (sec): 4.000000E-1
Scans to average: 1
Nonlinearity correction enabled: false
Boxcar width: 0
Storing dark spectrum: false
XAxis mode: Wavelengths
Number of Pixels in Spectrum: 1024
>>>>>Begin Spectral Data<<<<<
801.071	27618
801.214	27492
801.356	27268
801.499	27203
801.641	27157
801.783	27233
801.926	27230
802.068	26986
802.211	26975
802.353	26754
802.496	26712
802.638	26750
802.78	26735
802.923	26769
803.065	26617
803.208	26560
803.35	26667
803.492	26895
803.635	26845
803.777	26746
803.919	26750
804.061	27081
804.204	26796
804.346	26876
804.488	26765
804.63	26895
804.773	26659
804.915	26826
805.057	27009
805.199	26899
805.341	26963
805.483	26986
805.626	26956
805.768	26918
805.91	26876
806.052	26883
806.194	26849
806.336	27013
806.478	27028
806.62	26921
806.762	27051
806.904	27245
807.046	27595
807.188	27397
807.33	27325
807.472	27481
807.614	27359
807.756	27374
807.898	27138
808.04	27112
808.182	27173
808.324	27241
808.465	27321
808.607	27496
808.749	27507
808.891	27595
809.033	27888
809.174	27637
809.316	27648
809.458	27587
809.6	27534
809.741	27641
809.883	27679
810.025	27857
810.166	27888
810.308	27922
810.45	27937
810.591	27873
810.733	27633
810.875	27652
811.016	27507
811.158	27629
811.299	27557
811.441	27701
811.582	27694
811.724	27667
811.865	27622
812.007	27603
812.148	27728
812.29	27583
812.431	27835
812.573	28006
812.714	28017
812.855	27979
812.997	28226
813.138	28318
813.279	28379
813.421	28139
813.562	28166
813.703	28006
813.845	27842
813.986	27603
814.127	27279
814.268	27355
814.41	27325
814.551	27214
814.692	27363
814.833	27173
814.974	27268
815.115	27268
815.256	27058
815.397	27192
815.539	27138
815.68	27131
815.821	26963
815.962	27146
816.103	27081
816.244	27066
816.385	26773
816.526	26682
816.666	26617
816.807	26560
816.948	26674
817.089	26727
817.23	26632
817.371	26651
817.512	26678
817.653	26438
817.793	26594
817.934	26518
818.075	26514
818.216	26579
818.356	26537
818.497	26381
818.638	26248
818.778	26309
818.919	26286
819.06	26446
819.2	26480
819.341	26537
819.481	26431
819.622	26686
819.762	26933
819.903	26731
820.043	26655
820.184	26800
820.324	26674
820.465	26686
820.605	26762
820.746	26701
820.886	26655
821.026	26701
821.167	26571
821.307	26712
821.447	26686
821.588	26511
821.728	26324
821.868	26122
822.008	26012
822.149	25932
822.289	26092
822.429	25750
822.569	25791
822.709	25700
822.849	25537
822.99	25548
823.13	25518
823.27	25521
823.41	25278
823.55	25171
823.69	25392
823.83	25525
823.97	25247
824.11	25133
824.25	25141
824.389	25217
824.529	25175
824.669	25091
824.809	25228
824.949	25259
825.089	25244
825.228	25080
825.368	25012
825.508	25103
825.648	24989
825.787	25118
825.927	25206
826.067	25000
826.206	24992
826.346	25027
826.485	25114
826.625	24981
826.765	25069
826.904	25209
827.044	25000
827.183	24856
827.323	24776
827.462	24734
827.601	24791
827.741	24741
827.88	24707
828.02	24616
828.159	24692
828.298	24715
828.437	24795
828.577	24639
828.716	24913
828.855	24681
828.994	24460
829.134	24414
829.273	24525
829.412	24513
829.551	24384
829.69	24525
829.829	24517
829.968	24570
830.107	24555
830.246	24429
830.385	24395
830.524	24376
830.663	24292
830.802	24239
830.941	24072
831.08	24057
831.219	23984
831.357	24045
831.496	24232
831.635	24034
831.774	24030
831.913	23927
832.051	23923
832.19	23794
832.329	23809
832.467	23863
832.606	23668
832.744	23672
832.883	23737
833.022	23836
833.16	23726
833.299	23668
833.437	23733
833.576	23771
833.714	23931
833.852	23901
833.991	23923
834.129	23916
834.267	23821
834.406	23901
834.544	23954
834.682	23809
834.821	23805
834.959	24110
835.097	23752
835.235	23958
835.373	23790
835.511	23783
835.65	23699
835.788	23748
835.926	23444
836.064	23493
836.202	23448
836.34	23630
836.478	23707
836.615	23592
836.753	23646
836.891	23703
837.029	23646
837.167	23581
837.305	23657
837.443	23668
837.58	23543
837.718	23577
837.856	23493
837.993	23455
838.131	23615
838.269	23273
838.406	23444
838.544	23433
838.681	23315
838.819	23102
838.956	23075
839.094	23003
839.231	22957
839.369	23227
839.506	23433
839.643	23220
839.781	22984
839.918	22828
840.055	23025
840.193	22991
840.33	22862
840.467	22858
840.604	22873
840.742	23292
840.879	22759
841.016	22790
841.153	22812
841.29	23102
841.427	22896
841.564	23010
841.701	22904
841.838	22774
841.975	22816
842.112	22858
842.249	22729
842.385	22577
842.522	22862
842.659	22797
842.796	22622
842.933	22675
843.069	22565
843.206	22592
843.343	22664
843.479	22664
843.616	22656
843.752	22478
843.889	22565
844.025	22675
844.162	22276
844.298	22542
844.435	22436
844.571	22489
844.708	22413
844.844	22580
844.98	22580
845.117	22538
845.253	22371
845.389	22386
845.525	22394
845.661	22375
845.798	22158
845.934	22139
846.07	22124
846.206	22230
846.342	22284
846.478	22078
846.614	21968
846.75	21915
846.886	21842
847.022	22010
847.158	21994
847.294	22048
847.429	21956
847.565	21930
847.701	22013
847.837	21606
847.972	21641
848.108	21709
848.244	21705
848.379	21519
848.515	21473
848.65	21523
848.786	21545
848.921	21568
849.057	21564
849.192	21641
849.328	21549
849.463	21568
849.598	21469
849.734	21389
849.869	21321
850.004	21279
850.14	21237
850.275	21336
850.41	21135
850.545	21317
850.68	21287
850.815	21218
850.95	21291
851.085	21378
851.22	21340
851.355	21431
851.49	21203
851.625	21199
851.76	21275
851.895	21264
852.03	21127
852.165	21211
852.299	21230
852.434	21397
852.569	21450
852.703	21291
852.838	21233
852.973	21359
853.107	21469
853.242	21256
853.376	21184
853.511	21017
853.645	21119
853.78	21256
853.914	21074
854.048	21203
854.183	21123
854.317	21195
854.451	21252
854.585	21032
854.72	21116
854.854	21081
854.988	20937
855.122	21005
855.256	21020
855.39	21154
855.524	21161
855.658	21116
855.792	21138
855.926	21169
856.06	21192
856.194	21184
856.327	21058
856.461	20899
856.595	20998
856.729	21047
856.862	21161
856.996	21161
857.13	21096
857.263	21192
857.397	21192
857.53	21176
857.664	21062
857.797	21173
857.931	21184
858.064	21058
858.197	21256
858.331	21104
858.464	21062
858.597	21085
858.731	21055
858.864	21066
858.997	21032
859.13	20971
859.263	21127
859.396	21287
859.529	21108
859.662	21081
859.795	21036
859.928	21066
860.061	21329
860.194	21218
860.327	21062
860.46	21036
860.592	21233
860.725	21291
860.858	21222
860.99	21093
861.123	20929
861.256	21074
861.388	21093
861.521	21770
861.653	20857
861.786	20971
861.918	20941
862.05	20948
862.183	21074
862.315	20925
862.447	21013
862.58	20998
862.712	20864
862.844	20864
862.976	21001
863.108	20857
863.24	21131
863.372	20743
863.504	20853
863.636	20807
863.768	20956
863.9	20830
864.032	20693
864.164	20727
864.296	20724
864.428	20872
864.559	20807
864.691	20880
864.823	20807
864.954	20807
865.086	20701
865.217	20708
865.349	20579
865.48	20758
865.612	20731
865.743	20804
865.875	20762
866.006	20762
866.137	20712
866.269	20689
866.4	20541
866.531	20678
866.662	20632
866.793	20552
866.924	20598
867.055	20716
867.186	20674
867.317	20640
867.448	20575
867.579	20682
867.71	20651
867.841	20549
867.972	20606
868.103	20659
868.233	20632
868.364	20617
868.495	20750
868.625	20800
868.756	20933
868.886	20952
869.017	20853
869.147	20971
869.278	20944
869.408	20960
869.539	20811
869.669	20887
869.799	20811
869.929	20921
870.06	20979
870.19	21218
870.32	21154
870.45	21131
870.58	21173
870.71	21382
870.84	21260
870.97	21176
871.1	21306
871.23	21374
871.36	21439
871.489	21397
871.619	21408
871.749	21485
871.879	21523
872.008	21526
872.138	21367
872.267	21355
872.397	21340
872.526	21157
872.656	21218
872.785	21230
872.915	21488
873.044	21648
873.173	21507
873.303	21587
873.432	21564
873.561	21618
873.69	21439
873.819	21515
873.948	21591
874.077	21500
874.206	21405
874.335	21534
874.464	21507
874.593	21694
874.722	21705
874.851	21701
874.979	21671
875.108	21679
875.237	21652
875.365	21519
875.494	21644
875.623	21793
875.751	21713
875.88	21831
876.008	21899
876.136	21899
876.265	22215
876.393	22223
876.521	22131
876.65	22242
876.778	22143
876.906	22040
877.034	22002
877.162	22021
877.29	22078
877.418	22120
877.546	22093
877.674	22002
877.802	22078
877.93	22082
878.058	21934
878.185	21968
878.313	22002
878.441	22040
878.568	22006
878.696	21960
878.824	22135
878.951	22124
879.079	22188
879.206	22352
879.333	22276
879.461	22082
879.588	22196
879.715	22295
879.842	22485
879.97	22120
880.097	21842
880.224	21823
880.351	21880
880.478	21922
880.605	21846
880.732	21934
880.859	22234
880.986	22017
881.112	21922
881.239	21842
881.366	21671
881.493	21511
881.619	21462
881.746	21485
881.872	21431
881.999	21466
882.125	21405
882.252	21534
882.378	21515
882.505	21447
882.631	21321
882.757	21195
882.883	21374
883.01	21131
883.136	21127
883.262	21039
883.388	21039
883.514	21199
883.64	21211
883.766	21135
883.892	20902
884.018	20921
884.143	21127
884.269	21340
884.395	20883
884.52	20895
884.646	20899
884.772	20868
884.897	20746
885.023	20678
885.148	20979
885.274	20933
885.399	20918
885.524	20792
885.65	20758
885.775	20785
885.9	20792
886.025	20876
886.15	20834
886.275	20724
886.4	20746
886.525	20750
886.65	20693
886.775	20720
886.9	20956
887.025	21039
887.149	20731
887.274	20682
887.399	20629
887.523	20606
887.648	20518
887.773	20495
887.897	20609
888.021	20739
888.146	20492
888.27	20731
888.395	20556
888.519	20511
888.643	20629
888.767	20708
888.891	20488
889.015	20393
889.139	20450
889.263	20339
889.387	20434
889.511	20598
889.635	20465
889.759	20351
889.883	20370
890.006	20362
890.13	20518
890.254	20309
890.377	20362
890.501	20138
890.624	20115
890.748	20187
890.871	20134
890.995	20008
891.118	19928
891.241	20103
891.364	19955
891.488	20054
891.611	20024
891.734	19944
891.857	20058
891.98	20001
892.103	19978
892.226	19909
892.349	19925
892.471	19765
892.594	19951
892.717	19890
892.839	19856
892.962	20039
893.085	20005
893.207	19963
893.33	19921
893.452	19799
893.575	19993
893.697	19913
893.819	20103
893.941	20050
894.064	20058
894.186	19731
894.308	19849
894.43	19879
894.552	20024
894.674	20039
894.796	19780
894.918	19833
895.04	19974
895.161	19982
895.283	19837
895.405	19791
895.526	19875
895.648	19936
895.769	19784
895.891	19982
896.012	19921
896.134	19890
896.255	19963
896.376	19791
896.498	19849
896.619	19875
896.74	19856
896.861	19944
896.982	20199
897.103	20366
897.224	20221
897.345	20233
897.466	20240
897.587	20050
897.708	20320
897.828	20035
897.949	20126
898.07	19970
898.19	20073
898.311	20233
898.431	20119
898.552	20168
898.672	20187
898.792	20187
898.913	20130
899.033	20008
899.153	19864
899.273	19959
899.393	19871
899.513	19932
899.633	19871
899.753	19932
899.873	19909
899.993	20001
900.113	19734
900.232	19822
900.352	19791
900.472	19643
900.591	19639
900.711	19715
900.83	19655
900.95	19742
901.069	19791
901.189	19552
901.308	19320
901.427	19236
901.546	19335
901.665	19228
901.784	19278
901.904	19183
902.023	19038
902.141	18829
902.26	18783
902.379	18939
902.498	18753
902.617	18749
902.735	18802
902.854	18642
902.973	18772
903.091	18426
903.21	18486
903.328	18502
903.446	18391
903.565	18235
903.683	18270
903.801	18102
903.919	18247
904.038	18194
904.156	17996
904.274	17965
904.392	17958
904.51	18030
904.627	18057
904.745	18064
904.863	18049
904.981	17912
905.098	17707
905.216	17745
905.334	17745
905.451	17733
905.569	17604
905.686	17687
905.803	17630
905.921	17433
906.038	17573
906.155	17547
906.272	17429
906.389	17459
906.506	17140
906.623	17322
906.74	17322
906.857	17109
906.974	17166
907.091	17280
907.208	17353
907.324	17265
907.441	17029
907.557	16919
907.674	16934
907.79	16995
907.907	16938
908.023	16980
908.139	16934
908.256	16900
908.372	16881
908.488	16805
908.604	16729
908.72	16626
908.836	16622
908.952	16664
909.068	16675
909.184	16710
909.3	16603
909.415	16687
909.531	16645
909.647	16398
909.762	16394
909.878	16348
909.993	16375
910.108	16360
910.224	16322
910.339	16303
910.454	16181
910.57	16101
910.685	16067
910.8	16421
910.915	16344
911.03	16211
911.145	15991
911.259	15911
911.374	15979
911.489	15888
911.604	15903
911.718	15713
911.833	15774
911.947	15682
912.062	15530
912.176	15648
912.291	15743
912.405	15622
912.519	15785
912.633	15865
912.748	15755
912.862	15671
912.976	15561
913.09	15393
913.204	15507
913.318	15534
913.431	15545
913.545	15553
913.659	15701
913.772	15447
913.886	15298
914	15249
914.113	15424
914.226	15458
914.34	15416
914.453	15252
914.566	15420
914.68	15313
914.793	15173
914.906	15051
915.019	14929
915.132	14933
915.245	14933
915.358	14937
915.47	14979
915.583	14952
915.696	15005
915.809	15009
915.921	15108
916.034	14906
916.146	14800
916.259	14921
916.371	14883
916.483	15001
916.595	14872
916.708	14857
916.82	14754
916.932	14708
917.044	14720
917.156	14727
917.268	14667
917.38	14644
917.491	14602
917.603	14651
917.715	14739
917.826	14651
917.938	14575
918.049	14389
918.161	14568
918.272	14674
918.384	14648
918.495	14514
918.606	14423
918.717	14404
918.828	14385
918.939	14419
919.05	14355
919.161	14393
919.272	14244
919.383	14275
919.494	14404
919.604	14541
919.715	14431
919.826	14309
919.936	14393
920.047	14434
920.157	14343
920.267	14545
920.378	14301
920.488	14355
920.598	14454
920.708	14629
920.818	14461
920.928	14571
921.038	14636
921.148	14590
921.258	14199
921.368	14168
921.477	14168
921.587	14077
921.697	14016
921.806	14031
921.916	13894
922.025	13746
922.134	13772
922.244	13791
922.353	13879
922.462	13655
922.571	13571
922.68	13369
922.789	13320
922.898	13434
923.007	13297
923.116	13434
923.224	13297
923.333	13297
923.442	13236
923.55	13259
923.659	13335
923.767	13324
923.876	13209
923.984	13259
924.092	13122
924.201	13263
924.309	13126
924.417	13187
924.525	13046
924.633	13080
924.741	13822
924.849	12867
924.956	12973
925.064	12814
925.172	12749
925.279	12863
925.387	12829
925.494	12783
925.602	12935
925.709	12837
925.816	12795
925.924	12810
926.031	12806
926.138	12825
926.245	12787
926.352	12745
926.459	12821
926.566	12852
926.673	12688
926.779	12544
926.886	12585
926.993	12433
927.099	12350
927.206	12338
927.312	12365
927.419	12365
927.525	12437
927.631	12361
927.737	12311
927.843	12167
927.95	12064
928.056	12125
928.162	12232
928.267	12296
928.373	12730
928.479	12247
928.585	12026
928.69	12190
928.796	12213
928.901	12072
929.007	11935
929.112	12034
929.218	12015
929.323	11901
929.428	11992
929.533	12045
929.638	11954
929.743	11786
929.848	11935
929.953	11851
930.058	11733
930.163	11680
930.267	11592
930.372	11767
930.477	11539
930.581	11783
930.685	11707
930.79	11520
930.894	11509
930.998	11433
931.103	11680
931.207	11273
931.311	11193
931.415	11056
931.519	10938
931.623	10854
