Data from test_V78500241_2060.txt Node
Date: Fri Mar 25 15:24:12 CST 2022
User: usil
Spectrometer: V785-0024
Trigger mode: 0
Integration Time (sec): 4.000000E-1
Scans to average: 1
Nonlinearity correction enabled: false
Boxcar width: 0
Storing dark spectrum: false
XAxis mode: Wavelengths
Number of Pixels in Spectrum: 1024
>>>>>Begin Spectral Data<<<<<
801.071	27705
801.214	27625
801.356	27336
801.499	27237
801.641	27093
801.783	27195
801.926	27302
802.068	27116
802.211	27104
802.353	27020
802.496	26868
802.638	26895
802.78	26826
802.923	26880
803.065	26674
803.208	26746
803.35	26994
803.492	26845
803.635	27135
803.777	26845
803.919	26906
804.061	27431
804.204	27051
804.346	26921
804.488	27131
804.63	27058
804.773	26994
804.915	27108
805.057	27142
805.199	27165
805.341	27211
805.483	27287
805.626	27108
805.768	27081
805.91	27203
806.052	27287
806.194	27043
806.336	27226
806.478	27287
806.62	27154
806.762	27325
806.904	27496
807.046	27599
807.188	27633
807.33	27698
807.472	27507
807.614	27492
807.756	27595
807.898	27416
808.04	27332
808.182	27329
808.324	27427
808.465	27530
808.607	27667
808.749	27865
808.891	27899
809.033	27914
809.174	27766
809.316	27682
809.458	27774
809.6	27755
809.741	27876
809.883	27895
810.025	28135
810.166	28143
810.308	27983
810.45	28101
810.591	28010
810.733	27766
810.875	27690
811.016	27679
811.158	27534
811.299	27823
811.441	27960
811.582	27899
811.724	27736
811.865	27766
812.007	27694
812.148	27739
812.29	27728
812.431	27949
812.573	28082
812.714	28204
812.855	28257
812.997	28443
813.138	28459
813.279	28382
813.421	28253
813.562	28360
813.703	27911
813.845	28063
813.986	27671
814.127	27427
814.268	27420
814.41	27469
814.551	27313
814.692	27675
814.833	27469
814.974	27393
815.115	27473
815.256	27340
815.397	27310
815.539	27275
815.68	27272
815.821	27230
815.962	27294
816.103	27279
816.244	27047
816.385	26952
816.526	27036
816.666	26857
816.807	26811
816.948	26902
817.089	26842
817.23	26765
817.371	26712
817.512	26720
817.653	26807
817.793	26663
817.934	26724
818.075	26712
818.216	26750
818.356	26609
818.497	26625
818.638	26423
818.778	26514
818.919	26571
819.06	26415
819.2	26552
819.341	26819
819.481	26800
819.622	26830
819.762	27028
819.903	26861
820.043	26845
820.184	26887
820.324	26914
820.465	26967
820.605	26823
820.746	26693
820.886	26514
821.026	26716
821.167	26807
821.307	26880
821.447	26674
821.588	26743
821.728	26514
821.868	26465
822.008	26180
822.149	26282
822.289	26180
822.429	25974
822.569	25913
822.709	25788
822.849	25814
822.99	25731
823.13	25666
823.27	25708
823.41	25521
823.55	25487
823.69	25449
823.83	25430
823.97	25491
824.11	25419
824.25	25240
824.389	25240
824.529	25407
824.669	25441
824.809	25422
824.949	25613
825.089	25400
825.228	25411
825.368	25190
825.508	25236
825.648	25088
825.787	25247
825.927	25331
826.067	25312
826.206	25137
826.346	25263
826.485	25206
826.625	25137
826.765	25282
826.904	25202
827.044	25053
827.183	25015
827.323	24897
827.462	24989
827.601	25000
827.741	24951
827.88	24951
828.02	24867
828.159	24684
828.298	24996
828.437	24859
828.577	24791
828.716	25069
828.855	24817
828.994	24753
829.134	24635
829.273	24616
829.412	24589
829.551	24582
829.69	24631
829.829	24555
829.968	24719
830.107	24570
830.246	24623
830.385	24642
830.524	24544
830.663	24388
830.802	24342
830.941	24224
831.08	24258
831.219	24270
831.357	24304
831.496	24391
831.635	24289
831.774	24182
831.913	24190
832.051	24049
832.19	24018
832.329	23893
832.467	23916
832.606	23775
832.744	23893
832.883	23935
833.022	23992
833.16	23923
833.299	23923
833.437	23939
833.576	23999
833.714	23999
833.852	24076
833.991	23988
834.129	24018
834.267	23931
834.406	24007
834.544	23958
834.682	23904
834.821	23996
834.959	24152
835.097	23798
835.235	24072
835.373	23923
835.511	23961
835.65	23695
835.788	23718
835.926	23668
836.064	23729
836.202	23710
836.34	23836
836.478	23954
836.615	23874
836.753	23748
836.891	23851
837.029	23863
837.167	23741
837.305	23771
837.443	23687
837.58	23684
837.718	23642
837.856	23646
837.993	23535
838.131	23756
838.269	23482
838.406	23577
838.544	23398
838.681	23231
838.819	23307
838.956	23136
839.094	23121
839.231	23235
839.369	23299
839.506	23592
839.643	23383
839.781	23189
839.918	23079
840.055	23132
840.193	23067
840.33	23079
840.467	22972
840.604	23083
840.742	23181
840.879	22869
841.016	23052
841.153	22828
841.29	23083
841.427	22961
841.564	23018
841.701	22991
841.838	22980
841.975	22892
842.112	22904
842.249	22854
842.385	22763
842.522	22900
842.659	22869
842.796	22752
842.933	22771
843.069	22649
843.206	22706
843.343	22850
843.479	22797
843.616	22672
843.752	22443
843.889	22573
844.025	22736
844.162	22546
844.298	22634
844.435	22577
844.571	22542
844.708	22554
844.844	22573
844.98	22603
845.117	22687
845.253	22485
845.389	22356
845.525	22481
845.661	22341
845.798	22291
845.934	22246
846.07	22188
846.206	22173
846.342	22413
846.478	22238
846.614	22082
846.75	21873
846.886	22067
847.022	22082
847.158	22040
847.294	21991
847.429	22067
847.565	21987
847.701	22287
847.837	21816
847.972	21705
848.108	21759
848.244	21869
848.379	21717
848.515	21583
848.65	21633
848.786	21591
848.921	21705
849.057	21709
849.192	21648
849.328	21523
849.463	21614
849.598	21580
849.734	21458
849.869	21424
850.004	21416
850.14	21389
850.275	21310
850.41	21294
850.545	21313
850.68	21275
850.815	21401
850.95	21298
851.085	21545
851.22	21572
851.355	21370
851.49	21496
851.625	21340
851.76	21355
851.895	21294
852.03	21378
852.165	21351
852.299	21351
852.434	21530
852.569	21355
852.703	21355
852.838	21507
852.973	21443
853.107	21488
853.242	21252
853.376	21321
853.511	21173
853.645	21104
853.78	21245
853.914	21317
854.048	21077
854.183	21195
854.317	21275
854.451	21351
854.585	21150
854.72	21157
854.854	21332
854.988	21146
855.122	21226
855.256	21089
855.39	21199
855.524	21131
855.658	21233
855.792	21222
855.926	21230
856.06	21195
856.194	21283
856.327	21211
856.461	21218
856.595	21268
856.729	21211
856.862	21237
856.996	21089
857.13	21336
857.263	21272
857.397	21336
857.53	21252
857.664	21138
857.797	21329
857.931	21313
858.064	21283
858.197	21294
858.331	21119
858.464	21214
858.597	21066
858.731	21275
858.864	21237
858.997	21074
859.13	21256
859.263	21275
859.396	21298
859.529	21207
859.662	21119
859.795	21207
859.928	21222
860.061	21298
860.194	21416
860.327	21089
860.46	21169
860.592	21310
860.725	21389
860.858	21249
860.99	21192
861.123	21154
861.256	21199
861.388	21112
861.521	21842
861.653	21146
861.786	20998
861.918	21009
862.05	20990
862.183	21161
862.315	21154
862.447	21157
862.58	21116
862.712	20941
862.844	20979
862.976	21043
863.108	20963
863.24	21249
863.372	20880
863.504	20891
863.636	20933
863.768	20880
863.9	20941
864.032	20895
864.164	20906
864.296	20918
864.428	20967
864.559	20986
864.691	21043
864.823	20960
864.954	20914
865.086	20845
865.217	20880
865.349	20792
865.48	20826
865.612	20864
865.743	20834
865.875	20838
866.006	20708
866.137	20823
866.269	20792
866.4	20697
866.531	20716
866.662	20697
866.793	20712
866.924	20629
867.055	20864
867.186	20705
867.317	20735
867.448	20708
867.579	20632
867.71	20617
867.841	20720
867.972	20739
868.103	20682
868.233	20663
868.364	20735
868.495	20830
868.625	20914
868.756	21123
868.886	21013
869.017	21009
869.147	20982
869.278	21009
869.408	20948
869.539	20902
869.669	21096
869.799	20971
869.929	21096
870.06	21173
870.19	21173
870.32	21302
870.45	21363
870.58	21336
870.71	21397
870.84	21485
870.97	21424
871.1	21408
871.23	21561
871.36	21576
871.489	21473
871.619	21564
871.749	21538
871.879	21637
872.008	21633
872.138	21633
872.267	21469
872.397	21351
872.526	21386
872.656	21443
872.785	21325
872.915	21622
873.044	21679
873.173	21587
873.303	21648
873.432	21732
873.561	21682
873.69	21648
873.819	21644
873.948	21671
874.077	21625
874.206	21572
874.335	21515
874.464	21728
874.593	21766
874.722	21732
874.851	21800
874.979	21884
875.108	21918
875.237	21679
875.365	21793
875.494	21656
875.623	21907
875.751	21743
875.88	21774
876.008	21956
876.136	22002
876.265	22147
876.393	22375
876.521	22257
876.65	22344
876.778	22322
876.906	22204
877.034	22162
877.162	22196
877.29	22177
877.418	22249
877.546	22196
877.674	22135
877.802	22253
877.93	22086
878.058	22116
878.185	21998
878.313	22055
878.441	22101
878.568	21994
878.696	22101
878.824	22246
878.951	22192
879.079	22428
879.206	22440
879.333	22276
879.461	22177
879.588	22242
879.715	22382
879.842	22550
879.97	22287
880.097	22078
880.224	21972
880.351	22067
880.478	22032
880.605	21945
880.732	21975
880.859	22188
880.986	22040
881.112	22013
881.239	21880
881.366	21709
881.493	21694
881.619	21492
881.746	21682
881.872	21545
881.999	21622
882.125	21492
882.252	21610
882.378	21458
882.505	21724
882.631	21382
882.757	21291
882.883	21355
883.01	21283
883.136	21154
883.262	21108
883.388	21108
883.514	21294
883.64	21302
883.766	21188
883.892	21085
884.018	20990
884.143	21226
884.269	21226
884.395	21100
884.52	20826
884.646	20906
884.772	20872
884.897	20708
885.023	20944
885.148	21017
885.274	20979
885.399	21100
885.524	20944
885.65	20990
885.775	21028
885.9	20948
886.025	21051
886.15	20982
886.275	20845
886.4	20765
886.525	20826
886.65	20807
886.775	20743
886.9	21047
887.025	21146
887.149	20807
887.274	20788
887.399	20682
887.523	20625
887.648	20530
887.773	20579
887.897	20762
888.021	20670
888.146	20617
888.27	20861
888.395	20819
888.519	20667
888.643	20640
888.767	20777
888.891	20530
889.015	20533
889.139	20560
889.263	20514
889.387	20587
889.511	20663
889.635	20663
889.759	20480
889.883	20442
890.006	20431
890.13	20682
890.254	20362
890.377	20438
890.501	20396
890.624	20195
890.748	20294
890.871	20130
890.995	20027
891.118	20084
891.241	20107
891.364	20077
891.488	20218
891.611	20119
891.734	20027
891.857	20077
891.98	20115
892.103	20145
892.226	20134
892.349	20024
892.471	19784
892.594	20046
892.717	20069
892.839	19974
892.962	19986
893.085	20039
893.207	19894
893.33	19909
893.452	19887
893.575	19944
893.697	19871
893.819	20157
893.941	20134
894.064	20092
894.186	19818
894.308	19894
894.43	20005
894.552	20122
894.674	20005
894.796	19837
894.918	19887
895.04	19982
895.161	20100
895.283	20039
895.405	19970
895.526	19936
895.648	19997
895.769	19989
895.891	19989
896.012	20073
896.134	20046
896.255	19986
896.376	19833
896.498	19959
896.619	19963
896.74	19868
896.861	20005
896.982	20256
897.103	20396
897.224	20206
897.345	20168
897.466	20119
897.587	20248
897.708	20358
897.828	20168
897.949	20153
898.07	20031
898.19	20149
898.311	20332
898.431	20092
898.552	20244
898.672	20275
898.792	20263
898.913	20168
899.033	20210
899.153	19989
899.273	19818
899.393	19970
899.513	19925
899.633	19963
899.753	19879
899.873	19883
899.993	19959
900.113	19902
900.232	19837
900.352	19750
900.472	19761
900.591	19719
900.711	19715
900.83	19651
900.95	19833
901.069	19788
901.189	19578
901.308	19339
901.427	19312
901.546	19213
901.665	19266
901.784	19320
901.904	19171
902.023	19091
902.141	18920
902.26	18863
902.379	18928
902.498	18890
902.617	18844
902.735	18795
902.854	18856
902.973	18760
903.091	18521
903.21	18536
903.328	18471
903.446	18388
903.565	18338
903.683	18300
903.801	18262
903.919	18285
904.038	18216
904.156	18155
904.274	18152
904.392	18087
904.51	18117
904.627	18060
904.745	17973
904.863	18079
904.981	17836
905.098	17805
905.216	17798
905.334	17722
905.451	17832
905.569	17699
905.686	17752
905.803	17672
905.921	17482
906.038	17680
906.155	17539
906.272	17345
906.389	17516
906.506	17353
906.623	17280
906.74	17212
906.857	17071
906.974	17105
907.091	17322
907.208	17345
907.324	17246
907.441	17231
907.557	17067
907.674	17010
907.79	17018
907.907	16987
908.023	17025
908.139	17094
908.256	16904
908.372	16927
908.488	16900
908.604	16767
908.72	16649
908.836	16740
908.952	16729
909.068	16759
909.184	16801
909.3	16713
909.415	16679
909.531	16679
909.647	16405
909.762	16508
909.878	16287
909.993	16371
910.108	16291
910.224	16333
910.339	16287
910.454	16310
910.57	16162
910.685	16109
910.8	16489
910.915	16318
911.03	16173
911.145	16082
911.259	16017
911.374	15991
911.489	15907
911.604	15899
911.718	15762
911.833	15823
911.947	15648
912.062	15496
912.176	15724
912.291	15732
912.405	15698
912.519	15907
912.633	15869
912.748	15785
912.862	15679
912.976	15618
913.09	15454
913.204	15500
913.318	15542
913.431	15713
913.545	15618
913.659	15625
913.772	15488
913.886	15431
914	15359
914.113	15439
914.226	15431
914.34	15397
914.453	15272
914.566	15401
914.68	15298
914.793	15199
914.906	15123
915.019	15062
915.132	14918
915.245	14834
915.358	15085
915.47	14994
915.583	14986
915.696	15047
915.809	15146
915.921	15108
916.034	15055
916.146	14880
916.259	14914
916.371	15051
916.483	14895
916.595	14769
916.708	14868
916.82	14861
916.932	14731
917.044	14708
917.156	14712
917.268	14689
917.38	14648
917.491	14632
917.603	14613
917.715	14705
917.826	14720
917.938	14625
918.049	14484
918.161	14492
918.272	14629
918.384	14735
918.495	14537
918.606	14473
918.717	14358
918.828	14469
918.939	14377
919.05	14271
919.161	14320
919.272	14119
919.383	14202
919.494	14427
919.604	14590
919.715	14419
919.826	14225
919.936	14343
920.047	14389
920.157	14400
920.267	14495
920.378	14358
920.488	14343
920.598	14507
920.708	14697
920.818	14469
920.928	14427
921.038	14648
921.148	14625
921.258	14328
921.368	14214
921.477	14077
921.587	14016
921.697	14039
921.806	14081
921.916	13940
922.025	13856
922.134	13750
922.244	13666
922.353	13761
922.462	13594
922.571	13540
922.68	13460
922.789	13381
922.898	13365
923.007	13403
923.116	13468
923.224	13388
923.333	13354
923.442	13194
923.55	13137
923.659	13263
923.767	13274
923.876	13110
923.984	13232
924.092	13175
924.201	13198
924.309	13091
924.417	13152
924.525	13034
924.633	13069
924.741	13883
924.849	12852
924.956	13027
925.064	12924
925.172	12738
925.279	12821
925.387	12833
925.494	12837
925.602	12928
925.709	12886
925.816	12787
925.924	12810
926.031	12901
926.138	12757
926.245	12768
926.352	12635
926.459	12863
926.566	12821
926.673	12703
926.779	12540
926.886	12623
926.993	12441
927.099	12369
927.206	12391
927.312	12327
927.419	12437
927.525	12365
927.631	12334
927.737	12308
927.843	12292
927.95	12167
928.056	12197
928.162	12232
928.267	12216
928.373	12848
928.479	12372
928.585	12098
928.69	12243
928.796	12190
928.901	12064
929.007	11916
929.112	12106
929.218	12057
929.323	12026
929.428	11923
929.533	12110
929.638	11893
929.743	11897
929.848	11935
929.953	11904
930.058	11786
930.163	11676
930.267	11611
930.372	11729
930.477	11585
930.581	11859
930.685	11608
930.79	11467
930.894	11585
930.998	11547
931.103	11581
931.207	11326
931.311	11246
931.415	11083
931.519	10881
931.623	10877
