Data from test_V78500241_1275.txt Node
Date: Fri Mar 25 15:18:44 CST 2022
User: usil
Spectrometer: V785-0024
Trigger mode: 0
Integration Time (sec): 4.000000E-1
Scans to average: 1
Nonlinearity correction enabled: false
Boxcar width: 0
Storing dark spectrum: false
XAxis mode: Wavelengths
Number of Pixels in Spectrum: 1024
>>>>>Begin Spectral Data<<<<<
801.071	28219
801.214	28188
801.356	27880
801.499	27694
801.641	27705
801.783	27652
801.926	27857
802.068	27656
802.211	27526
802.353	27496
802.496	27466
802.638	27348
802.78	27294
802.923	27264
803.065	27245
803.208	27291
803.35	27329
803.492	27397
803.635	27542
803.777	27294
803.919	27378
804.061	27625
804.204	27504
804.346	27405
804.488	27443
804.63	27618
804.773	27542
804.915	27530
805.057	27732
805.199	27504
805.341	27625
805.483	27591
805.626	27660
805.768	27564
805.91	27652
806.052	27568
806.194	27481
806.336	27804
806.478	27717
806.62	27656
806.762	27808
806.904	27979
807.046	28230
807.188	27945
807.33	28067
807.472	28131
807.614	28086
807.756	28109
807.898	27922
808.04	27835
808.182	27930
808.324	27937
808.465	27968
808.607	28082
808.749	28200
808.891	28314
809.033	28352
809.174	28238
809.316	28382
809.458	28287
809.6	28360
809.741	28303
809.883	28363
810.025	28535
810.166	28592
810.308	28698
810.45	28497
810.591	28554
810.733	28409
810.875	28261
811.016	28230
811.158	28207
811.299	28310
811.441	28432
811.582	28280
811.724	28386
811.865	28185
812.007	28314
812.148	28257
812.29	28432
812.431	28421
812.573	28664
812.714	28797
812.855	28729
812.997	29014
813.138	28904
813.279	28927
813.421	28892
813.562	28942
813.703	28656
813.845	28538
813.986	28230
814.127	28139
814.268	28063
814.41	27964
814.551	27854
814.692	28112
814.833	27922
814.974	27914
815.115	27835
815.256	27903
815.397	27816
815.539	27728
815.68	27778
815.821	27698
815.962	27800
816.103	27876
816.244	27667
816.385	27526
816.526	27576
816.666	27511
816.807	27275
816.948	27382
817.089	27363
817.23	27427
817.371	27469
817.512	27260
817.653	27310
817.793	27176
817.934	27272
818.075	27321
818.216	27378
818.356	27207
818.497	27226
818.638	27112
818.778	27043
818.919	27138
819.06	27180
819.2	27211
819.341	27329
819.481	27260
819.622	27386
819.762	27739
819.903	27561
820.043	27329
820.184	27485
820.324	27416
820.465	27511
820.605	27462
820.746	27298
820.886	27386
821.026	27348
821.167	27389
821.307	27568
821.447	27252
821.588	27173
821.728	27161
821.868	27032
822.008	26724
822.149	26769
822.289	26659
822.429	26552
822.569	26507
822.709	26427
822.849	26351
822.99	26237
823.13	26225
823.27	26183
823.41	26115
823.55	26084
823.69	26142
823.83	26130
823.97	26062
824.11	26001
824.25	26035
824.389	25917
824.529	26039
824.669	25997
824.809	26027
824.949	26016
825.089	26054
825.228	25974
825.368	25875
825.508	25791
825.648	25849
825.787	25807
825.927	26001
826.067	25750
826.206	25643
826.346	25906
826.485	25890
826.625	25765
826.765	25879
826.904	25795
827.044	25540
827.183	25567
827.323	25578
827.462	25620
827.601	25563
827.741	25548
827.88	25655
828.02	25468
828.159	25468
828.298	25533
828.437	25567
828.577	25483
828.716	25540
828.855	25582
828.994	25304
829.134	25244
829.273	25194
829.412	25259
829.551	25179
829.69	25129
829.829	25320
829.968	25426
830.107	25209
830.246	25247
830.385	25133
830.524	25126
830.663	25019
830.802	24970
830.941	24878
831.08	24798
831.219	25008
831.357	24924
831.496	25038
831.635	24795
831.774	24905
831.913	24863
832.051	24642
832.19	24661
832.329	24593
832.467	24555
832.606	24566
832.744	24490
832.883	24566
833.022	24544
833.16	24566
833.299	24623
833.437	24738
833.576	24601
833.714	24707
833.852	24627
833.991	24608
834.129	24738
834.267	24566
834.406	24669
834.544	24547
834.682	24642
834.821	24604
834.959	24692
835.097	24448
835.235	24544
835.373	24532
835.511	24479
835.65	24300
835.788	24437
835.926	24330
836.064	24197
836.202	24327
836.34	24285
836.478	24502
836.615	24342
836.753	24464
836.891	24467
837.029	24505
837.167	24361
837.305	24311
837.443	24494
837.58	24235
837.718	24372
837.856	24197
837.993	24262
838.131	24243
838.269	23980
838.406	24194
838.544	24216
838.681	23908
838.819	23817
838.956	23649
839.094	23790
839.231	23737
839.369	23893
839.506	24133
839.643	24064
839.781	23722
839.918	23646
840.055	23866
840.193	23756
840.33	23687
840.467	23646
840.604	23718
840.742	23958
840.879	23482
841.016	23577
841.153	23509
841.29	23707
841.427	23665
841.564	23562
841.701	23649
841.838	23501
841.975	23509
842.112	23478
842.249	23356
842.385	23292
842.522	23520
842.659	23448
842.796	23383
842.933	23364
843.069	23258
843.206	23490
843.343	23414
843.479	23280
843.616	23452
843.752	23170
843.889	23299
844.025	23288
844.162	23208
844.298	23410
844.435	23109
844.571	23071
844.708	23254
844.844	23436
844.98	23284
845.117	23227
845.253	23064
845.389	23083
845.525	23044
845.661	22995
845.798	22835
845.934	23037
846.07	22862
846.206	22999
846.342	23014
846.478	22866
846.614	22626
846.75	22596
846.886	22577
847.022	22721
847.158	22694
847.294	22615
847.429	22660
847.565	22493
847.701	22927
847.837	22409
847.972	22318
848.108	22455
848.244	22348
848.379	22261
848.515	22147
848.65	22314
848.786	22166
848.921	22261
849.057	22322
849.192	22295
849.328	22223
849.463	22306
849.598	22139
849.734	22059
849.869	22109
850.004	22078
850.14	21998
850.275	22109
850.41	21991
850.545	21991
850.68	21930
850.815	22048
850.95	22017
851.085	22143
851.22	22082
851.355	22044
851.49	21922
851.625	22006
851.76	21945
851.895	21975
852.03	21842
852.165	21949
852.299	21983
852.434	22158
852.569	21964
852.703	22086
852.838	22112
852.973	22200
853.107	22139
853.242	21968
853.376	21739
853.511	21682
853.645	21781
853.78	21956
853.914	21800
854.048	21751
854.183	21846
854.317	21903
854.451	22025
854.585	21747
854.72	21812
854.854	21918
854.988	21724
855.122	21778
855.256	21728
855.39	21724
855.524	21785
855.658	21903
855.792	21797
855.926	21793
856.06	21850
856.194	21880
856.327	21694
856.461	21724
856.595	21736
856.729	21842
856.862	21926
856.996	21770
857.13	21926
857.263	21983
857.397	21876
857.53	21838
857.664	21876
857.797	21869
857.931	21884
858.064	21983
858.197	21960
858.331	21743
858.464	21778
858.597	21728
858.731	21759
858.864	21762
858.997	21793
859.13	21690
859.263	21892
859.396	21956
859.529	21804
859.662	21747
859.795	21747
859.928	21812
860.061	21842
860.194	21945
860.327	21842
860.46	21831
860.592	21945
860.725	21915
860.858	21953
860.99	21842
861.123	21759
861.256	21713
861.388	21709
861.521	22440
861.653	21728
861.786	21576
861.918	21580
862.05	21625
862.183	21823
862.315	21774
862.447	21660
862.58	21648
862.712	21405
862.844	21450
862.976	21610
863.108	21542
863.24	21922
863.372	21428
863.504	21561
863.636	21492
863.768	21523
863.9	21542
864.032	21424
864.164	21462
864.296	21477
864.428	21542
864.559	21576
864.691	21610
864.823	21416
864.954	21435
865.086	21488
865.217	21488
865.349	21332
865.48	21542
865.612	21325
865.743	21412
865.875	21466
866.006	21332
866.137	21435
866.269	21458
866.4	21355
866.531	21344
866.662	21310
866.793	21203
866.924	21405
867.055	21226
867.186	21268
867.317	21340
867.448	21283
867.579	21245
867.71	21294
867.841	21249
867.972	21382
868.103	21302
868.233	21401
868.364	21173
868.495	21367
868.625	21587
868.756	21568
868.886	21477
869.017	21583
869.147	21610
869.278	21686
869.408	21572
869.539	21587
869.669	21652
869.799	21682
869.929	21747
870.06	21694
870.19	21865
870.32	21987
870.45	21930
870.58	21934
870.71	22051
870.84	22002
870.97	21892
871.1	21937
871.23	22101
871.36	22143
871.489	22029
871.619	22120
871.749	22070
871.879	22207
872.008	22230
872.138	22109
872.267	22211
872.397	22036
872.526	22082
872.656	21930
872.785	22059
872.915	22135
873.044	22181
873.173	22097
873.303	22188
873.432	22116
873.561	22185
873.69	22211
873.819	22299
873.948	22306
874.077	22128
874.206	22204
874.335	22143
874.464	22363
874.593	22398
874.722	22352
874.851	22485
874.979	22428
875.108	22459
875.237	22360
875.365	22348
875.494	22417
875.623	22428
875.751	22333
875.88	22565
876.008	22447
876.136	22580
876.265	22733
876.393	22911
876.521	22763
876.65	22729
876.778	22778
876.906	22683
877.034	22683
877.162	22740
877.29	22649
877.418	22710
877.546	22748
877.674	22797
877.802	22713
877.93	22782
878.058	22774
878.185	22580
878.313	22683
878.441	22683
878.568	22569
878.696	22637
878.824	22816
878.951	22828
879.079	22908
879.206	22949
879.333	22961
879.461	22984
879.588	22805
879.715	22869
879.842	23079
879.97	22957
880.097	22535
880.224	22561
880.351	22432
880.478	22519
880.605	22557
880.732	22592
880.859	22706
880.986	22531
881.112	22634
881.239	22546
881.366	22204
881.493	22188
881.619	22207
881.746	22166
881.872	22154
881.999	22109
882.125	22135
882.252	22173
882.378	22116
882.505	22169
882.631	21819
882.757	21888
882.883	21831
883.01	21759
883.136	21838
883.262	21713
883.388	21797
883.514	21846
883.64	21869
883.766	21728
883.892	21545
884.018	21618
884.143	21778
884.269	21804
884.395	21553
884.52	21511
884.646	21450
884.772	21393
884.897	21447
885.023	21576
885.148	21545
885.274	21534
885.399	21557
885.524	21447
885.65	21393
885.775	21405
885.9	21450
886.025	21553
886.15	21564
886.275	21325
886.4	21302
886.525	21443
886.65	21367
886.775	21359
886.9	21644
887.025	21667
887.149	21492
887.274	21389
887.399	21192
887.523	21184
887.648	21192
887.773	21207
887.897	21249
888.021	21260
888.146	21161
888.27	21252
888.395	21329
888.519	21222
888.643	21245
888.767	21252
888.891	21100
889.015	20982
889.139	20990
889.263	21096
889.387	21028
889.511	21291
889.635	21150
889.759	21013
889.883	20994
890.006	21013
890.13	21173
890.254	20857
890.377	20963
890.501	20682
890.624	20678
890.748	20788
890.871	20769
890.995	20602
891.118	20632
891.241	20461
891.364	20552
891.488	20731
891.611	20609
891.734	20511
891.857	20625
891.98	20621
892.103	20678
892.226	20602
892.349	20488
892.471	20404
892.594	20461
892.717	20541
892.839	20351
892.962	20488
893.085	20503
893.207	20446
893.33	20412
893.452	20503
893.575	20537
893.697	20419
893.819	20667
893.941	20609
894.064	20541
894.186	20442
894.308	20233
894.43	20526
894.552	20686
894.674	20511
894.796	20343
894.918	20461
895.04	20415
895.161	20473
895.283	20454
895.405	20347
895.526	20465
895.648	20366
895.769	20465
895.891	20465
896.012	20476
896.134	20473
896.255	20492
896.376	20336
896.498	20473
896.619	20385
896.74	20332
896.861	20473
896.982	20967
897.103	20891
897.224	20640
897.345	20701
897.466	20556
897.587	20613
897.708	20834
897.828	20796
897.949	20587
898.07	20541
898.19	20537
898.311	20632
898.431	20484
898.552	20682
898.672	20693
898.792	20667
898.913	20522
899.033	20609
899.153	20434
899.273	20259
899.393	20465
899.513	20514
899.633	20275
899.753	20389
899.873	20259
899.993	20492
900.113	20328
900.232	20370
900.352	20389
900.472	20183
900.591	20077
900.711	20214
900.83	20020
900.95	20271
901.069	20172
901.189	20092
901.308	19864
901.427	19811
901.546	19814
901.665	19811
901.784	19727
901.904	19628
902.023	19445
902.141	19259
902.26	19297
902.379	19343
902.498	19240
902.617	19148
902.735	19388
902.854	19331
902.973	19103
903.091	18878
903.21	18905
903.328	18913
903.446	18848
903.565	18650
903.683	18840
903.801	18616
903.919	18639
904.038	18688
904.156	18448
904.274	18722
904.392	18399
904.51	18555
904.627	18464
904.745	18578
904.863	18616
904.981	18338
905.098	18254
905.216	18190
905.334	18197
905.451	18072
905.569	18133
905.686	18144
905.803	18121
905.921	17961
906.038	18072
906.155	17980
906.272	17901
906.389	17824
906.506	17775
906.623	17592
906.74	17661
906.857	17596
906.974	17661
907.091	17813
907.208	17832
907.324	17680
907.441	17646
907.557	17410
907.674	17486
907.79	17402
907.907	17417
908.023	17356
908.139	17398
908.256	17395
908.372	17326
908.488	17303
908.604	17174
908.72	17045
908.836	17098
908.952	17140
909.068	17136
909.184	17166
909.3	17265
909.415	17098
909.531	17174
909.647	16843
909.762	16900
909.878	16831
909.993	16843
910.108	16858
910.224	16820
910.339	16790
910.454	16607
910.57	16607
910.685	16577
910.8	16869
910.915	16763
911.03	16596
911.145	16554
911.259	16363
911.374	16451
911.489	16466
911.604	16306
911.718	16154
911.833	16177
911.947	15979
912.062	16025
912.176	16185
912.291	16166
912.405	16067
912.519	16329
912.633	16382
912.748	16295
912.862	16101
912.976	15983
913.09	15930
913.204	15911
913.318	16021
913.431	16109
913.545	16093
913.659	16078
913.772	15937
913.886	15823
914	15873
914.113	15842
914.226	15903
914.34	15873
914.453	15625
914.566	15823
914.68	15686
914.793	15568
914.906	15519
915.019	15428
915.132	15302
915.245	15351
915.358	15378
915.47	15370
915.583	15424
915.696	15363
915.809	15504
915.921	15561
916.034	15325
916.146	15214
916.259	15237
916.371	15313
916.483	15351
916.595	15283
916.708	15157
916.82	15180
916.932	15173
917.044	15138
917.156	15211
917.268	14918
917.38	14982
917.491	14975
917.603	15047
917.715	15020
917.826	15055
917.938	15013
918.049	14861
918.161	15017
918.272	15020
918.384	15070
918.495	14967
918.606	14785
918.717	14750
918.828	14743
918.939	14796
919.05	14659
919.161	14735
919.272	14545
919.383	14663
919.494	14800
919.604	15020
919.715	14792
919.826	14610
919.936	14739
920.047	14777
920.157	14842
920.267	14872
920.378	14746
920.488	14659
920.598	14876
920.708	15013
920.818	14842
920.928	14697
921.038	14967
921.148	14975
921.258	14644
921.368	14560
921.477	14484
921.587	14499
921.697	14377
921.806	14389
921.916	14278
922.025	14168
922.134	14149
922.244	14081
922.353	14103
922.462	14062
922.571	13989
922.68	13757
922.789	13719
922.898	13788
923.007	13681
923.116	13734
923.224	13757
923.333	13723
923.442	13601
923.55	13578
923.659	13662
923.767	13708
923.876	13548
923.984	13601
924.092	13639
924.201	13487
924.309	13457
924.417	13510
924.525	13377
924.633	13358
924.741	14218
924.849	13095
924.956	13426
925.064	13190
925.172	13114
925.279	13110
925.387	13198
925.494	13164
925.602	13213
925.709	13278
925.816	13069
925.924	13084
926.031	13107
926.138	13168
926.245	13122
926.352	13012
926.459	13168
926.566	13141
926.673	13050
926.779	12825
926.886	12947
926.993	12760
927.099	12753
927.206	12757
927.312	12703
927.419	12776
927.525	12738
927.631	12692
927.737	12593
927.843	12536
927.95	12410
928.056	12521
928.162	12467
928.267	12585
928.373	13126
928.479	12566
928.585	12365
928.69	12445
928.796	12426
928.901	12388
929.007	12205
929.112	12369
929.218	12350
929.323	12243
929.428	12277
929.533	12388
929.638	12140
929.743	12175
929.848	12273
929.953	12186
930.058	12064
930.163	11866
930.267	11950
930.372	11999
930.477	11889
930.581	12144
930.685	11954
930.79	11828
930.894	11813
930.998	11809
931.103	11889
931.207	11547
931.311	11528
931.415	11509
931.519	11166
931.623	11159
