Data from test_V78500241_1649.txt Node
Date: Fri Mar 25 15:21:20 CST 2022
User: usil
Spectrometer: V785-0024
Trigger mode: 0
Integration Time (sec): 4.000000E-1
Scans to average: 1
Nonlinearity correction enabled: false
Boxcar width: 0
Storing dark spectrum: false
XAxis mode: Wavelengths
Number of Pixels in Spectrum: 1024
>>>>>Begin Spectral Data<<<<<
801.071	27964
801.214	27899
801.356	27637
801.499	27538
801.641	27374
801.783	27321
801.926	27389
802.068	27355
802.211	27317
802.353	27291
802.496	27222
802.638	27032
802.78	27055
802.923	27017
803.065	26967
803.208	26929
803.35	27066
803.492	27294
803.635	27374
803.777	27081
803.919	27245
804.061	27557
804.204	27325
804.346	27195
804.488	27100
804.63	27207
804.773	27085
804.915	27237
805.057	27325
805.199	27157
805.341	27344
805.483	27507
805.626	27241
805.768	27306
805.91	27511
806.052	27469
806.194	27272
806.336	27431
806.478	27378
806.62	27485
806.762	27397
806.904	27568
807.046	27842
807.188	27682
807.33	27797
807.472	27797
807.614	27774
807.756	27762
807.898	27648
808.04	27648
808.182	27705
808.324	27766
808.465	27709
808.607	27903
808.749	28017
808.891	28166
809.033	28162
809.174	28090
809.316	27991
809.458	28013
809.6	27968
809.741	28029
809.883	28131
810.025	28261
810.166	28352
810.308	28344
810.45	28272
810.591	28112
810.733	28059
810.875	28032
811.016	28002
811.158	27907
811.299	28147
811.441	28249
811.582	28120
811.724	27941
811.865	28048
812.007	27903
812.148	27983
812.29	27964
812.431	28128
812.573	28455
812.714	28485
812.855	28527
812.997	28626
813.138	28843
813.279	28748
813.421	28668
813.562	28489
813.703	28223
813.845	28265
813.986	27945
814.127	27671
814.268	27698
814.41	27694
814.551	27724
814.692	27743
814.833	27603
814.974	27660
815.115	27660
815.256	27610
815.397	27675
815.539	27485
815.68	27587
815.821	27397
815.962	27492
816.103	27488
816.244	27523
816.385	27294
816.526	27272
816.666	27146
816.807	27081
816.948	26998
817.089	27096
817.23	27093
817.371	27032
817.512	26918
817.653	27058
817.793	26842
817.934	26944
818.075	26971
818.216	26857
818.356	26956
818.497	26864
818.638	26716
818.778	26720
818.919	26731
819.06	26788
819.2	26857
819.341	26921
819.481	27104
819.622	27123
819.762	27279
819.903	27154
820.043	27264
820.184	27119
820.324	27146
820.465	27104
820.605	27009
820.746	27009
820.886	27036
821.026	27055
821.167	27047
821.307	27260
821.447	26933
821.588	26940
821.728	26697
821.868	26731
822.008	26438
822.149	26465
822.289	26328
822.429	26298
822.569	26180
822.709	26054
822.849	25974
822.99	25940
823.13	25970
823.27	25989
823.41	25814
823.55	25830
823.69	25837
823.83	25795
823.97	25822
824.11	25601
824.25	25506
824.389	25590
824.529	25708
824.669	25537
824.809	25727
824.949	25594
825.089	25925
825.228	25708
825.368	25453
825.508	25578
825.648	25624
825.787	25476
825.927	25441
826.067	25419
826.206	25540
826.346	25620
826.485	25426
826.625	25415
826.765	25616
826.904	25529
827.044	25259
827.183	25221
827.323	25137
827.462	25232
827.601	25194
827.741	25042
827.88	25198
828.02	25095
828.159	25202
828.298	25202
828.437	25225
828.577	25004
828.716	25244
828.855	24943
828.994	24943
829.134	24939
829.273	24913
829.412	24920
829.551	24859
829.69	24920
829.829	24932
829.968	24943
830.107	24909
830.246	25004
830.385	24973
830.524	24878
830.663	24738
830.802	24616
830.941	24505
831.08	24536
831.219	24578
831.357	24593
831.496	24821
831.635	24536
831.774	24555
831.913	24418
832.051	24323
832.19	24315
832.329	24209
832.467	24220
832.606	24270
832.744	24155
832.883	24311
833.022	24163
833.16	24144
833.299	24110
833.437	24224
833.576	24251
833.714	24239
833.852	24376
833.991	24300
834.129	24254
834.267	24300
834.406	24270
834.544	24342
834.682	24194
834.821	24277
834.959	24376
835.097	24159
835.235	24190
835.373	24121
835.511	24178
835.65	23946
835.788	24144
835.926	23908
836.064	23973
836.202	23855
836.34	24110
836.478	24117
836.615	23946
836.753	24125
836.891	24129
837.029	24144
837.167	23988
837.305	23969
837.443	23908
837.58	23950
837.718	23893
837.856	23973
837.993	23939
838.131	23961
838.269	23745
838.406	23866
838.544	23672
838.681	23611
838.819	23608
838.956	23444
839.094	23417
839.231	23459
839.369	23436
839.506	23745
839.643	23699
839.781	23391
839.918	23292
840.055	23372
840.193	23376
840.33	23261
840.467	23322
840.604	23417
840.742	23531
840.879	23162
841.016	23204
841.153	23277
841.29	23364
841.427	23159
841.564	23212
841.701	23197
841.838	23124
841.975	23170
842.112	23109
842.249	23105
842.385	23060
842.522	23185
842.659	23071
842.796	23090
842.933	23006
843.069	23033
843.206	23086
843.343	23056
843.479	23048
843.616	22999
843.752	22930
843.889	22915
844.025	22858
844.162	22820
844.298	22961
844.435	22915
844.571	22771
844.708	22892
844.844	22965
844.98	22991
845.117	22911
845.253	22824
845.389	22618
845.525	22763
845.661	22793
845.798	22443
845.934	22618
846.07	22542
846.206	22630
846.342	22694
846.478	22493
846.614	22436
846.75	22341
846.886	22310
847.022	22379
847.158	22329
847.294	22375
847.429	22348
847.565	22188
847.701	22542
847.837	22021
847.972	22078
848.108	22173
848.244	22112
848.379	21888
848.515	21880
848.65	21975
848.786	21937
848.921	21751
849.057	21930
849.192	21907
849.328	22070
849.463	21911
849.598	21884
849.734	21812
849.869	21770
850.004	21572
850.14	21774
850.275	21610
850.41	21530
850.545	21641
850.68	21526
850.815	21701
850.95	21656
851.085	21732
851.22	21728
851.355	21732
851.49	21667
851.625	21705
851.76	21530
851.895	21545
852.03	21511
852.165	21743
852.299	21622
852.434	21759
852.569	21679
852.703	21599
852.838	21682
852.973	21880
853.107	21705
853.242	21580
853.376	21469
853.511	21386
853.645	21389
853.78	21572
853.914	21557
854.048	21435
854.183	21538
854.317	21416
854.451	21587
854.585	21462
854.72	21542
854.854	21496
854.988	21416
855.122	21363
855.256	21313
855.39	21462
855.524	21553
855.658	21656
855.792	21469
855.926	21481
856.06	21473
856.194	21488
856.327	21386
856.461	21332
856.595	21382
856.729	21485
856.862	21595
856.996	21504
857.13	21568
857.263	21500
857.397	21504
857.53	21507
857.664	21507
857.797	21439
857.931	21660
858.064	21458
858.197	21625
858.331	21515
858.464	21428
858.597	21329
858.731	21382
858.864	21386
858.997	21351
859.13	21507
859.263	21439
859.396	21568
859.529	21416
859.662	21367
859.795	21340
859.928	21378
860.061	21644
860.194	21671
860.327	21412
860.46	21496
860.592	21523
860.725	21663
860.858	21648
860.99	21454
861.123	21325
861.256	21313
861.388	21523
861.521	22166
861.653	21264
861.786	21203
861.918	21283
862.05	21287
862.183	21287
862.315	21359
862.447	21416
862.58	21344
862.712	21119
862.844	21100
862.976	21218
863.108	21188
863.24	21526
863.372	21123
863.504	21135
863.636	21047
863.768	21313
863.9	21218
864.032	21150
864.164	21135
864.296	21135
864.428	21207
864.559	21214
864.691	21275
864.823	21100
864.954	21085
865.086	21146
865.217	21032
865.349	21043
865.48	21096
865.612	21146
865.743	21154
865.875	21020
866.006	21047
866.137	21096
866.269	21070
866.4	21001
866.531	20952
866.662	20887
866.793	21070
866.924	21047
867.055	21161
867.186	20971
867.317	20937
867.448	20868
867.579	20868
867.71	20880
867.841	20910
867.972	21070
868.103	21001
868.233	21028
868.364	20956
868.495	20967
868.625	21180
868.756	21310
868.886	21077
869.017	21245
869.147	21325
869.278	21431
869.408	21275
869.539	21321
869.669	21340
869.799	21241
869.929	21344
870.06	21214
870.19	21420
870.32	21603
870.45	21576
870.58	21656
870.71	21789
870.84	21644
870.97	21614
871.1	21553
871.23	21755
871.36	21816
871.489	21675
871.619	21785
871.749	21793
871.879	21861
872.008	21941
872.138	21960
872.267	21781
872.397	21679
872.526	21778
872.656	21610
872.785	21812
872.915	21827
873.044	21846
873.173	21949
873.303	21926
873.432	21884
873.561	21930
873.69	21892
873.819	21759
873.948	21876
874.077	21911
874.206	21831
874.335	21778
874.464	22025
874.593	22063
874.722	22078
874.851	22139
874.979	22124
875.108	22101
875.237	22032
875.365	21827
875.494	22025
875.623	22162
875.751	22025
875.88	22090
876.008	22097
876.136	22413
876.265	22519
876.393	22569
876.521	22557
876.65	22611
876.778	22485
876.906	22489
877.034	22402
877.162	22470
877.29	22386
877.418	22466
877.546	22443
877.674	22481
877.802	22481
877.93	22432
878.058	22348
878.185	22268
878.313	22409
878.441	22413
878.568	22299
878.696	22337
878.824	22398
878.951	22535
879.079	22493
879.206	22706
879.333	22630
879.461	22451
879.588	22474
879.715	22546
879.842	22763
879.97	22561
880.097	22253
880.224	22242
880.351	22379
880.478	22261
880.605	22166
880.732	22268
880.859	22466
880.986	22344
881.112	22291
881.239	22078
881.366	21850
881.493	21743
881.619	21831
881.746	21762
881.872	21698
881.999	21766
882.125	21724
882.252	21800
882.378	21762
882.505	21774
882.631	21698
882.757	21469
882.883	21549
883.01	21534
883.136	21595
883.262	21393
883.388	21374
883.514	21599
883.64	21454
883.766	21405
883.892	21291
884.018	21370
884.143	21306
884.269	21447
884.395	21252
884.52	21195
884.646	21116
884.772	20963
884.897	21058
885.023	21218
885.148	21260
885.274	21249
885.399	21291
885.524	21131
885.65	21131
885.775	21157
885.9	21104
886.025	21199
886.15	21154
886.275	21108
886.4	21077
886.525	21001
886.65	21009
886.775	21138
886.9	21230
887.025	21348
887.149	21119
887.274	20906
887.399	20887
887.523	20910
887.648	20921
887.773	20899
887.897	21039
888.021	20952
888.146	20845
888.27	20929
888.395	21047
888.519	21062
888.643	20899
888.767	21093
888.891	20819
889.015	20735
889.139	20731
889.263	20670
889.387	20853
889.511	20815
889.635	20883
889.759	20720
889.883	20746
890.006	20720
890.13	20762
890.254	20670
890.377	20621
890.501	20503
890.624	20465
890.748	20514
890.871	20446
890.995	20278
891.118	20248
891.241	20336
891.364	20309
891.488	20396
891.611	20225
891.734	20233
891.857	20408
891.98	20423
892.103	20282
892.226	20286
892.349	20199
892.471	19936
892.594	20259
892.717	20237
892.839	20176
892.962	20161
893.085	20282
893.207	20275
893.33	20092
893.452	20084
893.575	20084
893.697	20294
893.819	20290
893.941	20317
894.064	20358
894.186	19944
894.308	20077
894.43	20263
894.552	20328
894.674	20263
894.796	20016
894.918	20039
895.04	20130
895.161	20252
895.283	20210
895.405	20054
895.526	20225
895.648	20161
895.769	20168
895.891	20202
896.012	20164
896.134	20320
896.255	20233
896.376	20092
896.498	20153
896.619	20240
896.74	20180
896.861	20206
896.982	20476
897.103	20724
897.224	20446
897.345	20393
897.466	20275
897.587	20480
897.708	20465
897.828	20480
897.949	20374
898.07	20278
898.19	20366
898.311	20556
898.431	20202
898.552	20389
898.672	20480
898.792	20419
898.913	20499
899.033	20294
899.153	20157
899.273	20084
899.393	20180
899.513	20187
899.633	20126
899.753	20107
899.873	20206
899.993	20115
900.113	20142
900.232	20142
900.352	20050
900.472	20016
900.591	19955
900.711	19921
900.83	19845
900.95	19967
901.069	19932
901.189	19883
901.308	19597
901.427	19422
901.546	19559
901.665	19616
901.784	19616
901.904	19381
902.023	19266
902.141	19072
902.26	19088
902.379	19095
902.498	18886
902.617	19061
902.735	19095
902.854	19065
902.973	18985
903.091	18654
903.21	18760
903.328	18650
903.446	18623
903.565	18555
903.683	18551
903.801	18403
903.919	18506
904.038	18414
904.156	18361
904.274	18334
904.392	18228
904.51	18270
904.627	18296
904.745	18353
904.863	18357
904.981	18095
905.098	17939
905.216	17969
905.334	17904
905.451	17855
905.569	17748
905.686	17965
905.803	17984
905.921	17836
906.038	17783
906.155	17794
906.272	17630
906.389	17684
906.506	17516
906.623	17455
906.74	17425
906.857	17353
906.974	17383
907.091	17459
907.208	17558
907.324	17406
907.441	17337
907.557	17208
907.674	17273
907.79	17105
907.907	17193
908.023	17181
908.139	17083
908.256	17197
908.372	17109
908.488	16923
908.604	16995
908.72	16904
908.836	16987
908.952	16824
909.068	16999
909.184	16949
909.3	16885
909.415	16873
909.531	16805
909.647	16653
909.762	16519
909.878	16577
909.993	16603
910.108	16588
910.224	16481
910.339	16615
910.454	16497
910.57	16459
910.685	16356
910.8	16748
910.915	16512
911.03	16322
911.145	16139
911.259	16219
911.374	16101
911.489	16044
911.604	16097
911.718	15953
911.833	15911
911.947	15785
912.062	15789
912.176	15895
912.291	15903
912.405	15937
912.519	16051
912.633	16063
912.748	15972
912.862	15930
912.976	15762
913.09	15584
913.204	15656
913.318	15694
913.431	15873
913.545	15774
913.659	15842
913.772	15717
913.886	15606
914	15477
914.113	15629
914.226	15637
914.34	15584
914.453	15469
914.566	15580
914.68	15485
914.793	15412
914.906	15279
915.019	15245
915.132	15097
915.245	15157
915.358	15329
915.47	15154
915.583	15165
915.696	15272
915.809	15268
915.921	15310
916.034	15066
916.146	15032
916.259	15119
916.371	15195
916.483	15119
916.595	14956
916.708	15066
916.82	14937
916.932	14891
917.044	15020
917.156	14937
917.268	14819
917.38	14826
917.491	14792
917.603	14727
917.715	14861
917.826	14872
917.938	14735
918.049	14667
918.161	14758
918.272	14906
918.384	14963
918.495	14731
918.606	14613
918.717	14560
918.828	14537
918.939	14621
919.05	14434
919.161	14492
919.272	14366
919.383	14415
919.494	14533
919.604	14731
919.715	14533
919.826	14450
919.936	14404
920.047	14587
920.157	14594
920.267	14743
920.378	14484
920.488	14438
920.598	14663
920.708	14735
920.818	14857
920.928	14644
921.038	14777
921.148	14743
921.258	14393
921.368	14374
921.477	14244
921.587	14244
921.697	14138
921.806	14324
921.916	14142
922.025	13894
922.134	13894
922.244	13784
922.353	13887
922.462	13803
922.571	13609
922.68	13563
922.789	13499
922.898	13514
923.007	13502
923.116	13510
923.224	13586
923.333	13460
923.442	13449
923.55	13381
923.659	13472
923.767	13480
923.876	13392
923.984	13502
924.092	13297
924.201	13335
924.309	13369
924.417	13232
924.525	13213
924.633	13137
924.741	14092
924.849	13053
924.956	13152
925.064	13027
925.172	12943
925.279	12875
925.387	12916
925.494	12943
925.602	13141
925.709	12928
925.816	12920
925.924	12966
926.031	12966
926.138	12878
926.245	12871
926.352	12814
926.459	12939
926.566	12935
926.673	12726
926.779	12817
926.886	12798
926.993	12540
927.099	12555
927.206	12509
927.312	12566
927.419	12578
927.525	12597
927.631	12494
927.737	12441
927.843	12334
927.95	12281
928.056	12380
928.162	12429
928.267	12452
928.373	13000
928.479	12486
928.585	12205
928.69	12270
928.796	12277
928.901	12228
929.007	11996
929.112	12186
929.218	12163
929.323	12106
929.428	12015
929.533	12205
929.638	12026
929.743	11961
929.848	12072
929.953	11965
930.058	11935
930.163	11741
930.267	11699
930.372	11893
930.477	11729
930.581	11954
930.685	11828
930.79	11649
930.894	11630
930.998	11604
931.103	11684
931.207	11356
931.311	11318
931.415	11273
931.519	11022
931.623	11025
