Data from test_V78500241_1791.txt Node
Date: Fri Mar 25 15:22:19 CST 2022
User: usil
Spectrometer: V785-0024
Trigger mode: 0
Integration Time (sec): 4.000000E-1
Scans to average: 1
Nonlinearity correction enabled: false
Boxcar width: 0
Storing dark spectrum: false
XAxis mode: Wavelengths
Number of Pixels in Spectrum: 1024
>>>>>Begin Spectral Data<<<<<
801.071	27736
801.214	27724
801.356	27466
801.499	27405
801.641	27287
801.783	27287
801.926	27359
802.068	27310
802.211	27150
802.353	27142
802.496	26940
802.638	26979
802.78	26826
802.923	26785
803.065	26853
803.208	26815
803.35	26826
803.492	26914
803.635	27131
803.777	27043
803.919	26971
804.061	27397
804.204	27176
804.346	26998
804.488	27116
804.63	27100
804.773	27009
804.915	27188
805.057	27116
805.199	27028
805.341	27279
805.483	27336
805.626	27214
805.768	27218
805.91	27222
806.052	27397
806.194	27096
806.336	27526
806.478	27408
806.62	27226
806.762	27466
806.904	27542
807.046	27705
807.188	27694
807.33	27614
807.472	27572
807.614	27644
807.756	27561
807.898	27542
808.04	27447
808.182	27447
808.324	27545
808.465	27610
808.607	27778
808.749	27831
808.891	27968
809.033	28029
809.174	28059
809.316	27797
809.458	27922
809.6	27876
809.741	27960
809.883	28017
810.025	28044
810.166	28223
810.308	28147
810.45	28025
810.591	27994
810.733	28006
810.875	27812
811.016	27812
811.158	27804
811.299	27914
811.441	27911
811.582	27895
811.724	27778
811.865	27797
812.007	27816
812.148	27994
812.29	27774
812.431	27873
812.573	28280
812.714	28295
812.855	28512
812.997	28318
813.138	28561
813.279	28538
813.421	28344
813.562	28363
813.703	28257
813.845	28090
813.986	27724
814.127	27557
814.268	27542
814.41	27606
814.551	27568
814.692	27595
814.833	27408
814.974	27504
815.115	27557
815.256	27534
815.397	27534
815.539	27542
815.68	27325
815.821	27233
815.962	27485
816.103	27306
816.244	27230
816.385	27169
816.526	27085
816.666	26971
816.807	26811
816.948	26986
817.089	26982
817.23	26895
817.371	26830
817.512	26724
817.653	26613
817.793	26830
817.934	26777
818.075	26777
818.216	26918
818.356	26670
818.497	26617
818.638	26480
818.778	26571
818.919	26636
819.06	26663
819.2	26701
819.341	26689
819.481	26910
819.622	26925
819.762	27013
819.903	27089
820.043	26944
820.184	27051
820.324	26933
820.465	27085
820.605	26960
820.746	26872
820.886	26811
821.026	26842
821.167	26891
821.307	26933
821.447	26750
821.588	26644
821.728	26632
821.868	26579
822.008	26180
822.149	26385
822.289	26396
822.429	25989
822.569	26084
822.709	25951
822.849	25833
822.99	25761
823.13	25833
823.27	25674
823.41	25525
823.55	25518
823.69	25742
823.83	25616
823.97	25559
824.11	25472
824.25	25419
824.389	25434
824.529	25472
824.669	25384
824.809	25548
824.949	25533
825.089	25548
825.228	25468
825.368	25373
825.508	25148
825.648	25312
825.787	25335
825.927	25358
826.067	25358
826.206	25179
826.346	25339
826.485	25324
826.625	25285
826.765	25407
826.904	25255
827.044	25057
827.183	25103
827.323	25099
827.462	25110
827.601	25034
827.741	24973
827.88	25129
828.02	24924
828.159	25061
828.298	25027
828.437	25183
828.577	24897
828.716	25027
828.855	24783
828.994	24791
829.134	24741
829.273	24692
829.412	24757
829.551	24566
829.69	24608
829.829	24684
829.968	24863
830.107	24833
830.246	24730
830.385	24734
830.524	24654
830.663	24544
830.802	24555
830.941	24330
831.08	24182
831.219	24388
831.357	24410
831.496	24635
831.635	24384
831.774	24247
831.913	24285
832.051	24167
832.19	24125
832.329	24167
832.467	24068
832.606	24117
832.744	23935
832.883	24026
833.022	24102
833.16	23961
833.299	24216
833.437	24159
833.576	24087
833.714	24182
833.852	24125
833.991	24106
834.129	24095
834.267	24121
834.406	24174
834.544	24220
834.682	24148
834.821	24251
834.959	24300
835.097	24106
835.235	24110
835.373	24064
835.511	24041
835.65	23992
835.788	23935
835.926	23783
836.064	23832
836.202	23745
836.34	23920
836.478	24057
836.615	23992
836.753	23885
836.891	23973
837.029	23920
837.167	23912
837.305	23939
837.443	23954
837.58	23843
837.718	23927
837.856	23703
837.993	23809
838.131	23828
838.269	23604
838.406	23752
838.544	23619
838.681	23501
838.819	23398
838.956	23250
839.094	23227
839.231	23292
839.369	23566
839.506	23764
839.643	23531
839.781	23250
839.918	23235
840.055	23250
840.193	23280
840.33	23159
840.467	23292
840.604	23193
840.742	23337
840.879	23041
841.016	23174
841.153	23041
841.29	23143
841.427	23132
841.564	23353
841.701	23185
841.838	23170
841.975	23048
842.112	23121
842.249	23014
842.385	22915
842.522	23178
842.659	23044
842.796	23041
842.933	22877
843.069	22816
843.206	22805
843.343	22946
843.479	22949
843.616	22946
843.752	22694
843.889	22740
844.025	22843
844.162	22649
844.298	22835
844.435	22672
844.571	22611
844.708	22782
844.844	22877
844.98	22736
845.117	22786
845.253	22653
845.389	22618
845.525	22603
845.661	22519
845.798	22519
845.934	22519
846.07	22356
846.206	22561
846.342	22615
846.478	22451
846.614	22314
846.75	22116
846.886	22249
847.022	22242
847.158	22261
847.294	22215
847.429	22268
847.565	22128
847.701	22344
847.837	21907
847.972	21880
848.108	22036
848.244	21975
848.379	21759
848.515	21713
848.65	21751
848.786	21850
848.921	21873
849.057	21797
849.192	21945
849.328	21743
849.463	21785
849.598	21686
849.734	21667
849.869	21614
850.004	21561
850.14	21504
850.275	21549
850.41	21485
850.545	21564
850.68	21500
850.815	21549
850.95	21606
851.085	21701
851.22	21679
851.355	21542
851.49	21633
851.625	21363
851.76	21515
851.895	21469
852.03	21450
852.165	21450
852.299	21507
852.434	21656
852.569	21595
852.703	21663
852.838	21587
852.973	21690
853.107	21523
853.242	21477
853.376	21397
853.511	21211
853.645	21401
853.78	21492
853.914	21370
854.048	21321
854.183	21325
854.317	21367
854.451	21568
854.585	21336
854.72	21378
854.854	21447
854.988	21439
855.122	21340
855.256	21249
855.39	21348
855.524	21412
855.658	21447
855.792	21393
855.926	21313
856.06	21367
856.194	21370
856.327	21332
856.461	21370
856.595	21298
856.729	21287
856.862	21488
856.996	21401
857.13	21496
857.263	21405
857.397	21466
857.53	21272
857.664	21359
857.797	21393
857.931	21496
858.064	21283
858.197	21447
858.331	21344
858.464	21291
858.597	21294
858.731	21260
858.864	21245
858.997	21321
859.13	21405
859.263	21462
859.396	21420
859.529	21264
859.662	21355
859.795	21294
859.928	21367
860.061	21473
860.194	21618
860.327	21378
860.46	21340
860.592	21492
860.725	21462
860.858	21477
860.99	21264
861.123	21306
861.256	21313
861.388	21359
861.521	21926
861.653	21260
861.786	21275
861.918	21127
862.05	21264
862.183	21302
862.315	21332
862.447	21249
862.58	21180
862.712	21161
862.844	20982
862.976	21077
863.108	21112
863.24	21313
863.372	20982
863.504	21096
863.636	21062
863.768	21051
863.9	21112
864.032	20979
864.164	21047
864.296	21028
864.428	21161
864.559	21119
864.691	21104
864.823	21047
864.954	21028
865.086	21081
865.217	20929
865.349	20834
865.48	20823
865.612	20944
865.743	21085
865.875	20925
866.006	20914
866.137	20998
866.269	21036
866.4	20872
866.531	20880
866.662	20933
866.793	20830
866.924	20975
867.055	20910
867.186	20921
867.317	20868
867.448	20880
867.579	20876
867.71	20777
867.841	20815
867.972	20883
868.103	20830
868.233	20956
868.364	20872
868.495	21032
868.625	21173
868.756	21252
868.886	21112
869.017	21089
869.147	21116
869.278	21211
869.408	21199
869.539	21211
869.669	21264
869.799	21055
869.929	21302
870.06	21287
870.19	21507
870.32	21329
870.45	21481
870.58	21606
870.71	21625
870.84	21637
870.97	21587
871.1	21500
871.23	21720
871.36	21842
871.489	21652
871.619	21656
871.749	21766
871.879	21739
872.008	21755
872.138	21660
872.267	21671
872.397	21492
872.526	21709
872.656	21572
872.785	21462
872.915	21808
873.044	21770
873.173	21641
873.303	21861
873.432	21808
873.561	21831
873.69	21781
873.819	21778
873.948	21709
874.077	21759
874.206	21747
874.335	21679
874.464	21724
874.593	21953
874.722	21915
874.851	22017
874.979	22013
875.108	22082
875.237	21979
875.365	21827
875.494	21892
875.623	22074
875.751	21895
875.88	21937
876.008	22040
876.136	22131
876.265	22341
876.393	22474
876.521	22405
876.65	22409
876.778	22394
876.906	22344
877.034	22230
877.162	22348
877.29	22344
877.418	22333
877.546	22310
877.674	22238
877.802	22356
877.93	22257
878.058	22253
878.185	22219
878.313	22322
878.441	22322
878.568	22059
878.696	22223
878.824	22268
878.951	22405
879.079	22474
879.206	22588
879.333	22375
879.461	22405
879.588	22417
879.715	22615
879.842	22550
879.97	22462
880.097	22097
880.224	22188
880.351	22242
880.478	22219
880.605	22139
880.732	22147
880.859	22428
880.986	22097
881.112	22124
881.239	21964
881.366	21895
881.493	21838
881.619	21656
881.746	21652
881.872	21797
881.999	21778
882.125	21705
882.252	21755
882.378	21732
882.505	21728
882.631	21618
882.757	21511
882.883	21557
883.01	21424
883.136	21393
883.262	21287
883.388	21207
883.514	21473
883.64	21420
883.766	21344
883.892	21207
884.018	21142
884.143	21310
884.269	21397
884.395	21142
884.52	21032
884.646	21020
884.772	21119
884.897	21005
885.023	20994
885.148	21161
885.274	21382
885.399	21275
885.524	21108
885.65	21161
885.775	21176
885.9	21108
886.025	21131
886.15	21100
886.275	21032
886.4	21005
886.525	21100
886.65	20899
886.775	20956
886.9	21180
887.025	21195
887.149	21096
887.274	20948
887.399	20823
887.523	20800
887.648	20891
887.773	20739
887.897	20941
888.021	20929
888.146	20781
888.27	20902
888.395	20773
888.519	20876
888.643	20887
888.767	20754
888.891	20769
889.015	20644
889.139	20746
889.263	20590
889.387	20746
889.511	20872
889.635	20743
889.759	20617
889.883	20522
890.006	20606
890.13	20602
890.254	20568
890.377	20609
890.501	20431
890.624	20381
890.748	20328
890.871	20214
890.995	20210
891.118	20130
891.241	20271
891.364	20183
891.488	20336
891.611	20286
891.734	20122
891.857	20282
891.98	20168
892.103	20214
892.226	20210
892.349	20062
892.471	20035
892.594	20084
892.717	20202
892.839	20035
892.962	20031
893.085	20134
893.207	20065
893.33	19940
893.452	20001
893.575	20126
893.697	20046
893.819	20278
893.941	20248
894.064	20221
894.186	20054
894.308	19959
894.43	20088
894.552	20164
894.674	20168
894.796	19978
894.918	20122
895.04	20020
895.161	20149
895.283	20240
895.405	20043
895.526	20096
895.648	20035
895.769	20073
895.891	20168
896.012	20084
896.134	20065
896.255	20024
896.376	20077
896.498	20130
896.619	20142
896.74	20183
896.861	20206
896.982	20389
897.103	20488
897.224	20336
897.345	20324
897.466	20191
897.587	20328
897.708	20408
897.828	20275
897.949	20180
898.07	20035
898.19	20351
898.311	20393
898.431	20263
898.552	20347
898.672	20370
898.792	20374
898.913	20313
899.033	20240
899.153	20054
899.273	20054
899.393	20081
899.513	20005
899.633	20077
899.753	20077
899.873	19970
899.993	20065
900.113	20054
900.232	20107
900.352	19993
900.472	19921
900.591	19791
900.711	19822
900.83	19875
900.95	19993
901.069	19989
901.189	19837
901.308	19514
901.427	19301
901.546	19506
901.665	19396
901.784	19441
901.904	19327
902.023	19145
902.141	18867
902.26	18932
902.379	18932
902.498	18973
902.617	19008
902.735	19015
902.854	18840
902.973	18837
903.091	18616
903.21	18681
903.328	18646
903.446	18559
903.565	18448
903.683	18426
903.801	18289
903.919	18418
904.038	18350
904.156	18262
904.274	18235
904.392	18224
904.51	18140
904.627	18072
904.745	18258
904.863	18239
904.981	17912
905.098	17783
905.216	17874
905.334	17904
905.451	17870
905.569	17707
905.686	17969
905.803	17901
905.921	17649
906.038	17687
906.155	17729
906.272	17444
906.389	17505
906.506	17448
906.623	17337
906.74	17459
906.857	17284
906.974	17235
907.091	17493
907.208	17471
907.324	17440
907.441	17242
907.557	17223
907.674	17079
907.79	17025
907.907	16987
908.023	17223
908.139	17079
908.256	17048
908.372	16991
908.488	16953
908.604	16869
908.72	16797
908.836	16782
908.952	16889
909.068	16873
909.184	16892
909.3	16835
909.415	16881
909.531	16866
909.647	16508
909.762	16569
909.878	16485
909.993	16481
910.108	16561
910.224	16447
910.339	16500
910.454	16466
910.57	16314
910.685	16207
910.8	16538
910.915	16485
911.03	16402
911.145	16257
911.259	16185
911.374	16128
911.489	16036
911.604	15994
911.718	15869
911.833	15880
911.947	15827
912.062	15637
912.176	15865
912.291	15808
912.405	15823
912.519	16010
912.633	16002
912.748	15953
912.862	15819
912.976	15713
913.09	15576
913.204	15625
913.318	15755
913.431	15785
913.545	15732
913.659	15785
913.772	15682
913.886	15492
914	15488
914.113	15523
914.226	15671
914.34	15488
914.453	15378
914.566	15477
914.68	15408
914.793	15291
914.906	15256
915.019	15100
915.132	15081
915.245	15043
915.358	15108
915.47	15157
915.583	15135
915.696	15047
915.809	15230
915.921	15184
916.034	14998
916.146	15009
916.259	14979
916.371	15112
916.483	15005
916.595	14883
916.708	14906
916.82	14925
916.932	14906
917.044	14857
917.156	14777
917.268	14648
917.38	14811
917.491	14705
917.603	14712
917.715	14804
917.826	14819
917.938	14648
918.049	14613
918.161	14735
918.272	14758
918.384	14765
918.495	14655
918.606	14518
918.717	14419
918.828	14454
918.939	14488
919.05	14423
919.161	14564
919.272	14206
919.383	14263
919.494	14514
919.604	14826
919.715	14514
919.826	14412
919.936	14450
920.047	14461
920.157	14488
920.267	14518
920.378	14427
920.488	14389
920.598	14579
920.708	14804
920.818	14606
920.928	14571
921.038	14705
921.148	14640
921.258	14374
921.368	14351
921.477	14259
921.587	14183
921.697	14126
921.806	14244
921.916	14073
922.025	13833
922.134	13784
922.244	13811
922.353	13845
922.462	13696
922.571	13734
922.68	13521
922.789	13506
922.898	13483
923.007	13510
923.116	13472
923.224	13514
923.333	13377
923.442	13369
923.55	13198
923.659	13373
923.767	13415
923.876	13285
923.984	13373
924.092	13266
924.201	13171
924.309	13266
924.417	13263
924.525	13187
924.633	13126
924.741	14123
924.849	12985
924.956	13118
925.064	12905
925.172	12886
925.279	12806
925.387	12886
925.494	12890
925.602	12958
925.709	13015
925.816	12844
925.924	12856
926.031	12943
926.138	12981
926.245	12875
926.352	12779
926.459	12920
926.566	12951
926.673	12810
926.779	12650
926.886	12654
926.993	12578
927.099	12479
927.206	12403
927.312	12536
927.419	12566
927.525	12498
927.631	12479
927.737	12418
927.843	12342
927.95	12277
928.056	12452
928.162	12330
928.267	12372
928.373	12966
928.479	12357
928.585	12190
928.69	12262
928.796	12273
928.901	12232
929.007	11958
929.112	12155
929.218	12091
929.323	12034
929.428	11897
929.533	12197
929.638	11973
929.743	11950
929.848	12007
929.953	11961
930.058	11874
930.163	11741
930.267	11741
930.372	11813
930.477	11638
930.581	11874
930.685	11790
930.79	11604
930.894	11627
930.998	11543
931.103	11703
931.207	11303
931.311	11258
931.415	11185
931.519	10934
931.623	11018
