Data from test_V78500241_128.txt Node
Date: Fri Mar 25 15:10:45 CST 2022
User: usil
Spectrometer: V785-0024
Trigger mode: 0
Integration Time (sec): 4.000000E-1
Scans to average: 1
Nonlinearity correction enabled: false
Boxcar width: 0
Storing dark spectrum: false
XAxis mode: Wavelengths
Number of Pixels in Spectrum: 1024
>>>>>Begin Spectral Data<<<<<
801.071	28230
801.214	28295
801.356	27941
801.499	27823
801.641	27819
801.783	27827
801.926	27880
802.068	27876
802.211	27557
802.353	27717
802.496	27443
802.638	27504
802.78	27561
802.923	27291
803.065	27321
803.208	27435
803.35	27351
803.492	27367
803.635	27564
803.777	27412
803.919	27408
804.061	27876
804.204	27637
804.346	27393
804.488	27348
804.63	27408
804.773	27230
804.915	27564
805.057	27610
805.199	27504
805.341	27496
805.483	27405
805.626	27583
805.768	27481
805.91	27564
806.052	27644
806.194	27454
806.336	27728
806.478	27507
806.62	27526
806.762	27557
806.904	27709
807.046	27949
807.188	27979
807.33	27873
807.472	27930
807.614	27964
807.756	27907
807.898	27831
808.04	27675
808.182	27755
808.324	27713
808.465	27652
808.607	27941
808.749	28051
808.891	28059
809.033	28261
809.174	28253
809.316	28010
809.458	28120
809.6	27964
809.741	28204
809.883	28291
810.025	28268
810.166	28234
810.308	28196
810.45	28280
810.591	28139
810.733	28101
810.875	27960
811.016	28093
811.158	27857
811.299	28067
811.441	28116
811.582	28070
811.724	27956
811.865	27994
812.007	27964
812.148	27998
812.29	28131
812.431	28196
812.573	28333
812.714	28409
812.855	28443
812.997	28618
813.138	28801
813.279	28672
813.421	28424
813.562	28527
813.703	28436
813.845	28044
813.986	27937
814.127	27576
814.268	27504
814.41	27686
814.551	27644
814.692	27580
814.833	27492
814.974	27408
815.115	27580
815.256	27538
815.397	27412
815.539	27462
815.68	27249
815.821	27389
815.962	27310
816.103	27496
816.244	27226
816.385	27192
816.526	27127
816.666	26876
816.807	26876
816.948	26758
817.089	26857
817.23	26823
817.371	26743
817.512	26781
817.653	26659
817.793	26609
817.934	26712
818.075	26857
818.216	26777
818.356	26743
818.497	26651
818.638	26427
818.778	26450
818.919	26400
819.06	26522
819.2	26667
819.341	26693
819.481	26705
819.622	26689
819.762	26967
819.903	26944
820.043	26792
820.184	26750
820.324	26750
820.465	26876
820.605	26887
820.746	26762
820.886	26655
821.026	26689
821.167	26644
821.307	26762
821.447	26743
821.588	26518
821.728	26480
821.868	26317
822.008	26145
822.149	26081
822.289	26084
822.429	25921
822.569	25989
822.709	25746
822.849	25628
822.99	25635
823.13	25590
823.27	25605
823.41	25362
823.55	25324
823.69	25441
823.83	25476
823.97	25221
824.11	25217
824.25	25194
824.389	25148
824.529	25343
824.669	25183
824.809	25236
824.949	25278
825.089	25320
825.228	25072
825.368	25114
825.508	25103
825.648	25076
825.787	24962
825.927	25118
826.067	25000
826.206	24985
826.346	25023
826.485	25015
826.625	24989
826.765	25129
826.904	25080
827.044	24833
827.183	24639
827.323	24544
827.462	24677
827.601	24540
827.741	24669
827.88	24612
828.02	24509
828.159	24532
828.298	24597
828.437	24764
828.577	24486
828.716	24753
828.855	24589
828.994	24437
829.134	24357
829.273	24467
829.412	24315
829.551	24376
829.69	24388
829.829	24414
829.968	24369
830.107	24315
830.246	24372
830.385	24254
830.524	24292
830.663	24201
830.802	23965
830.941	23828
831.08	23950
831.219	23977
831.357	24011
831.496	24136
831.635	23771
831.774	23733
831.913	23832
832.051	23707
832.19	23695
832.329	23668
832.467	23600
832.606	23623
832.744	23486
832.883	23672
833.022	23611
833.16	23592
833.299	23543
833.437	23596
833.576	23554
833.714	23528
833.852	23634
833.991	23592
834.129	23707
834.267	23775
834.406	23486
834.544	23558
834.682	23543
834.821	23471
834.959	23657
835.097	23512
835.235	23714
835.373	23505
835.511	23505
835.65	23417
835.788	23433
835.926	23356
836.064	23128
836.202	23330
836.34	23493
836.478	23585
836.615	23410
836.753	23273
836.891	23398
837.029	23429
837.167	23330
837.305	23258
837.443	23326
837.58	23292
837.718	23227
837.856	23200
837.993	23128
838.131	23181
838.269	23025
838.406	23121
838.544	22957
838.681	22885
838.819	22877
838.956	22679
839.094	22691
839.231	22736
839.369	22854
839.506	23029
839.643	22847
839.781	22740
839.918	22630
840.055	22675
840.193	22538
840.33	22542
840.467	22561
840.604	22512
840.742	22824
840.879	22527
841.016	22561
841.153	22542
841.29	22508
841.427	22519
841.564	22596
841.701	22512
841.838	22523
841.975	22405
842.112	22348
842.249	22485
842.385	22310
842.522	22516
842.659	22249
842.796	22166
842.933	22261
843.069	22242
843.206	22348
843.343	22314
843.479	22223
843.616	22131
843.752	22051
843.889	21915
844.025	22112
844.162	21953
844.298	22131
844.435	22025
844.571	21979
844.708	21888
844.844	22238
844.98	22093
845.117	22078
845.253	21926
845.389	21892
845.525	21880
845.661	21762
845.798	21717
845.934	21747
846.07	21705
846.206	21766
846.342	21797
846.478	21618
846.614	21572
846.75	21420
846.886	21370
847.022	21614
847.158	21568
847.294	21515
847.429	21507
847.565	21420
847.701	21671
847.837	21142
847.972	21138
848.108	21370
848.244	21241
848.379	21043
848.515	21104
848.65	21024
848.786	21024
848.921	21104
849.057	21085
849.192	21146
849.328	21036
849.463	21028
849.598	20994
849.734	20880
849.869	20804
850.004	20792
850.14	20781
850.275	20994
850.41	20708
850.545	20754
850.68	20815
850.815	20720
850.95	20804
851.085	20864
851.22	20830
851.355	20800
851.49	20746
851.625	20686
851.76	20735
851.895	20674
852.03	20644
852.165	20731
852.299	20758
852.434	20762
852.569	20792
852.703	20705
852.838	20792
852.973	20849
853.107	20800
853.242	20716
853.376	20499
853.511	20492
853.645	20598
853.78	20720
853.914	20579
854.048	20507
854.183	20492
854.317	20514
854.451	20724
854.585	20583
854.72	20602
854.854	20682
854.988	20404
855.122	20602
855.256	20434
855.39	20602
855.524	20682
855.658	20492
855.792	20522
855.926	20663
856.06	20640
856.194	20636
856.327	20434
856.461	20423
856.595	20473
856.729	20606
856.862	20674
856.996	20537
857.13	20583
857.263	20735
857.397	20678
857.53	20495
857.664	20549
857.797	20541
857.931	20594
858.064	20552
858.197	20648
858.331	20522
858.464	20488
858.597	20438
858.731	20492
858.864	20522
858.997	20450
859.13	20492
859.263	20507
859.396	20495
859.529	20465
859.662	20427
859.795	20434
859.928	20556
860.061	20606
860.194	20621
860.327	20579
860.46	20469
860.592	20678
860.725	20682
860.858	20594
860.99	20514
861.123	20385
861.256	20412
861.388	20385
861.521	21268
861.653	20362
861.786	20415
861.918	20351
862.05	20457
862.183	20495
862.315	20594
862.447	20613
862.58	20609
862.712	20145
862.844	20168
862.976	20199
863.108	20396
863.24	20678
863.372	20138
863.504	20164
863.636	20145
863.768	20100
863.9	20267
864.032	20020
864.164	20088
864.296	20195
864.428	20256
864.559	20278
864.691	20278
864.823	20278
864.954	20142
865.086	20157
865.217	20031
865.349	20043
865.48	20058
865.612	20062
865.743	20298
865.875	20054
866.006	20073
866.137	20092
866.269	20050
866.4	19982
866.531	20100
866.662	19982
866.793	19963
866.924	19887
867.055	19989
867.186	20069
867.317	20084
867.448	19936
867.579	20142
867.71	19879
867.841	19913
867.972	20027
868.103	20001
868.233	20031
868.364	19967
868.495	20111
868.625	20191
868.756	20412
868.886	20183
869.017	20336
869.147	20275
869.278	20286
869.408	20339
869.539	20187
869.669	20412
869.799	20214
869.929	20393
870.06	20419
870.19	20594
870.32	20533
870.45	20617
870.58	20693
870.71	20819
870.84	20769
870.97	20636
871.1	20689
871.23	20830
871.36	20834
871.489	20807
871.619	20853
871.749	20804
871.879	20902
872.008	20864
872.138	20895
872.267	20857
872.397	20712
872.526	20640
872.656	20785
872.785	20663
872.915	20857
873.044	20910
873.173	20861
873.303	20948
873.432	20880
873.561	21104
873.69	20921
873.819	20876
873.948	20979
874.077	20899
874.206	20792
874.335	20819
874.464	20933
874.593	21089
874.722	21127
874.851	21165
874.979	21096
875.108	21104
875.237	21157
875.365	21066
875.494	21081
875.623	21070
875.751	21169
875.88	21047
876.008	21230
876.136	21329
876.265	21603
876.393	21656
876.521	21675
876.65	21576
876.778	21526
876.906	21424
877.034	21511
877.162	21454
877.29	21389
877.418	21405
877.546	21428
877.674	21401
877.802	21488
877.93	21488
878.058	21317
878.185	21340
878.313	21420
878.441	21587
878.568	21279
878.696	21408
878.824	21469
878.951	21534
879.079	21728
879.206	21781
879.333	21629
879.461	21500
879.588	21561
879.715	21671
879.842	21793
879.97	21576
880.097	21393
880.224	21412
880.351	21359
880.478	21332
880.605	21294
880.732	21218
880.859	21488
880.986	21367
881.112	21397
881.239	21165
881.366	20925
881.493	21036
881.619	21028
881.746	20845
881.872	20895
881.999	20777
882.125	20842
882.252	20956
882.378	20891
882.505	21146
882.631	20887
882.757	20659
882.883	20727
883.01	20613
883.136	20568
883.262	20454
883.388	20469
883.514	20659
883.64	20667
883.766	20511
883.892	20495
884.018	20446
884.143	20549
884.269	20659
884.395	20450
884.52	20218
884.646	20366
884.772	20187
884.897	20001
885.023	20294
885.148	20400
885.274	20381
885.399	20377
885.524	20366
885.65	20313
885.775	20275
885.9	20145
886.025	20328
886.15	20233
886.275	20244
886.4	20138
886.525	20244
886.65	20122
886.775	20149
886.9	20396
887.025	20305
887.149	20252
887.274	20096
887.399	20103
887.523	20100
887.648	19925
887.773	19989
887.897	20134
888.021	20073
888.146	19811
888.27	20122
888.395	20168
888.519	20130
888.643	20084
888.767	20016
888.891	19883
889.015	19860
889.139	19879
889.263	19871
889.387	20027
889.511	19963
889.635	19871
889.759	19875
889.883	19731
890.006	19871
890.13	19921
890.254	19727
890.377	19666
890.501	19639
890.624	19540
890.748	19632
890.871	19525
890.995	19346
891.118	19312
891.241	19350
891.364	19354
891.488	19616
891.611	19339
891.734	19495
891.857	19377
891.98	19468
892.103	19514
892.226	19392
892.349	19388
892.471	19236
892.594	19331
892.717	19495
892.839	19415
892.962	19331
893.085	19358
893.207	19354
893.33	19122
893.452	19316
893.575	19384
893.697	19324
893.819	19529
893.941	19567
894.064	19419
894.186	19320
894.308	19259
894.43	19419
894.552	19426
894.674	19464
894.796	19266
894.918	19297
895.04	19259
895.161	19445
895.283	19381
895.405	19247
895.526	19308
895.648	19304
895.769	19354
895.891	19400
896.012	19419
896.134	19468
896.255	19312
896.376	19407
896.498	19392
896.619	19392
896.74	19396
896.861	19624
896.982	19719
897.103	19799
897.224	19670
897.345	19575
897.466	19556
897.587	19563
897.708	19738
897.828	19605
897.949	19518
898.07	19457
898.19	19502
898.311	19655
898.431	19578
898.552	19556
898.672	19670
898.792	19521
898.913	19666
899.033	19491
899.153	19384
899.273	19278
899.393	19346
899.513	19365
899.633	19187
899.753	19335
899.873	19278
899.993	19320
900.113	19217
900.232	19293
900.352	19293
900.472	19095
900.591	19065
900.711	19148
900.83	19034
900.95	19160
901.069	19240
901.189	19141
901.308	18760
901.427	18703
901.546	18779
901.665	18844
901.784	18719
901.904	18593
902.023	18445
902.141	18243
902.26	18232
902.379	18334
902.498	18194
902.617	18194
902.735	18285
902.854	18152
902.973	18068
903.091	17984
903.21	17855
903.328	17874
903.446	17843
903.565	17748
903.683	17828
903.801	17532
903.919	17760
904.038	17699
904.156	17554
904.274	17630
904.392	17425
904.51	17539
904.627	17440
904.745	17467
904.863	17486
904.981	17299
905.098	17193
905.216	17204
905.334	17037
905.451	17166
905.569	17094
905.686	17181
905.803	17075
905.921	16904
906.038	17048
906.155	16999
906.272	16790
906.389	16778
906.506	16748
906.623	16748
906.74	16717
906.857	16637
906.974	16618
907.091	16683
907.208	16797
907.324	16645
907.441	16558
907.557	16459
907.674	16409
907.79	16322
907.907	16246
908.023	16318
908.139	16394
908.256	16318
908.372	16238
908.488	16135
908.604	16071
908.72	16059
908.836	16029
908.952	16036
909.068	16101
909.184	16162
909.3	16044
909.415	16154
909.531	16090
909.647	15747
909.762	15808
909.878	15762
909.993	15804
910.108	15667
910.224	15690
910.339	15759
910.454	15679
910.57	15523
910.685	15511
910.8	15911
910.915	15694
911.03	15614
911.145	15317
911.259	15336
911.374	15351
911.489	15294
911.604	15165
911.718	15116
911.833	15241
911.947	15089
912.062	14941
912.176	15093
912.291	15077
912.405	15112
912.519	15363
912.633	15233
912.748	15127
912.862	15097
912.976	14937
913.09	14788
913.204	14842
913.318	14929
913.431	15047
913.545	15001
913.659	15097
913.772	14857
913.886	14765
914	14765
914.113	14902
914.226	14845
914.34	14750
914.453	14674
914.566	14792
914.68	14693
914.793	14651
914.906	14374
915.019	14389
915.132	14389
915.245	14396
915.358	14434
915.47	14381
915.583	14347
915.696	14423
915.809	14549
915.921	14514
916.034	14404
916.146	14298
916.259	14362
916.371	14328
916.483	14381
916.595	14237
916.708	14237
916.82	14191
916.932	14233
917.044	14142
917.156	14077
917.268	14164
917.38	14062
917.491	14005
917.603	14092
917.715	14256
917.826	14145
917.938	14020
918.049	13963
918.161	13951
918.272	14138
918.384	14225
918.495	13959
918.606	13887
918.717	13738
918.828	13909
918.939	13902
919.05	13674
919.161	13742
919.272	13594
919.383	13643
919.494	13860
919.604	14039
919.715	13913
919.826	13750
919.936	13818
920.047	13868
920.157	13731
920.267	13902
920.378	13814
920.488	13715
920.598	14016
920.708	14012
920.818	13936
920.928	13902
921.038	14069
921.148	13978
921.258	13738
921.368	13632
921.477	13597
921.587	13571
921.697	13441
921.806	13537
921.916	13297
922.025	13228
922.134	13133
922.244	13118
922.353	13141
922.462	13099
922.571	12989
922.68	12848
922.789	12757
922.898	12749
923.007	12749
923.116	12852
923.224	12738
923.333	12719
923.442	12738
923.55	12627
923.659	12604
923.767	12646
923.876	12612
923.984	12639
924.092	12540
924.201	12608
924.309	12563
924.417	12517
924.525	12559
924.633	12471
924.741	13202
924.849	12243
924.956	12475
925.064	12350
925.172	12209
925.279	12228
925.387	12311
925.494	12285
925.602	12372
925.709	12270
925.816	12159
925.924	12254
926.031	12258
926.138	12266
926.245	12243
926.352	12106
926.459	12247
926.566	12330
926.673	12087
926.779	12064
926.886	12003
926.993	11927
927.099	11821
927.206	11779
927.312	11737
927.419	11912
927.525	11931
927.631	11897
927.737	11722
927.843	11752
927.95	11608
928.056	11691
928.162	11729
928.267	11710
928.373	12163
928.479	11802
928.585	11585
928.69	11615
928.796	11653
928.901	11570
929.007	11452
929.112	11566
929.218	11592
929.323	11448
929.428	11406
929.533	11585
929.638	11368
929.743	11277
929.848	11547
929.953	11296
930.058	11258
930.163	11079
930.267	11159
930.372	11258
930.477	11090
930.581	11345
930.685	11151
930.79	11006
930.894	11052
930.998	11033
931.103	11056
931.207	10759
931.311	10752
931.415	10641
931.519	10329
931.623	10325
