Data from test_V78500241_2243.txt Node
Date: Fri Mar 25 15:25:28 CST 2022
User: usil
Spectrometer: V785-0024
Trigger mode: 0
Integration Time (sec): 4.000000E-1
Scans to average: 1
Nonlinearity correction enabled: false
Boxcar width: 0
Storing dark spectrum: false
XAxis mode: Wavelengths
Number of Pixels in Spectrum: 1024
>>>>>Begin Spectral Data<<<<<
801.071	27808
801.214	27743
801.356	27511
801.499	27466
801.641	27218
801.783	27192
801.926	27401
802.068	27374
802.211	27195
802.353	27264
802.496	27020
802.638	27131
802.78	26918
802.923	26834
803.065	26864
803.208	26910
803.35	26830
803.492	26838
803.635	27169
803.777	27089
803.919	27089
804.061	27629
804.204	27344
804.346	27123
804.488	27055
804.63	27062
804.773	27009
804.915	27096
805.057	27325
805.199	27161
805.341	27321
805.483	27256
805.626	27275
805.768	27214
805.91	27230
806.052	27214
806.194	27195
806.336	27329
806.478	27348
806.62	27165
806.762	27427
806.904	27587
807.046	27797
807.188	27724
807.33	27823
807.472	27671
807.614	27572
807.756	27652
807.898	27454
808.04	27523
808.182	27454
808.324	27622
808.465	27553
808.607	27808
808.749	27854
808.891	28097
809.033	28044
809.174	27903
809.316	27895
809.458	27789
809.6	27911
809.741	28128
809.883	28070
810.025	28211
810.166	28139
810.308	28204
810.45	28147
810.591	28059
810.733	27964
810.875	27827
811.016	27797
811.158	27846
811.299	27892
811.441	28006
811.582	28048
811.724	27922
811.865	27876
812.007	27846
812.148	27789
812.29	27953
812.431	28010
812.573	28116
812.714	28409
812.855	28466
812.997	28592
813.138	28596
813.279	28523
813.421	28379
813.562	28405
813.703	28253
813.845	28048
813.986	27797
814.127	27739
814.268	27568
814.41	27545
814.551	27599
814.692	27755
814.833	27523
814.974	27370
815.115	27637
815.256	27496
815.397	27511
815.539	27458
815.68	27397
815.821	27416
815.962	27370
816.103	27424
816.244	27142
816.385	27093
816.526	27001
816.666	26994
816.807	26929
816.948	26876
817.089	27001
817.23	26670
817.371	26944
817.512	26792
817.653	26826
817.793	26735
817.934	26796
818.075	26952
818.216	26876
818.356	26883
818.497	26731
818.638	26552
818.778	26670
818.919	26511
819.06	26568
819.2	26754
819.341	26929
819.481	26807
819.622	26933
819.762	27142
819.903	27024
820.043	27001
820.184	26895
820.324	26929
820.465	27055
820.605	26963
820.746	27032
820.886	26632
821.026	27028
821.167	26975
821.307	27066
821.447	26849
821.588	26804
821.728	26621
821.868	26469
822.008	26309
822.149	26377
822.289	26362
822.429	25970
822.569	26077
822.709	26054
822.849	25947
822.99	25997
823.13	25845
823.27	25731
823.41	25731
823.55	25643
823.69	25681
823.83	25757
823.97	25559
824.11	25445
824.25	25415
824.389	25506
824.529	25525
824.669	25297
824.809	25597
824.949	25537
825.089	25559
825.228	25529
825.368	25331
825.508	25422
825.648	25308
825.787	25472
825.927	25316
826.067	25316
826.206	25377
826.346	25324
826.485	25324
826.625	25232
826.765	25407
826.904	25453
827.044	25160
827.183	25118
827.323	25072
827.462	25171
827.601	25008
827.741	25053
827.88	25015
828.02	24882
828.159	25027
828.298	25072
828.437	25072
828.577	24916
828.716	25053
828.855	24920
828.994	24726
829.134	24616
829.273	24787
829.412	24700
829.551	24688
829.69	24779
829.829	24859
829.968	24760
830.107	24745
830.246	24764
830.385	24673
830.524	24620
830.663	24654
830.802	24517
830.941	24464
831.08	24342
831.219	24486
831.357	24475
831.496	24521
831.635	24224
831.774	24232
831.913	24194
832.051	24018
832.19	24045
832.329	24129
832.467	24110
832.606	23984
832.744	23878
832.883	24041
833.022	23942
833.16	24060
833.299	24133
833.437	24015
833.576	23999
833.714	24136
833.852	24327
833.991	24224
834.129	24174
834.267	24117
834.406	24068
834.544	24159
834.682	24076
834.821	24045
834.959	24239
835.097	24091
835.235	24064
835.373	24015
835.511	24038
835.65	23927
835.788	23935
835.926	23821
836.064	23946
836.202	23745
836.34	23870
836.478	23942
836.615	23847
836.753	23961
836.891	23904
837.029	23893
837.167	23942
837.305	23760
837.443	23843
837.58	23657
837.718	23809
837.856	23558
837.993	23741
838.131	23699
838.269	23543
838.406	23581
838.544	23482
838.681	23383
838.819	23258
838.956	23246
839.094	23162
839.231	23235
839.369	23433
839.506	23482
839.643	23467
839.781	23261
839.918	23197
840.055	23159
840.193	23269
840.33	23147
840.467	23098
840.604	23372
840.742	23417
840.879	23022
841.016	23079
841.153	23083
841.29	23273
841.427	23029
841.564	23086
841.701	22987
841.838	23025
841.975	22987
842.112	23010
842.249	22862
842.385	22831
842.522	23014
842.659	22801
842.796	22793
842.933	22820
843.069	22805
843.206	22744
843.343	23041
843.479	22908
843.616	22892
843.752	22702
843.889	22831
844.025	22767
844.162	22649
844.298	22630
844.435	22660
844.571	22626
844.708	22694
844.844	22809
844.98	22557
845.117	22672
845.253	22584
845.389	22440
845.525	22550
845.661	22580
845.798	22371
845.934	22478
846.07	22432
846.206	22447
846.342	22554
846.478	22405
846.614	22150
846.75	22017
846.886	22242
847.022	22204
847.158	22215
847.294	22185
847.429	22181
847.565	22158
847.701	22272
847.837	21812
847.972	21922
848.108	21808
848.244	21838
848.379	21781
848.515	21698
848.65	21694
848.786	21785
848.921	21656
849.057	21869
849.192	21720
849.328	21755
849.463	21637
849.598	21637
849.734	21686
849.869	21519
850.004	21447
850.14	21534
850.275	21526
850.41	21389
850.545	21401
850.68	21431
850.815	21469
850.95	21473
851.085	21603
851.22	21603
851.355	21553
851.49	21473
851.625	21515
851.76	21507
851.895	21374
852.03	21359
852.165	21393
852.299	21481
852.434	21534
852.569	21397
852.703	21473
852.838	21553
852.973	21599
853.107	21485
853.242	21317
853.376	21367
853.511	21096
853.645	21344
853.78	21363
853.914	21275
854.048	21260
854.183	21275
854.317	21252
854.451	21561
854.585	21180
854.72	21188
854.854	21321
854.988	21272
855.122	21211
855.256	21077
855.39	21344
855.524	21321
855.658	21249
855.792	21154
855.926	21325
856.06	21325
856.194	21397
856.327	21325
856.461	21306
856.595	21245
856.729	21108
856.862	21355
856.996	21325
857.13	21401
857.263	21378
857.397	21386
857.53	21424
857.664	21348
857.797	21408
857.931	21416
858.064	21279
858.197	21287
858.331	21329
858.464	21306
858.597	21169
858.731	21161
858.864	21264
858.997	21218
859.13	21199
859.263	21287
859.396	21405
859.529	21211
859.662	21275
859.795	21348
859.928	21275
860.061	21477
860.194	21408
860.327	21370
860.46	21256
860.592	21428
860.725	21325
860.858	21348
860.99	21344
861.123	21275
861.256	21294
861.388	21264
861.521	21975
861.653	21119
861.786	21104
861.918	21020
862.05	21165
862.183	21211
862.315	21218
862.447	21279
862.58	21226
862.712	21028
862.844	20971
862.976	21169
863.108	21077
863.24	21488
863.372	20948
863.504	20975
863.636	21058
863.768	21093
863.9	20956
864.032	21036
864.164	20929
864.296	20994
864.428	21112
864.559	21047
864.691	20880
864.823	21024
864.954	20979
865.086	21009
865.217	21028
865.349	20823
865.48	20998
865.612	20952
865.743	21066
865.875	20918
866.006	20781
866.137	21001
866.269	20914
866.4	20937
866.531	20811
866.662	20659
866.793	20750
866.924	20720
867.055	20811
867.186	20842
867.317	20777
867.448	20693
867.579	20796
867.71	20686
867.841	20819
867.972	20819
868.103	20750
868.233	20857
868.364	20785
868.495	20914
868.625	20921
868.756	21176
868.886	20899
869.017	21195
869.147	21211
869.278	21138
869.408	21184
869.539	21062
869.669	21146
869.799	21100
869.929	21127
870.06	21062
870.19	21336
870.32	21329
870.45	21374
870.58	21447
870.71	21504
870.84	21530
870.97	21507
871.1	21439
871.23	21545
871.36	21667
871.489	21595
871.619	21568
871.749	21519
871.879	21698
872.008	21694
872.138	21618
872.267	21534
872.397	21538
872.526	21545
872.656	21477
872.785	21534
872.915	21599
873.044	21819
873.173	21660
873.303	21694
873.432	21751
873.561	21778
873.69	21690
873.819	21671
873.948	21804
874.077	21648
874.206	21618
874.335	21701
874.464	21793
874.593	21831
874.722	21869
874.851	21911
874.979	22017
875.108	21899
875.237	21918
875.365	21781
875.494	21903
875.623	21979
875.751	21892
875.88	21945
876.008	21934
876.136	22139
876.265	22363
876.393	22447
876.521	22356
876.65	22295
876.778	22405
876.906	22192
877.034	22230
877.162	22318
877.29	22234
877.418	22284
877.546	22211
877.674	22268
877.802	22211
877.93	22139
878.058	22238
878.185	22101
878.313	22265
878.441	22261
878.568	22188
878.696	22295
878.824	22226
878.951	22417
879.079	22561
879.206	22626
879.333	22478
879.461	22424
879.588	22265
879.715	22443
879.842	22436
879.97	22348
880.097	22177
880.224	22109
880.351	22143
880.478	22188
880.605	22181
880.732	22112
880.859	22390
880.986	22116
881.112	22101
881.239	22036
881.366	21793
881.493	21713
881.619	21698
881.746	21732
881.872	21698
881.999	21694
882.125	21675
882.252	21785
882.378	21739
882.505	21663
882.631	21652
882.757	21450
882.883	21355
883.01	21393
883.136	21340
883.262	21313
883.388	21351
883.514	21374
883.64	21462
883.766	21378
883.892	21131
884.018	21203
884.143	21340
884.269	21291
884.395	21058
884.52	21055
884.646	21077
884.772	21020
884.897	20842
885.023	20948
885.148	21055
885.274	21184
885.399	21180
885.524	21017
885.65	21070
885.775	21024
885.9	20967
886.025	21093
886.15	21112
886.275	20998
886.4	20937
886.525	20990
886.65	20990
886.775	20952
886.9	21093
887.025	21161
887.149	20982
887.274	20811
887.399	20788
887.523	20754
887.648	20667
887.773	20682
887.897	20899
888.021	20845
888.146	20731
888.27	20792
888.395	20902
888.519	20849
888.643	20800
888.767	20792
888.891	20712
889.015	20606
889.139	20716
889.263	20488
889.387	20625
889.511	20697
889.635	20785
889.759	20514
889.883	20575
890.006	20556
890.13	20727
890.254	20537
890.377	20415
890.501	20343
890.624	20377
890.748	20355
890.871	20450
890.995	20134
891.118	20058
891.241	20229
891.364	20240
891.488	20309
891.611	20191
891.734	20206
891.857	20252
891.98	20172
892.103	20290
892.226	20081
892.349	19993
892.471	19902
892.594	20176
892.717	20183
892.839	19967
892.962	20027
893.085	20142
893.207	20062
893.33	19898
893.452	20016
893.575	20081
893.697	20073
893.819	20225
893.941	20218
894.064	20077
894.186	20081
894.308	19974
894.43	20096
894.552	20237
894.674	20088
894.796	20005
894.918	20084
895.04	20027
895.161	20065
895.283	20005
895.405	20043
895.526	20046
895.648	19932
895.769	20050
895.891	20168
896.012	20084
896.134	20145
896.255	20138
896.376	20130
896.498	20046
896.619	20084
896.74	20130
896.861	20122
896.982	20290
897.103	20503
897.224	20374
897.345	20183
897.466	20195
897.587	20267
897.708	20450
897.828	20457
897.949	20221
898.07	20084
898.19	20225
898.311	20301
898.431	20126
898.552	20309
898.672	20381
898.792	20355
898.913	20286
899.033	20229
899.153	20115
899.273	19955
899.393	20107
899.513	20092
899.633	19989
899.753	19913
899.873	19982
899.993	20065
900.113	19963
900.232	19917
900.352	19932
900.472	19845
900.591	19727
900.711	19826
900.83	19765
900.95	19970
901.069	19830
901.189	19666
901.308	19575
901.427	19369
901.546	19476
901.665	19407
901.784	19369
901.904	19316
902.023	19114
902.141	18947
902.26	18905
902.379	19126
902.498	18859
902.617	18859
902.735	19012
902.854	18825
902.973	18810
903.091	18616
903.21	18639
903.328	18601
903.446	18467
903.565	18445
903.683	18304
903.801	18247
903.919	18289
904.038	18353
904.156	18144
904.274	18186
904.392	18144
904.51	18136
904.627	18171
904.745	18190
904.863	18171
904.981	17977
905.098	17859
905.216	17931
905.334	17916
905.451	17802
905.569	17779
905.686	17969
905.803	17798
905.921	17596
906.038	17722
906.155	17748
906.272	17516
906.389	17570
906.506	17509
906.623	17387
906.74	17402
906.857	17250
906.974	17231
907.091	17387
907.208	17539
907.324	17410
907.441	17303
907.557	17140
907.674	17075
907.79	17033
907.907	17014
908.023	17124
908.139	17159
908.256	17052
908.372	16949
908.488	16904
908.604	16847
908.72	16694
908.836	16805
908.952	16748
909.068	16809
909.184	16850
909.3	16809
909.415	16752
909.531	16797
909.647	16561
909.762	16500
909.878	16497
909.993	16512
910.108	16474
910.224	16409
910.339	16432
910.454	16402
910.57	16291
910.685	16238
910.8	16504
910.915	16462
911.03	16314
911.145	16246
911.259	16029
911.374	16036
911.489	16101
911.604	15983
911.718	15869
911.833	15865
911.947	15812
912.062	15622
912.176	15797
912.291	15804
912.405	15804
912.519	15998
912.633	16109
912.748	15857
912.862	15835
912.976	15739
913.09	15572
913.204	15526
913.318	15717
913.431	15808
913.545	15660
913.659	15774
913.772	15530
913.886	15507
914	15382
914.113	15561
914.226	15561
914.34	15561
914.453	15325
914.566	15424
914.68	15393
914.793	15199
914.906	15195
915.019	15116
915.132	15066
915.245	15039
915.358	14990
915.47	15093
915.583	15036
915.696	15024
915.809	15157
915.921	15085
916.034	15005
916.146	14872
916.259	14933
916.371	15005
916.483	15009
916.595	14857
916.708	14971
916.82	14895
916.932	14861
917.044	14944
917.156	14712
917.268	14746
917.38	14712
917.491	14686
917.603	14648
917.715	14811
917.826	14826
917.938	14701
918.049	14526
918.161	14655
918.272	14830
918.384	14686
918.495	14644
918.606	14518
918.717	14446
918.828	14560
918.939	14438
919.05	14400
919.161	14480
919.272	14278
919.383	14385
919.494	14446
919.604	14617
919.715	14480
919.826	14370
919.936	14381
920.047	14522
920.157	14419
920.267	14598
920.378	14446
920.488	14480
920.598	14651
920.708	14716
920.818	14541
920.928	14549
921.038	14674
921.148	14746
921.258	14366
921.368	14278
921.477	14202
921.587	14176
921.697	14016
921.806	14126
921.916	14103
922.025	13959
922.134	13799
922.244	13742
922.353	13852
922.462	13750
922.571	13643
922.68	13495
922.789	13487
922.898	13426
923.007	13491
923.116	13483
923.224	13430
923.333	13453
923.442	13381
923.55	13247
923.659	13274
923.767	13426
923.876	13190
923.984	13327
924.092	13190
924.201	13209
924.309	13122
924.417	13266
924.525	13103
924.633	13149
924.741	13913
924.849	12985
924.956	13084
925.064	12962
925.172	12806
925.279	12821
925.387	12928
925.494	12924
925.602	13038
925.709	12973
925.816	12802
925.924	12810
926.031	13019
926.138	12779
926.245	12848
926.352	12791
926.459	12916
926.566	12894
926.673	12760
926.779	12551
926.886	12566
926.993	12456
927.099	12456
927.206	12467
927.312	12361
927.419	12498
927.525	12456
927.631	12502
927.737	12323
927.843	12323
927.95	12201
928.056	12281
928.162	12304
928.267	12361
928.373	12886
928.479	12357
928.585	12117
928.69	12175
928.796	12365
928.901	12114
929.007	12007
929.112	12114
929.218	12129
929.323	12022
929.428	11984
929.533	12171
929.638	11935
929.743	11942
929.848	12007
929.953	11988
930.058	11882
930.163	11623
930.267	11611
930.372	11809
930.477	11672
930.581	11809
930.685	11733
930.79	11566
930.894	11577
930.998	11623
931.103	11726
931.207	11360
931.311	11185
931.415	11220
931.519	10991
931.623	10946
