Data from test_V78500241_379.txt Node
Date: Fri Mar 25 15:12:29 CST 2022
User: usil
Spectrometer: V785-0024
Trigger mode: 0
Integration Time (sec): 4.000000E-1
Scans to average: 1
Nonlinearity correction enabled: false
Boxcar width: 0
Storing dark spectrum: false
XAxis mode: Wavelengths
Number of Pixels in Spectrum: 1024
>>>>>Begin Spectral Data<<<<<
801.071	27081
801.214	26944
801.356	26678
801.499	26632
801.641	26514
801.783	26568
801.926	26651
802.068	26419
802.211	26438
802.353	26412
802.496	26153
802.638	26096
802.78	26176
802.923	26145
803.065	26016
803.208	26107
803.35	26168
803.492	26385
803.635	26244
803.777	26187
803.919	26233
804.061	26625
804.204	26267
804.346	26115
804.488	26054
804.63	26252
804.773	26103
804.915	26176
805.057	26412
805.199	26157
805.341	26355
805.483	26259
805.626	26263
805.768	26305
805.91	26320
806.052	26457
806.194	26317
806.336	26450
806.478	26324
806.62	26256
806.762	26488
806.904	26651
807.046	26762
807.188	26838
807.33	26693
807.472	26815
807.614	26785
807.756	26640
807.898	26640
808.04	26495
808.182	26575
808.324	26583
808.465	26537
808.607	26796
808.749	26845
808.891	26925
809.033	27093
809.174	27032
809.316	26963
809.458	26861
809.6	26895
809.741	27028
809.883	26979
810.025	27374
810.166	27184
810.308	27291
810.45	27294
810.591	27055
810.733	26921
810.875	26937
811.016	26944
811.158	26773
811.299	26986
811.441	27218
811.582	27005
811.724	26929
811.865	26842
812.007	26990
812.148	26857
812.29	26876
812.431	27093
812.573	27119
812.714	27431
812.855	27310
812.997	27511
813.138	27591
813.279	27591
813.421	27519
813.562	27374
813.703	27214
813.845	27127
813.986	26792
814.127	26526
814.268	26735
814.41	26549
814.551	26530
814.692	26568
814.833	26556
814.974	26480
815.115	26552
815.256	26499
815.397	26473
815.539	26423
815.68	26309
815.821	26286
815.962	26237
816.103	26374
816.244	26282
816.385	26119
816.526	26088
816.666	25974
816.807	25826
816.948	25845
817.089	26027
817.23	25890
817.371	25731
817.512	25868
817.653	25761
817.793	25696
817.934	25860
818.075	25913
818.216	25974
818.356	25837
818.497	25860
818.638	25552
818.778	25727
818.919	25635
819.06	25499
819.2	25780
819.341	25860
819.481	25670
819.622	25955
819.762	26199
819.903	26107
820.043	25921
820.184	25966
820.324	25921
820.465	26046
820.605	25997
820.746	25883
820.886	25746
821.026	25906
821.167	25974
821.307	26050
821.447	25909
821.588	25822
821.728	25696
821.868	25460
822.008	25270
822.149	25289
822.289	25365
822.429	24985
822.569	24943
822.709	24909
822.849	24814
822.99	24738
823.13	24681
823.27	24677
823.41	24502
823.55	24418
823.69	24631
823.83	24757
823.97	24502
824.11	24361
824.25	24433
824.389	24502
824.529	24441
824.669	24517
824.809	24563
824.949	24616
825.089	24528
825.228	24494
825.368	24266
825.508	24380
825.648	24445
825.787	24292
825.927	24403
826.067	24270
826.206	24243
826.346	24334
826.485	24308
826.625	24186
826.765	24361
826.904	24285
827.044	24011
827.183	24072
827.323	23942
827.462	23999
827.601	24091
827.741	23969
827.88	24011
828.02	23912
828.159	23950
828.298	23961
828.437	23999
828.577	23935
828.716	24030
828.855	24083
828.994	23710
829.134	23668
829.273	23783
829.412	23695
829.551	23653
829.69	23779
829.829	23821
829.968	23965
830.107	23821
830.246	23802
830.385	23646
830.524	23482
830.663	23592
830.802	23524
830.941	23223
831.08	23490
831.219	23425
831.357	23360
831.496	23562
831.635	23277
831.774	23341
831.913	23269
832.051	23159
832.19	23117
832.329	23102
832.467	23003
832.606	23014
832.744	22968
832.883	23102
833.022	23006
833.16	23162
833.299	23079
833.437	23014
833.576	23102
833.714	23147
833.852	23303
833.991	23121
834.129	23200
834.267	23292
834.406	23166
834.544	23113
834.682	23197
834.821	23075
834.959	23220
835.097	23113
835.235	23037
835.373	23113
835.511	23113
835.65	22930
835.788	23003
835.926	22854
836.064	22744
836.202	22755
836.34	23010
836.478	22980
836.615	22782
836.753	23029
836.891	22999
837.029	23041
837.167	22889
837.305	22889
837.443	22927
837.58	22774
837.718	22812
837.856	22790
837.993	22793
838.131	22790
838.269	22752
838.406	22797
838.544	22721
838.681	22485
838.819	22360
838.956	22371
839.094	22398
839.231	22249
839.369	22481
839.506	22889
839.643	22424
839.781	22253
839.918	22242
840.055	22333
840.193	22299
840.33	22234
840.467	22200
840.604	22200
840.742	22493
840.879	22131
841.016	22230
841.153	22169
841.29	22306
841.427	22204
841.564	22329
841.701	22143
841.838	22257
841.975	22173
842.112	22112
842.249	21934
842.385	22055
842.522	22196
842.659	22013
842.796	21937
842.933	22029
843.069	22032
843.206	21884
843.343	21994
843.479	22017
843.616	21876
843.752	21876
843.889	21717
844.025	21972
844.162	21804
844.298	21895
844.435	21724
844.571	21587
844.708	21873
844.844	21903
844.98	22025
845.117	21918
845.253	21736
845.389	21705
845.525	21572
845.661	21644
845.798	21439
845.934	21416
846.07	21679
846.206	21713
846.342	21637
846.478	21481
846.614	21355
846.75	21211
846.886	21283
847.022	21344
847.158	21302
847.294	21169
847.429	21329
847.565	21249
847.701	21561
847.837	21017
847.972	20823
848.108	21017
848.244	21093
848.379	20826
848.515	20830
848.65	20842
848.786	20765
848.921	20720
849.057	20925
849.192	20876
849.328	20853
849.463	20815
849.598	20697
849.734	20708
849.869	20758
850.004	20606
850.14	20746
850.275	20644
850.41	20457
850.545	20621
850.68	20579
850.815	20606
850.95	20644
851.085	20765
851.22	20800
851.355	20609
851.49	20636
851.625	20606
851.76	20632
851.895	20469
852.03	20408
852.165	20606
852.299	20648
852.434	20720
852.569	20655
852.703	20617
852.838	20731
852.973	20746
853.107	20663
853.242	20583
853.376	20415
853.511	20370
853.645	20385
853.78	20530
853.914	20556
854.048	20434
854.183	20381
854.317	20473
854.451	20526
854.585	20484
854.72	20355
854.854	20457
854.988	20404
855.122	20419
855.256	20457
855.39	20446
855.524	20465
855.658	20404
855.792	20511
855.926	20336
856.06	20499
856.194	20503
856.327	20457
856.461	20370
856.595	20408
856.729	20336
856.862	20526
856.996	20454
857.13	20454
857.263	20526
857.397	20541
857.53	20396
857.664	20454
857.797	20556
857.931	20613
858.064	20571
858.197	20450
858.331	20488
858.464	20393
858.597	20282
858.731	20313
858.864	20450
858.997	20355
859.13	20358
859.263	20473
859.396	20541
859.529	20404
859.662	20400
859.795	20370
859.928	20412
860.061	20533
860.194	20758
860.327	20484
860.46	20381
860.592	20564
860.725	20590
860.858	20549
860.99	20507
861.123	20370
861.256	20396
861.388	20465
861.521	21039
861.653	20305
861.786	20172
861.918	20218
862.05	20233
862.183	20385
862.315	20377
862.447	20415
862.58	20374
862.712	20210
862.844	20172
862.976	20176
863.108	20275
863.24	20594
863.372	20050
863.504	20259
863.636	20180
863.768	20210
863.9	20237
864.032	20058
864.164	20065
864.296	20145
864.428	20290
864.559	20248
864.691	20180
864.823	20145
864.954	20046
865.086	20134
865.217	20035
865.349	19982
865.48	20065
865.612	20020
865.743	20168
865.875	20145
866.006	19963
866.137	20103
866.269	20103
866.4	20058
866.531	19982
866.662	19894
866.793	20020
866.924	20084
867.055	20035
867.186	19967
867.317	19860
867.448	20050
867.579	19986
867.71	19898
867.841	19928
867.972	20122
868.103	19894
868.233	20073
868.364	19936
868.495	20043
868.625	20298
868.756	20256
868.886	20214
869.017	20267
869.147	20396
869.278	20358
869.408	20176
869.539	20320
869.669	20282
869.799	20252
869.929	20404
870.06	20256
870.19	20587
870.32	20552
870.45	20568
870.58	20762
870.71	20727
870.84	20720
870.97	20701
871.1	20670
871.23	20948
871.36	20769
871.489	20735
871.619	20895
871.749	20853
871.879	20849
872.008	21066
872.138	20891
872.267	20864
872.397	20842
872.526	20564
872.656	20735
872.785	20705
872.915	20880
873.044	20910
873.173	20891
873.303	20899
873.432	20792
873.561	21024
873.69	20807
873.819	20921
873.948	20914
874.077	20918
874.206	20800
874.335	20842
874.464	21013
874.593	21119
874.722	21123
874.851	21211
874.979	21188
875.108	21157
875.237	21233
875.365	21028
875.494	21074
875.623	21074
875.751	21074
875.88	21188
876.008	21230
876.136	21351
876.265	21633
876.393	21648
876.521	21561
876.65	21542
876.778	21439
876.906	21496
877.034	21492
877.162	21504
877.29	21420
877.418	21542
877.546	21496
877.674	21439
877.802	21515
877.93	21568
878.058	21389
878.185	21294
878.313	21447
878.441	21439
878.568	21287
878.696	21435
878.824	21523
878.951	21523
879.079	21580
879.206	21705
879.333	21682
879.461	21686
879.588	21545
879.715	21660
879.842	21618
879.97	21523
880.097	21302
880.224	21226
880.351	21359
880.478	21169
880.605	21173
880.732	21287
880.859	21443
880.986	21222
881.112	21211
881.239	21131
881.366	20944
881.493	21112
881.619	20876
881.746	20914
881.872	20925
881.999	20849
882.125	20883
882.252	21017
882.378	20880
882.505	20914
882.631	20640
882.757	20678
882.883	20743
883.01	20549
883.136	20579
883.262	20476
883.388	20446
883.514	20583
883.64	20697
883.766	20693
883.892	20347
884.018	20393
884.143	20583
884.269	20621
884.395	20294
884.52	20176
884.646	20366
884.772	20229
884.897	20145
885.023	20263
885.148	20336
885.274	20457
885.399	20237
885.524	20301
885.65	20263
885.775	20225
885.9	20240
886.025	20347
886.15	20358
886.275	20168
886.4	20119
886.525	20275
886.65	20081
886.775	20145
886.9	20358
887.025	20362
887.149	20206
887.274	20024
887.399	20065
887.523	20001
887.648	20062
887.773	19940
887.897	20027
888.021	20100
888.146	19909
888.27	20187
888.395	20107
888.519	20005
888.643	20134
888.767	20088
888.891	19871
889.015	19799
889.139	19837
889.263	19822
889.387	19928
889.511	20024
889.635	19887
889.759	19795
889.883	19784
890.006	19890
890.13	19967
890.254	19586
890.377	19795
890.501	19601
890.624	19419
890.748	19575
890.871	19464
890.995	19335
891.118	19278
891.241	19460
891.364	19411
891.488	19518
891.611	19304
891.734	19441
891.857	19419
891.98	19510
892.103	19415
892.226	19426
892.349	19217
892.471	19266
892.594	19308
892.717	19206
892.839	19343
892.962	19430
893.085	19464
893.207	19331
893.33	19217
893.452	19289
893.575	19476
893.697	19202
893.819	19449
893.941	19518
894.064	19491
894.186	19270
894.308	19278
894.43	19289
894.552	19453
894.674	19365
894.796	19274
894.918	19308
895.04	19301
895.161	19343
895.283	19362
895.405	19251
895.526	19396
895.648	19362
895.769	19320
895.891	19346
896.012	19365
896.134	19331
896.255	19331
896.376	19403
896.498	19365
896.619	19358
896.74	19358
896.861	19480
896.982	19571
897.103	19708
897.224	19582
897.345	19590
897.466	19400
897.587	19597
897.708	19689
897.828	19639
897.949	19670
898.07	19388
898.19	19495
898.311	19666
898.431	19460
898.552	19514
898.672	19594
898.792	19578
898.913	19651
899.033	19510
899.153	19373
899.273	19320
899.393	19316
899.513	19331
899.633	19388
899.753	19331
899.873	19244
899.993	19240
900.113	19274
900.232	19453
900.352	19266
900.472	19088
900.591	19012
900.711	19023
900.83	19114
900.95	19301
901.069	19316
901.189	19057
901.308	18795
901.427	18757
901.546	18703
901.665	18795
901.784	18772
901.904	18563
902.023	18563
902.141	18391
902.26	18342
902.379	18273
902.498	18174
902.617	18140
902.735	18239
902.854	18174
902.973	18148
903.091	18026
903.21	17935
903.328	17912
903.446	17790
903.565	17691
903.683	17691
903.801	17657
903.919	17718
904.038	17623
904.156	17452
904.274	17459
904.392	17482
904.51	17520
904.627	17444
904.745	17516
904.863	17467
904.981	17341
905.098	17227
905.216	17162
905.334	17330
905.451	17132
905.569	17113
905.686	17220
905.803	17109
905.921	17010
906.038	17136
906.155	17003
906.272	16835
906.389	16862
906.506	16675
906.623	16656
906.74	16710
906.857	16618
906.974	16618
907.091	16733
907.208	16805
907.324	16790
907.441	16626
907.557	16398
907.674	16459
907.79	16382
907.907	16371
908.023	16386
908.139	16402
908.256	16367
908.372	16310
908.488	16386
908.604	16226
908.72	16219
908.836	16154
908.952	16204
909.068	16181
909.184	16272
909.3	16131
909.415	16169
909.531	16128
909.647	15956
909.762	15884
909.878	15899
909.993	15831
910.108	15861
910.224	15812
910.339	15960
910.454	15793
910.57	15656
910.685	15584
910.8	16040
910.915	15880
911.03	15751
911.145	15587
911.259	15466
911.374	15485
911.489	15523
911.604	15428
911.718	15218
911.833	15279
911.947	15081
912.062	15104
912.176	15226
912.291	15298
912.405	15268
912.519	15351
912.633	15359
912.748	15154
912.862	15157
912.976	15081
913.09	14918
913.204	15055
913.318	15013
913.431	15135
913.545	15108
913.659	15123
913.772	15005
913.886	14921
914	14842
914.113	14910
914.226	15051
914.34	14960
914.453	14796
914.566	14941
914.68	14746
914.793	14754
914.906	14499
915.019	14541
915.132	14469
915.245	14552
915.358	14469
915.47	14465
915.583	14514
915.696	14560
915.809	14655
915.921	14613
916.034	14457
916.146	14377
916.259	14393
916.371	14533
916.483	14495
916.595	14374
916.708	14286
916.82	14351
916.932	14218
917.044	14381
917.156	14332
917.268	14164
917.38	14252
917.491	14111
917.603	14145
917.715	14252
917.826	14218
917.938	14134
918.049	13970
918.161	14123
918.272	14263
918.384	14233
918.495	14153
918.606	14065
918.717	13917
918.828	13989
918.939	13890
919.05	13925
919.161	13932
919.272	13746
919.383	13830
919.494	14058
919.604	14195
919.715	13845
919.826	13932
919.936	13841
920.047	13940
920.157	13989
920.267	14077
920.378	14016
920.488	13928
920.598	14012
920.708	14199
920.818	14039
920.928	14077
921.038	14301
921.148	14134
921.258	13833
921.368	13818
921.477	13643
921.587	13719
921.697	13537
921.806	13689
921.916	13582
922.025	13373
922.134	13304
922.244	13339
922.353	13480
922.462	13156
922.571	13183
922.68	12966
922.789	13057
922.898	13061
923.007	12947
923.116	13095
923.224	12996
923.333	12962
923.442	12825
923.55	12760
923.659	12779
923.767	12985
923.876	12760
923.984	12863
924.092	12730
924.201	12715
924.309	12749
924.417	12825
924.525	12620
924.633	12654
924.741	13365
924.849	12437
924.956	12563
925.064	12471
925.172	12357
925.279	12483
925.387	12452
925.494	12467
925.602	12551
925.709	12517
925.816	12262
925.924	12441
926.031	12502
926.138	12296
926.245	12361
926.352	12186
926.459	12418
926.566	12494
926.673	12277
926.779	12201
926.886	12159
926.993	12091
927.099	12064
927.206	11927
927.312	11923
927.419	12007
927.525	12007
927.631	12003
927.737	11942
927.843	11817
927.95	11695
928.056	11745
928.162	11904
928.267	11946
928.373	12513
928.479	11901
928.585	11638
928.69	11752
928.796	11802
928.901	11718
929.007	11604
929.112	11703
929.218	11695
929.323	11630
929.428	11657
929.533	11733
929.638	11493
929.743	11573
929.848	11619
929.953	11532
930.058	11364
930.163	11220
930.267	11334
930.372	11524
930.477	11212
930.581	11455
930.685	11482
930.79	11208
930.894	11227
930.998	11117
931.103	11277
931.207	10892
931.311	10778
931.415	10774
931.519	10607
931.623	10554
