Data from test_V78500241_711.txt Node
Date: Fri Mar 25 15:14:48 CST 2022
User: usil
Spectrometer: V785-0024
Trigger mode: 0
Integration Time (sec): 4.000000E-1
Scans to average: 1
Nonlinearity correction enabled: false
Boxcar width: 0
Storing dark spectrum: false
XAxis mode: Wavelengths
Number of Pixels in Spectrum: 1024
>>>>>Begin Spectral Data<<<<<
801.071	28067
801.214	27873
801.356	27755
801.499	27599
801.641	27477
801.783	27633
801.926	27633
802.068	27553
802.211	27507
802.353	27344
802.496	27340
802.638	27195
802.78	27393
802.923	27192
803.065	27146
803.208	27279
803.35	27184
803.492	27268
803.635	27397
803.777	27329
803.919	27416
804.061	27762
804.204	27306
804.346	27351
804.488	27306
804.63	27473
804.773	27275
804.915	27519
805.057	27405
805.199	27431
805.341	27511
805.483	27614
805.626	27553
805.768	27386
805.91	27427
806.052	27603
806.194	27462
806.336	27759
806.478	27622
806.62	27576
806.762	27667
806.904	27797
807.046	28162
807.188	27991
807.33	28078
807.472	27907
807.614	27892
807.756	27956
807.898	27816
808.04	27994
808.182	27770
808.324	27846
808.465	27998
808.607	28120
808.749	28196
808.891	28268
809.033	28421
809.174	28169
809.316	28211
809.458	28242
809.6	28211
809.741	28310
809.883	28447
810.025	28367
810.166	28424
810.308	28527
810.45	28577
810.591	28356
810.733	28306
810.875	28131
811.016	28147
811.158	28139
811.299	28207
811.441	28360
811.582	28295
811.724	28185
811.865	28082
812.007	28272
812.148	28185
812.29	28200
812.431	28371
812.573	28542
812.714	28584
812.855	28729
812.997	29018
813.138	28991
813.279	28999
813.421	28927
813.562	28740
813.703	28607
813.845	28512
813.986	28257
814.127	27998
814.268	27975
814.41	27937
814.551	27728
814.692	27956
814.833	27956
814.974	27876
815.115	28055
815.256	27888
815.397	27789
815.539	27854
815.68	27595
815.821	27633
815.962	27724
816.103	27564
816.244	27629
816.385	27435
816.526	27443
816.666	27310
816.807	27351
816.948	27294
817.089	27355
817.23	27252
817.371	27249
817.512	27272
817.653	27173
817.793	27173
817.934	27260
818.075	27245
818.216	27195
818.356	27173
818.497	27020
818.638	26880
818.778	26918
818.919	26975
819.06	26979
819.2	27161
819.341	27188
819.481	27241
819.622	27348
819.762	27530
819.903	27416
820.043	27351
820.184	27332
820.324	27458
820.465	27336
820.605	27195
820.746	27272
820.886	27100
821.026	27279
821.167	27241
821.307	27359
821.447	27298
821.588	27176
821.728	27024
821.868	26754
822.008	26788
822.149	26693
822.289	26549
822.429	26317
822.569	26442
822.709	26393
822.849	26267
822.99	26191
823.13	26103
823.27	26073
823.41	26043
823.55	25875
823.69	26058
823.83	25875
823.97	25978
824.11	25852
824.25	25670
824.389	25776
824.529	25917
824.669	25913
824.809	25928
824.949	25822
825.089	25963
825.228	25925
825.368	25723
825.508	25803
825.648	25693
825.787	25818
825.927	25791
826.067	25780
826.206	25677
826.346	25715
826.485	25761
826.625	25772
826.765	25849
826.904	25890
827.044	25483
827.183	25430
827.323	25499
827.462	25377
827.601	25335
827.741	25369
827.88	25567
828.02	25422
828.159	25339
828.298	25403
828.437	25373
828.577	25445
828.716	25571
828.855	25259
828.994	25137
829.134	25057
829.273	25209
829.412	25088
829.551	24932
829.69	25213
829.829	25072
829.968	25171
830.107	25168
830.246	25110
830.385	25126
830.524	25012
830.663	24928
830.802	24829
830.941	24787
831.08	24726
831.219	24817
831.357	24871
831.496	24966
831.635	24661
831.774	24768
831.913	24551
832.051	24505
832.19	24471
832.329	24380
832.467	24289
832.606	24311
832.744	24144
832.883	24205
833.022	24403
833.16	24319
833.299	24448
833.437	24372
833.576	24448
833.714	24399
833.852	24563
833.991	24544
834.129	24437
834.267	24544
834.406	24361
834.544	24380
834.682	24597
834.821	24490
834.959	24555
835.097	24441
835.235	24498
835.373	24429
835.511	24422
835.65	24353
835.788	24429
835.926	24213
836.064	24159
836.202	24224
836.34	24334
836.478	24357
836.615	24357
836.753	24365
836.891	24403
837.029	24300
837.167	24209
837.305	24232
837.443	24182
837.58	24232
837.718	24182
837.856	24091
837.993	23969
838.131	24171
838.269	24015
838.406	24026
838.544	23927
838.681	23840
838.819	23760
838.956	23608
839.094	23596
839.231	23699
839.369	23783
839.506	23950
839.643	23824
839.781	23684
839.918	23505
840.055	23729
840.193	23516
840.33	23615
840.467	23505
840.604	23516
840.742	23863
840.879	23387
841.016	23493
841.153	23482
841.29	23623
841.427	23566
841.564	23452
841.701	23619
841.838	23459
841.975	23364
842.112	23433
842.249	23288
842.385	23360
842.522	23417
842.659	23372
842.796	23284
842.933	23318
843.069	23189
843.206	23231
843.343	23258
843.479	23368
843.616	23337
843.752	23003
843.889	22949
844.025	23200
844.162	23128
844.298	23056
844.435	23083
844.571	22953
844.708	23178
844.844	23147
844.98	23280
845.117	23124
845.253	22995
845.389	22930
845.525	22946
845.661	22873
845.798	22679
845.934	22805
846.07	22733
846.206	22797
846.342	22927
846.478	22717
846.614	22554
846.75	22493
846.886	22402
847.022	22656
847.158	22561
847.294	22592
847.429	22599
847.565	22417
847.701	22660
847.837	22249
847.972	22169
848.108	22337
848.244	22394
848.379	22105
848.515	22074
848.65	21983
848.786	22105
848.921	22135
849.057	22188
849.192	22188
849.328	22101
849.463	22048
849.598	22086
849.734	21972
849.869	21964
850.004	21842
850.14	21846
850.275	21865
850.41	21736
850.545	21869
850.68	21797
850.815	21922
850.95	21884
851.085	22017
851.22	21983
851.355	21869
851.49	21983
851.625	21797
851.76	21941
851.895	21701
852.03	21774
852.165	21918
852.299	21827
852.434	21895
852.569	21941
852.703	21804
852.838	21987
852.973	21861
853.107	22002
853.242	21861
853.376	21625
853.511	21561
853.645	21679
853.78	21785
853.914	21694
854.048	21660
854.183	21614
854.317	21663
854.451	21835
854.585	21694
854.72	21698
854.854	21625
854.988	21652
855.122	21644
855.256	21526
855.39	21637
855.524	21774
855.658	21739
855.792	21675
855.926	21816
856.06	21675
856.194	21793
856.327	21660
856.461	21629
856.595	21637
856.729	21667
856.862	21835
856.996	21774
857.13	21717
857.263	21930
857.397	21736
857.53	21675
857.664	21781
857.797	21671
857.931	21785
858.064	21743
858.197	21629
858.331	21698
858.464	21690
858.597	21587
858.731	21648
858.864	21648
858.997	21686
859.13	21728
859.263	21800
859.396	21770
859.529	21660
859.662	21713
859.795	21637
859.928	21705
860.061	21827
860.194	21911
860.327	21663
860.46	21671
860.592	21861
860.725	21941
860.858	21850
860.99	21671
861.123	21618
861.256	21641
861.388	21759
861.521	22386
861.653	21545
861.786	21595
861.918	21701
862.05	21580
862.183	21675
862.315	21599
862.447	21671
862.58	21526
862.712	21359
862.844	21367
862.976	21435
863.108	21382
863.24	21781
863.372	21275
863.504	21389
863.636	21431
863.768	21435
863.9	21340
864.032	21332
864.164	21329
864.296	21431
864.428	21473
864.559	21462
864.691	21386
864.823	21443
864.954	21359
865.086	21378
865.217	21283
865.349	21287
865.48	21306
865.612	21226
865.743	21382
865.875	21321
866.006	21203
866.137	21207
866.269	21195
866.4	21195
866.531	21214
866.662	21154
866.793	21112
866.924	21123
867.055	21329
867.186	21249
867.317	21157
867.448	21127
867.579	21180
867.71	21108
867.841	21146
867.972	21222
868.103	21237
868.233	21291
868.364	21165
868.495	21230
868.625	21370
868.756	21595
868.886	21363
869.017	21405
869.147	21564
869.278	21523
869.408	21458
869.539	21485
869.669	21447
869.799	21618
869.929	21454
870.06	21583
870.19	21823
870.32	21800
870.45	21766
870.58	21789
870.71	21793
870.84	21888
870.97	21892
871.1	21819
871.23	21998
871.36	22013
871.489	22010
871.619	21979
871.749	22135
871.879	22032
872.008	22116
872.138	21907
872.267	22090
872.397	21926
872.526	21797
872.656	21865
872.785	21915
872.915	22055
873.044	22021
873.173	22021
873.303	22055
873.432	22116
873.561	22188
873.69	22124
873.819	22059
873.948	22166
874.077	22051
874.206	21949
874.335	22063
874.464	22166
874.593	22303
874.722	22257
874.851	22211
874.979	22257
875.108	22306
875.237	22295
875.365	22249
875.494	22226
875.623	22287
875.751	22306
875.88	22257
876.008	22310
876.136	22459
876.265	22618
876.393	22801
876.521	22626
876.65	22752
876.778	22542
876.906	22656
877.034	22607
877.162	22618
877.29	22675
877.418	22653
877.546	22634
877.674	22641
877.802	22630
877.93	22573
878.058	22599
878.185	22455
878.313	22653
878.441	22653
878.568	22466
878.696	22546
878.824	22569
878.951	22759
879.079	22713
879.206	22881
879.333	22847
879.461	22615
879.588	22809
879.715	22736
879.842	22805
879.97	22793
880.097	22599
880.224	22432
880.351	22516
880.478	22280
880.605	22443
880.732	22402
880.859	22691
880.986	22402
881.112	22497
881.239	22215
881.366	22196
881.493	22097
881.619	22078
881.746	21949
881.872	22082
881.999	21998
882.125	21915
882.252	21892
882.378	21934
882.505	21979
882.631	21892
882.757	21618
882.883	21709
883.01	21663
883.136	21732
883.262	21675
883.388	21496
883.514	21751
883.64	21778
883.766	21671
883.892	21500
884.018	21496
884.143	21644
884.269	21720
884.395	21382
884.52	21336
884.646	21348
884.772	21306
884.897	21230
885.023	21363
885.148	21485
885.274	21500
885.399	21416
885.524	21382
885.65	21420
885.775	21397
885.9	21272
886.025	21344
886.15	21332
886.275	21272
886.4	21207
886.525	21302
886.65	21313
886.775	21199
886.9	21420
887.025	21447
887.149	21256
887.274	21154
887.399	21055
887.523	21051
887.648	21112
887.773	21077
887.897	21192
888.021	21157
888.146	21104
888.27	21195
888.395	21157
888.519	21142
888.643	21093
888.767	21146
888.891	20998
889.015	20933
889.139	20960
889.263	20929
889.387	21028
889.511	21184
889.635	21165
889.759	20914
889.883	20861
890.006	21001
890.13	20895
890.254	20739
890.377	20834
890.501	20697
890.624	20621
890.748	20804
890.871	20499
890.995	20400
891.118	20484
891.241	20499
891.364	20461
891.488	20552
891.611	20408
891.734	20476
891.857	20530
891.98	20499
892.103	20480
892.226	20552
892.349	20389
892.471	20195
892.594	20427
892.717	20461
892.839	20313
892.962	20408
893.085	20351
893.207	20351
893.33	20336
893.452	20298
893.575	20396
893.697	20252
893.819	20507
893.941	20526
894.064	20526
894.186	20351
894.308	20336
894.43	20488
894.552	20461
894.674	20446
894.796	20157
894.918	20324
895.04	20358
895.161	20450
895.283	20343
895.405	20442
895.526	20389
895.648	20286
895.769	20480
895.891	20488
896.012	20412
896.134	20362
896.255	20313
896.376	20199
896.498	20355
896.619	20434
896.74	20362
896.861	20343
896.982	20598
897.103	20807
897.224	20613
897.345	20571
897.466	20480
897.587	20545
897.708	20716
897.828	20655
897.949	20484
898.07	20408
898.19	20465
898.311	20682
898.431	20461
898.552	20533
898.672	20594
898.792	20648
898.913	20495
899.033	20396
899.153	20290
899.273	20237
899.393	20324
899.513	20377
899.633	20393
899.753	20313
899.873	20347
899.993	20339
900.113	20225
900.232	20328
900.352	20328
900.472	20149
900.591	20100
900.711	20176
900.83	20020
900.95	20199
901.069	20126
901.189	19978
901.308	19811
901.427	19651
901.546	19723
901.665	19746
901.784	19616
901.904	19563
902.023	19457
902.141	19285
902.26	19206
902.379	19312
902.498	19118
902.617	19179
902.735	19133
902.854	19244
902.973	19027
903.091	18886
903.21	18840
903.328	18764
903.446	18734
903.565	18608
903.683	18764
903.801	18570
903.919	18585
904.038	18589
904.156	18441
904.274	18475
904.392	18445
904.51	18353
904.627	18338
904.745	18327
904.863	18464
904.981	18239
905.098	18152
905.216	18159
905.334	18129
905.451	18205
905.569	17996
905.686	18060
905.803	18102
905.921	17805
906.038	17874
906.155	17863
906.272	17737
906.389	17729
906.506	17623
906.623	17642
906.74	17577
906.857	17558
906.974	17493
907.091	17680
907.208	17733
907.324	17566
907.441	17528
907.557	17326
907.674	17330
907.79	17220
907.907	17258
908.023	17356
908.139	17353
908.256	17258
908.372	17265
908.488	17258
908.604	17075
908.72	16991
908.836	17109
908.952	17075
909.068	17071
909.184	17227
909.3	17086
909.415	17109
909.531	17029
909.647	16847
909.762	16881
909.878	16706
909.993	16793
910.108	16793
910.224	16816
910.339	16664
910.454	16706
910.57	16618
910.685	16489
910.8	16755
910.915	16763
911.03	16577
911.145	16409
911.259	16413
911.374	16421
911.489	16272
911.604	16230
911.718	16150
911.833	16185
911.947	15934
912.062	15983
912.176	16090
912.291	16120
912.405	16025
912.519	16314
912.633	16287
912.748	16226
912.862	16177
912.976	15972
913.09	15846
913.204	15953
913.318	15876
913.431	15972
913.545	16006
913.659	16071
913.772	15934
913.886	15751
914	15774
914.113	15838
914.226	15736
914.34	15888
914.453	15595
914.566	15679
914.68	15511
914.793	15587
914.906	15466
915.019	15336
915.132	15165
915.245	15325
915.358	15386
915.47	15310
915.583	15321
915.696	15306
915.809	15447
915.921	15397
916.034	15169
916.146	15211
916.259	15230
916.371	15272
916.483	15329
916.595	15188
916.708	15252
916.82	15157
916.932	15077
917.044	15062
917.156	15097
917.268	14975
917.38	14952
917.491	14986
917.603	14994
917.715	15062
917.826	15036
917.938	14937
918.049	14777
918.161	14971
918.272	14982
918.384	14948
918.495	14883
918.606	14739
918.717	14758
918.828	14834
918.939	14640
919.05	14682
919.161	14750
919.272	14549
919.383	14514
919.494	14746
919.604	14906
919.715	14667
919.826	14594
919.936	14659
920.047	14689
920.157	14743
920.267	14845
920.378	14708
920.488	14705
920.598	14788
920.708	15070
920.818	14838
920.928	14845
921.038	14948
921.148	14963
921.258	14689
921.368	14499
921.477	14385
921.587	14343
921.697	14168
921.806	14366
921.916	14313
922.025	14149
922.134	14039
922.244	14195
922.353	14119
922.462	13951
922.571	13890
922.68	13746
922.789	13700
922.898	13696
923.007	13613
923.116	13719
923.224	13814
923.333	13685
923.442	13510
923.55	13537
923.659	13655
923.767	13632
923.876	13476
923.984	13578
924.092	13514
924.201	13472
924.309	13499
924.417	13533
924.525	13324
924.633	13384
924.741	14073
924.849	13225
924.956	13282
925.064	13099
925.172	13069
925.279	13156
925.387	13171
925.494	13141
925.602	13259
925.709	13152
925.816	13069
925.924	13076
926.031	13133
926.138	13034
926.245	13038
926.352	12913
926.459	13129
926.566	13152
926.673	12966
926.779	12996
926.886	12863
926.993	12772
927.099	12692
927.206	12654
927.312	12639
927.419	12673
927.525	12604
927.631	12669
927.737	12578
927.843	12502
927.95	12429
928.056	12574
928.162	12479
928.267	12582
928.373	13145
928.479	12608
928.585	12273
928.69	12441
928.796	12422
928.901	12395
929.007	12144
929.112	12338
929.218	12334
929.323	12232
929.428	12106
929.533	12308
929.638	12098
929.743	12155
929.848	12201
929.953	12232
930.058	12102
930.163	11984
930.267	11866
930.372	12030
930.477	11847
930.581	12083
930.685	11939
930.79	11836
930.894	11809
930.998	11726
931.103	11882
931.207	11535
931.311	11410
931.415	11322
931.519	11124
931.623	11132
