Data from test_V78500241_1012.txt Node
Date: Fri Mar 25 15:16:54 CST 2022
User: usil
Spectrometer: V785-0024
Trigger mode: 0
Integration Time (sec): 4.000000E-1
Scans to average: 1
Nonlinearity correction enabled: false
Boxcar width: 0
Storing dark spectrum: false
XAxis mode: Wavelengths
Number of Pixels in Spectrum: 1024
>>>>>Begin Spectral Data<<<<<
801.071	28253
801.214	28078
801.356	27865
801.499	27987
801.641	27865
801.783	27926
801.926	27972
802.068	27709
802.211	27747
802.353	27515
802.496	27534
802.638	27412
802.78	27523
802.923	27610
803.065	27306
803.208	27378
803.35	27454
803.492	27439
803.635	27739
803.777	27564
803.919	27595
804.061	27972
804.204	27728
804.346	27618
804.488	27507
804.63	27606
804.773	27542
804.915	27747
805.057	27770
805.199	27637
805.341	27793
805.483	27781
805.626	27918
805.768	27739
805.91	27739
806.052	27922
806.194	27698
806.336	28032
806.478	27888
806.62	27911
806.762	27914
806.904	27979
807.046	28268
807.188	28162
807.33	28196
807.472	28207
807.614	28169
807.756	28219
807.898	28101
808.04	28181
808.182	28090
808.324	28112
808.465	28135
808.607	28371
808.749	28466
808.891	28531
809.033	28504
809.174	28565
809.316	28596
809.458	28375
809.6	28447
809.741	28702
809.883	28645
810.025	28618
810.166	28767
810.308	28710
810.45	28778
810.591	28733
810.733	28603
810.875	28424
811.016	28451
811.158	28295
811.299	28588
811.441	28577
811.582	28683
811.724	28451
811.865	28417
812.007	28603
812.148	28497
812.29	28531
812.431	28615
812.573	28850
812.714	28957
812.855	28995
812.997	29136
813.138	29151
813.279	29086
813.421	29003
813.562	29079
813.703	28908
813.845	28812
813.986	28573
814.127	28382
814.268	28158
814.41	28230
814.551	28230
814.692	28341
814.833	28246
814.974	28215
815.115	28078
815.256	28036
815.397	28010
815.539	27983
815.68	28044
815.821	28029
815.962	28116
816.103	27968
816.244	27846
816.385	27781
816.526	27888
816.666	27549
816.807	27625
816.948	27576
817.089	27591
817.23	27603
817.371	27485
817.512	27606
817.653	27401
817.793	27488
817.934	27450
818.075	27530
818.216	27587
818.356	27500
818.497	27344
818.638	27222
818.778	27260
818.919	27203
819.06	27374
819.2	27370
819.341	27530
819.481	27481
819.622	27709
819.762	27880
819.903	27926
820.043	27656
820.184	27713
820.324	27504
820.465	27675
820.605	27660
820.746	27675
820.886	27469
821.026	27587
821.167	27595
821.307	27682
821.447	27355
821.588	27412
821.728	27382
821.868	27138
822.008	27089
822.149	27005
822.289	26971
822.429	26720
822.569	26587
822.709	26651
822.849	26552
822.99	26374
823.13	26552
823.27	26442
823.41	26404
823.55	26259
823.69	26355
823.83	26290
823.97	26370
824.11	26069
824.25	26122
824.389	26305
824.529	26229
824.669	26164
824.809	26218
824.949	26183
825.089	26298
825.228	26183
825.368	26043
825.508	26084
825.648	26153
825.787	26100
825.927	26153
826.067	25947
826.206	25909
826.346	25986
826.485	26043
826.625	25951
826.765	26073
826.904	26046
827.044	25852
827.183	25822
827.323	25772
827.462	25849
827.601	25826
827.741	25772
827.88	25826
828.02	25635
828.159	25601
828.298	25807
828.437	25784
828.577	25712
828.716	25852
828.855	25704
828.994	25449
829.134	25331
829.273	25521
829.412	25510
829.551	25491
829.69	25415
829.829	25430
829.968	25575
830.107	25506
830.246	25449
830.385	25373
830.524	25331
830.663	25316
830.802	25194
830.941	25023
831.08	25145
831.219	25084
831.357	25171
831.496	25388
831.635	25095
831.774	25137
831.913	25065
832.051	25027
832.19	24833
832.329	25019
832.467	24901
832.606	24692
832.744	24696
832.883	24798
833.022	24817
833.16	24856
833.299	24856
833.437	24905
833.576	24791
833.714	24814
833.852	24821
833.991	24863
834.129	24867
834.267	24798
834.406	24863
834.544	24920
834.682	24871
834.821	24665
834.959	24871
835.097	24905
835.235	24973
835.373	24939
835.511	24764
835.65	24669
835.788	24726
835.926	24547
836.064	24490
836.202	24521
836.34	24658
836.478	24749
836.615	24726
836.753	24715
836.891	24696
837.029	24722
837.167	24810
837.305	24604
837.443	24566
837.58	24456
837.718	24551
837.856	24559
837.993	24467
838.131	24448
838.269	24308
838.406	24376
838.544	24296
838.681	24076
838.819	24190
838.956	23965
839.094	24003
839.231	24045
839.369	24174
839.506	24327
839.643	24144
839.781	24011
839.918	23802
840.055	24060
840.193	23965
840.33	24022
840.467	23927
840.604	23920
840.742	24194
840.879	23718
841.016	23802
841.153	23805
841.29	24018
841.427	23836
841.564	24007
841.701	23859
841.838	23779
841.975	23722
842.112	23722
842.249	23672
842.385	23623
842.522	23954
842.659	23729
842.796	23592
842.933	23649
843.069	23657
843.206	23539
843.343	23824
843.479	23737
843.616	23802
843.752	23535
843.889	23459
844.025	23604
844.162	23273
844.298	23619
844.435	23429
844.571	23360
844.708	23452
844.844	23718
844.98	23482
845.117	23524
845.253	23410
845.389	23383
845.525	23512
845.661	23220
845.798	23197
845.934	23269
846.07	23136
846.206	23292
846.342	23349
846.478	23220
846.614	22911
846.75	22915
846.886	22968
847.022	22900
847.158	22919
847.294	22949
847.429	23003
847.565	22999
847.701	23143
847.837	22664
847.972	22683
848.108	22774
848.244	22656
848.379	22516
848.515	22436
848.65	22512
848.786	22561
848.921	22478
849.057	22649
849.192	22656
849.328	22527
849.463	22474
849.598	22344
849.734	22421
849.869	22375
850.004	22268
850.14	22318
850.275	22287
850.41	22173
850.545	22086
850.68	22299
850.815	22341
850.95	22246
851.085	22478
851.22	22402
851.355	22303
851.49	22169
851.625	22188
851.76	22196
851.895	22067
852.03	22257
852.165	22303
852.299	22306
852.434	22310
852.569	22207
852.703	22219
852.838	22249
852.973	22413
853.107	22386
853.242	22219
853.376	22070
853.511	22112
853.645	22051
853.78	22226
853.914	22082
854.048	22044
854.183	22078
854.317	22109
854.451	22246
854.585	22093
854.72	22055
854.854	22135
854.988	21991
855.122	22154
855.256	21972
855.39	22067
855.524	22154
855.658	22181
855.792	22105
855.926	22006
856.06	22105
856.194	22112
856.327	22082
856.461	21994
856.595	21945
856.729	22074
856.862	22272
856.996	22211
857.13	22124
857.263	22131
857.397	22169
857.53	21964
857.664	22238
857.797	22131
857.931	22150
858.064	21991
858.197	22166
858.331	21991
858.464	21994
858.597	21911
858.731	22067
858.864	21998
858.997	22013
859.13	22078
859.263	22082
859.396	22223
859.529	21964
859.662	22048
859.795	22010
859.928	22124
860.061	22162
860.194	22268
860.327	22048
860.46	22128
860.592	22139
860.725	22226
860.858	22215
860.99	22055
861.123	21960
861.256	21903
861.388	22067
861.521	22835
861.653	21922
861.786	21804
861.918	21854
862.05	22017
862.183	21991
862.315	22029
862.447	22074
862.58	22006
862.712	21850
862.844	21816
862.976	21728
863.108	21865
863.24	22131
863.372	21762
863.504	21789
863.636	21739
863.768	21819
863.9	21979
864.032	21728
864.164	21652
864.296	21747
864.428	21846
864.559	21838
864.691	21857
864.823	21804
864.954	21739
865.086	21663
865.217	21660
865.349	21705
865.48	21709
865.612	21728
865.743	21975
865.875	21762
866.006	21736
866.137	21732
866.269	21644
866.4	21622
866.531	21606
866.662	21450
866.793	21591
866.924	21545
867.055	21644
867.186	21549
867.317	21549
867.448	21519
867.579	21580
867.71	21538
867.841	21534
867.972	21587
868.103	21542
868.233	21580
868.364	21591
868.495	21698
868.625	21842
868.756	21975
868.886	21762
869.017	21915
869.147	21960
869.278	21945
869.408	21907
869.539	21850
869.669	21907
869.799	21888
869.929	22059
870.06	21876
870.19	22097
870.32	22325
870.45	22204
870.58	22192
870.71	22310
870.84	22303
870.97	22188
871.1	22306
871.23	22424
871.36	22367
871.489	22325
871.619	22436
871.749	22428
871.879	22504
872.008	22516
872.138	22516
872.267	22485
872.397	22230
872.526	22173
872.656	22219
872.785	22299
872.915	22485
873.044	22641
873.173	22436
873.303	22455
873.432	22596
873.561	22607
873.69	22405
873.819	22516
873.948	22519
874.077	22436
874.206	22405
874.335	22440
874.464	22527
874.593	22740
874.722	22523
874.851	22698
874.979	22565
875.108	22710
875.237	22554
875.365	22485
875.494	22615
875.623	22706
875.751	22664
875.88	22622
876.008	22771
876.136	22946
876.265	23174
876.393	23075
876.521	23067
876.65	23094
876.778	23003
876.906	23044
877.034	23003
877.162	23033
877.29	22889
877.418	23052
877.546	23052
877.674	23075
877.802	22942
877.93	23140
878.058	22980
878.185	22957
878.313	22938
878.441	22961
878.568	22691
878.696	22812
878.824	23029
878.951	22999
879.079	23147
879.206	23254
879.333	23261
879.461	23102
879.588	23159
879.715	23098
879.842	23269
879.97	23025
880.097	22904
880.224	22877
880.351	22820
880.478	22786
880.605	22736
880.732	22801
880.859	22999
880.986	22854
881.112	22774
881.239	22599
881.366	22557
881.493	22459
881.619	22428
881.746	22428
881.872	22402
881.999	22348
882.125	22223
882.252	22523
882.378	22333
882.505	22443
882.631	22291
882.757	22112
882.883	22211
883.01	22067
883.136	21998
883.262	22025
883.388	21850
883.514	22120
883.64	21987
883.766	21960
883.892	21857
884.018	21823
884.143	21953
884.269	22021
884.395	21808
884.52	21857
884.646	21766
884.772	21587
884.897	21599
885.023	21656
885.148	21819
885.274	21918
885.399	21728
885.524	21644
885.65	21713
885.775	21736
885.9	21660
886.025	21770
886.15	21762
886.275	21622
886.4	21523
886.525	21652
886.65	21530
886.775	21690
886.9	21922
887.025	21899
887.149	21622
887.274	21561
887.399	21549
887.523	21439
887.648	21473
887.773	21412
887.897	21603
888.021	21431
888.146	21443
888.27	21507
888.395	21469
888.519	21504
888.643	21519
888.767	21435
888.891	21344
889.015	21321
889.139	21355
889.263	21268
889.387	21233
889.511	21382
889.635	21405
889.759	21272
889.883	21142
890.006	21150
890.13	21321
890.254	21150
890.377	21131
890.501	21116
890.624	20906
890.748	21047
890.871	20883
890.995	20876
891.118	20773
891.241	20826
891.364	20868
891.488	20918
891.611	20853
891.734	20788
891.857	20948
891.98	20914
892.103	20762
892.226	20872
892.349	20686
892.471	20613
892.594	20636
892.717	20792
892.839	20632
892.962	20648
893.085	20864
893.207	20678
893.33	20549
893.452	20655
893.575	20815
893.697	20686
893.819	20891
893.941	20883
894.064	20849
894.186	20644
894.308	20598
894.43	20697
894.552	20762
894.674	20724
894.796	20689
894.918	20549
895.04	20629
895.161	20735
895.283	20834
895.405	20678
895.526	20598
895.648	20648
895.769	20712
895.891	20682
896.012	20758
896.134	20735
896.255	20682
896.376	20724
896.498	20727
896.619	20731
896.74	20724
896.861	20682
896.982	21062
897.103	21100
897.224	20982
897.345	20952
897.466	20796
897.587	20921
897.708	20956
897.828	20887
897.949	20804
898.07	20663
898.19	20834
898.311	20956
898.431	20815
898.552	20804
898.672	20910
898.792	20990
898.913	20819
899.033	20804
899.153	20720
899.273	20636
899.393	20701
899.513	20644
899.633	20678
899.753	20705
899.873	20457
899.993	20659
900.113	20511
900.232	20609
900.352	20450
900.472	20377
900.591	20336
900.711	20377
900.83	20358
900.95	20514
901.069	20396
901.189	20278
901.308	20149
901.427	19967
901.546	20058
901.665	19974
901.784	20065
901.904	19898
902.023	19655
902.141	19620
902.26	19460
902.379	19571
902.498	19480
902.617	19491
902.735	19582
902.854	19453
902.973	19293
903.091	19190
903.21	19160
903.328	19114
903.446	18966
903.565	18882
903.683	18970
903.801	18863
903.919	18882
904.038	18844
904.156	18700
904.274	18745
904.392	18760
904.51	18585
904.627	18623
904.745	18753
904.863	18707
904.981	18544
905.098	18376
905.216	18365
905.334	18475
905.451	18426
905.569	18311
905.686	18315
905.803	18414
905.921	18334
906.038	18216
906.155	18106
906.272	18038
906.389	18045
906.506	17942
906.623	17927
906.74	17882
906.857	17824
906.974	17756
907.091	17939
907.208	17992
907.324	17889
907.441	17802
907.557	17748
907.674	17615
907.79	17592
907.907	17589
908.023	17604
908.139	17520
908.256	17535
908.372	17490
908.488	17417
908.604	17406
908.72	17265
908.836	17315
908.952	17330
909.068	17322
909.184	17425
909.3	17414
909.415	17318
909.531	17303
909.647	17060
909.762	17086
909.878	17052
909.993	17060
910.108	16968
910.224	16965
910.339	17033
910.454	16946
910.57	16805
910.685	16763
910.8	17056
910.915	17037
911.03	16748
911.145	16656
911.259	16599
911.374	16573
911.489	16542
911.604	16424
911.718	16390
911.833	16386
911.947	16207
912.062	16310
912.176	16306
912.291	16333
912.405	16303
912.519	16558
912.633	16470
912.748	16409
912.862	16325
912.976	16200
913.09	16071
913.204	16185
913.318	16150
913.431	16249
913.545	16276
913.659	16284
913.772	16131
913.886	15949
914	15934
914.113	16086
914.226	16063
914.34	16048
914.453	15819
914.566	15949
914.68	15800
914.793	15819
914.906	15709
915.019	15606
915.132	15557
915.245	15458
915.358	15584
915.47	15610
915.583	15606
915.696	15587
915.809	15682
915.921	15667
916.034	15439
916.146	15412
916.259	15450
916.371	15576
916.483	15477
916.595	15416
916.708	15359
916.82	15458
916.932	15370
917.044	15268
917.156	15256
917.268	15218
917.38	15184
917.491	15119
917.603	15237
917.715	15256
917.826	15348
917.938	15180
918.049	15009
918.161	15112
918.272	15283
918.384	15203
918.495	15100
918.606	14967
918.717	14834
918.828	15005
918.939	15032
919.05	14872
919.161	14933
919.272	14689
919.383	14811
919.494	14918
919.604	15074
919.715	14845
919.826	14811
919.936	14876
920.047	15009
920.157	14941
920.267	15161
920.378	14914
920.488	14941
920.598	15089
920.708	15062
920.818	15036
920.928	15055
921.038	15207
921.148	15146
921.258	14891
921.368	14800
921.477	14720
921.587	14564
921.697	14564
921.806	14625
921.916	14438
922.025	14377
922.134	14271
922.244	14259
922.353	14191
922.462	14172
922.571	14054
922.68	13940
922.789	13860
922.898	13936
923.007	13814
923.116	13967
923.224	13856
923.333	13811
923.442	13791
923.55	13677
923.659	13715
923.767	13845
923.876	13628
923.984	13628
924.092	13620
924.201	13616
924.309	13567
924.417	13704
924.525	13457
924.633	13582
924.741	14469
924.849	13400
924.956	13518
925.064	13327
925.172	13278
925.279	13194
925.387	13320
925.494	13324
925.602	13415
925.709	13293
925.816	13225
925.924	13244
926.031	13255
926.138	13171
926.245	13285
926.352	13088
926.459	13289
926.566	13263
926.673	13171
926.779	12981
926.886	12962
926.993	12829
927.099	12913
927.206	12848
927.312	12806
927.419	12901
927.525	12783
927.631	12897
927.737	12700
927.843	12662
927.95	12494
928.056	12631
928.162	12715
928.267	12741
928.373	13206
928.479	12669
928.585	12479
928.69	12673
928.796	12673
928.901	12498
929.007	12418
929.112	12506
929.218	12547
929.323	12467
929.428	12380
929.533	12551
929.638	12304
929.743	12361
929.848	12376
929.953	12334
930.058	12197
930.163	11992
930.267	11996
930.372	12216
930.477	12106
930.581	12239
930.685	12064
930.79	11927
930.894	11946
930.998	11866
931.103	12102
931.207	11722
931.311	11604
931.415	11463
931.519	11349
931.623	11307
