Data from test_V78500241_697.txt Node
Date: Fri Mar 25 15:14:42 CST 2022
User: usil
Spectrometer: V785-0024
Trigger mode: 0
Integration Time (sec): 4.000000E-1
Scans to average: 1
Nonlinearity correction enabled: false
Boxcar width: 0
Storing dark spectrum: false
XAxis mode: Wavelengths
Number of Pixels in Spectrum: 1024
>>>>>Begin Spectral Data<<<<<
801.071	28185
801.214	28105
801.356	27838
801.499	27808
801.641	27713
801.783	27682
801.926	27583
802.068	27576
802.211	27743
802.353	27545
802.496	27355
802.638	27329
802.78	27401
802.923	27340
803.065	27325
803.208	27329
803.35	27336
803.492	27397
803.635	27473
803.777	27443
803.919	27595
804.061	27770
804.204	27595
804.346	27473
804.488	27485
804.63	27469
804.773	27511
804.915	27454
805.057	27443
805.199	27580
805.341	27618
805.483	27709
805.626	27625
805.768	27564
805.91	27675
806.052	27625
806.194	27587
806.336	27766
806.478	27720
806.62	27732
806.762	27827
806.904	28067
807.046	28287
807.188	28044
807.33	28086
807.472	28150
807.614	27987
807.756	28135
807.898	27930
808.04	27987
808.182	27869
808.324	27994
808.465	27949
808.607	28181
808.749	28143
808.891	28268
809.033	28401
809.174	28363
809.316	28276
809.458	28535
809.6	28318
809.741	28603
809.883	28379
810.025	28656
810.166	28672
810.308	28672
810.45	28500
810.591	28599
810.733	28215
810.875	28356
811.016	28204
811.158	28352
811.299	28531
811.441	28497
811.582	28512
811.724	28409
811.865	28352
812.007	28470
812.148	28451
812.29	28428
812.431	28527
812.573	28664
812.714	28854
812.855	28984
812.997	29044
813.138	29200
813.279	29006
813.421	28949
813.562	28900
813.703	28641
813.845	28615
813.986	28382
814.127	28249
814.268	27964
814.41	28219
814.551	28010
814.692	28036
814.833	27960
814.974	28086
815.115	28166
815.256	27907
815.397	27953
815.539	28055
815.68	27804
815.821	27751
815.962	27899
816.103	27857
816.244	27610
816.385	27778
816.526	27542
816.666	27351
816.807	27401
816.948	27382
817.089	27439
817.23	27447
817.371	27363
817.512	27427
817.653	27313
817.793	27283
817.934	27348
818.075	27397
818.216	27427
818.356	27260
818.497	27367
818.638	27138
818.778	27085
818.919	27340
819.06	27195
819.2	27294
819.341	27473
819.481	27279
819.622	27439
819.762	27781
819.903	27595
820.043	27545
820.184	27443
820.324	27485
820.465	27530
820.605	27496
820.746	27606
820.886	27344
821.026	27530
821.167	27420
821.307	27526
821.447	27401
821.588	27283
821.728	27184
821.868	27013
822.008	26838
822.149	26758
822.289	26823
822.429	26552
822.569	26571
822.709	26571
822.849	26381
822.99	26446
823.13	26309
823.27	26237
823.41	26244
823.55	26031
823.69	26244
823.83	26084
823.97	26039
824.11	25845
824.25	26039
824.389	25951
824.529	26107
824.669	25966
824.809	26157
824.949	26119
825.089	26130
825.228	26054
825.368	25906
825.508	26001
825.648	25970
825.787	25928
825.927	25909
826.067	25776
826.206	25970
826.346	25928
826.485	25940
826.625	25791
826.765	25879
826.904	25936
827.044	25567
827.183	25483
827.323	25582
827.462	25681
827.601	25635
827.741	25567
827.88	25601
828.02	25487
828.159	25502
828.298	25613
828.437	25590
828.577	25445
828.716	25712
828.855	25529
828.994	25339
829.134	25362
829.273	25343
829.412	25228
829.551	25324
829.69	25308
829.829	25320
829.968	25487
830.107	25369
830.246	25251
830.385	25187
830.524	25202
830.663	25099
830.802	25099
830.941	24901
831.08	24901
831.219	24989
831.357	25015
831.496	25053
831.635	24981
831.774	24833
831.913	24856
832.051	24650
832.19	24764
832.329	24741
832.467	24658
832.606	24452
832.744	24486
832.883	24692
833.022	24448
833.16	24627
833.299	24483
833.437	24570
833.576	24700
833.714	24608
833.852	24700
833.991	24646
834.129	24661
834.267	24665
834.406	24547
834.544	24654
834.682	24589
834.821	24498
834.959	24844
835.097	24547
835.235	24631
835.373	24544
835.511	24555
835.65	24475
835.788	24532
835.926	24353
836.064	24334
836.202	24285
836.34	24471
836.478	24460
836.615	24361
836.753	24502
836.891	24551
837.029	24486
837.167	24456
837.305	24308
837.443	24418
837.58	24277
837.718	24391
837.856	24319
837.993	24190
838.131	24148
838.269	24095
838.406	24247
838.544	24060
838.681	23866
838.819	23703
838.956	23714
839.094	23722
839.231	23752
839.369	23912
839.506	24209
839.643	23912
839.781	23828
839.918	23691
840.055	23817
840.193	23581
840.33	23661
840.467	23665
840.604	23771
840.742	23992
840.879	23520
841.016	23638
841.153	23493
841.29	23703
841.427	23558
841.564	23642
841.701	23691
841.838	23589
841.975	23611
842.112	23516
842.249	23410
842.385	23570
842.522	23710
842.659	23478
842.796	23425
842.933	23425
843.069	23231
843.206	23254
843.343	23551
843.479	23410
843.616	23463
843.752	23246
843.889	23174
844.025	23334
844.162	23174
844.298	23326
844.435	23079
844.571	23250
844.708	23223
844.844	23296
844.98	23254
845.117	23334
845.253	23143
845.389	23079
845.525	23094
845.661	23022
845.798	22976
845.934	23079
846.07	22877
846.206	22991
846.342	22984
846.478	22991
846.614	22672
846.75	22611
846.886	22653
847.022	22717
847.158	22725
847.294	22679
847.429	22786
847.565	22664
847.701	22847
847.837	22337
847.972	22356
848.108	22618
848.244	22348
848.379	22261
848.515	22238
848.65	22310
848.786	22234
848.921	22325
849.057	22337
849.192	22261
849.328	22329
849.463	22306
849.598	22154
849.734	22135
849.869	22150
850.004	21934
850.14	22101
850.275	22051
850.41	21861
850.545	22055
850.68	21934
850.815	21926
850.95	21892
851.085	22150
851.22	22162
851.355	22093
851.49	22093
851.625	21941
851.76	21880
851.895	21983
852.03	21895
852.165	21922
852.299	22013
852.434	22120
852.569	22124
852.703	21972
852.838	21983
852.973	22200
853.107	22082
853.242	21937
853.376	21823
853.511	21682
853.645	21831
853.78	21926
853.914	21861
854.048	21789
854.183	21789
854.317	21899
854.451	21979
854.585	21808
854.72	21781
854.854	21876
854.988	21850
855.122	21915
855.256	21675
855.39	21797
855.524	21732
855.658	21903
855.792	21785
855.926	21785
856.06	21926
856.194	21895
856.327	21827
856.461	21717
856.595	21717
856.729	21918
856.862	21899
856.996	21865
857.13	21968
857.263	21876
857.397	21915
857.53	21785
857.664	21762
857.797	21876
857.931	21880
858.064	21831
858.197	21945
858.331	21808
858.464	21774
858.597	21591
858.731	21819
858.864	21956
858.997	21766
859.13	21812
859.263	21827
859.396	21789
859.529	21739
859.662	21701
859.795	21682
859.928	21972
860.061	22032
860.194	22147
860.327	21903
860.46	21724
860.592	22082
860.725	22021
860.858	22002
860.99	21907
861.123	21869
861.256	21808
861.388	21854
861.521	22710
861.653	21686
861.786	21648
861.918	21717
862.05	21709
862.183	21728
862.315	21762
862.447	21838
862.58	21743
862.712	21557
862.844	21667
862.976	21633
863.108	21679
863.24	21835
863.372	21466
863.504	21386
863.636	21625
863.768	21526
863.9	21466
864.032	21469
864.164	21477
864.296	21564
864.428	21568
864.559	21568
864.691	21507
864.823	21595
864.954	21549
865.086	21481
865.217	21386
865.349	21298
865.48	21294
865.612	21397
865.743	21488
865.875	21485
866.006	21515
866.137	21408
866.269	21511
866.4	21370
866.531	21416
866.662	21325
866.793	21443
866.924	21317
867.055	21329
867.186	21386
867.317	21264
867.448	21256
867.579	21211
867.71	21283
867.841	21051
867.972	21310
868.103	21435
868.233	21313
868.364	21412
868.495	21511
868.625	21496
868.756	21709
868.886	21523
869.017	21519
869.147	21637
869.278	21583
869.408	21663
869.539	21572
869.669	21759
869.799	21557
869.929	21717
870.06	21694
870.19	21831
870.32	21884
870.45	21892
870.58	21960
870.71	22002
870.84	22067
870.97	21934
871.1	21937
871.23	22048
871.36	22166
871.489	22063
871.619	22154
871.749	22219
871.879	22249
872.008	22257
872.138	22120
872.267	22177
872.397	22067
872.526	22006
872.656	22025
872.785	22010
872.915	22230
873.044	22249
873.173	22238
873.303	22215
873.432	22360
873.561	22310
873.69	22124
873.819	22223
873.948	22379
874.077	22215
874.206	22158
874.335	22253
874.464	22215
874.593	22432
874.722	22424
874.851	22455
874.979	22375
875.108	22493
875.237	22314
875.365	22314
875.494	22447
875.623	22440
875.751	22344
875.88	22428
876.008	22462
876.136	22588
876.265	22752
876.393	22911
876.521	22896
876.65	22816
876.778	22801
876.906	22634
877.034	22713
877.162	22679
877.29	22664
877.418	22752
877.546	22774
877.674	22733
877.802	22771
877.93	22660
878.058	22801
878.185	22687
878.313	22660
878.441	22698
878.568	22557
878.696	22634
878.824	22733
878.951	22729
879.079	22782
879.206	22995
879.333	22923
879.461	22805
879.588	22809
879.715	22911
879.842	22949
879.97	22809
880.097	22527
880.224	22535
880.351	22596
880.478	22561
880.605	22512
880.732	22474
880.859	22858
880.986	22535
881.112	22497
881.239	22409
881.366	22303
881.493	22215
881.619	22276
881.746	22192
881.872	22226
881.999	22143
882.125	21994
882.252	22280
882.378	22074
882.505	22242
882.631	21964
882.757	21789
882.883	21831
883.01	21838
883.136	21838
883.262	21907
883.388	21690
883.514	21812
883.64	21915
883.766	21800
883.892	21583
884.018	21663
884.143	21705
884.269	21869
884.395	21686
884.52	21386
884.646	21545
884.772	21447
884.897	21382
885.023	21359
885.148	21599
885.274	21614
885.399	21690
885.524	21435
885.65	21473
885.775	21435
885.9	21481
886.025	21530
886.15	21564
886.275	21462
886.4	21412
886.525	21496
886.65	21374
886.775	21515
886.9	21557
887.025	21580
887.149	21431
887.274	21370
887.399	21279
887.523	21428
887.648	21298
887.773	21184
887.897	21325
888.021	21325
888.146	21108
888.27	21287
888.395	21321
888.519	21291
888.643	21272
888.767	21211
888.891	21066
889.015	21043
889.139	21066
889.263	21047
889.387	21226
889.511	21233
889.635	21066
889.759	20944
889.883	21009
890.006	21009
890.13	21237
890.254	20979
890.377	21001
890.501	20743
890.624	20678
890.748	20891
890.871	20739
890.995	20587
891.118	20613
891.241	20526
891.364	20617
891.488	20708
891.611	20602
891.734	20617
891.857	20598
891.98	20621
892.103	20632
892.226	20495
892.349	20587
892.471	20537
892.594	20492
892.717	20457
892.839	20530
892.962	20579
893.085	20617
893.207	20545
893.33	20385
893.452	20400
893.575	20499
893.697	20427
893.819	20571
893.941	20587
894.064	20655
894.186	20347
894.308	20457
894.43	20629
894.552	20617
894.674	20476
894.796	20389
894.918	20358
895.04	20480
895.161	20617
895.283	20579
895.405	20389
895.526	20526
895.648	20450
895.769	20564
895.891	20415
896.012	20598
896.134	20560
896.255	20446
896.376	20347
896.498	20511
896.619	20522
896.74	20358
896.861	20476
896.982	20697
897.103	20975
897.224	20746
897.345	20644
897.466	20648
897.587	20678
897.708	20823
897.828	20769
897.949	20617
898.07	20549
898.19	20655
898.311	20739
898.431	20727
898.552	20617
898.672	20762
898.792	20693
898.913	20640
899.033	20473
899.153	20454
899.273	20385
899.393	20507
899.513	20438
899.633	20476
899.753	20469
899.873	20374
899.993	20377
900.113	20450
900.232	20271
900.352	20305
900.472	20271
900.591	20157
900.711	20180
900.83	20210
900.95	20259
901.069	20275
901.189	20081
901.308	19898
901.427	19830
901.546	19784
901.665	19757
901.784	19841
901.904	19586
902.023	19540
902.141	19449
902.26	19316
902.379	19457
902.498	19381
902.617	19297
902.735	19365
902.854	19350
902.973	19202
903.091	18962
903.21	19023
903.328	19004
903.446	18886
903.565	18753
903.683	18726
903.801	18654
903.919	18715
904.038	18715
904.156	18490
904.274	18578
904.392	18540
904.51	18426
904.627	18433
904.745	18566
904.863	18597
904.981	18380
905.098	18133
905.216	18098
905.334	18273
905.451	18258
905.569	18247
905.686	18178
905.803	18152
905.921	17923
906.038	17950
906.155	17935
906.272	17836
906.389	17927
906.506	17764
906.623	17676
906.74	17707
906.857	17672
906.974	17570
907.091	17691
907.208	17802
907.324	17699
907.441	17634
907.557	17471
907.674	17417
907.79	17398
907.907	17395
908.023	17524
908.139	17474
908.256	17398
908.372	17372
908.488	17220
908.604	17254
908.72	17079
908.836	17143
908.952	17220
909.068	17162
909.184	17261
909.3	17159
909.415	17242
909.531	17258
909.647	16873
909.762	16889
909.878	16839
909.993	16930
910.108	16854
910.224	16911
910.339	16752
910.454	16702
910.57	16725
910.685	16717
910.8	16968
910.915	16850
911.03	16645
911.145	16618
911.259	16493
911.374	16481
911.489	16344
911.604	16329
911.718	16268
911.833	16242
911.947	16150
912.062	16116
912.176	16204
912.291	16112
912.405	16154
912.519	16360
912.633	16348
912.748	16329
912.862	16249
912.976	16048
913.09	16074
913.204	16002
913.318	15975
913.431	16097
913.545	16131
913.659	16177
913.772	15888
913.886	15922
914	15797
914.113	15854
914.226	15895
914.34	16010
914.453	15705
914.566	15854
914.68	15755
914.793	15755
914.906	15545
915.019	15317
915.132	15462
915.245	15469
915.358	15587
915.47	15447
915.583	15473
915.696	15420
915.809	15405
915.921	15538
916.034	15428
916.146	15275
916.259	15389
916.371	15477
916.483	15431
916.595	15245
916.708	15260
916.82	15207
916.932	15287
917.044	15161
917.156	15230
917.268	15070
917.38	15036
917.491	15070
917.603	15066
917.715	15100
917.826	15169
917.938	14975
918.049	14861
918.161	15123
918.272	15142
918.384	15195
918.495	14891
918.606	14769
918.717	14716
918.828	14861
918.939	14849
919.05	14648
919.161	14830
919.272	14629
919.383	14682
919.494	14845
919.604	14933
919.715	14762
919.826	14724
919.936	14838
920.047	14834
920.157	14777
920.267	15036
920.378	14648
920.488	14819
920.598	14941
920.708	15142
920.818	14982
920.928	14963
921.038	15062
921.148	15062
921.258	14716
921.368	14632
921.477	14587
921.587	14427
921.697	14389
921.806	14476
921.916	14324
922.025	14210
922.134	14107
922.244	14183
922.353	14145
922.462	13970
922.571	13986
922.68	13807
922.789	13757
922.898	13784
923.007	13677
923.116	13761
923.224	13833
923.333	13742
923.442	13616
923.55	13700
923.659	13689
923.767	13643
923.876	13559
923.984	13662
924.092	13533
924.201	13525
924.309	13632
924.417	13487
924.525	13464
924.633	13396
924.741	14248
924.849	13263
924.956	13304
925.064	13251
925.172	13133
925.279	13217
925.387	13232
925.494	13118
925.602	13350
925.709	13266
925.816	13103
925.924	13133
926.031	13228
926.138	13198
926.245	13228
926.352	12996
926.459	13175
926.566	13194
926.673	13042
926.779	12989
926.886	12947
926.993	12913
927.099	12852
927.206	12642
927.312	12696
927.419	12764
927.525	12681
927.631	12817
927.737	12654
927.843	12551
927.95	12540
928.056	12479
928.162	12574
928.267	12612
928.373	13198
928.479	12589
928.585	12429
928.69	12566
928.796	12555
928.901	12486
929.007	12273
929.112	12388
929.218	12429
929.323	12296
929.428	12289
929.533	12357
929.638	12175
929.743	12235
929.848	12311
929.953	12281
930.058	12015
930.163	12003
930.267	11988
930.372	12152
930.477	11950
930.581	12186
930.685	11977
930.79	11992
930.894	11988
930.998	11813
931.103	11904
931.207	11600
931.311	11551
931.415	11448
931.519	11220
931.623	11155
