Data from test_V78500241_682.txt Node
Date: Fri Mar 25 15:14:36 CST 2022
User: usil
Spectrometer: V785-0024
Trigger mode: 0
Integration Time (sec): 4.000000E-1
Scans to average: 1
Nonlinearity correction enabled: false
Boxcar width: 0
Storing dark spectrum: false
XAxis mode: Wavelengths
Number of Pixels in Spectrum: 1024
>>>>>Begin Spectral Data<<<<<
801.071	28017
801.214	27914
801.356	27956
801.499	27854
801.641	27686
801.783	27701
801.926	27660
802.068	27667
802.211	27534
802.353	27557
802.496	27401
802.638	27325
802.78	27294
802.923	27351
803.065	27169
803.208	27351
803.35	27230
803.492	27500
803.635	27488
803.777	27291
803.919	27454
804.061	27934
804.204	27568
804.346	27408
804.488	27439
804.63	27382
804.773	27481
804.915	27405
805.057	27504
805.199	27447
805.341	27481
805.483	27679
805.626	27629
805.768	27507
805.91	27542
806.052	27466
806.194	27580
806.336	27960
806.478	27724
806.62	27743
806.762	27690
806.904	27808
807.046	28169
807.188	28131
807.33	28051
807.472	28192
807.614	28013
807.756	27960
807.898	27869
808.04	27934
808.182	27892
808.324	27762
808.465	27892
808.607	28101
808.749	28162
808.891	28314
809.033	28310
809.174	28291
809.316	28253
809.458	28223
809.6	28253
809.741	28519
809.883	28455
810.025	28622
810.166	28611
810.308	28599
810.45	28592
810.591	28447
810.733	28322
810.875	28219
811.016	28230
811.158	28287
811.299	28356
811.441	28455
811.582	28329
811.724	28276
811.865	28333
812.007	28242
812.148	28375
812.29	28265
812.431	28504
812.573	28535
812.714	28797
812.855	28801
812.997	28927
813.138	29143
813.279	28927
813.421	28767
813.562	28824
813.703	28561
813.845	28523
813.986	28356
814.127	28204
814.268	28025
814.41	28139
814.551	28116
814.692	28059
814.833	27991
814.974	27926
815.115	28169
815.256	27766
815.397	27873
815.539	27892
815.68	27751
815.821	27842
815.962	27774
816.103	27709
816.244	27698
816.385	27572
816.526	27660
816.666	27568
816.807	27275
816.948	27367
817.089	27393
817.23	27462
817.371	27344
817.512	27325
817.653	27351
817.793	27268
817.934	27298
818.075	27313
818.216	27382
818.356	27344
818.497	27237
818.638	27074
818.778	27146
818.919	27142
819.06	27093
819.2	27222
819.341	27260
819.481	27249
819.622	27500
819.762	27576
819.903	27667
820.043	27420
820.184	27557
820.324	27389
820.465	27462
820.605	27523
820.746	27408
820.886	27374
821.026	27405
821.167	27367
821.307	27370
821.447	27393
821.588	27275
821.728	27108
821.868	27081
822.008	26815
822.149	26750
822.289	26834
822.429	26609
822.569	26507
822.709	26465
822.849	26324
822.99	26301
823.13	26282
823.27	26229
823.41	26183
823.55	26161
823.69	26084
823.83	26020
823.97	26100
824.11	25921
824.25	25860
824.389	25879
824.529	26027
824.669	26016
824.809	25982
824.949	26111
825.089	26043
825.228	26081
825.368	25909
825.508	25788
825.648	25849
825.787	25875
825.927	25811
826.067	25772
826.206	25765
826.346	25894
826.485	25970
826.625	25814
826.765	26027
826.904	25947
827.044	25575
827.183	25658
827.323	25510
827.462	25651
827.601	25567
827.741	25616
827.88	25594
828.02	25468
828.159	25525
828.298	25628
828.437	25597
828.577	25434
828.716	25605
828.855	25407
828.994	25225
829.134	25259
829.273	25255
829.412	25312
829.551	25190
829.69	25251
829.829	25407
829.968	25384
830.107	25278
830.246	25187
830.385	25179
830.524	25228
830.663	25023
830.802	25019
830.941	24802
831.08	24814
831.219	24924
831.357	24947
831.496	25160
831.635	24745
831.774	24730
831.913	24741
832.051	24665
832.19	24639
832.329	24661
832.467	24555
832.606	24467
832.744	24452
832.883	24521
833.022	24380
833.16	24456
833.299	24505
833.437	24528
833.576	24494
833.714	24608
833.852	24715
833.991	24738
834.129	24593
834.267	24677
834.406	24681
834.544	24650
834.682	24445
834.821	24528
834.959	24593
835.097	24559
835.235	24700
835.373	24521
835.511	24593
835.65	24182
835.788	24418
835.926	24369
836.064	24266
836.202	24262
836.34	24410
836.478	24483
836.615	24353
836.753	24445
836.891	24570
837.029	24437
837.167	24395
837.305	24433
837.443	24239
837.58	24311
837.718	24315
837.856	24232
837.993	24076
838.131	24209
838.269	24007
838.406	24129
838.544	24076
838.681	23927
838.819	23703
838.956	23672
839.094	23745
839.231	23760
839.369	23920
839.506	24076
839.643	24026
839.781	23745
839.918	23619
840.055	23676
840.193	23630
840.33	23505
840.467	23623
840.604	23627
840.742	23802
840.879	23486
841.016	23486
841.153	23627
841.29	23722
841.427	23486
841.564	23668
841.701	23653
841.838	23604
841.975	23436
842.112	23524
842.249	23463
842.385	23368
842.522	23379
842.659	23547
842.796	23410
842.933	23307
843.069	23337
843.206	23197
843.343	23573
843.479	23455
843.616	23410
843.752	23121
843.889	23174
844.025	23337
844.162	23193
844.298	23223
844.435	23151
844.571	23178
844.708	23307
844.844	23292
844.98	23299
845.117	23254
845.253	23022
845.389	23018
845.525	23025
845.661	23010
845.798	22786
845.934	23056
846.07	22839
846.206	22892
846.342	22949
846.478	22843
846.614	22694
846.75	22603
846.886	22588
847.022	22679
847.158	22721
847.294	22660
847.429	22607
847.565	22519
847.701	22892
847.837	22352
847.972	22318
848.108	22428
848.244	22367
848.379	22215
848.515	22280
848.65	22181
848.786	22352
848.921	22139
849.057	22390
849.192	22333
849.328	22204
849.463	22154
849.598	22139
849.734	22150
849.869	22135
850.004	21994
850.14	22010
850.275	21972
850.41	21854
850.545	21979
850.68	21873
850.815	21911
850.95	21899
851.085	22048
851.22	22040
851.355	21937
851.49	21979
851.625	21876
851.76	21983
851.895	21857
852.03	21732
852.165	21869
852.299	22036
852.434	22021
852.569	21979
852.703	21934
852.838	21934
852.973	22017
853.107	22036
853.242	21964
853.376	21793
853.511	21633
853.645	21698
853.78	21770
853.914	21838
854.048	21835
854.183	21827
854.317	21876
854.451	22051
854.585	21690
854.72	21724
854.854	21865
854.988	21743
855.122	21789
855.256	21667
855.39	21778
855.524	21800
855.658	21972
855.792	21648
855.926	21698
856.06	21724
856.194	21899
856.327	21679
856.461	21812
856.595	21800
856.729	21686
856.862	21857
856.996	21804
857.13	21720
857.263	21998
857.397	21918
857.53	21793
857.664	21884
857.797	21755
857.931	21793
858.064	21755
858.197	21937
858.331	21667
858.464	21709
858.597	21679
858.731	21713
858.864	21835
858.997	21747
859.13	21762
859.263	21846
859.396	21892
859.529	21743
859.662	21671
859.795	21732
859.928	21690
860.061	21838
860.194	21884
860.327	21648
860.46	21724
860.592	21964
860.725	21884
860.858	21926
860.99	21720
861.123	21667
861.256	21751
861.388	21831
861.521	22485
861.653	21671
861.786	21690
861.918	21603
862.05	21660
862.183	21660
862.315	21713
862.447	21842
862.58	21709
862.712	21382
862.844	21458
862.976	21428
863.108	21496
863.24	21808
863.372	21443
863.504	21523
863.636	21485
863.768	21450
863.9	21485
864.032	21378
864.164	21378
864.296	21466
864.428	21644
864.559	21488
864.691	21583
864.823	21542
864.954	21469
865.086	21382
865.217	21386
865.349	21085
865.48	21382
865.612	21279
865.743	21462
865.875	21439
866.006	21340
866.137	21351
866.269	21275
866.4	21416
866.531	21405
866.662	21348
866.793	21302
866.924	21241
867.055	21321
867.186	21291
867.317	21252
867.448	21233
867.579	21393
867.71	21138
867.841	21131
867.972	21279
868.103	21329
868.233	21401
868.364	21332
868.495	21416
868.625	21603
868.756	21694
868.886	21507
869.017	21572
869.147	21526
869.278	21572
869.408	21466
869.539	21511
869.669	21538
869.799	21488
869.929	21671
870.06	21682
870.19	21827
870.32	21785
870.45	21846
870.58	21953
870.71	22150
870.84	22135
870.97	21816
871.1	21972
871.23	22078
871.36	22040
871.489	22055
871.619	22109
871.749	22055
871.879	22230
872.008	22257
872.138	22128
872.267	22249
872.397	21964
872.526	21915
872.656	21994
872.785	22051
872.915	22230
873.044	22188
873.173	22181
873.303	22093
873.432	22097
873.561	22169
873.69	22086
873.819	22196
873.948	22116
874.077	22215
874.206	22200
874.335	22150
874.464	22116
874.593	22447
874.722	22421
874.851	22348
874.979	22348
875.108	22436
875.237	22306
875.365	22329
875.494	22169
875.623	22417
875.751	22272
875.88	22481
876.008	22542
876.136	22634
876.265	22664
876.393	22976
876.521	22793
876.65	22637
876.778	22713
876.906	22710
877.034	22854
877.162	22691
877.29	22561
877.418	22725
877.546	22740
877.674	22698
877.802	22767
877.93	22763
878.058	22577
878.185	22554
878.313	22615
878.441	22622
878.568	22478
878.696	22565
878.824	22843
878.951	22843
879.079	22957
879.206	23075
879.333	22828
879.461	22649
879.588	22774
879.715	22885
879.842	22991
879.97	22820
880.097	22596
880.224	22421
880.351	22672
880.478	22550
880.605	22569
880.732	22603
880.859	22797
880.986	22455
881.112	22607
881.239	22481
881.366	22295
881.493	22166
881.619	22040
881.746	22040
881.872	22013
881.999	22086
882.125	21975
882.252	22147
882.378	22158
882.505	22177
882.631	21968
882.757	21690
882.883	21857
883.01	21720
883.136	21823
883.262	21625
883.388	21652
883.514	21713
883.64	21797
883.766	21766
883.892	21667
884.018	21614
884.143	21751
884.269	21804
884.395	21412
884.52	21466
884.646	21336
884.772	21363
884.897	21302
885.023	21386
885.148	21439
885.274	21564
885.399	21477
885.524	21340
885.65	21431
885.775	21367
885.9	21359
886.025	21386
886.15	21542
886.275	21344
886.4	21313
886.525	21412
886.65	21378
886.775	21268
886.9	21477
887.025	21656
887.149	21306
887.274	21135
887.399	21169
887.523	21192
887.648	21135
887.773	21218
887.897	21233
888.021	21260
888.146	21173
888.27	21093
888.395	21218
888.519	21218
888.643	21317
888.767	21332
888.891	21070
889.015	20918
889.139	21051
889.263	20880
889.387	21123
889.511	21211
889.635	21062
889.759	20952
889.883	20838
890.006	20967
890.13	21108
890.254	20845
890.377	20864
890.501	20819
890.624	20746
890.748	20815
890.871	20705
890.995	20530
891.118	20438
891.241	20564
891.364	20530
891.488	20594
891.611	20537
891.734	20526
891.857	20549
891.98	20587
892.103	20655
892.226	20602
892.349	20511
892.471	20347
892.594	20541
892.717	20484
892.839	20404
892.962	20568
893.085	20514
893.207	20499
893.33	20332
893.452	20339
893.575	20442
893.697	20530
893.819	20488
893.941	20564
894.064	20590
894.186	20457
894.308	20434
894.43	20594
894.552	20522
894.674	20492
894.796	20396
894.918	20408
895.04	20301
895.161	20541
895.283	20450
895.405	20370
895.526	20476
895.648	20328
895.769	20457
895.891	20396
896.012	20499
896.134	20549
896.255	20514
896.376	20339
896.498	20400
896.619	20415
896.74	20377
896.861	20396
896.982	20754
897.103	20883
897.224	20670
897.345	20670
897.466	20659
897.587	20644
897.708	20804
897.828	20651
897.949	20598
898.07	20530
898.19	20507
898.311	20640
898.431	20545
898.552	20594
898.672	20659
898.792	20678
898.913	20640
899.033	20579
899.153	20457
899.273	20393
899.393	20244
899.513	20324
899.633	20415
899.753	20404
899.873	20301
899.993	20355
900.113	20370
900.232	20404
900.352	20343
900.472	20267
900.591	20005
900.711	20313
900.83	20111
900.95	20233
901.069	20214
901.189	19997
901.308	19868
901.427	19746
901.546	19742
901.665	19734
901.784	19776
901.904	19586
902.023	19563
902.141	19285
902.26	19285
902.379	19308
902.498	19221
902.617	19171
902.735	19320
902.854	19232
902.973	19225
903.091	18939
903.21	18913
903.328	18985
903.446	18722
903.565	18825
903.683	18802
903.801	18593
903.919	18715
904.038	18646
904.156	18437
904.274	18623
904.392	18494
904.51	18414
904.627	18544
904.745	18509
904.863	18433
904.981	18338
905.098	18182
905.216	18129
905.334	18220
905.451	18121
905.569	18152
905.686	18133
905.803	18098
905.921	17809
906.038	18079
906.155	18057
906.272	17805
906.389	17855
906.506	17707
906.623	17623
906.74	17707
906.857	17649
906.974	17554
907.091	17687
907.208	17893
907.324	17802
907.441	17642
907.557	17345
907.674	17410
907.79	17444
907.907	17349
908.023	17353
908.139	17315
908.256	17280
908.372	17258
908.488	17239
908.604	17143
908.72	17162
908.836	17117
908.952	17018
909.068	17143
909.184	17140
909.3	17006
909.415	17143
909.531	17064
909.647	16915
909.762	16900
909.878	16767
909.993	16858
910.108	16767
910.224	16698
910.339	16824
910.454	16656
910.57	16542
910.685	16550
910.8	16908
910.915	16843
911.03	16607
911.145	16447
911.259	16432
911.374	16329
911.489	16226
911.604	16303
911.718	16150
911.833	16219
911.947	16074
912.062	15949
912.176	16177
912.291	16196
912.405	16086
912.519	16242
912.633	16242
912.748	16109
912.862	16131
912.976	16040
913.09	15778
913.204	15934
913.318	16010
913.431	16002
913.545	15949
913.659	16090
913.772	15895
913.886	15743
914	15827
914.113	15831
914.226	15857
914.34	15846
914.453	15656
914.566	15800
914.68	15644
914.793	15526
914.906	15401
915.019	15344
915.132	15412
915.245	15412
915.358	15291
915.47	15458
915.583	15329
915.696	15359
915.809	15374
915.921	15382
916.034	15378
916.146	15135
916.259	15264
916.371	15313
916.483	15291
916.595	15165
916.708	15241
916.82	15150
916.932	15104
917.044	15142
917.156	15150
917.268	15020
917.38	14933
917.491	14975
917.603	15043
917.715	14998
917.826	15116
917.938	14994
918.049	14887
918.161	14975
918.272	15051
918.384	14998
918.495	14929
918.606	14743
918.717	14724
918.828	14834
918.939	14686
919.05	14686
919.161	14746
919.272	14518
919.383	14708
919.494	14826
919.604	14948
919.715	14701
919.826	14667
919.936	14697
920.047	14785
920.157	14590
920.267	14819
920.378	14716
920.488	14731
920.598	14834
920.708	14971
920.818	14777
920.928	14800
921.038	14921
921.148	14914
921.258	14648
921.368	14541
921.477	14381
921.587	14473
921.697	14343
921.806	14514
921.916	14286
922.025	14176
922.134	14005
922.244	13993
922.353	14046
922.462	13993
922.571	13970
922.68	13731
922.789	13605
922.898	13658
923.007	13738
923.116	13837
923.224	13753
923.333	13616
923.442	13613
923.55	13601
923.659	13578
923.767	13616
923.876	13605
923.984	13529
924.092	13487
924.201	13548
924.309	13491
924.417	13445
924.525	13369
924.633	13419
924.741	14107
924.849	13228
924.956	13350
925.064	13149
925.172	13034
925.279	13099
925.387	13145
925.494	13110
925.602	13331
925.709	13187
925.816	13012
925.924	13042
926.031	13179
926.138	13057
926.245	13145
926.352	13004
926.459	13091
926.566	13118
926.673	12878
926.779	12928
926.886	12920
926.993	12821
927.099	12635
927.206	12692
927.312	12635
927.419	12700
927.525	12642
927.631	12722
927.737	12532
927.843	12521
927.95	12441
928.056	12471
928.162	12601
928.267	12475
928.373	13141
928.479	12536
928.585	12429
928.69	12403
928.796	12513
928.901	12418
929.007	12247
929.112	12353
929.218	12315
929.323	12254
929.428	12220
929.533	12357
929.638	12190
929.743	12125
929.848	12182
929.953	12133
930.058	12007
930.163	11828
930.267	11847
930.372	12079
930.477	11889
930.581	12057
930.685	11946
930.79	11809
930.894	11775
930.998	11809
931.103	11851
931.207	11570
931.311	11497
931.415	11395
931.519	11220
931.623	11147
