Data from test_V78500241_3250.txt Node
Date: Fri Mar 25 15:32:29 CST 2022
User: usil
Spectrometer: V785-0024
Trigger mode: 0
Integration Time (sec): 4.000000E-1
Scans to average: 1
Nonlinearity correction enabled: false
Boxcar width: 0
Storing dark spectrum: false
XAxis mode: Wavelengths
Number of Pixels in Spectrum: 1024
>>>>>Begin Spectral Data<<<<<
801.071	27325
801.214	27214
801.356	26990
801.499	26971
801.641	26712
801.783	26693
801.926	26876
802.068	26899
802.211	26792
802.353	26708
802.496	26556
802.638	26495
802.78	26412
802.923	26374
803.065	26408
803.208	26370
803.35	26393
803.492	26488
803.635	26697
803.777	26522
803.919	26636
804.061	26887
804.204	26644
804.346	26640
804.488	26465
804.63	26609
804.773	26476
804.915	26590
805.057	26705
805.199	26648
805.341	26598
805.483	26823
805.626	26735
805.768	26594
805.91	26758
806.052	26765
806.194	26598
806.336	26708
806.478	26678
806.62	26746
806.762	26853
806.904	27051
807.046	27313
807.188	27028
807.33	27123
807.472	27100
807.614	27009
807.756	27116
807.898	26990
808.04	26815
808.182	26868
808.324	26971
808.465	27062
808.607	27226
808.749	27249
808.891	27408
809.033	27488
809.174	27291
809.316	27348
809.458	27256
809.6	27218
809.741	27306
809.883	27420
810.025	27561
810.166	27675
810.308	27618
810.45	27561
810.591	27504
810.733	27393
810.875	27306
811.016	27176
811.158	27283
811.299	27363
811.441	27447
811.582	27260
811.724	27378
811.865	27264
812.007	27237
812.148	27287
812.29	27268
812.431	27458
812.573	27622
812.714	27667
812.855	27797
812.997	27835
813.138	27907
813.279	27861
813.421	27827
813.562	27698
813.703	27603
813.845	27557
813.986	27424
814.127	27013
814.268	26937
814.41	26933
814.551	26952
814.692	26956
814.833	26899
814.974	26864
815.115	26895
815.256	26883
815.397	26754
815.539	26861
815.68	26777
815.821	26697
815.962	26659
816.103	26571
816.244	26602
816.385	26511
816.526	26431
816.666	26294
816.807	26221
816.948	26362
817.089	26271
817.23	26271
817.371	26301
817.512	26248
817.653	26157
817.793	26115
817.934	26153
818.075	26229
818.216	26267
818.356	26233
818.497	26027
818.638	25868
818.778	26008
818.919	25963
819.06	25963
819.2	26084
819.341	26153
819.481	26119
819.622	26320
819.762	26476
819.903	26442
820.043	26415
820.184	26275
820.324	26317
820.465	26400
820.605	26419
820.746	26324
820.886	26073
821.026	26164
821.167	26233
821.307	26343
821.447	26355
821.588	26225
821.728	26020
821.868	25822
822.008	25696
822.149	25689
822.289	25693
822.429	25365
822.569	25373
822.709	25426
822.849	25350
822.99	25164
823.13	25145
823.27	25061
823.41	24996
823.55	25012
823.69	25008
823.83	25004
823.97	24913
824.11	24909
824.25	24623
824.389	24791
824.529	24882
824.669	24867
824.809	24875
824.949	24920
825.089	24924
825.228	24882
825.368	24707
825.508	24631
825.648	24776
825.787	24673
825.927	24802
826.067	24642
826.206	24658
826.346	24696
826.485	24654
826.625	24707
826.765	24875
826.904	24810
827.044	24608
827.183	24589
827.323	24467
827.462	24551
827.601	24418
827.741	24369
827.88	24380
828.02	24270
828.159	24372
828.298	24460
828.437	24323
828.577	24319
828.716	24486
828.855	24369
828.994	24201
829.134	24072
829.273	24201
829.412	24125
829.551	24057
829.69	24194
829.829	24174
829.968	24232
830.107	24235
830.246	24129
830.385	24076
830.524	24095
830.663	23969
830.802	23897
830.941	23695
831.08	23752
831.219	23729
831.357	23794
831.496	24007
831.635	23672
831.774	23524
831.913	23653
832.051	23608
832.19	23459
832.329	23611
832.467	23474
832.606	23356
832.744	23303
832.883	23512
833.022	23471
833.16	23444
833.299	23520
833.437	23467
833.576	23566
833.714	23455
833.852	23440
833.991	23505
834.129	23558
834.267	23482
834.406	23444
834.544	23467
834.682	23623
834.821	23391
834.959	23649
835.097	23330
835.235	23520
835.373	23421
835.511	23421
835.65	23288
835.788	23334
835.926	23170
836.064	23105
836.202	23132
836.34	23353
836.478	23376
836.615	23322
836.753	23326
836.891	23337
837.029	23391
837.167	23155
837.305	23197
837.443	23193
837.58	23277
837.718	23200
837.856	23140
837.993	23071
838.131	23166
838.269	22999
838.406	23064
838.544	23037
838.681	22847
838.819	22862
838.956	22641
839.094	22691
839.231	22721
839.369	22847
839.506	23113
839.643	22915
839.781	22721
839.918	22626
840.055	22512
840.193	22653
840.33	22538
840.467	22733
840.604	22512
840.742	22759
840.879	22504
841.016	22546
841.153	22516
841.29	22763
841.427	22565
841.564	22577
841.701	22569
841.838	22542
841.975	22356
842.112	22588
842.249	22512
842.385	22363
842.522	22569
842.659	22436
842.796	22382
842.933	22333
843.069	22318
843.206	22268
843.343	22394
843.479	22451
843.616	22432
843.752	22082
843.889	22173
844.025	22287
844.162	22135
844.298	22166
844.435	22154
844.571	21945
844.708	22143
844.844	22337
844.98	22188
845.117	22204
845.253	22093
845.389	22067
845.525	21956
845.661	21895
845.798	21922
845.934	22029
846.07	21850
846.206	21926
846.342	21960
846.478	21850
846.614	21622
846.75	21564
846.886	21580
847.022	21778
847.158	21698
847.294	21644
847.429	21622
847.565	21549
847.701	21846
847.837	21348
847.972	21359
848.108	21386
848.244	21401
848.379	21211
848.515	21222
848.65	21119
848.786	21275
848.921	21142
849.057	21272
849.192	21268
849.328	21142
849.463	21230
849.598	21138
849.734	21089
849.869	21024
850.004	20952
850.14	20960
850.275	20944
850.41	20906
850.545	20941
850.68	20902
850.815	21005
850.95	20925
851.085	21123
851.22	21024
851.355	20872
851.49	20868
851.625	20933
851.76	20819
851.895	20921
852.03	20933
852.165	21066
852.299	20960
852.434	21104
852.569	21055
852.703	20895
852.838	20941
852.973	21081
853.107	21043
853.242	20902
853.376	20849
853.511	20686
853.645	20876
853.78	20815
853.914	20819
854.048	20682
854.183	20804
854.317	20796
854.451	20948
854.585	20849
854.72	20785
854.854	20792
854.988	20670
855.122	20712
855.256	20663
855.39	20735
855.524	20861
855.658	20823
855.792	20762
855.926	20857
856.06	20807
856.194	20963
856.327	20819
856.461	20701
856.595	20621
856.729	20705
856.862	20826
856.996	20891
857.13	20853
857.263	20861
857.397	20895
857.53	20773
857.664	20773
857.797	20762
857.931	20944
858.064	20861
858.197	21001
858.331	20750
858.464	20659
858.597	20617
858.731	20804
858.864	20750
858.997	20826
859.13	20800
859.263	20777
859.396	20918
859.529	20739
859.662	20686
859.795	20716
859.928	20853
860.061	20788
860.194	20925
860.327	20861
860.46	20765
860.592	20998
860.725	21017
860.858	20952
860.99	20804
861.123	20674
861.256	20655
861.388	20785
861.521	21157
861.653	20579
861.786	20670
861.918	20663
862.05	20568
862.183	20807
862.315	20743
862.447	20826
862.58	20636
862.712	20450
862.844	20469
862.976	20522
863.108	20530
863.24	20952
863.372	20522
863.504	20503
863.636	20480
863.768	20575
863.9	20351
864.032	20427
864.164	20450
864.296	20530
864.428	20568
864.559	20545
864.691	20587
864.823	20514
864.954	20465
865.086	20469
865.217	20457
865.349	20393
865.48	20324
865.612	20396
865.743	20495
865.875	20564
866.006	20282
866.137	20370
866.269	20393
866.4	20431
866.531	20351
866.662	20294
866.793	20309
866.924	20438
867.055	20385
867.186	20412
867.317	20362
867.448	20229
867.579	20355
867.71	20271
867.841	20450
867.972	20313
868.103	20385
868.233	20324
868.364	20431
868.495	20393
868.625	20560
868.756	20625
868.886	20476
869.017	20518
869.147	20644
869.278	20773
869.408	20564
869.539	20629
869.669	20613
869.799	20590
869.929	20743
870.06	20716
870.19	20883
870.32	20929
870.45	20956
870.58	21055
870.71	21081
870.84	21055
870.97	20960
871.1	21108
871.23	21138
871.36	21222
871.489	21146
871.619	21199
871.749	21169
871.879	21192
872.008	21135
872.138	21249
872.267	21055
872.397	20979
872.526	20998
872.656	21028
872.785	21009
872.915	21100
873.044	21283
873.173	21218
873.303	21150
873.432	21329
873.561	21340
873.69	21252
873.819	21116
873.948	21329
874.077	21188
874.206	21173
874.335	21279
874.464	21367
874.593	21473
874.722	21469
874.851	21435
874.979	21462
875.108	21348
875.237	21443
875.365	21424
875.494	21382
875.623	21443
875.751	21473
875.88	21435
876.008	21542
876.136	21618
876.265	21922
876.393	21979
876.521	21915
876.65	22044
876.778	21975
876.906	21838
877.034	21755
877.162	21797
877.29	21694
877.418	21937
877.546	21884
877.674	21861
877.802	21785
877.93	21842
878.058	21622
878.185	21625
878.313	21774
878.441	21648
878.568	21652
878.696	21838
878.824	21873
878.951	22021
879.079	22002
879.206	22086
879.333	21934
879.461	21808
879.588	22002
879.715	22032
879.842	22010
879.97	21785
880.097	21557
880.224	21755
880.351	21641
880.478	21625
880.605	21591
880.732	21656
880.859	21865
880.986	21625
881.112	21637
881.239	21511
881.366	21401
881.493	21241
881.619	21344
881.746	21199
881.872	21169
881.999	21180
882.125	21173
882.252	21218
882.378	21249
882.505	21264
882.631	21089
882.757	21047
882.883	21013
883.01	20807
883.136	20876
883.262	20853
883.388	20701
883.514	20941
883.64	20975
883.766	20910
883.892	20632
884.018	20781
884.143	20826
884.269	21051
884.395	20621
884.52	20560
884.646	20606
884.772	20583
884.897	20377
885.023	20655
885.148	20743
885.274	20754
885.399	20629
885.524	20655
885.65	20648
885.775	20556
885.9	20499
886.025	20720
886.15	20514
886.275	20560
886.4	20465
886.525	20530
886.65	20480
886.775	20362
886.9	20678
887.025	20830
887.149	20533
887.274	20286
887.399	20225
887.523	20271
887.648	20454
887.773	20278
887.897	20317
888.021	20355
888.146	20187
888.27	20465
888.395	20480
888.519	20377
888.643	20339
888.767	20355
888.891	20210
889.015	20199
889.139	20172
889.263	20100
889.387	20328
889.511	20404
889.635	20298
889.759	20183
889.883	20069
890.006	20122
890.13	20278
890.254	20008
890.377	20046
890.501	19845
890.624	19826
890.748	19902
890.871	19845
890.995	19788
891.118	19647
891.241	19772
891.364	19807
891.488	19879
891.611	19700
891.734	19727
891.857	19811
891.98	19685
892.103	19753
892.226	19601
892.349	19677
892.471	19529
892.594	19552
892.717	19575
892.839	19559
892.962	19670
893.085	19727
893.207	19605
893.33	19499
893.452	19628
893.575	19761
893.697	19586
893.819	19761
893.941	19791
894.064	19753
894.186	19624
894.308	19487
894.43	19765
894.552	19822
894.674	19780
894.796	19586
894.918	19681
895.04	19575
895.161	19761
895.283	19616
895.405	19655
895.526	19594
895.648	19807
895.769	19723
895.891	19681
896.012	19708
896.134	19677
896.255	19643
896.376	19635
896.498	19620
896.619	19643
896.74	19681
896.861	19693
896.982	19940
897.103	20161
897.224	19925
897.345	19803
897.466	19860
897.587	19963
897.708	19913
897.828	20005
897.949	19909
898.07	19731
898.19	19708
898.311	20020
898.431	19761
898.552	19917
898.672	19940
898.792	19944
898.913	19833
899.033	19795
899.153	19681
899.273	19613
899.393	19666
899.513	19693
899.633	19635
899.753	19689
899.873	19624
899.993	19601
900.113	19476
900.232	19499
900.352	19540
900.472	19339
900.591	19415
900.711	19384
900.83	19449
900.95	19388
901.069	19438
901.189	19293
901.308	19213
901.427	18913
901.546	18954
901.665	19103
901.784	19069
901.904	18776
902.023	18703
902.141	18627
902.26	18422
902.379	18597
902.498	18441
902.617	18589
902.735	18452
902.854	18540
902.973	18528
903.091	18174
903.21	18258
903.328	18232
903.446	18034
903.565	18060
903.683	17988
903.801	17859
903.919	18011
904.038	17893
904.156	17748
904.274	17798
904.392	17756
904.51	17665
904.627	17676
904.745	17695
904.863	17840
904.981	17570
905.098	17505
905.216	17509
905.334	17455
905.451	17505
905.569	17398
905.686	17372
905.803	17471
905.921	17227
906.038	17364
906.155	17269
906.272	17006
906.389	17178
906.506	17113
906.623	16987
906.74	16869
906.857	16923
906.974	16896
907.091	17010
907.208	17041
907.324	16934
907.441	16850
907.557	16622
907.674	16809
907.79	16626
907.907	16729
908.023	16805
908.139	16489
908.256	16687
908.372	16603
908.488	16611
908.604	16417
908.72	16432
908.836	16451
908.952	16398
909.068	16402
909.184	16421
909.3	16478
909.415	16398
909.531	16417
909.647	16291
909.762	16147
909.878	16124
909.993	16192
910.108	16150
910.224	16051
910.339	16097
910.454	15968
910.57	16036
910.685	15812
910.8	16112
910.915	16131
911.03	15804
911.145	15846
911.259	15618
911.374	15808
911.489	15679
911.604	15614
911.718	15488
911.833	15496
911.947	15412
912.062	15488
912.176	15519
912.291	15523
912.405	15545
912.519	15690
912.633	15698
912.748	15564
912.862	15542
912.976	15348
913.09	15233
913.204	15180
913.318	15344
913.431	15378
913.545	15420
913.659	15378
913.772	15237
913.886	15089
914	15131
914.113	15180
914.226	15218
914.34	15218
914.453	15005
914.566	15047
914.68	15024
914.793	14963
914.906	14838
915.019	14724
915.132	14674
915.245	14632
915.358	14720
915.47	14781
915.583	14720
915.696	14769
915.809	14876
915.921	14857
916.034	14705
916.146	14670
916.259	14625
916.371	14743
916.483	14739
916.595	14499
916.708	14552
916.82	14640
916.932	14530
917.044	14492
917.156	14587
917.268	14465
917.38	14454
917.491	14366
917.603	14446
917.715	14434
917.826	14476
917.938	14324
918.049	14366
918.161	14320
918.272	14434
918.384	14549
918.495	14404
918.606	14187
918.717	14035
918.828	14248
918.939	14218
919.05	14103
919.161	14115
919.272	13997
919.383	14012
919.494	14252
919.604	14343
919.715	14123
919.826	14115
919.936	14024
920.047	14142
920.157	14100
920.267	14351
920.378	14142
920.488	14145
920.598	14248
920.708	14355
920.818	14240
920.928	14240
921.038	14377
921.148	14362
921.258	14050
921.368	13955
921.477	13917
921.587	13807
921.697	13769
921.806	13974
921.916	13704
922.025	13658
922.134	13521
922.244	13495
922.353	13620
922.462	13525
922.571	13411
922.68	13236
922.789	13240
922.898	13228
923.007	13145
923.116	13335
923.224	13213
923.333	13114
923.442	13107
923.55	13057
923.659	13126
923.767	13091
923.876	12913
923.984	12985
924.092	12901
924.201	12821
924.309	13053
924.417	12947
924.525	12844
924.633	12859
924.741	13753
924.849	12627
924.956	12681
925.064	12589
925.172	12494
925.279	12639
925.387	12593
925.494	12475
925.602	12719
925.709	12623
925.816	12388
925.924	12574
926.031	12627
926.138	12566
926.245	12631
926.352	12399
926.459	12642
926.566	12654
926.673	12513
926.779	12414
926.886	12342
926.993	12251
927.099	12178
927.206	12171
927.312	12129
927.419	12270
927.525	12148
927.631	12258
927.737	12057
927.843	12091
927.95	11984
928.056	12011
928.162	12049
928.267	12076
928.373	12639
928.479	12049
928.585	11863
928.69	11916
928.796	12045
928.901	11824
929.007	11767
929.112	11790
929.218	11813
929.323	11828
929.428	11707
929.533	11836
929.638	11646
929.743	11718
929.848	11691
929.953	11611
930.058	11623
930.163	11509
930.267	11421
930.372	11608
930.477	11341
930.581	11623
930.685	11547
930.79	11364
930.894	11303
930.998	11280
931.103	11452
931.207	11159
931.311	11029
931.415	10885
931.519	10714
931.623	10736
