Data from test_V78500241_119.txt Node
Date: Fri Mar 25 15:10:41 CST 2022
User: usil
Spectrometer: V785-0024
Trigger mode: 0
Integration Time (sec): 4.000000E-1
Scans to average: 1
Nonlinearity correction enabled: false
Boxcar width: 0
Storing dark spectrum: false
XAxis mode: Wavelengths
Number of Pixels in Spectrum: 1024
>>>>>Begin Spectral Data<<<<<
801.071	28082
801.214	27979
801.356	27762
801.499	27789
801.641	27629
801.783	27572
801.926	27576
802.068	27401
802.211	27447
802.353	27526
802.496	27226
802.638	27313
802.78	27256
802.923	27298
803.065	27138
803.208	27123
803.35	27233
803.492	27161
803.635	27351
803.777	27116
803.919	27321
804.061	27549
804.204	27264
804.346	27188
804.488	27154
804.63	27222
804.773	27138
804.915	27291
805.057	27233
805.199	27154
805.341	27294
805.483	27549
805.626	27302
805.768	27100
805.91	27260
806.052	27302
806.194	27310
806.336	27488
806.478	27275
806.62	27203
806.762	27416
806.904	27557
807.046	27785
807.188	27762
807.33	27717
807.472	27823
807.614	27614
807.756	27591
807.898	27587
808.04	27466
808.182	27553
808.324	27561
808.465	27515
808.607	27603
808.749	27751
808.891	27793
809.033	27987
809.174	27972
809.316	27732
809.458	27876
809.6	27751
809.741	27956
809.883	27880
810.025	28090
810.166	28093
810.308	28223
810.45	28067
810.591	27941
810.733	27793
810.875	27736
811.016	27766
811.158	27633
811.299	27876
811.441	27797
811.582	27865
811.724	27709
811.865	27789
812.007	27709
812.148	27755
812.29	27770
812.431	28040
812.573	27930
812.714	28147
812.855	28211
812.997	28322
813.138	28481
813.279	28394
813.421	28268
813.562	28150
813.703	28059
813.845	27854
813.986	27656
814.127	27511
814.268	27458
814.41	27329
814.551	27420
814.692	27424
814.833	27435
814.974	27359
815.115	27378
815.256	27169
815.397	27325
815.539	27188
815.68	26986
815.821	27085
815.962	27112
816.103	27085
816.244	27058
816.385	26914
816.526	26933
816.666	26712
816.807	26492
816.948	26560
817.089	26788
817.23	26476
817.371	26499
817.512	26579
817.653	26434
817.793	26473
817.934	26583
818.075	26473
818.216	26625
818.356	26495
818.497	26438
818.638	26320
818.778	26339
818.919	26187
819.06	26419
819.2	26415
819.341	26396
819.481	26476
819.622	26708
819.762	26674
819.903	26720
820.043	26720
820.184	26511
820.324	26522
820.465	26743
820.605	26362
820.746	26431
820.886	26457
821.026	26533
821.167	26400
821.307	26606
821.447	26453
821.588	26183
821.728	26278
821.868	25986
822.008	25898
822.149	25879
822.289	25830
822.429	25578
822.569	25559
822.709	25544
822.849	25377
822.99	25335
823.13	25358
823.27	25377
823.41	25129
823.55	25031
823.69	25266
823.83	25190
823.97	25179
824.11	24928
824.25	24951
824.389	24916
824.529	24989
824.669	24817
824.809	25072
824.949	25046
825.089	25019
825.228	25015
825.368	24673
825.508	24795
825.648	24749
825.787	24795
825.927	24760
826.067	24753
826.206	24692
826.346	24859
826.485	24726
826.625	24753
826.765	24844
826.904	24844
827.044	24388
827.183	24494
827.323	24319
827.462	24502
827.601	24426
827.741	24376
827.88	24467
828.02	24338
828.159	24300
828.298	24494
828.437	24498
828.577	24361
828.716	24467
828.855	24346
828.994	24251
829.134	24163
829.273	24243
829.412	24182
829.551	24102
829.69	24045
829.829	24087
829.968	24163
830.107	24140
830.246	24121
830.385	23973
830.524	24022
830.663	23897
830.802	23855
830.941	23642
831.08	23585
831.219	23847
831.357	23684
831.496	23977
831.635	23779
831.774	23627
831.913	23554
832.051	23497
832.19	23436
832.329	23440
832.467	23258
832.606	23318
832.744	23292
832.883	23379
833.022	23406
833.16	23311
833.299	23444
833.437	23341
833.576	23440
833.714	23322
833.852	23414
833.991	23376
834.129	23486
834.267	23326
834.406	23349
834.544	23299
834.682	23326
834.821	23261
834.959	23695
835.097	23254
835.235	23322
835.373	23341
835.511	23372
835.65	23090
835.788	23261
835.926	23025
836.064	22999
836.202	23143
836.34	23254
836.478	23277
836.615	23048
836.753	23250
836.891	23258
837.029	23064
837.167	23090
837.305	23128
837.443	23052
837.58	23075
837.718	23140
837.856	23128
837.993	22999
838.131	22999
838.269	22847
838.406	22946
838.544	22729
838.681	22786
838.819	22588
838.956	22516
839.094	22329
839.231	22489
839.369	22519
839.506	22862
839.643	22755
839.781	22394
839.918	22432
840.055	22405
840.193	22447
840.33	22451
840.467	22360
840.604	22398
840.742	22596
840.879	22268
841.016	22177
841.153	22143
841.29	22459
841.427	22402
841.564	22447
841.701	22409
841.838	22234
841.975	22238
842.112	22234
842.249	22105
842.385	22013
842.522	22299
842.659	22131
842.796	22002
842.933	22044
843.069	22010
843.206	21918
843.343	22048
843.479	22029
843.616	22112
843.752	21854
843.889	21869
844.025	21911
844.162	21804
844.298	21873
844.435	21793
844.571	21755
844.708	21789
844.844	22048
844.98	21934
845.117	21838
845.253	21656
845.389	21679
845.525	21713
845.661	21682
845.798	21583
845.934	21583
846.07	21462
846.206	21622
846.342	21671
846.478	21439
846.614	21466
846.75	21226
846.886	21279
847.022	21389
847.158	21199
847.294	21291
847.429	21279
847.565	21218
847.701	21428
847.837	21176
847.972	20857
848.108	21123
848.244	20937
848.379	20975
848.515	20861
848.65	20872
848.786	20899
848.921	20880
849.057	20933
849.192	20944
849.328	20777
849.463	20819
849.598	20678
849.734	20792
849.869	20674
850.004	20594
850.14	20530
850.275	20670
850.41	20549
850.545	20423
850.68	20564
850.815	20571
850.95	20579
851.085	20651
851.22	20617
851.355	20522
851.49	20492
851.625	20568
851.76	20530
851.895	20450
852.03	20434
852.165	20629
852.299	20682
852.434	20560
852.569	20594
852.703	20598
852.838	20682
852.973	20674
853.107	20735
853.242	20476
853.376	20438
853.511	20275
853.645	20355
853.78	20560
853.914	20427
854.048	20301
854.183	20298
854.317	20343
854.451	20419
854.585	20324
854.72	20317
854.854	20431
854.988	20366
855.122	20431
855.256	20180
855.39	20393
855.524	20393
855.658	20374
855.792	20381
855.926	20457
856.06	20396
856.194	20374
856.327	20427
856.461	20320
856.595	20400
856.729	20415
856.862	20450
856.996	20385
857.13	20473
857.263	20427
857.397	20366
857.53	20301
857.664	20408
857.797	20351
857.931	20465
858.064	20362
858.197	20575
858.331	20298
858.464	20248
858.597	20164
858.731	20347
858.864	20275
858.997	20343
859.13	20339
859.263	20404
859.396	20355
859.529	20317
859.662	20100
859.795	20263
859.928	20358
860.061	20438
860.194	20530
860.327	20305
860.46	20263
860.592	20351
860.725	20473
860.858	20347
860.99	20412
861.123	20233
861.256	20267
861.388	20332
861.521	21036
861.653	20122
861.786	20005
861.918	20058
862.05	20221
862.183	20324
862.315	20332
862.447	20381
862.58	20191
862.712	20161
862.844	19951
862.976	20054
863.108	20065
863.24	20465
863.372	19947
863.504	19906
863.636	20012
863.768	19974
863.9	20027
864.032	19978
864.164	19917
864.296	19955
864.428	20107
864.559	20115
864.691	20134
864.823	20054
864.954	20001
865.086	19818
865.217	19860
865.349	19738
865.48	20008
865.612	19913
865.743	20035
865.875	19967
866.006	19799
866.137	19894
866.269	19978
866.4	19947
866.531	19826
866.662	19864
866.793	19830
866.924	19894
867.055	19932
867.186	19822
867.317	19799
867.448	19677
867.579	19856
867.71	19826
867.841	19803
867.972	19814
868.103	19742
868.233	19925
868.364	19940
868.495	19852
868.625	19959
868.756	20134
868.886	19890
869.017	20077
869.147	20225
869.278	20111
869.408	20168
869.539	20008
869.669	20221
869.799	20199
869.929	20164
870.06	20161
870.19	20377
870.32	20404
870.45	20336
870.58	20412
870.71	20686
870.84	20594
870.97	20415
871.1	20446
871.23	20648
871.36	20682
871.489	20564
871.619	20606
871.749	20629
871.879	20678
872.008	20796
872.138	20686
872.267	20537
872.397	20579
872.526	20298
872.656	20446
872.785	20484
872.915	20602
873.044	20819
873.173	20632
873.303	20701
873.432	20880
873.561	20796
873.69	20712
873.819	20746
873.948	20834
874.077	20727
874.206	20682
874.335	20724
874.464	20826
874.593	20883
874.722	20868
874.851	21020
874.979	21032
875.108	21051
875.237	20994
875.365	20887
875.494	21009
875.623	20963
875.751	20899
875.88	20868
876.008	21104
876.136	21047
876.265	21466
876.393	21492
876.521	21363
876.65	21439
876.778	21386
876.906	21367
877.034	21184
877.162	21329
877.29	21310
877.418	21306
877.546	21302
877.674	21283
877.802	21252
877.93	21211
878.058	21306
878.185	21298
878.313	21329
878.441	21325
878.568	21218
878.696	21203
878.824	21298
878.951	21469
879.079	21386
879.206	21549
879.333	21496
879.461	21214
879.588	21519
879.715	21530
879.842	21568
879.97	21275
880.097	21123
880.224	21043
880.351	21123
880.478	21237
880.605	21096
880.732	20887
880.859	21211
880.986	21100
881.112	21131
881.239	21051
881.366	20887
881.493	20731
881.619	20705
881.746	20811
881.872	20758
881.999	20739
882.125	20659
882.252	20701
882.378	20739
882.505	20724
882.631	20625
882.757	20522
882.883	20598
883.01	20552
883.136	20370
883.262	20313
883.388	20343
883.514	20442
883.64	20431
883.766	20377
883.892	20252
884.018	20248
884.143	20419
884.269	20598
884.395	20351
884.52	20035
884.646	20073
884.772	19978
884.897	19986
885.023	20065
885.148	20275
885.274	20240
885.399	20244
885.524	20107
885.65	20069
885.775	20081
885.9	20058
886.025	20134
886.15	20199
886.275	20081
886.4	20005
886.525	19967
886.65	19989
886.775	19928
886.9	20195
887.025	20343
887.149	20096
887.274	19928
887.399	19845
887.523	19887
887.648	19791
887.773	19651
887.897	19913
888.021	19837
888.146	19898
888.27	19887
888.395	20008
888.519	19852
888.643	19788
888.767	19909
888.891	19715
889.015	19685
889.139	19712
889.263	19567
889.387	19685
889.511	19875
889.635	19666
889.759	19662
889.883	19616
890.006	19753
890.13	19727
890.254	19533
890.377	19537
890.501	19415
890.624	19259
890.748	19480
890.871	19266
890.995	19278
891.118	19129
891.241	19221
891.364	19187
891.488	19320
891.611	19213
891.734	19339
891.857	19206
891.98	19202
892.103	19240
892.226	19282
892.349	19114
892.471	19042
892.594	19202
892.717	19236
892.839	19114
892.962	19114
893.085	19206
893.207	19190
893.33	19027
893.452	18939
893.575	19209
893.697	19072
893.819	19236
893.941	19400
894.064	19221
894.186	19137
894.308	19088
894.43	19251
894.552	19221
894.674	19266
894.796	19091
894.918	19148
895.04	19202
895.161	19324
895.283	19171
895.405	19164
895.526	19187
895.648	19114
895.769	19133
895.891	19198
896.012	19247
896.134	19221
896.255	19293
896.376	19198
896.498	19202
896.619	19103
896.74	19190
896.861	19259
896.982	19643
897.103	19613
897.224	19438
897.345	19457
897.466	19411
897.587	19354
897.708	19537
897.828	19521
897.949	19320
898.07	19190
898.19	19312
898.311	19445
898.431	19316
898.552	19335
898.672	19472
898.792	19495
898.913	19407
899.033	19285
899.153	19228
899.273	19171
899.393	19103
899.513	19179
899.633	19069
899.753	19164
899.873	19057
899.993	19168
900.113	19050
900.232	19133
900.352	19046
900.472	18985
900.591	18882
900.711	18943
900.83	18943
900.95	19072
901.069	19019
901.189	18829
901.308	18650
901.427	18582
901.546	18429
901.665	18608
901.784	18582
901.904	18365
902.023	18353
902.141	18076
902.26	18102
902.379	18087
902.498	18087
902.617	18049
902.735	18034
902.854	18049
902.973	18007
903.091	17710
903.21	17672
903.328	17760
903.446	17623
903.565	17528
903.683	17528
903.801	17391
903.919	17547
904.038	17444
904.156	17288
904.274	17303
904.392	17254
904.51	17284
904.627	17318
904.745	17227
904.863	17315
904.981	17037
905.098	17003
905.216	17014
905.334	17060
905.451	16965
905.569	16862
905.686	17067
905.803	16927
905.921	16869
906.038	16843
906.155	16729
906.272	16596
906.389	16660
906.506	16485
906.623	16440
906.74	16489
906.857	16428
906.974	16417
907.091	16546
907.208	16630
907.324	16500
907.441	16341
907.557	16215
907.674	16238
907.79	16169
907.907	16211
908.023	16310
908.139	16166
908.256	16059
908.372	16067
908.488	15979
908.604	16048
908.72	15789
908.836	15838
908.952	15804
909.068	15960
909.184	15922
909.3	15846
909.415	15975
909.531	15884
909.647	15610
909.762	15637
909.878	15618
909.993	15637
910.108	15599
910.224	15568
910.339	15599
910.454	15511
910.57	15416
910.685	15431
910.8	15606
910.915	15603
911.03	15466
911.145	15294
911.259	15256
911.374	15184
911.489	15142
911.604	15138
911.718	14929
911.833	14902
911.947	14819
912.062	14769
912.176	14872
912.291	14963
912.405	14899
912.519	15138
912.633	15077
912.748	14872
912.862	14838
912.976	14727
913.09	14644
913.204	14693
913.318	14815
913.431	14906
913.545	14891
913.659	14956
913.772	14716
913.886	14648
914	14541
914.113	14678
914.226	14667
914.34	14667
914.453	14469
914.566	14598
914.68	14492
914.793	14427
914.906	14286
915.019	14267
915.132	14138
915.245	14180
915.358	14244
915.47	14214
915.583	14153
915.696	14225
915.809	14351
915.921	14366
916.034	14153
916.146	14130
916.259	14092
916.371	14282
916.483	14145
916.595	14096
916.708	14069
916.82	14039
916.932	14123
917.044	14092
917.156	14043
917.268	13921
917.38	13898
917.491	13909
917.603	13849
917.715	13932
917.826	13936
917.938	13746
918.049	13655
918.161	13860
918.272	14035
918.384	13974
918.495	13879
918.606	13750
918.717	13674
918.828	13639
918.939	13655
919.05	13559
919.161	13632
919.272	13430
919.383	13468
919.494	13674
919.604	13845
919.715	13696
919.826	13502
919.936	13647
920.047	13658
920.157	13620
920.267	13803
920.378	13662
920.488	13525
920.598	13757
920.708	13932
920.818	13772
920.928	13715
921.038	13963
921.148	13860
921.258	13624
921.368	13540
921.477	13411
921.587	13392
921.697	13266
921.806	13293
921.916	13266
922.025	13061
922.134	12996
922.244	12973
922.353	13110
922.462	12947
922.571	12871
922.68	12673
922.789	12654
922.898	12597
923.007	12578
923.116	12764
923.224	12692
923.333	12559
923.442	12494
923.55	12521
923.659	12555
923.767	12589
923.876	12452
923.984	12517
924.092	12426
924.201	12437
924.309	12323
924.417	12445
924.525	12391
924.633	12338
924.741	13110
924.849	12163
924.956	12296
925.064	12155
925.172	12091
925.279	12136
925.387	12171
925.494	12186
925.602	12270
925.709	12159
925.816	11999
925.924	12087
926.031	12152
926.138	12114
926.245	12178
926.352	11988
926.459	12114
926.566	12083
926.673	12041
926.779	11980
926.886	11897
926.993	11748
927.099	11707
927.206	11688
927.312	11623
927.419	11840
927.525	11668
927.631	11718
927.737	11551
927.843	11543
927.95	11532
928.056	11619
928.162	11585
928.267	11661
928.373	12083
928.479	11638
928.585	11436
928.69	11608
928.796	11524
928.901	11455
929.007	11250
929.112	11467
929.218	11391
929.323	11280
929.428	11269
929.533	11467
929.638	11269
929.743	11280
929.848	11303
929.953	11162
930.058	11170
930.163	10946
930.267	11010
930.372	11109
930.477	10976
930.581	11208
930.685	11029
930.79	10866
930.894	10877
930.998	10850
931.103	11022
931.207	10675
931.311	10535
931.415	10622
931.519	10249
931.623	10230
