Data from test_V78500241_3083.txt Node
Date: Fri Mar 25 15:31:19 CST 2022
User: usil
Spectrometer: V785-0024
Trigger mode: 0
Integration Time (sec): 4.000000E-1
Scans to average: 1
Nonlinearity correction enabled: false
Boxcar width: 0
Storing dark spectrum: false
XAxis mode: Wavelengths
Number of Pixels in Spectrum: 1024
>>>>>Begin Spectral Data<<<<<
801.071	27477
801.214	27351
801.356	26899
801.499	26967
801.641	26826
801.783	26819
801.926	26971
802.068	26895
802.211	26648
802.353	26670
802.496	26514
802.638	26431
802.78	26244
802.923	26552
803.065	26237
803.208	26355
803.35	26514
803.492	26545
803.635	26651
803.777	26545
803.919	26492
804.061	26929
804.204	26743
804.346	26625
804.488	26476
804.63	26537
804.773	26450
804.915	26613
805.057	26819
805.199	26556
805.341	26674
805.483	26655
805.626	26609
805.768	26758
805.91	26651
806.052	26659
806.194	26712
806.336	26956
806.478	26678
806.62	26651
806.762	26724
806.904	26952
807.046	27154
807.188	27108
807.33	27104
807.472	27252
807.614	27020
807.756	27119
807.898	27043
808.04	26857
808.182	26830
808.324	27020
808.465	26979
808.607	27218
808.749	27348
808.891	27511
809.033	27431
809.174	27431
809.316	27336
809.458	27241
809.6	27176
809.741	27511
809.883	27481
810.025	27561
810.166	27618
810.308	27561
810.45	27515
810.591	27515
810.733	27348
810.875	27279
811.016	27264
811.158	27325
811.299	27473
811.441	27466
811.582	27443
811.724	27279
811.865	27302
812.007	27321
812.148	27431
812.29	27317
812.431	27473
812.573	27564
812.714	27599
812.855	27808
812.997	27816
813.138	27979
813.279	27987
813.421	27793
813.562	27743
813.703	27485
813.845	27523
813.986	27237
814.127	27188
814.268	26914
814.41	26967
814.551	26914
814.692	27256
814.833	26910
814.974	26826
815.115	27024
815.256	26864
815.397	26834
815.539	26994
815.68	26819
815.821	26720
815.962	26777
816.103	26758
816.244	26617
816.385	26476
816.526	26518
816.666	26374
816.807	26168
816.948	26541
817.089	26381
817.23	26370
817.371	26161
817.512	26149
817.653	26187
817.793	26233
817.934	26358
818.075	26286
818.216	26142
818.356	26164
818.497	26134
818.638	26008
818.778	26039
818.919	25898
819.06	26107
819.2	26172
819.341	26290
819.481	26271
819.622	26324
819.762	26571
819.903	26492
820.043	26377
820.184	26320
820.324	26438
820.465	26339
820.605	26332
820.746	26267
820.886	26142
821.026	26324
821.167	26244
821.307	26336
821.447	26320
821.588	26267
821.728	25947
821.868	25951
822.008	25670
822.149	25635
822.289	25639
822.429	25400
822.569	25392
822.709	25373
822.849	25202
822.99	25137
823.13	25183
823.27	25065
823.41	25110
823.55	24939
823.69	24932
823.83	24935
823.97	25031
824.11	24871
824.25	24760
824.389	24802
824.529	24901
824.669	24916
824.809	25015
824.949	24947
825.089	24951
825.228	25023
825.368	24669
825.508	24608
825.648	24715
825.787	24837
825.927	24772
826.067	24608
826.206	24574
826.346	24726
826.485	24703
826.625	24734
826.765	24814
826.904	24795
827.044	24490
827.183	24509
827.323	24460
827.462	24467
827.601	24418
827.741	24323
827.88	24445
828.02	24292
828.159	24334
828.298	24376
828.437	24334
828.577	24422
828.716	24528
828.855	24270
828.994	24117
829.134	24136
829.273	24136
829.412	24060
829.551	24171
829.69	24140
829.829	24186
829.968	24209
830.107	24197
830.246	24114
830.385	24079
830.524	24041
830.663	24049
830.802	23908
830.941	23691
831.08	23783
831.219	23851
831.357	23817
831.496	23931
831.635	23764
831.774	23531
831.913	23676
832.051	23535
832.19	23558
832.329	23570
832.467	23486
832.606	23410
832.744	23334
832.883	23353
833.022	23376
833.16	23497
833.299	23524
833.437	23528
833.576	23345
833.714	23604
833.852	23512
833.991	23471
834.129	23585
834.267	23497
834.406	23592
834.544	23528
834.682	23478
834.821	23505
834.959	23634
835.097	23414
835.235	23505
835.373	23429
835.511	23455
835.65	23296
835.788	23280
835.926	23288
836.064	23151
836.202	23181
836.34	23231
836.478	23334
836.615	23239
836.753	23254
836.891	23360
837.029	23349
837.167	23341
837.305	23280
837.443	23303
837.58	23200
837.718	23185
837.856	23227
837.993	23102
838.131	23086
838.269	22911
838.406	22961
838.544	23006
838.681	22866
838.819	22812
838.956	22706
839.094	22656
839.231	22634
839.369	22869
839.506	22968
839.643	23033
839.781	22694
839.918	22577
840.055	22645
840.193	22615
840.33	22577
840.467	22641
840.604	22584
840.742	22755
840.879	22379
841.016	22504
841.153	22413
841.29	22683
841.427	22637
841.564	22596
841.701	22569
841.838	22649
841.975	22489
842.112	22599
842.249	22557
842.385	22314
842.522	22622
842.659	22508
842.796	22386
842.933	22333
843.069	22329
843.206	22398
843.343	22348
843.479	22329
843.616	22280
843.752	22158
843.889	22097
844.025	22204
844.162	22097
844.298	22147
844.435	22048
844.571	22124
844.708	22143
844.844	22147
844.98	22181
845.117	22268
845.253	21975
845.389	21934
845.525	21979
845.661	21953
845.798	21911
845.934	21892
846.07	21793
846.206	21892
846.342	21991
846.478	21941
846.614	21663
846.75	21580
846.886	21698
847.022	21686
847.158	21561
847.294	21629
847.429	21660
847.565	21637
847.701	21915
847.837	21279
847.972	21294
848.108	21363
848.244	21401
848.379	21222
848.515	21138
848.65	21138
848.786	21192
848.921	21123
849.057	21169
849.192	21222
849.328	21264
849.463	21192
849.598	21161
849.734	21081
849.869	20929
850.004	20800
850.14	20975
850.275	20979
850.41	20929
850.545	20982
850.68	20853
850.815	20929
850.95	20834
851.085	21024
851.22	21013
851.355	20998
851.49	20925
851.625	20960
851.76	20857
851.895	20853
852.03	20925
852.165	20937
852.299	20876
852.434	20880
852.569	21024
852.703	20963
852.838	20861
852.973	21032
853.107	20914
853.242	20918
853.376	20804
853.511	20689
853.645	20663
853.78	20826
853.914	20815
854.048	20701
854.183	20640
854.317	20906
854.451	20933
854.585	20674
854.72	20762
854.854	20876
854.988	20754
855.122	20796
855.256	20712
855.39	20746
855.524	20952
855.658	20819
855.792	20735
855.926	20716
856.06	20876
856.194	20925
856.327	20705
856.461	20670
856.595	20602
856.729	20746
856.862	20952
856.996	20777
857.13	20731
857.263	20796
857.397	20887
857.53	20735
857.664	20929
857.797	20651
857.931	20785
858.064	20727
858.197	20796
858.331	20796
858.464	20632
858.597	20678
858.731	20781
858.864	20811
858.997	20727
859.13	20769
859.263	20693
859.396	20948
859.529	20594
859.662	20613
859.795	20727
859.928	20792
860.061	20857
860.194	20971
860.327	20944
860.46	20796
860.592	20921
860.725	20933
860.858	20921
860.99	20807
861.123	20693
861.256	20617
861.388	20686
861.521	21188
861.653	20587
861.786	20568
861.918	20575
862.05	20609
862.183	20682
862.315	20727
862.447	20838
862.58	20594
862.712	20503
862.844	20488
862.976	20625
863.108	20492
863.24	20765
863.372	20465
863.504	20560
863.636	20511
863.768	20526
863.9	20530
864.032	20484
864.164	20431
864.296	20568
864.428	20594
864.559	20533
864.691	20552
864.823	20549
864.954	20492
865.086	20396
865.217	20412
865.349	20313
865.48	20336
865.612	20275
865.743	20492
865.875	20381
866.006	20275
866.137	20431
866.269	20332
866.4	20256
866.531	20358
866.662	20328
866.793	20294
866.924	20412
867.055	20427
867.186	20389
867.317	20343
867.448	20221
867.579	20259
867.71	20256
867.841	20294
867.972	20317
868.103	20320
868.233	20290
868.364	20381
868.495	20423
868.625	20552
868.756	20689
868.886	20492
869.017	20537
869.147	20705
869.278	20712
869.408	20552
869.539	20533
869.669	20613
869.799	20689
869.929	20807
870.06	20735
870.19	20861
870.32	20853
870.45	20948
870.58	21093
870.71	21062
870.84	21047
870.97	20986
871.1	21024
871.23	21096
871.36	21165
871.489	21089
871.619	21085
871.749	21222
871.879	21123
872.008	21199
872.138	21211
872.267	21256
872.397	21009
872.526	21131
872.656	21001
872.785	20944
872.915	21165
873.044	21302
873.173	21150
873.303	21203
873.432	21138
873.561	21252
873.69	21241
873.819	21192
873.948	21294
874.077	21256
874.206	21119
874.335	21184
874.464	21306
874.593	21443
874.722	21325
874.851	21511
874.979	21405
875.108	21401
875.237	21485
875.365	21378
875.494	21469
875.623	21447
875.751	21443
875.88	21450
876.008	21542
876.136	21595
876.265	21751
876.393	22086
876.521	21808
876.65	21998
876.778	21766
876.906	21808
877.034	21793
877.162	21751
877.29	21747
877.418	21918
877.546	21823
877.674	21747
877.802	21736
877.93	21717
878.058	21785
878.185	21603
878.313	21831
878.441	21819
878.568	21720
878.696	21667
878.824	21686
878.951	21842
879.079	21941
879.206	22078
879.333	21922
879.461	21812
879.588	21842
879.715	22029
879.842	22074
879.97	21827
880.097	21587
880.224	21641
880.351	21774
880.478	21679
880.605	21561
880.732	21622
880.859	21804
880.986	21511
881.112	21595
881.239	21298
881.366	21443
881.493	21241
881.619	21207
881.746	21100
881.872	21188
881.999	21173
882.125	21055
882.252	21207
882.378	21131
882.505	21363
882.631	21013
882.757	20811
882.883	21085
883.01	20887
883.136	20838
883.262	20735
883.388	20609
883.514	20998
883.64	21001
883.766	20720
883.892	20644
884.018	20773
884.143	20705
884.269	20880
884.395	20545
884.52	20537
884.646	20522
884.772	20545
884.897	20469
885.023	20499
885.148	20579
885.274	20648
885.399	20636
885.524	20583
885.65	20560
885.775	20594
885.9	20495
886.025	20552
886.15	20609
886.275	20457
886.4	20541
886.525	20564
886.65	20370
886.775	20503
886.9	20575
887.025	20705
887.149	20389
887.274	20396
887.399	20278
887.523	20328
887.648	20180
887.773	20214
887.897	20389
888.021	20332
888.146	20221
888.27	20370
888.395	20415
888.519	20393
888.643	20434
888.767	20339
888.891	20259
889.015	20191
889.139	20225
889.263	20153
889.387	20263
889.511	20366
889.635	20214
889.759	20077
889.883	20142
890.006	20218
890.13	20271
890.254	19963
890.377	19967
890.501	19814
890.624	19712
890.748	19894
890.871	19746
890.995	19586
891.118	19734
891.241	19753
891.364	19700
891.488	19887
891.611	19731
891.734	19761
891.857	19761
891.98	19799
892.103	19757
892.226	19639
892.349	19601
892.471	19445
892.594	19571
892.717	19723
892.839	19639
892.962	19628
893.085	19742
893.207	19514
893.33	19487
893.452	19483
893.575	19658
893.697	19521
893.819	19830
893.941	19818
894.064	19841
894.186	19502
894.308	19480
894.43	19807
894.552	19685
894.674	19643
894.796	19533
894.918	19575
895.04	19571
895.161	19677
895.283	19616
895.405	19590
895.526	19495
895.648	19521
895.769	19613
895.891	19559
896.012	19693
896.134	19647
896.255	19506
896.376	19559
896.498	19506
896.619	19681
896.74	19731
896.861	19708
896.982	19967
897.103	20031
897.224	19898
897.345	19818
897.466	19723
897.587	19776
897.708	19963
897.828	19875
897.949	19704
898.07	19689
898.19	19746
898.311	19856
898.431	19772
898.552	19887
898.672	19986
898.792	19978
898.913	19871
899.033	19700
899.153	19616
899.273	19495
899.393	19662
899.513	19795
899.633	19594
899.753	19552
899.873	19487
899.993	19715
900.113	19472
900.232	19556
900.352	19548
900.472	19331
900.591	19377
900.711	19400
900.83	19266
900.95	19487
901.069	19632
901.189	19266
901.308	19061
901.427	18947
901.546	19046
901.665	19000
901.784	19012
901.904	18829
902.023	18730
902.141	18639
902.26	18395
902.379	18525
902.498	18593
902.617	18498
902.735	18509
902.854	18570
902.973	18422
903.091	18182
903.21	18277
903.328	18213
903.446	18140
903.565	18015
903.683	18076
903.801	17771
903.919	17988
904.038	17996
904.156	17764
904.274	17859
904.392	17783
904.51	17676
904.627	17680
904.745	17798
904.863	17851
904.981	17592
905.098	17414
905.216	17402
905.334	17497
905.451	17474
905.569	17448
905.686	17474
905.803	17421
905.921	17185
906.038	17345
906.155	17227
906.272	17121
906.389	17170
906.506	17018
906.623	17079
906.74	16968
906.857	16908
906.974	16729
907.091	17029
907.208	17041
907.324	16896
907.441	16850
907.557	16672
907.674	16725
907.79	16584
907.907	16634
908.023	16782
908.139	16706
908.256	16592
908.372	16554
908.488	16592
908.604	16462
908.72	16447
908.836	16519
908.952	16303
909.068	16405
909.184	16474
909.3	16375
909.415	16462
909.531	16360
909.647	16124
909.762	16166
909.878	15949
909.993	16131
910.108	16006
910.224	16048
910.339	16021
910.454	15998
910.57	15873
910.685	15850
910.8	16120
910.915	16086
911.03	15857
911.145	15743
911.259	15694
911.374	15698
911.489	15595
911.604	15599
911.718	15488
911.833	15545
911.947	15511
912.062	15321
912.176	15443
912.291	15515
912.405	15477
912.519	15606
912.633	15610
912.748	15572
912.862	15420
912.976	15249
913.09	15211
913.204	15294
913.318	15325
913.431	15370
913.545	15382
913.659	15447
913.772	15260
913.886	15131
914	15108
914.113	15119
914.226	15157
914.34	15074
914.453	15043
914.566	15104
914.68	15009
914.793	14937
914.906	14663
915.019	14712
915.132	14610
915.245	14724
915.358	14629
915.47	14731
915.583	14758
915.696	14716
915.809	14815
915.921	14857
916.034	14587
916.146	14560
916.259	14640
916.371	14750
916.483	14571
916.595	14545
916.708	14579
916.82	14545
916.932	14552
917.044	14495
917.156	14499
917.268	14434
917.38	14423
917.491	14423
917.603	14320
917.715	14423
917.826	14415
917.938	14240
918.049	14176
918.161	14313
918.272	14492
918.384	14408
918.495	14366
918.606	14259
918.717	14069
918.828	14024
918.939	14172
919.05	13993
919.161	14172
919.272	13902
919.383	14005
919.494	14092
919.604	14339
919.715	14168
919.826	14035
919.936	14020
920.047	14221
920.157	14103
920.267	14309
920.378	14069
920.488	14100
920.598	14309
920.708	14503
920.818	14370
920.928	14248
921.038	14427
921.148	14320
921.258	14039
921.368	14096
921.477	13833
921.587	13830
921.697	13689
921.806	13868
921.916	13719
922.025	13525
922.134	13491
922.244	13487
922.353	13586
922.462	13453
922.571	13274
922.68	13129
922.789	13129
922.898	13301
923.007	13145
923.116	13228
923.224	13145
923.333	13137
923.442	13027
923.55	12989
923.659	13019
923.767	13072
923.876	12859
923.984	13095
924.092	12886
924.201	12939
924.309	12989
924.417	12954
924.525	12901
924.633	12856
924.741	13818
924.849	12593
924.956	12791
925.064	12707
925.172	12540
925.279	12555
925.387	12604
925.494	12669
925.602	12776
925.709	12578
925.816	12536
925.924	12559
926.031	12635
926.138	12437
926.245	12578
926.352	12467
926.459	12662
926.566	12585
926.673	12414
926.779	12414
926.886	12353
926.993	12190
927.099	12095
927.206	12049
927.312	12083
927.419	12213
927.525	12205
927.631	12235
927.737	12106
927.843	11988
927.95	11889
928.056	12110
928.162	12034
928.267	12034
928.373	12650
928.479	12129
928.585	11870
928.69	11897
928.796	11958
928.901	11980
929.007	11695
929.112	11836
929.218	11775
929.323	11748
929.428	11813
929.533	11802
929.638	11634
929.743	11745
929.848	11737
929.953	11684
930.058	11665
930.163	11467
930.267	11440
930.372	11570
930.477	11417
930.581	11573
930.685	11490
930.79	11368
930.894	11326
930.998	11322
931.103	11372
931.207	11052
931.311	11052
931.415	10904
931.519	10752
931.623	10744
