Data from test_V78500241_2161.txt Node
Date: Fri Mar 25 15:24:54 CST 2022
User: usil
Spectrometer: V785-0024
Trigger mode: 0
Integration Time (sec): 4.000000E-1
Scans to average: 1
Nonlinearity correction enabled: false
Boxcar width: 0
Storing dark spectrum: false
XAxis mode: Wavelengths
Number of Pixels in Spectrum: 1024
>>>>>Begin Spectral Data<<<<<
801.071	27766
801.214	27652
801.356	27542
801.499	27405
801.641	27146
801.783	27165
801.926	27291
802.068	27226
802.211	27119
802.353	27138
802.496	26899
802.638	26918
802.78	26960
802.923	26906
803.065	26902
803.208	26762
803.35	26990
803.492	27055
803.635	27081
803.777	27013
803.919	27093
804.061	27424
804.204	27237
804.346	27013
804.488	26990
804.63	27116
804.773	27169
804.915	27180
805.057	27279
805.199	27138
805.341	27226
805.483	27249
805.626	27241
805.768	27085
805.91	27367
806.052	27283
806.194	27195
806.336	27389
806.478	27283
806.62	27317
806.762	27431
806.904	27603
807.046	27827
807.188	27614
807.33	27800
807.472	27709
807.614	27595
807.756	27717
807.898	27545
808.04	27515
808.182	27519
808.324	27561
808.465	27629
808.607	27720
808.749	27884
808.891	27854
809.033	28173
809.174	28032
809.316	27785
809.458	27816
809.6	27816
809.741	27907
809.883	28032
810.025	28116
810.166	28143
810.308	28139
810.45	28169
810.591	28078
810.733	27922
810.875	27880
811.016	27785
811.158	27732
811.299	27934
811.441	27926
811.582	28082
811.724	27854
811.865	27941
812.007	27895
812.148	27827
812.29	27888
812.431	28040
812.573	28249
812.714	28341
812.855	28360
812.997	28462
813.138	28531
813.279	28500
813.421	28516
813.562	28375
813.703	28181
813.845	28040
813.986	27835
814.127	27564
814.268	27481
814.41	27682
814.551	27481
814.692	27644
814.833	27599
814.974	27504
815.115	27538
815.256	27454
815.397	27393
815.539	27496
815.68	27473
815.821	27264
815.962	27214
816.103	27374
816.244	27188
816.385	27127
816.526	27188
816.666	27055
816.807	26701
816.948	26849
817.089	26815
817.23	26750
817.371	26773
817.512	26693
817.653	26804
817.793	26727
817.934	26777
818.075	26849
818.216	26826
818.356	26982
818.497	26712
818.638	26689
818.778	26598
818.919	26617
819.06	26720
819.2	26758
819.341	26804
819.481	26800
819.622	27013
819.762	27211
819.903	27055
820.043	26921
820.184	26948
820.324	26940
820.465	26979
820.605	26971
820.746	27017
820.886	26743
821.026	26937
821.167	26830
821.307	26967
821.447	26807
821.588	26777
821.728	26545
821.868	26385
822.008	26438
822.149	26202
822.289	26240
822.429	26035
822.569	25955
822.709	25913
822.849	25826
822.99	25982
823.13	25685
823.27	25666
823.41	25590
823.55	25533
823.69	25624
823.83	25696
823.97	25674
824.11	25487
824.25	25278
824.389	25384
824.529	25510
824.669	25369
824.809	25647
824.949	25582
825.089	25586
825.228	25537
825.368	25141
825.508	25266
825.648	25263
825.787	25369
825.927	25487
826.067	25270
826.206	25358
826.346	25381
826.485	25415
826.625	25312
826.765	25434
826.904	25244
827.044	25183
827.183	25004
827.323	24958
827.462	25031
827.601	25008
827.741	25148
827.88	25114
828.02	24882
828.159	24996
828.298	25034
828.437	25012
828.577	24970
828.716	25023
828.855	24928
828.994	24776
829.134	24700
829.273	24745
829.412	24623
829.551	24635
829.69	24563
829.829	24692
829.968	24753
830.107	24848
830.246	24627
830.385	24745
830.524	24585
830.663	24528
830.802	24308
830.941	24270
831.08	24330
831.219	24384
831.357	24437
831.496	24452
831.635	24292
831.774	24292
831.913	24091
832.051	24121
832.19	24174
832.329	24030
832.467	24068
832.606	23973
832.744	23828
832.883	23954
833.022	23950
833.16	23954
833.299	24022
833.437	24057
833.576	24095
833.714	24034
833.852	24072
833.991	24102
834.129	24072
834.267	24095
834.406	24007
834.544	23999
834.682	23927
834.821	23988
834.959	24197
835.097	23889
835.235	24106
835.373	23984
835.511	24060
835.65	23794
835.788	23901
835.926	23821
836.064	23767
836.202	23748
836.34	23874
836.478	23885
836.615	23882
836.753	23821
836.891	23916
837.029	23813
837.167	23805
837.305	23783
837.443	23775
837.58	23695
837.718	23794
837.856	23661
837.993	23608
838.131	23684
838.269	23589
838.406	23501
838.544	23520
838.681	23474
838.819	23318
838.956	23147
839.094	23216
839.231	23269
839.369	23322
839.506	23566
839.643	23493
839.781	23102
839.918	23151
840.055	23079
840.193	23193
840.33	23083
840.467	23094
840.604	23079
840.742	23334
840.879	22866
841.016	22980
841.153	22995
841.29	23250
841.427	23136
841.564	23067
841.701	23079
841.838	22976
841.975	22987
842.112	23067
842.249	22927
842.385	22824
842.522	22991
842.659	22949
842.796	22850
842.933	22835
843.069	22748
843.206	22786
843.343	22843
843.479	22915
843.616	22911
843.752	22542
843.889	22645
844.025	22831
844.162	22557
844.298	22713
844.435	22694
844.571	22580
844.708	22706
844.844	22713
844.98	22740
845.117	22767
845.253	22618
845.389	22390
845.525	22542
845.661	22634
845.798	22291
845.934	22390
846.07	22295
846.206	22287
846.342	22493
846.478	22379
846.614	22185
846.75	22063
846.886	22090
847.022	22078
847.158	22063
847.294	22230
847.429	22017
847.565	22204
847.701	22375
847.837	21831
847.972	21800
848.108	21873
848.244	21972
848.379	21644
848.515	21686
848.65	21629
848.786	21614
848.921	21633
849.057	21831
849.192	21739
849.328	21622
849.463	21561
849.598	21629
849.734	21538
849.869	21622
850.004	21549
850.14	21454
850.275	21492
850.41	21298
850.545	21325
850.68	21530
850.815	21469
850.95	21283
851.085	21656
851.22	21389
851.355	21405
851.49	21443
851.625	21435
851.76	21374
851.895	21336
852.03	21321
852.165	21416
852.299	21412
852.434	21564
852.569	21488
852.703	21481
852.838	21389
852.973	21450
853.107	21496
853.242	21302
853.376	21302
853.511	21279
853.645	21199
853.78	21477
853.914	21165
854.048	21176
854.183	21287
854.317	21249
854.451	21378
854.585	21268
854.72	21214
854.854	21321
854.988	21165
855.122	21294
855.256	21184
855.39	21237
855.524	21382
855.658	21237
855.792	21249
855.926	21249
856.06	21264
856.194	21260
856.327	21222
856.461	21192
856.595	21230
856.729	21344
856.862	21329
856.996	21401
857.13	21237
857.263	21439
857.397	21294
857.53	21272
857.664	21302
857.797	21298
857.931	21325
858.064	21241
858.197	21302
858.331	21294
858.464	21199
858.597	21150
858.731	21389
858.864	21199
858.997	21062
859.13	21275
859.263	21317
859.396	21389
859.529	21154
859.662	21260
859.795	21157
859.928	21218
860.061	21363
860.194	21313
860.327	21329
860.46	21275
860.592	21275
860.725	21462
860.858	21279
860.99	21283
861.123	21256
861.256	21070
861.388	21146
861.521	21892
861.653	21230
861.786	21005
861.918	21032
862.05	21131
862.183	21100
862.315	21279
862.447	21241
862.58	21138
862.712	21074
862.844	20956
862.976	21017
863.108	20925
863.24	21435
863.372	20941
863.504	20902
863.636	20963
863.768	20994
863.9	21051
864.032	20792
864.164	21017
864.296	20963
864.428	21074
864.559	21066
864.691	21036
864.823	20963
864.954	20887
865.086	20921
865.217	20975
865.349	20686
865.48	20895
865.612	20792
865.743	20975
865.875	20941
866.006	20963
866.137	20876
866.269	20785
866.4	20876
866.531	20754
866.662	20796
866.793	20781
866.924	20899
867.055	20823
867.186	20823
867.317	20796
867.448	20746
867.579	20758
867.71	20769
867.841	20575
867.972	20697
868.103	20796
868.233	20819
868.364	20781
868.495	20933
868.625	21032
868.756	21116
868.886	20929
869.017	20876
869.147	21142
869.278	21180
869.408	21116
869.539	20986
869.669	21104
869.799	21043
869.929	21032
870.06	21184
870.19	21348
870.32	21344
870.45	21397
870.58	21443
870.71	21454
870.84	21462
870.97	21439
871.1	21458
871.23	21561
871.36	21610
871.489	21466
871.619	21660
871.749	21774
871.879	21663
872.008	21679
872.138	21724
872.267	21679
872.397	21515
872.526	21336
872.656	21435
872.785	21416
872.915	21633
873.044	21705
873.173	21625
873.303	21641
873.432	21713
873.561	21762
873.69	21717
873.819	21576
873.948	21720
874.077	21724
874.206	21492
874.335	21690
874.464	21739
874.593	21873
874.722	21827
874.851	21972
874.979	21907
875.108	21922
875.237	21739
875.365	21857
875.494	21884
875.623	21945
875.751	21785
875.88	21873
876.008	21911
876.136	22025
876.265	22360
876.393	22421
876.521	22394
876.65	22356
876.778	22257
876.906	22207
877.034	22215
877.162	22173
877.29	22196
877.418	22207
877.546	22188
877.674	22211
877.802	22253
877.93	22333
878.058	22124
878.185	22154
878.313	22135
878.441	22101
878.568	21964
878.696	22044
878.824	22150
878.951	22272
879.079	22310
879.206	22413
879.333	22489
879.461	22181
879.588	22318
879.715	22295
879.842	22402
879.97	22291
880.097	22051
880.224	22105
880.351	22249
880.478	22147
880.605	22055
880.732	22078
880.859	22280
880.986	22147
881.112	21979
881.239	21956
881.366	21819
881.493	21690
881.619	21622
881.746	21663
881.872	21572
881.999	21580
882.125	21534
882.252	21713
882.378	21561
882.505	21762
882.631	21492
882.757	21363
882.883	21447
883.01	21279
883.136	21294
883.262	21287
883.388	21176
883.514	21317
883.64	21249
883.766	21199
883.892	21184
884.018	21112
884.143	21272
884.269	21321
884.395	21036
884.52	20967
884.646	21047
884.772	20956
884.897	20838
885.023	20963
885.148	20986
885.274	21062
885.399	20952
885.524	21005
885.65	21028
885.775	20956
885.9	20887
886.025	20967
886.15	20963
886.275	20872
886.4	20800
886.525	20982
886.65	20899
886.775	20830
886.9	20982
887.025	21100
887.149	20876
887.274	20701
887.399	20785
887.523	20674
887.648	20773
887.773	20670
887.897	20750
888.021	20819
888.146	20613
888.27	20838
888.395	20750
888.519	20792
888.643	20697
888.767	20792
888.891	20632
889.015	20541
889.139	20689
889.263	20423
889.387	20575
889.511	20655
889.635	20648
889.759	20537
889.883	20541
890.006	20564
890.13	20636
890.254	20438
890.377	20366
890.501	20343
890.624	20324
890.748	20370
890.871	20073
890.995	20073
891.118	20035
891.241	20115
891.364	20221
891.488	20328
891.611	20050
891.734	20111
891.857	20225
891.98	20225
892.103	20103
892.226	20134
892.349	20005
892.471	19890
892.594	20016
892.717	20050
892.839	20115
892.962	20107
893.085	20103
893.207	19944
893.33	19883
893.452	19875
893.575	19947
893.697	20008
893.819	20077
893.941	20183
894.064	20168
894.186	19959
894.308	19944
894.43	20134
894.552	20153
894.674	20073
894.796	19917
894.918	19955
895.04	20077
895.161	20058
895.283	20069
895.405	20046
895.526	19986
895.648	19978
895.769	20016
895.891	20084
896.012	20149
896.134	20149
896.255	20043
896.376	19868
896.498	19925
896.619	20039
896.74	20005
896.861	20054
896.982	20332
897.103	20511
897.224	20233
897.345	20100
897.466	20237
897.587	20183
897.708	20393
897.828	20237
897.949	20187
898.07	20008
898.19	20138
898.311	20305
898.431	20202
898.552	20294
898.672	20252
898.792	20229
898.913	20290
899.033	20024
899.153	20100
899.273	19811
899.393	19967
899.513	19875
899.633	19833
899.753	20088
899.873	19970
899.993	20035
900.113	19917
900.232	20005
900.352	19921
900.472	19871
900.591	19685
900.711	19731
900.83	19666
900.95	19864
901.069	19761
901.189	19685
901.308	19285
901.427	19392
901.546	19460
901.665	19384
901.784	19369
901.904	19266
902.023	19148
902.141	18856
902.26	18905
902.379	18947
902.498	18882
902.617	19023
902.735	18916
902.854	18806
902.973	18825
903.091	18528
903.21	18486
903.328	18574
903.446	18407
903.565	18460
903.683	18506
903.801	18213
903.919	18319
904.038	18285
904.156	18091
904.274	18205
904.392	18136
904.51	18030
904.627	18041
904.745	18155
904.863	18174
904.981	17866
905.098	17809
905.216	17802
905.334	17809
905.451	17718
905.569	17794
905.686	17790
905.803	17661
905.921	17573
906.038	17573
906.155	17547
906.272	17425
906.389	17452
906.506	17212
906.623	17265
906.74	17273
906.857	17200
906.974	17128
907.091	17368
907.208	17395
907.324	17334
907.441	17246
907.557	17025
907.674	17014
907.79	16877
907.907	17033
908.023	17025
908.139	17018
908.256	17018
908.372	16923
908.488	16942
908.604	16793
908.72	16767
908.836	16763
908.952	16729
909.068	16687
909.184	16774
909.3	16733
909.415	16774
909.531	16649
909.647	16561
909.762	16455
909.878	16409
909.993	16504
910.108	16523
910.224	16447
910.339	16436
910.454	16379
910.57	16303
910.685	16188
910.8	16470
910.915	16390
911.03	16196
911.145	16177
911.259	16055
911.374	16101
911.489	16044
911.604	15876
911.718	15812
911.833	15800
911.947	15610
912.062	15701
912.176	15869
912.291	15709
912.405	15728
912.519	15956
912.633	15934
912.748	15930
912.862	15747
912.976	15660
913.09	15454
913.204	15507
913.318	15606
913.431	15694
913.545	15755
913.659	15675
913.772	15523
913.886	15488
914	15412
914.113	15530
914.226	15557
914.34	15519
914.453	15279
914.566	15519
914.68	15454
914.793	15264
914.906	15184
915.019	14941
915.132	14975
915.245	15066
915.358	15062
915.47	15013
915.583	15043
915.696	15009
915.809	15051
915.921	15077
916.034	14929
916.146	14941
916.259	14819
916.371	14937
916.483	15039
916.595	14880
916.708	14872
916.82	14906
916.932	14804
917.044	14800
917.156	14731
917.268	14724
917.38	14731
917.491	14617
917.603	14659
917.715	14800
917.826	14838
917.938	14602
918.049	14568
918.161	14682
918.272	14693
918.384	14743
918.495	14587
918.606	14427
918.717	14324
918.828	14450
918.939	14431
919.05	14351
919.161	14419
919.272	14298
919.383	14252
919.494	14446
919.604	14594
919.715	14423
919.826	14278
919.936	14339
920.047	14476
920.157	14377
920.267	14594
920.378	14419
920.488	14305
920.598	14579
920.708	14682
920.818	14469
920.928	14549
921.038	14731
921.148	14689
921.258	14278
921.368	14237
921.477	14123
921.587	14103
921.697	14084
921.806	14134
921.916	14073
922.025	13814
922.134	13780
922.244	13712
922.353	13772
922.462	13632
922.571	13616
922.68	13506
922.789	13430
922.898	13396
923.007	13388
923.116	13460
923.224	13403
923.333	13453
923.442	13255
923.55	13206
923.659	13316
923.767	13441
923.876	13232
923.984	13285
924.092	13129
924.201	13232
924.309	13095
924.417	13145
924.525	13126
924.633	13053
924.741	13909
924.849	12852
924.956	13156
925.064	12871
925.172	12814
925.279	12798
925.387	12871
925.494	12821
925.602	13019
925.709	12890
925.816	12700
925.924	12810
926.031	12886
926.138	12768
926.245	12833
926.352	12764
926.459	12810
926.566	12897
926.673	12715
926.779	12589
926.886	12620
926.993	12490
927.099	12448
927.206	12433
927.312	12342
927.419	12391
927.525	12426
927.631	12399
927.737	12289
927.843	12201
927.95	12125
928.056	12228
928.162	12228
928.267	12315
928.373	12901
928.479	12330
928.585	12060
928.69	12140
928.796	12251
928.901	12117
929.007	12022
929.112	12133
929.218	12102
929.323	12026
929.428	11988
929.533	12064
929.638	11832
929.743	11927
929.848	11927
929.953	11954
930.058	11783
930.163	11566
930.267	11684
930.372	11828
930.477	11634
930.581	11821
930.685	11676
930.79	11532
930.894	11661
930.998	11600
931.103	11634
931.207	11261
931.311	11303
931.415	11083
931.519	10938
931.623	10953
