Data from test_V78500241_526.txt Node
Date: Fri Mar 25 15:13:31 CST 2022
User: usil
Spectrometer: V785-0024
Trigger mode: 0
Integration Time (sec): 4.000000E-1
Scans to average: 1
Nonlinearity correction enabled: false
Boxcar width: 0
Storing dark spectrum: false
XAxis mode: Wavelengths
Number of Pixels in Spectrum: 1024
>>>>>Begin Spectral Data<<<<<
801.071	27283
801.214	27283
801.356	26998
801.499	26986
801.641	26967
801.783	26918
801.926	27051
802.068	26891
802.211	26842
802.353	26838
802.496	26629
802.638	26632
802.78	26530
802.923	26568
803.065	26606
803.208	26461
803.35	26480
803.492	26549
803.635	26594
803.777	26545
803.919	26659
804.061	26895
804.204	26746
804.346	26461
804.488	26522
804.63	26727
804.773	26488
804.915	26667
805.057	26731
805.199	26648
805.341	26765
805.483	26800
805.626	26834
805.768	26495
805.91	26781
806.052	26739
806.194	26689
806.336	27066
806.478	26819
806.62	26705
806.762	26891
806.904	27146
807.046	27180
807.188	27252
807.33	27135
807.472	27313
807.614	27188
807.756	27294
807.898	26971
808.04	26994
808.182	27055
808.324	27017
808.465	27028
808.607	27131
808.749	27321
808.891	27416
809.033	27641
809.174	27447
809.316	27416
809.458	27386
809.6	27401
809.741	27504
809.883	27580
810.025	27736
810.166	27614
810.308	27625
810.45	27469
810.591	27622
810.733	27652
810.875	27386
811.016	27332
811.158	27157
811.299	27496
811.441	27568
811.582	27504
811.724	27431
811.865	27378
812.007	27279
812.148	27393
812.29	27485
812.431	27557
812.573	27667
812.714	27785
812.855	27869
812.997	27991
813.138	28143
813.279	28006
813.421	28036
813.562	27926
813.703	27698
813.845	27618
813.986	27329
814.127	27173
814.268	27036
814.41	27085
814.551	27028
814.692	27154
814.833	26967
814.974	27070
815.115	27013
815.256	26933
815.397	26963
815.539	26933
815.68	26929
815.821	26823
815.962	26826
816.103	26845
816.244	26720
816.385	26701
816.526	26560
816.666	26503
816.807	26282
816.948	26396
817.089	26495
817.23	26355
817.371	26358
817.512	26495
817.653	26328
817.793	26317
817.934	26457
818.075	26286
818.216	26389
818.356	26309
818.497	26187
818.638	25989
818.778	26016
818.919	26157
819.06	26107
819.2	26183
819.341	26385
819.481	26259
819.622	26412
819.762	26686
819.903	26560
820.043	26625
820.184	26434
820.324	26457
820.465	26560
820.605	26469
820.746	26404
820.886	26214
821.026	26347
821.167	26427
821.307	26385
821.447	26393
821.588	26225
821.728	26084
821.868	25917
822.008	25879
822.149	25841
822.289	25628
822.429	25525
822.569	25445
822.709	25483
822.849	25358
822.99	25499
823.13	25228
823.27	25209
823.41	25217
823.55	25088
823.69	25179
823.83	25076
823.97	25046
824.11	24920
824.25	25065
824.389	24791
824.529	25050
824.669	24954
824.809	25012
824.949	25072
825.089	25023
825.228	24939
825.368	24745
825.508	24829
825.648	24852
825.787	24852
825.927	24791
826.067	24821
826.206	24821
826.346	25023
826.485	24928
826.625	24806
826.765	24958
826.904	24897
827.044	24650
827.183	24479
827.323	24509
827.462	24559
827.601	24494
827.741	24505
827.88	24589
828.02	24429
828.159	24635
828.298	24540
828.437	24582
828.577	24437
828.716	24757
828.855	24369
828.994	24163
829.134	24228
829.273	24270
829.412	24251
829.551	24235
829.69	24323
829.829	24327
829.968	24251
830.107	24315
830.246	24296
830.385	24178
830.524	24133
830.663	24003
830.802	24022
830.941	23817
831.08	23798
831.219	23897
831.357	23969
831.496	24091
831.635	23851
831.774	23802
831.913	23748
832.051	23649
832.19	23653
832.329	23630
832.467	23543
832.606	23512
832.744	23490
832.883	23611
833.022	23531
833.16	23512
833.299	23505
833.437	23699
833.576	23493
833.714	23752
833.852	23703
833.991	23611
834.129	23680
834.267	23771
834.406	23691
834.544	23634
834.682	23615
834.821	23589
834.959	23703
835.097	23596
835.235	23619
835.373	23558
835.511	23653
835.65	23448
835.788	23497
835.926	23334
836.064	23181
836.202	23345
836.34	23471
836.478	23528
836.615	23455
836.753	23482
836.891	23478
837.029	23467
837.167	23372
837.305	23360
837.443	23284
837.58	23212
837.718	23398
837.856	23372
837.993	23269
838.131	23174
838.269	23231
838.406	23090
838.544	22957
838.681	23033
838.819	22995
838.956	22778
839.094	22755
839.231	22816
839.369	23014
839.506	22999
839.643	23086
839.781	22866
839.918	22634
840.055	22790
840.193	22839
840.33	22713
840.467	22626
840.604	22710
840.742	23006
840.879	22675
841.016	22725
841.153	22618
841.29	22820
841.427	22645
841.564	22725
841.701	22721
841.838	22706
841.975	22497
842.112	22599
842.249	22546
842.385	22527
842.522	22577
842.659	22500
842.796	22500
842.933	22348
843.069	22344
843.206	22249
843.343	22489
843.479	22527
843.616	22329
843.752	22265
843.889	22272
844.025	22405
844.162	22207
844.298	22440
844.435	22204
844.571	22287
844.708	22211
844.844	22424
844.98	22329
845.117	22272
845.253	22173
845.389	22006
845.525	22230
845.661	22055
845.798	21979
845.934	22013
846.07	21915
846.206	22093
846.342	22143
846.478	21956
846.614	21713
846.75	21679
846.886	21618
847.022	21793
847.158	21755
847.294	21652
847.429	21709
847.565	21633
847.701	21979
847.837	21340
847.972	21428
848.108	21469
848.244	21530
848.379	21256
848.515	21302
848.65	21268
848.786	21329
848.921	21336
849.057	21348
849.192	21412
849.328	21325
849.463	21138
849.598	21344
849.734	21211
849.869	21173
850.004	21055
850.14	21131
850.275	21161
850.41	21104
850.545	21116
850.68	20990
850.815	21165
850.95	20880
851.085	21230
851.22	21100
851.355	21058
851.49	21001
851.625	21013
851.76	21051
851.895	21051
852.03	20963
852.165	21138
852.299	21051
852.434	21112
852.569	21013
852.703	21039
852.838	21096
852.973	21310
853.107	21077
853.242	21001
853.376	20902
853.511	20750
853.645	20838
853.78	20918
853.914	20899
854.048	20777
854.183	20849
854.317	20792
854.451	21043
854.585	20830
854.72	20838
854.854	21055
854.988	20868
855.122	20807
855.256	20720
855.39	20880
855.524	20937
855.658	20792
855.792	20880
855.926	20906
856.06	20925
856.194	20864
856.327	20788
856.461	20910
856.595	20754
856.729	20838
856.862	21062
856.996	20952
857.13	20975
857.263	21089
857.397	21055
857.53	20796
857.664	20925
857.797	20960
857.931	20929
858.064	20971
858.197	20929
858.331	20914
858.464	20823
858.597	20735
858.731	20823
858.864	20838
858.997	20819
859.13	20769
859.263	20956
859.396	20872
859.529	20929
859.662	20849
859.795	20762
859.928	20834
860.061	20918
860.194	21081
860.327	20914
860.46	20880
860.592	20990
860.725	20979
860.858	20990
860.99	20826
861.123	20830
861.256	20705
861.388	20880
861.521	21743
861.653	20613
861.786	20621
861.918	20724
862.05	20697
862.183	20807
862.315	20800
862.447	20887
862.58	20804
862.712	20674
862.844	20545
862.976	20663
863.108	20678
863.24	20979
863.372	20571
863.504	20545
863.636	20625
863.768	20724
863.9	20594
864.032	20568
864.164	20518
864.296	20659
864.428	20606
864.559	20594
864.691	20765
864.823	20617
864.954	20560
865.086	20518
865.217	20552
865.349	20446
865.48	20560
865.612	20518
865.743	20549
865.875	20511
866.006	20423
866.137	20499
866.269	20450
866.4	20495
866.531	20473
866.662	20404
866.793	20419
866.924	20404
867.055	20476
867.186	20461
867.317	20294
867.448	20362
867.579	20518
867.71	20298
867.841	20336
867.972	20476
868.103	20412
868.233	20450
868.364	20377
868.495	20457
868.625	20712
868.756	20754
868.886	20609
869.017	20609
869.147	20845
869.278	20765
869.408	20594
869.539	20625
869.669	20693
869.799	20743
869.929	20754
870.06	20857
870.19	21062
870.32	21024
870.45	21150
870.58	21055
870.71	21211
870.84	21123
870.97	21131
871.1	21100
871.23	21241
871.36	21184
871.489	21176
871.619	21283
871.749	21310
871.879	21283
872.008	21428
872.138	21218
872.267	21116
872.397	21028
872.526	21165
872.656	21096
872.785	21074
872.915	21313
873.044	21389
873.173	21317
873.303	21306
873.432	21355
873.561	21294
873.69	21218
873.819	21268
873.948	21397
874.077	21393
874.206	21329
874.335	21222
874.464	21374
874.593	21504
874.722	21469
874.851	21580
874.979	21428
875.108	21660
875.237	21428
875.365	21488
875.494	21447
875.623	21587
875.751	21488
875.88	21545
876.008	21614
876.136	21663
876.265	21888
876.393	22059
876.521	21937
876.65	21850
876.778	21865
876.906	21880
877.034	21953
877.162	21911
877.29	21743
877.418	22059
877.546	21873
877.674	21937
877.802	21876
877.93	21895
878.058	21838
878.185	21679
878.313	21800
878.441	21831
878.568	21625
878.696	21800
878.824	21827
878.951	21915
879.079	22036
879.206	22215
879.333	22036
879.461	21888
879.588	22032
879.715	22055
879.842	22135
879.97	21983
880.097	21622
880.224	21690
880.351	21686
880.478	21698
880.605	21599
880.732	21736
880.859	21915
880.986	21622
881.112	21770
881.239	21595
881.366	21378
881.493	21317
881.619	21256
881.746	21249
881.872	21310
881.999	21146
882.125	21272
882.252	21351
882.378	21226
882.505	21545
882.631	21287
882.757	21123
882.883	21093
883.01	21013
883.136	20967
883.262	20880
883.388	20785
883.514	20994
883.64	20956
883.766	20823
883.892	20769
884.018	20880
884.143	20948
884.269	20948
884.395	20598
884.52	20579
884.646	20648
884.772	20473
884.897	20651
885.023	20682
885.148	20689
885.274	20792
885.399	20693
885.524	20590
885.65	20708
885.775	20564
885.9	20507
886.025	20708
886.15	20708
886.275	20636
886.4	20450
886.525	20617
886.65	20480
886.775	20590
886.9	20777
887.025	20705
887.149	20613
887.274	20507
887.399	20362
887.523	20446
887.648	20301
887.773	20256
887.897	20503
888.021	20530
888.146	20343
888.27	20480
888.395	20571
888.519	20461
888.643	20507
888.767	20431
888.891	20320
889.015	20202
889.139	20317
889.263	20237
889.387	20309
889.511	20419
889.635	20267
889.759	20206
889.883	20168
890.006	20237
890.13	20202
890.254	20187
890.377	20278
890.501	20039
890.624	19951
890.748	20103
890.871	19970
890.995	19826
891.118	19757
891.241	19788
891.364	19814
891.488	19940
891.611	19780
891.734	19826
891.857	19841
891.98	19799
892.103	19822
892.226	19765
892.349	19731
892.471	19696
892.594	19795
892.717	19784
892.839	19578
892.962	19837
893.085	19879
893.207	19708
893.33	19605
893.452	19624
893.575	19811
893.697	19670
893.819	19852
893.941	19830
894.064	19906
894.186	19696
894.308	19765
894.43	19791
894.552	19845
894.674	19875
894.796	19662
894.918	19753
895.04	19647
895.161	19753
895.283	19814
895.405	19518
895.526	19685
895.648	19757
895.769	19833
895.891	19795
896.012	19765
896.134	19894
896.255	19811
896.376	19693
896.498	19753
896.619	19791
896.74	19738
896.861	19799
896.982	20161
897.103	20195
897.224	20043
897.345	19818
897.466	19909
897.587	20039
897.708	20054
897.828	20020
897.949	19925
898.07	19928
898.19	19864
898.311	20065
898.431	19951
898.552	19993
898.672	20005
898.792	20024
898.913	19982
899.033	19864
899.153	19685
899.273	19658
899.393	19750
899.513	19746
899.633	19814
899.753	19647
899.873	19719
899.993	19674
900.113	19727
900.232	19696
900.352	19681
900.472	19468
900.591	19426
900.711	19487
900.83	19457
900.95	19647
901.069	19540
901.189	19247
901.308	19133
901.427	19168
901.546	19148
901.665	19183
901.784	19012
901.904	19015
902.023	18901
902.141	18650
902.26	18574
902.379	18642
902.498	18692
902.617	18597
902.735	18608
902.854	18597
902.973	18486
903.091	18334
903.21	18281
903.328	18235
903.446	18129
903.565	18015
903.683	18144
903.801	18106
903.919	18079
904.038	17980
904.156	17908
904.274	17984
904.392	17707
904.51	17859
904.627	17897
904.745	17885
904.863	17904
904.981	17672
905.098	17623
905.216	17440
905.334	17649
905.451	17535
905.569	17615
905.686	17566
905.803	17497
905.921	17284
906.038	17478
906.155	17330
906.272	17220
906.389	17231
906.506	17132
906.623	17025
906.74	17033
906.857	17014
906.974	16984
907.091	17075
907.208	17166
907.324	17105
907.441	16965
907.557	16896
907.674	16782
907.79	16706
907.907	16744
908.023	16911
908.139	16915
908.256	16694
908.372	16790
908.488	16656
908.604	16607
908.72	16481
908.836	16596
908.952	16535
909.068	16558
909.184	16603
909.3	16542
909.415	16478
909.531	16588
909.647	16215
909.762	16211
909.878	16196
909.993	16238
910.108	16223
910.224	16200
910.339	16181
910.454	16063
910.57	16044
910.685	15987
910.8	16192
910.915	16223
911.03	15968
911.145	15888
911.259	15857
911.374	15762
911.489	15705
911.604	15724
911.718	15519
911.833	15633
911.947	15504
912.062	15458
912.176	15568
912.291	15622
912.405	15481
912.519	15675
912.633	15663
912.748	15648
912.862	15450
912.976	15424
913.09	15283
913.204	15405
913.318	15458
913.431	15477
913.545	15564
913.659	15428
913.772	15389
913.886	15241
914	15146
914.113	15298
914.226	15218
914.34	15249
914.453	15100
914.566	15222
914.68	15108
914.793	15169
914.906	14967
915.019	14735
915.132	14773
915.245	14769
915.358	14838
915.47	14861
915.583	14727
915.696	14724
915.809	14918
915.921	14944
916.034	14731
916.146	14716
916.259	14682
916.371	14796
916.483	14686
916.595	14746
916.708	14712
916.82	14617
916.932	14602
917.044	14598
917.156	14712
917.268	14533
917.38	14507
917.491	14495
917.603	14530
917.715	14560
917.826	14549
917.938	14400
918.049	14278
918.161	14412
918.272	14537
918.384	14541
918.495	14408
918.606	14256
918.717	14240
918.828	14286
918.939	14237
919.05	14107
919.161	14191
919.272	14050
919.383	14096
919.494	14286
919.604	14404
919.715	14259
919.826	14077
919.936	14153
920.047	14267
920.157	14248
920.267	14358
920.378	14263
920.488	14248
920.598	14336
920.708	14419
920.818	14366
920.928	14336
921.038	14488
921.148	14465
921.258	14172
921.368	14180
921.477	13894
921.587	13947
921.697	13791
921.806	14027
921.916	13784
922.025	13708
922.134	13670
922.244	13533
922.353	13567
922.462	13400
922.571	13407
922.68	13358
922.789	13244
922.898	13320
923.007	13274
923.116	13270
923.224	13225
923.333	13168
923.442	13084
923.55	13038
923.659	13088
923.767	13114
923.876	12970
923.984	13099
924.092	12966
924.201	13072
924.309	13012
924.417	13012
924.525	12935
924.633	12916
924.741	13750
924.849	12772
924.956	12798
925.064	12635
925.172	12631
925.279	12646
925.387	12730
925.494	12673
925.602	12837
925.709	12711
925.816	12521
925.924	12642
926.031	12722
926.138	12620
926.245	12696
926.352	12551
926.459	12684
926.566	12627
926.673	12513
926.779	12448
926.886	12479
926.993	12365
927.099	12251
927.206	12273
927.312	12197
927.419	12277
927.525	12270
927.631	12334
927.737	12224
927.843	12064
927.95	12049
928.056	12053
928.162	12159
928.267	12190
928.373	12631
928.479	12228
928.585	11950
928.69	12072
928.796	12072
928.901	11984
929.007	11775
929.112	11931
929.218	11935
929.323	11786
929.428	11786
929.533	11851
929.638	11779
929.743	11691
929.848	11794
929.953	11790
930.058	11710
930.163	11551
930.267	11589
930.372	11691
930.477	11478
930.581	11623
930.685	11570
930.79	11425
930.894	11410
930.998	11364
931.103	11539
931.207	11193
931.311	11045
931.415	11010
931.519	10820
931.623	10835
