Data from test_V78500241_1193.txt Node
Date: Fri Mar 25 15:18:09 CST 2022
User: usil
Spectrometer: V785-0024
Trigger mode: 0
Integration Time (sec): 4.000000E-1
Scans to average: 1
Nonlinearity correction enabled: false
Boxcar width: 0
Storing dark spectrum: false
XAxis mode: Wavelengths
Number of Pixels in Spectrum: 1024
>>>>>Begin Spectral Data<<<<<
801.071	28021
801.214	28166
801.356	27789
801.499	27709
801.641	27679
801.783	27576
801.926	27515
802.068	27606
802.211	27576
802.353	27568
802.496	27370
802.638	27370
802.78	27275
802.923	27089
803.065	27154
803.208	27287
803.35	27203
803.492	27439
803.635	27488
803.777	27329
803.919	27561
804.061	27781
804.204	27424
804.346	27416
804.488	27401
804.63	27443
804.773	27283
804.915	27370
805.057	27663
805.199	27393
805.341	27698
805.483	27823
805.626	27580
805.768	27561
805.91	27545
806.052	27686
806.194	27652
806.336	27705
806.478	27648
806.62	27595
806.762	27804
806.904	27964
807.046	28166
807.188	28040
807.33	27979
807.472	28112
807.614	27953
807.756	28032
807.898	27998
808.04	27808
808.182	27869
808.324	27884
808.465	28040
808.607	28101
808.749	28310
808.891	28363
809.033	28500
809.174	28481
809.316	28147
809.458	28268
809.6	28177
809.741	28447
809.883	28428
810.025	28675
810.166	28516
810.308	28573
810.45	28538
810.591	28542
810.733	28295
810.875	28112
811.016	28109
811.158	28078
811.299	28356
811.441	28459
811.582	28409
811.724	28352
811.865	28261
812.007	28188
812.148	28219
812.29	28280
812.431	28451
812.573	28557
812.714	28584
812.855	28820
812.997	28847
813.138	28949
813.279	28877
813.421	28892
813.562	28759
813.703	28664
813.845	28538
813.986	28287
814.127	28169
814.268	27934
814.41	27972
814.551	27953
814.692	27979
814.833	27930
814.974	27983
815.115	28017
815.256	27899
815.397	27823
815.539	27732
815.68	27800
815.821	27705
815.962	27793
816.103	27831
816.244	27603
816.385	27641
816.526	27553
816.666	27515
816.807	27222
816.948	27408
817.089	27310
817.23	27393
817.371	27363
817.512	27344
817.653	27218
817.793	27302
817.934	27355
818.075	27344
818.216	27382
818.356	27222
818.497	27142
818.638	27047
818.778	27043
818.919	27104
819.06	27161
819.2	27112
819.341	27283
819.481	27275
819.622	27367
819.762	27682
819.903	27462
820.043	27572
820.184	27317
820.324	27564
820.465	27504
820.605	27367
820.746	27416
820.886	27233
821.026	27424
821.167	27336
821.307	27367
821.447	27329
821.588	27184
821.728	27077
821.868	26986
822.008	26765
822.149	26746
822.289	26720
822.429	26530
822.569	26476
822.709	26282
822.849	26298
822.99	26286
823.13	26240
823.27	26328
823.41	26035
823.55	26001
823.69	26012
823.83	26233
823.97	26088
824.11	26054
824.25	25883
824.389	25849
824.529	26005
824.669	25906
824.809	26062
824.949	26050
825.089	26001
825.228	25963
825.368	25761
825.508	25856
825.648	25776
825.787	25856
825.927	25898
826.067	25894
826.206	25750
826.346	25772
826.485	25818
826.625	25788
826.765	25875
826.904	25830
827.044	25567
827.183	25685
827.323	25438
827.462	25529
827.601	25582
827.741	25479
827.88	25575
828.02	25339
828.159	25491
828.298	25422
828.437	25548
828.577	25506
828.716	25548
828.855	25460
828.994	25335
829.134	25304
829.273	25327
829.412	25145
829.551	25293
829.69	25076
829.829	25244
829.968	25202
830.107	25350
830.246	25187
830.385	25179
830.524	25148
830.663	25065
830.802	24951
830.941	24890
831.08	24859
831.219	24844
831.357	24913
831.496	25031
831.635	24840
831.774	24757
831.913	24711
832.051	24604
832.19	24700
832.329	24749
832.467	24551
832.606	24536
832.744	24559
832.883	24437
833.022	24490
833.16	24612
833.299	24597
833.437	24498
833.576	24646
833.714	24646
833.852	24696
833.991	24475
834.129	24635
834.267	24612
834.406	24597
834.544	24570
834.682	24585
834.821	24665
834.959	24760
835.097	24555
835.235	24528
835.373	24540
835.511	24574
835.65	24502
835.788	24467
835.926	24357
836.064	24281
836.202	24308
836.34	24456
836.478	24418
836.615	24452
836.753	24388
836.891	24532
837.029	24559
837.167	24334
837.305	24414
837.443	24292
837.58	24395
837.718	24228
837.856	24281
837.993	24205
838.131	24155
838.269	24152
838.406	24205
838.544	24197
838.681	23920
838.819	23802
838.956	23714
839.094	23760
839.231	23718
839.369	23847
839.506	24095
839.643	23973
839.781	23870
839.918	23634
840.055	23699
840.193	23672
840.33	23726
840.467	23756
840.604	23630
840.742	23805
840.879	23429
841.016	23680
841.153	23623
841.29	23710
841.427	23638
841.564	23585
841.701	23695
841.838	23501
841.975	23676
842.112	23478
842.249	23505
842.385	23368
842.522	23672
842.659	23452
842.796	23402
842.933	23330
843.069	23398
843.206	23356
843.343	23551
843.479	23395
843.616	23387
843.752	23204
843.889	23265
844.025	23242
844.162	23143
844.298	23258
844.435	23296
844.571	23178
844.708	23204
844.844	23425
844.98	23326
845.117	23296
845.253	23117
845.389	22946
845.525	23193
845.661	23056
845.798	22885
845.934	22999
846.07	22877
846.206	22862
846.342	22961
846.478	22847
846.614	22645
846.75	22759
846.886	22611
847.022	22782
847.158	22542
847.294	22660
847.429	22759
847.565	22649
847.701	22877
847.837	22413
847.972	22409
848.108	22428
848.244	22417
848.379	22322
848.515	22303
848.65	22268
848.786	22318
848.921	22284
849.057	22493
849.192	22352
849.328	22181
849.463	22196
849.598	22166
849.734	22006
849.869	22166
850.004	22002
850.14	22112
850.275	21975
850.41	22010
850.545	22048
850.68	21979
850.815	21987
850.95	22055
851.085	22048
851.22	22109
851.355	22116
851.49	21953
851.625	21987
851.76	21835
851.895	21949
852.03	21918
852.165	21994
852.299	22017
852.434	22032
852.569	22055
852.703	22059
852.838	22097
852.973	22120
853.107	22082
853.242	21941
853.376	21698
853.511	21728
853.645	21831
853.78	21895
853.914	21937
854.048	21759
854.183	21819
854.317	21823
854.451	21979
854.585	21800
854.72	21857
854.854	21880
854.988	21671
855.122	21739
855.256	21629
855.39	21797
855.524	21903
855.658	21888
855.792	21869
855.926	21934
856.06	21873
856.194	21838
856.327	21789
856.461	21850
856.595	21736
856.729	21793
856.862	21972
856.996	21793
857.13	21956
857.263	21876
857.397	21945
857.53	21827
857.664	21930
857.797	21846
857.931	21869
858.064	21762
858.197	21895
858.331	21869
858.464	21865
858.597	21709
858.731	21747
858.864	21892
858.997	21774
859.13	21800
859.263	21671
859.396	21922
859.529	21751
859.662	21766
859.795	21793
859.928	21778
860.061	21907
860.194	22002
860.327	21998
860.46	21816
860.592	21846
860.725	21991
860.858	21937
860.99	21831
861.123	21720
861.256	21778
861.388	21827
861.521	22584
861.653	21671
861.786	21751
861.918	21656
862.05	21633
862.183	21720
862.315	21743
862.447	21827
862.58	21671
862.712	21587
862.844	21576
862.976	21644
863.108	21568
863.24	21819
863.372	21454
863.504	21477
863.636	21473
863.768	21603
863.9	21545
864.032	21367
864.164	21462
864.296	21507
864.428	21576
864.559	21576
864.691	21568
864.823	21591
864.954	21401
865.086	21538
865.217	21587
865.349	21344
865.48	21454
865.612	21374
865.743	21496
865.875	21397
866.006	21374
866.137	21504
866.269	21447
866.4	21370
866.531	21389
866.662	21386
866.793	21405
866.924	21370
867.055	21306
867.186	21359
867.317	21325
867.448	21332
867.579	21310
867.71	21218
867.841	21435
867.972	21397
868.103	21294
868.233	21374
868.364	21344
868.495	21420
868.625	21614
868.756	21686
868.886	21496
869.017	21610
869.147	21648
869.278	21656
869.408	21633
869.539	21542
869.669	21709
869.799	21610
869.929	21739
870.06	21644
870.19	21861
870.32	21880
870.45	21846
870.58	21918
870.71	22063
870.84	22040
870.97	21994
871.1	22101
871.23	22097
871.36	22158
871.489	22006
871.619	22162
871.749	22211
871.879	22143
872.008	22204
872.138	22253
872.267	22196
872.397	22006
872.526	21987
872.656	22109
872.785	22017
872.915	22185
873.044	22204
873.173	22131
873.303	22135
873.432	22188
873.561	22265
873.69	22265
873.819	22207
873.948	22280
874.077	22219
874.206	22090
874.335	22185
874.464	22284
874.593	22470
874.722	22386
874.851	22424
874.979	22386
875.108	22436
875.237	22348
875.365	22356
875.494	22371
875.623	22531
875.751	22375
875.88	22493
876.008	22554
876.136	22653
876.265	22782
876.393	22999
876.521	22847
876.65	22987
876.778	22869
876.906	22812
877.034	22786
877.162	22736
877.29	22717
877.418	22755
877.546	22744
877.674	22942
877.802	22733
877.93	22721
878.058	22736
878.185	22630
878.313	22664
878.441	22706
878.568	22603
878.696	22645
878.824	22797
878.951	22892
879.079	22949
879.206	23037
879.333	22953
879.461	22793
879.588	22740
879.715	22927
879.842	23105
879.97	22771
880.097	22569
880.224	22542
880.351	22774
880.478	22675
880.605	22516
880.732	22527
880.859	22793
880.986	22577
881.112	22580
881.239	22474
881.366	22382
881.493	22204
881.619	22158
881.746	22268
881.872	22226
881.999	22120
882.125	22059
882.252	22150
882.378	21987
882.505	22230
882.631	22048
882.757	21838
882.883	21892
883.01	21812
883.136	21743
883.262	21762
883.388	21709
883.514	21960
883.64	21876
883.766	21698
883.892	21698
884.018	21637
884.143	21736
884.269	21800
884.395	21637
884.52	21462
884.646	21473
884.772	21447
884.897	21291
885.023	21469
885.148	21622
885.274	21675
885.399	21622
885.524	21561
885.65	21405
885.775	21447
885.9	21416
886.025	21644
886.15	21542
886.275	21500
886.4	21374
886.525	21473
886.65	21420
886.775	21355
886.9	21538
887.025	21705
887.149	21447
887.274	21306
887.399	21272
887.523	21245
887.648	21275
887.773	21176
887.897	21260
888.021	21291
888.146	21211
888.27	21348
888.395	21279
888.519	21321
888.643	21275
888.767	21279
888.891	21173
889.015	21085
889.139	21116
889.263	21085
889.387	21142
889.511	21237
889.635	21173
889.759	21070
889.883	21043
890.006	21051
890.13	21051
890.254	21081
890.377	20921
890.501	20830
890.624	20735
890.748	20876
890.871	20621
890.995	20617
891.118	20617
891.241	20651
891.364	20564
891.488	20727
891.611	20571
891.734	20708
891.857	20621
891.98	20686
892.103	20762
892.226	20587
892.349	20514
892.471	20347
892.594	20374
892.717	20412
892.839	20423
892.962	20419
893.085	20511
893.207	20530
893.33	20385
893.452	20355
893.575	20583
893.697	20476
893.819	20632
893.941	20587
894.064	20689
894.186	20454
894.308	20423
894.43	20644
894.552	20587
894.674	20476
894.796	20541
894.918	20457
895.04	20393
895.161	20594
895.283	20446
895.405	20374
895.526	20431
895.648	20400
895.769	20408
895.891	20476
896.012	20511
896.134	20476
896.255	20427
896.376	20423
896.498	20518
896.619	20549
896.74	20537
896.861	20522
896.982	20758
897.103	20910
897.224	20667
897.345	20716
897.466	20651
897.587	20629
897.708	20834
897.828	20746
897.949	20583
898.07	20484
898.19	20552
898.311	20720
898.431	20590
898.552	20613
898.672	20792
898.792	20724
898.913	20609
899.033	20674
899.153	20602
899.273	20419
899.393	20427
899.513	20461
899.633	20400
899.753	20400
899.873	20233
899.993	20480
900.113	20320
900.232	20336
900.352	20358
900.472	20298
900.591	20187
900.711	20305
900.83	20122
900.95	20298
901.069	20328
901.189	20096
901.308	19925
901.427	19734
901.546	19689
901.665	19814
901.784	19677
901.904	19635
902.023	19502
902.141	19369
902.26	19324
902.379	19518
902.498	19190
902.617	19346
902.735	19335
902.854	19171
902.973	19187
903.091	19008
903.21	18916
903.328	18932
903.446	18863
903.565	18745
903.683	18684
903.801	18639
903.919	18635
904.038	18719
904.156	18719
904.274	18604
904.392	18456
904.51	18384
904.627	18506
904.745	18418
904.863	18547
904.981	18300
905.098	18194
905.216	18038
905.334	18194
905.451	18182
905.569	18117
905.686	18239
905.803	18209
905.921	17984
906.038	18155
906.155	18034
906.272	17889
906.389	17946
906.506	17920
906.623	17786
906.74	17726
906.857	17596
906.974	17691
907.091	17684
907.208	17870
907.324	17642
907.441	17646
907.557	17493
907.674	17417
907.79	17433
907.907	17376
908.023	17505
908.139	17364
908.256	17360
908.372	17341
908.488	17345
908.604	17098
908.72	17159
908.836	17105
908.952	17102
909.068	17102
909.184	17258
909.3	17162
909.415	17098
909.531	17246
909.647	16900
909.762	16866
909.878	16824
909.993	16885
910.108	16881
910.224	16782
910.339	16957
910.454	16668
910.57	16622
910.685	16637
910.8	16881
910.915	16820
911.03	16653
911.145	16493
911.259	16554
911.374	16443
911.489	16360
911.604	16333
911.718	16097
911.833	16291
911.947	16097
912.062	16112
912.176	16109
912.291	16124
912.405	16257
912.519	16352
912.633	16375
912.748	16234
912.862	16128
912.976	16128
913.09	15899
913.204	15953
913.318	16013
913.431	16032
913.545	16051
913.659	16078
913.772	15975
913.886	15774
914	15831
914.113	15823
914.226	15945
914.34	15911
914.453	15789
914.566	15842
914.68	15671
914.793	15622
914.906	15595
915.019	15466
915.132	15336
915.245	15389
915.358	15477
915.47	15344
915.583	15363
915.696	15477
915.809	15564
915.921	15519
916.034	15332
916.146	15294
916.259	15306
916.371	15340
916.483	15325
916.595	15226
916.708	15218
916.82	15214
916.932	15089
917.044	15214
917.156	15161
917.268	14963
917.38	15123
917.491	14960
917.603	15028
917.715	15085
917.826	15058
917.938	15116
918.049	14838
918.161	14925
918.272	15119
918.384	15104
918.495	14899
918.606	14765
918.717	14678
918.828	14895
918.939	14861
919.05	14731
919.161	14670
919.272	14640
919.383	14568
919.494	14838
919.604	14971
919.715	14785
919.826	14587
919.936	14640
920.047	14857
920.157	14682
920.267	14941
920.378	14880
920.488	14701
920.598	14849
920.708	15017
920.818	14834
920.928	14807
921.038	15005
921.148	14918
921.258	14686
921.368	14697
921.477	14602
921.587	14492
921.697	14393
921.806	14476
921.916	14377
922.025	14123
922.134	14153
922.244	14024
922.353	14149
922.462	14058
922.571	13963
922.68	13803
922.789	13765
922.898	13830
923.007	13757
923.116	13803
923.224	13757
923.333	13757
923.442	13662
923.55	13693
923.659	13651
923.767	13575
923.876	13521
923.984	13616
924.092	13422
924.201	13472
924.309	13480
924.417	13430
924.525	13464
924.633	13544
924.741	14168
924.849	13164
924.956	13411
925.064	13213
925.172	13190
925.279	13110
925.387	13156
925.494	13221
925.602	13301
925.709	13168
925.816	13149
925.924	13126
926.031	13152
926.138	13065
926.245	13129
926.352	12989
926.459	13171
926.566	13152
926.673	13027
926.779	12886
926.886	12920
926.993	12741
927.099	12745
927.206	12681
927.312	12646
927.419	12772
927.525	12635
927.631	12764
927.737	12635
927.843	12616
927.95	12414
928.056	12506
928.162	12601
928.267	12597
928.373	13088
928.479	12623
928.585	12395
928.69	12517
928.796	12532
928.901	12376
929.007	12247
929.112	12372
929.218	12414
929.323	12330
929.428	12285
929.533	12300
929.638	12133
929.743	12277
929.848	12140
929.953	12251
930.058	12057
930.163	11885
930.267	11908
930.372	12083
930.477	11912
930.581	12186
930.685	12003
930.79	11790
930.894	11828
930.998	11779
931.103	11973
931.207	11615
931.311	11493
931.415	11421
931.519	11140
931.623	11231
