Data from test_V78500241_893.txt Node
Date: Fri Mar 25 15:16:04 CST 2022
User: usil
Spectrometer: V785-0024
Trigger mode: 0
Integration Time (sec): 4.000000E-1
Scans to average: 1
Nonlinearity correction enabled: false
Boxcar width: 0
Storing dark spectrum: false
XAxis mode: Wavelengths
Number of Pixels in Spectrum: 1024
>>>>>Begin Spectral Data<<<<<
801.071	28154
801.214	28147
801.356	27953
801.499	27869
801.641	27774
801.783	27850
801.926	27994
802.068	27679
802.211	27660
802.353	27599
802.496	27344
802.638	27378
802.78	27412
802.923	27454
803.065	27294
803.208	27382
803.35	27466
803.492	27549
803.635	27690
803.777	27591
803.919	27553
804.061	27918
804.204	27583
804.346	27534
804.488	27481
804.63	27618
804.773	27553
804.915	27709
805.057	27701
805.199	27679
805.341	27797
805.483	27667
805.626	27690
805.768	27682
805.91	27827
806.052	27823
806.194	27644
806.336	27850
806.478	27869
806.62	27762
806.762	27934
806.904	28169
807.046	28131
807.188	28131
807.33	28223
807.472	28280
807.614	28063
807.756	28082
807.898	27972
808.04	28070
808.182	28131
808.324	28051
808.465	28063
808.607	28333
808.749	28375
808.891	28474
809.033	28637
809.174	28599
809.316	28379
809.458	28497
809.6	28390
809.741	28421
809.883	28630
810.025	28786
810.166	28691
810.308	28706
810.45	28675
810.591	28546
810.733	28538
810.875	28417
811.016	28489
811.158	28405
811.299	28455
811.441	28580
811.582	28603
811.724	28443
811.865	28417
812.007	28405
812.148	28421
812.29	28512
812.431	28637
812.573	28801
812.714	28938
812.855	29010
812.997	29136
813.138	29227
813.279	29014
813.421	29102
813.562	29094
813.703	28881
813.845	28691
813.986	28428
814.127	28162
814.268	28173
814.41	28169
814.551	28131
814.692	28135
814.833	28101
814.974	28059
815.115	28207
815.256	28021
815.397	27991
815.539	28013
815.68	27975
815.821	27937
815.962	27972
816.103	27964
816.244	27816
816.385	27663
816.526	27778
816.666	27466
816.807	27515
816.948	27526
817.089	27633
817.23	27652
817.371	27496
817.512	27587
817.653	27545
817.793	27412
817.934	27443
818.075	27469
818.216	27477
818.356	27477
818.497	27294
818.638	27313
818.778	27317
818.919	27112
819.06	27237
819.2	27302
819.341	27393
819.481	27587
819.622	27583
819.762	27831
819.903	27660
820.043	27770
820.184	27583
820.324	27515
820.465	27614
820.605	27545
820.746	27595
820.886	27504
821.026	27576
821.167	27576
821.307	27606
821.447	27500
821.588	27462
821.728	27203
821.868	27112
822.008	26967
822.149	26895
822.289	26948
822.429	26583
822.569	26651
822.709	26537
822.849	26476
822.99	26484
823.13	26537
823.27	26385
823.41	26294
823.55	26210
823.69	26301
823.83	26309
823.97	26229
824.11	26084
824.25	26008
824.389	26202
824.529	26221
824.669	26218
824.809	26301
824.949	26210
825.089	26195
825.228	26164
825.368	26008
825.508	25913
825.648	26107
825.787	26073
825.927	26020
826.067	26001
826.206	25978
826.346	25970
826.485	26054
826.625	25982
826.765	26153
826.904	26050
827.044	25807
827.183	25590
827.323	25624
827.462	25841
827.601	25674
827.741	25765
827.88	25826
828.02	25514
828.159	25620
828.298	25681
828.437	25685
828.577	25643
828.716	25811
828.855	25499
828.994	25350
829.134	25445
829.273	25514
829.412	25468
829.551	25422
829.69	25331
829.829	25350
829.968	25556
830.107	25552
830.246	25381
830.385	25301
830.524	25350
830.663	25209
830.802	25152
830.941	25126
831.08	25069
831.219	25091
831.357	25084
831.496	25289
831.635	25061
831.774	24989
831.913	24897
832.051	24711
832.19	24916
832.329	24992
832.467	24642
832.606	24700
832.744	24646
832.883	24738
833.022	24597
833.16	24783
833.299	24688
833.437	24738
833.576	24745
833.714	24920
833.852	24700
833.991	24905
834.129	24905
834.267	24753
834.406	24707
834.544	24985
834.682	24776
834.821	24745
834.959	24878
835.097	24681
835.235	24688
835.373	24749
835.511	24661
835.65	24551
835.788	24677
835.926	24410
836.064	24486
836.202	24296
836.34	24494
836.478	24806
836.615	24635
836.753	24426
836.891	24700
837.029	24688
837.167	24566
837.305	24505
837.443	24357
837.58	24323
837.718	24479
837.856	24357
837.993	24273
838.131	24407
838.269	24376
838.406	24342
838.544	24228
838.681	24167
838.819	23988
838.956	23874
839.094	23813
839.231	23958
839.369	24064
839.506	24251
839.643	24076
839.781	23912
839.918	23904
840.055	23866
840.193	23851
840.33	23786
840.467	23756
840.604	23828
840.742	24087
840.879	23684
841.016	23665
841.153	23687
841.29	23977
841.427	23923
841.564	23695
841.701	23779
841.838	23836
841.975	23589
842.112	23581
842.249	23623
842.385	23608
842.522	23570
842.659	23657
842.796	23577
842.933	23505
843.069	23452
843.206	23509
843.343	23627
843.479	23482
843.616	23566
843.752	23318
843.889	23379
844.025	23452
844.162	23402
844.298	23417
844.435	23303
844.571	23200
844.708	23315
844.844	23467
844.98	23330
845.117	23547
845.253	23322
845.389	23284
845.525	23159
845.661	23121
845.798	23060
845.934	22991
846.07	23079
846.206	23102
846.342	23181
846.478	23048
846.614	22809
846.75	22820
846.886	22717
847.022	22786
847.158	22790
847.294	22653
847.429	22831
847.565	22892
847.701	23022
847.837	22573
847.972	22455
848.108	22603
848.244	22535
848.379	22443
848.515	22451
848.65	22215
848.786	22333
848.921	22344
849.057	22367
849.192	22561
849.328	22356
849.463	22413
849.598	22329
849.734	22276
849.869	22211
850.004	22181
850.14	22150
850.275	22105
850.41	22086
850.545	22078
850.68	22025
850.815	22158
850.95	22109
851.085	22329
851.22	22329
851.355	22044
851.49	22090
851.625	22192
851.76	22070
851.895	22139
852.03	21994
852.165	22139
852.299	22207
852.434	22295
852.569	22223
852.703	22147
852.838	22192
852.973	22230
853.107	22253
853.242	21915
853.376	21991
853.511	21842
853.645	21812
853.78	22029
853.914	21968
854.048	21911
854.183	21888
854.317	22131
854.451	22105
854.585	21941
854.72	21892
854.854	22021
854.988	21804
855.122	21945
855.256	21819
855.39	22006
855.524	21937
855.658	21998
855.792	21983
855.926	22025
856.06	21987
856.194	22143
856.327	21816
856.461	21812
856.595	21854
856.729	21998
856.862	22067
856.996	22017
857.13	21926
857.263	22021
857.397	21994
857.53	21873
857.664	21975
857.797	22029
857.931	22036
858.064	22017
858.197	22143
858.331	21972
858.464	21766
858.597	21793
858.731	21865
858.864	22044
858.997	21915
859.13	21915
859.263	21991
859.396	21873
859.529	21926
859.662	21922
859.795	21998
859.928	21964
860.061	22055
860.194	22246
860.327	22029
860.46	22067
860.592	22055
860.725	22147
860.858	22124
860.99	21915
861.123	21846
861.256	21922
861.388	21915
861.521	22710
861.653	21854
861.786	21770
861.918	21663
862.05	21854
862.183	21850
862.315	21903
862.447	21899
862.58	21892
862.712	21618
862.844	21633
862.976	21789
863.108	21660
863.24	22013
863.372	21682
863.504	21709
863.636	21603
863.768	21743
863.9	21717
864.032	21481
864.164	21591
864.296	21720
864.428	21713
864.559	21793
864.691	21671
864.823	21660
864.954	21682
865.086	21663
865.217	21545
865.349	21511
865.48	21587
865.612	21515
865.743	21610
865.875	21663
866.006	21485
866.137	21599
866.269	21599
866.4	21583
866.531	21504
866.662	21466
866.793	21523
866.924	21473
867.055	21507
867.186	21568
867.317	21469
867.448	21454
867.579	21473
867.71	21363
867.841	21355
867.972	21504
868.103	21500
868.233	21477
868.364	21515
868.495	21603
868.625	21694
868.756	21861
868.886	21545
869.017	21732
869.147	21880
869.278	21911
869.408	21854
869.539	21675
869.669	21819
869.799	21800
869.929	21895
870.06	21918
870.19	22105
870.32	22017
870.45	22242
870.58	22135
870.71	22261
870.84	22246
870.97	22185
871.1	22177
871.23	22314
871.36	22382
871.489	22299
871.619	22341
871.749	22303
871.879	22322
872.008	22443
872.138	22337
872.267	22246
872.397	22249
872.526	22162
872.656	22188
872.785	22200
872.915	22382
873.044	22489
873.173	22421
873.303	22398
873.432	22413
873.561	22436
873.69	22428
873.819	22382
873.948	22512
874.077	22238
874.206	22318
874.335	22398
874.464	22542
874.593	22569
874.722	22588
874.851	22424
874.979	22668
875.108	22561
875.237	22466
875.365	22432
875.494	22565
875.623	22569
875.751	22508
875.88	22500
876.008	22763
876.136	22740
876.265	22892
876.393	23033
876.521	22995
876.65	23143
876.778	22961
876.906	22881
877.034	22828
877.162	22892
877.29	22812
877.418	22908
877.546	22980
877.674	23010
877.802	22850
877.93	23010
878.058	22774
878.185	22759
878.313	22850
878.441	22968
878.568	22744
878.696	22812
878.824	22911
878.951	22850
879.079	23060
879.206	23227
879.333	23071
879.461	22991
879.588	23048
879.715	23075
879.842	23178
879.97	22934
880.097	22843
880.224	22607
880.351	22729
880.478	22679
880.605	22710
880.732	22706
880.859	22930
880.986	22691
881.112	22763
881.239	22569
881.366	22481
881.493	22382
881.619	22284
881.746	22363
881.872	22287
881.999	22287
882.125	22413
882.252	22356
882.378	22352
882.505	22386
882.631	22192
882.757	21911
882.883	22067
883.01	22044
883.136	21968
883.262	21808
883.388	21785
883.514	21998
883.64	21880
883.766	21804
883.892	21713
884.018	21861
884.143	21945
884.269	22040
884.395	21679
884.52	21701
884.646	21587
884.772	21576
884.897	21511
885.023	21538
885.148	21675
885.274	21800
885.399	21675
885.524	21599
885.65	21751
885.775	21656
885.9	21686
886.025	21660
886.15	21698
886.275	21614
886.4	21500
886.525	21652
886.65	21622
886.775	21477
886.9	21800
887.025	21762
887.149	21568
887.274	21283
887.399	21431
887.523	21408
887.648	21466
887.773	21302
887.897	21424
888.021	21397
888.146	21344
888.27	21523
888.395	21481
888.519	21492
888.643	21469
888.767	21481
888.891	21424
889.015	21233
889.139	21241
889.263	21096
889.387	21306
889.511	21393
889.635	21393
889.759	21192
889.883	21165
890.006	21241
890.13	21252
890.254	21154
890.377	21062
890.501	20967
890.624	20910
890.748	20910
890.871	20830
890.995	20644
891.118	20648
891.241	20857
891.364	20781
891.488	20933
891.611	20807
891.734	20746
891.857	20785
891.98	20811
892.103	20830
892.226	20663
892.349	20689
892.471	20522
892.594	20602
892.717	20651
892.839	20636
892.962	20606
893.085	20606
893.207	20617
893.33	20632
893.452	20484
893.575	20659
893.697	20594
893.819	20731
893.941	20769
894.064	20629
894.186	20476
894.308	20560
894.43	20765
894.552	20716
894.674	20815
894.796	20427
894.918	20689
895.04	20503
895.161	20655
895.283	20571
895.405	20514
895.526	20678
895.648	20659
895.769	20678
895.891	20701
896.012	20746
896.134	20514
896.255	20503
896.376	20590
896.498	20609
896.619	20625
896.74	20731
896.861	20765
896.982	20872
897.103	21085
897.224	20845
897.345	20815
897.466	20708
897.587	20864
897.708	20914
897.828	20773
897.949	20861
898.07	20670
898.19	20807
898.311	20876
898.431	20765
898.552	20861
898.672	20971
898.792	20880
898.913	20826
899.033	20720
899.153	20606
899.273	20366
899.393	20598
899.513	20613
899.633	20625
899.753	20606
899.873	20537
899.993	20549
900.113	20465
900.232	20636
900.352	20377
900.472	20374
900.591	20332
900.711	20381
900.83	20233
900.95	20412
901.069	20396
901.189	20176
901.308	20050
901.427	19845
901.546	19955
901.665	20005
901.784	19921
901.904	19845
902.023	19567
902.141	19514
902.26	19445
902.379	19510
902.498	19411
902.617	19187
902.735	19388
902.854	19472
902.973	19263
903.091	19190
903.21	19095
903.328	18970
903.446	19057
903.565	18943
903.683	18817
903.801	18837
903.919	18673
904.038	18878
904.156	18719
904.274	18757
904.392	18642
904.51	18536
904.627	18608
904.745	18631
904.863	18669
904.981	18433
905.098	18334
905.216	18281
905.334	18247
905.451	18369
905.569	18289
905.686	18384
905.803	18308
905.921	18205
906.038	18258
906.155	18174
906.272	18072
906.389	18030
906.506	17946
906.623	17904
906.74	17923
906.857	17809
906.974	17646
907.091	17870
907.208	18003
907.324	17908
907.441	17790
907.557	17695
907.674	17573
907.79	17398
907.907	17509
908.023	17665
908.139	17547
908.256	17467
908.372	17436
908.488	17364
908.604	17242
908.72	17261
908.836	17315
908.952	17227
909.068	17280
909.184	17322
909.3	17269
909.415	17414
909.531	17277
909.647	17022
909.762	17033
909.878	16900
909.993	17048
910.108	16850
910.224	16938
910.339	16854
910.454	16915
910.57	16809
910.685	16816
910.8	17006
910.915	16866
911.03	16858
911.145	16561
911.259	16516
911.374	16637
911.489	16371
911.604	16531
911.718	16299
911.833	16287
911.947	16219
912.062	16112
912.176	16303
912.291	16276
912.405	16230
912.519	16489
912.633	16470
912.748	16303
912.862	16299
912.976	16051
913.09	16017
913.204	16032
913.318	16059
913.431	16253
913.545	16200
913.659	16139
913.772	16036
913.886	15930
914	15922
914.113	16097
914.226	16025
914.34	15968
914.453	15766
914.566	15930
914.68	15838
914.793	15732
914.906	15534
915.019	15580
915.132	15439
915.245	15500
915.358	15473
915.47	15469
915.583	15511
915.696	15504
915.809	15625
915.921	15682
916.034	15348
916.146	15336
916.259	15332
916.371	15435
916.483	15458
916.595	15313
916.708	15359
916.82	15348
916.932	15332
917.044	15389
917.156	15195
917.268	15104
917.38	15199
917.491	15104
917.603	15169
917.715	15169
917.826	15154
917.938	15176
918.049	15009
918.161	15028
918.272	15199
918.384	15135
918.495	15039
918.606	14929
918.717	14887
918.828	14868
918.939	15001
919.05	14868
919.161	14906
919.272	14727
919.383	14689
919.494	14883
919.604	15131
919.715	14857
919.826	14781
919.936	14796
920.047	14986
920.157	14849
920.267	15013
920.378	14937
920.488	14826
920.598	15005
920.708	15116
920.818	14918
920.928	14979
921.038	15218
921.148	15104
921.258	14849
921.368	14693
921.477	14598
921.587	14434
921.697	14457
921.806	14644
921.916	14431
922.025	14301
922.134	14145
922.244	14115
922.353	14252
922.462	14027
922.571	14058
922.68	13940
922.789	13868
922.898	13845
923.007	13864
923.116	13898
923.224	13841
923.333	13883
923.442	13738
923.55	13704
923.659	13681
923.767	13727
923.876	13632
923.984	13761
924.092	13483
924.201	13537
924.309	13559
924.417	13651
924.525	13495
924.633	13518
924.741	14282
924.849	13324
924.956	13468
925.064	13324
925.172	13175
925.279	13255
925.387	13293
925.494	13244
925.602	13384
925.709	13240
925.816	13141
925.924	13251
926.031	13327
926.138	13202
926.245	13270
926.352	13095
926.459	13289
926.566	13232
926.673	13183
926.779	13023
926.886	12962
926.993	12875
927.099	12867
927.206	12753
927.312	12688
927.419	12859
927.525	12764
927.631	12798
927.737	12772
927.843	12574
927.95	12544
928.056	12692
928.162	12658
928.267	12635
928.373	13255
928.479	12688
928.585	12479
928.69	12566
928.796	12654
928.901	12422
929.007	12330
929.112	12414
929.218	12460
929.323	12372
929.428	12342
929.533	12471
929.638	12235
929.743	12216
929.848	12273
929.953	12285
930.058	12148
930.163	12026
930.267	12045
930.372	12171
930.477	11843
930.581	12209
930.685	12121
930.79	11878
930.894	11980
930.998	11878
931.103	11988
931.207	11668
931.311	11478
931.415	11467
931.519	11269
931.623	11193
