Data from test_V78500241_1943.txt Node
Date: Fri Mar 25 15:23:23 CST 2022
User: usil
Spectrometer: V785-0024
Trigger mode: 0
Integration Time (sec): 4.000000E-1
Scans to average: 1
Nonlinearity correction enabled: false
Boxcar width: 0
Storing dark spectrum: false
XAxis mode: Wavelengths
Number of Pixels in Spectrum: 1024
>>>>>Begin Spectral Data<<<<<
801.071	27660
801.214	27572
801.356	27405
801.499	27344
801.641	27207
801.783	27047
801.926	27351
802.068	27184
802.211	27199
802.353	27047
802.496	26899
802.638	26773
802.78	26940
802.923	26686
803.065	26716
803.208	26773
803.35	26845
803.492	26899
803.635	27020
803.777	26948
803.919	27070
804.061	27408
804.204	27093
804.346	27024
804.488	27039
804.63	27024
804.773	27017
804.915	26982
805.057	27119
805.199	27058
805.341	27264
805.483	27203
805.626	27104
805.768	27089
805.91	27169
806.052	27165
806.194	27096
806.336	27310
806.478	27104
806.62	27268
806.762	27230
806.904	27488
807.046	27652
807.188	27583
807.33	27420
807.472	27515
807.614	27443
807.756	27542
807.898	27401
808.04	27359
808.182	27214
808.324	27363
808.465	27473
808.607	27694
808.749	27774
808.891	27918
809.033	27846
809.174	27850
809.316	27591
809.458	27717
809.6	27720
809.741	27816
809.883	27907
810.025	27994
810.166	28234
810.308	27972
810.45	27945
810.591	27876
810.733	27884
810.875	27728
811.016	27523
811.158	27599
811.299	27827
811.441	27918
811.582	27770
811.724	27660
811.865	27827
812.007	27835
812.148	27797
812.29	27781
812.431	28044
812.573	28078
812.714	28234
812.855	28249
812.997	28394
813.138	28569
813.279	28512
813.421	28306
813.562	28207
813.703	28154
813.845	28006
813.986	27633
814.127	27526
814.268	27473
814.41	27397
814.551	27416
814.692	27405
814.833	27382
814.974	27359
815.115	27355
815.256	27462
815.397	27272
815.539	27241
815.68	27184
815.821	27207
815.962	27298
816.103	27252
816.244	27013
816.385	27081
816.526	26998
816.666	26785
816.807	26823
816.948	26838
817.089	26727
817.23	26758
817.371	26925
817.512	26807
817.653	26644
817.793	26564
817.934	26613
818.075	26705
818.216	26678
818.356	26659
818.497	26533
818.638	26514
818.778	26507
818.919	26488
819.06	26457
819.2	26564
819.341	26602
819.481	26708
819.622	26880
819.762	27096
819.903	26861
820.043	26861
820.184	26883
820.324	26845
820.465	26921
820.605	26705
820.746	26788
820.886	26693
821.026	26979
821.167	26674
821.307	26872
821.447	26720
821.588	26621
821.728	26484
821.868	26313
822.008	26187
822.149	26233
822.289	26092
822.429	26008
822.569	25803
822.709	25849
822.849	25616
822.99	25693
823.13	25571
823.27	25723
823.41	25586
823.55	25510
823.69	25495
823.83	25624
823.97	25415
824.11	25403
824.25	25225
824.389	25293
824.529	25335
824.669	25320
824.809	25468
824.949	25377
825.089	25419
825.228	25221
825.368	25304
825.508	25179
825.648	25095
825.787	25228
825.927	25411
826.067	25183
826.206	25107
826.346	25221
826.485	25289
826.625	25088
826.765	25285
826.904	25392
827.044	25042
827.183	25034
827.323	24810
827.462	25042
827.601	24977
827.741	24852
827.88	24905
828.02	24753
828.159	24711
828.298	24894
828.437	24943
828.577	24840
828.716	24954
828.855	24711
828.994	24703
829.134	24745
829.273	24700
829.412	24612
829.551	24585
829.69	24429
829.829	24677
829.968	24673
830.107	24650
830.246	24673
830.385	24658
830.524	24433
830.663	24452
830.802	24388
830.941	24190
831.08	24334
831.219	24350
831.357	24441
831.496	24467
831.635	24334
831.774	24174
831.913	24163
832.051	24076
832.19	24102
832.329	24079
832.467	23927
832.606	23813
832.744	23824
832.883	23851
833.022	23939
833.16	23870
833.299	23973
833.437	23965
833.576	24129
833.714	23935
833.852	24034
833.991	23992
834.129	24026
834.267	23965
834.406	23923
834.544	24106
834.682	23939
834.821	23980
834.959	24163
835.097	23973
835.235	24026
835.373	24022
835.511	23980
835.65	23695
835.788	23771
835.926	23752
836.064	23672
836.202	23474
836.34	23805
836.478	23961
836.615	23783
836.753	23767
836.891	23745
837.029	23821
837.167	23802
837.305	23718
837.443	23661
837.58	23703
837.718	23790
837.856	23634
837.993	23638
838.131	23619
838.269	23528
838.406	23551
838.544	23383
838.681	23242
838.819	23334
838.956	23159
839.094	23181
839.231	23364
839.369	23383
839.506	23554
839.643	23341
839.781	23212
839.918	23121
840.055	23105
840.193	23075
840.33	22942
840.467	23056
840.604	23181
840.742	23265
840.879	22854
841.016	22968
841.153	22972
841.29	23067
841.427	23048
841.564	23037
841.701	23029
841.838	23022
841.975	22843
842.112	22896
842.249	22869
842.385	22744
842.522	22991
842.659	22957
842.796	22850
842.933	22824
843.069	22820
843.206	22729
843.343	22892
843.479	22904
843.616	22843
843.752	22573
843.889	22565
844.025	22710
844.162	22561
844.298	22675
844.435	22580
844.571	22611
844.708	22622
844.844	22721
844.98	22675
845.117	22698
845.253	22447
845.389	22432
845.525	22504
845.661	22348
845.798	22177
845.934	22390
846.07	22238
846.206	22234
846.342	22291
846.478	22249
846.614	22044
846.75	22109
846.886	22059
847.022	22162
847.158	22029
847.294	22078
847.429	22059
847.565	22253
847.701	22219
847.837	21854
847.972	21804
848.108	21903
848.244	21869
848.379	21637
848.515	21720
848.65	21553
848.786	21587
848.921	21625
849.057	21625
849.192	21724
849.328	21762
849.463	21469
849.598	21622
849.734	21564
849.869	21507
850.004	21412
850.14	21492
850.275	21382
850.41	21428
850.545	21317
850.68	21340
850.815	21416
850.95	21435
851.085	21751
851.22	21526
851.355	21481
851.49	21329
851.625	21336
851.76	21397
851.895	21382
852.03	21336
852.165	21355
852.299	21504
852.434	21542
852.569	21386
852.703	21363
852.838	21439
852.973	21496
853.107	21534
853.242	21397
853.376	21275
853.511	21123
853.645	21176
853.78	21340
853.914	21195
854.048	21176
854.183	21317
854.317	21317
854.451	21424
854.585	21138
854.72	21085
854.854	21340
854.988	21123
855.122	21131
855.256	21203
855.39	21100
855.524	21256
855.658	21279
855.792	21211
855.926	21211
856.06	21226
856.194	21135
856.327	21256
856.461	21222
856.595	21096
856.729	21279
856.862	21355
856.996	21268
857.13	21298
857.263	21466
857.397	21329
857.53	21199
857.664	21245
857.797	21222
857.931	21386
858.064	21180
858.197	21302
858.331	21287
858.464	21203
858.597	21165
858.731	21203
858.864	21195
858.997	21222
859.13	21192
859.263	21165
859.396	21329
859.529	21127
859.662	21169
859.795	21264
859.928	21146
860.061	21367
860.194	21473
860.327	21249
860.46	21306
860.592	21192
860.725	21378
860.858	21355
860.99	21195
861.123	21222
861.256	21184
861.388	21207
861.521	21880
861.653	21116
861.786	21058
861.918	21142
862.05	21180
862.183	21047
862.315	21135
862.447	21131
862.58	21119
862.712	20956
862.844	20925
862.976	21127
863.108	21039
863.24	21466
863.372	20853
863.504	20982
863.636	20944
863.768	20967
863.9	20929
864.032	20948
864.164	20967
864.296	20990
864.428	20956
864.559	20933
864.691	21066
864.823	20986
864.954	20971
865.086	20891
865.217	20960
865.349	20838
865.48	20895
865.612	20781
865.743	20933
865.875	20880
866.006	20819
866.137	20933
866.269	20811
866.4	20769
866.531	20807
866.662	20705
866.793	20746
866.924	20830
867.055	20834
867.186	20746
867.317	20845
867.448	20667
867.579	20705
867.71	20655
867.841	20670
867.972	20807
868.103	20735
868.233	20720
868.364	20735
868.495	20906
868.625	21058
868.756	20971
868.886	20960
869.017	20960
869.147	21157
869.278	21131
869.408	21017
869.539	21142
869.669	21081
869.799	21062
869.929	21207
870.06	21116
870.19	21252
870.32	21332
870.45	21332
870.58	21256
870.71	21553
870.84	21428
870.97	21332
871.1	21431
871.23	21583
871.36	21496
871.489	21454
871.619	21709
871.749	21599
871.879	21625
872.008	21667
872.138	21618
872.267	21599
872.397	21469
872.526	21496
872.656	21439
872.785	21523
872.915	21561
873.044	21686
873.173	21641
873.303	21648
873.432	21694
873.561	21781
873.69	21648
873.819	21663
873.948	21675
874.077	21785
874.206	21511
874.335	21530
874.464	21781
874.593	21880
874.722	21789
874.851	21876
874.979	21835
875.108	21865
875.237	21876
875.365	21800
875.494	21747
875.623	21873
875.751	21766
875.88	21819
876.008	22032
876.136	22128
876.265	22299
876.393	22268
876.521	22314
876.65	22405
876.778	22249
876.906	22242
877.034	22204
877.162	22230
877.29	22185
877.418	22112
877.546	22207
877.674	22196
877.802	22352
877.93	22291
878.058	22029
878.185	22082
878.313	22204
878.441	22154
878.568	22040
878.696	22246
878.824	22265
878.951	22375
879.079	22352
879.206	22440
879.333	22268
879.461	22181
879.588	22207
879.715	22261
879.842	22405
879.97	22318
880.097	22185
880.224	22006
880.351	22032
880.478	22021
880.605	22078
880.732	22078
880.859	22211
880.986	21907
881.112	21983
881.239	21911
881.366	21789
881.493	21804
881.619	21595
881.746	21561
881.872	21686
881.999	21610
882.125	21485
882.252	21576
882.378	21504
882.505	21743
882.631	21424
882.757	21367
882.883	21363
883.01	21344
883.136	21275
883.262	21161
883.388	21009
883.514	21306
883.64	21416
883.766	21249
883.892	21116
884.018	21112
884.143	21195
884.269	21321
884.395	21112
884.52	20785
884.646	20918
884.772	20925
884.897	20830
885.023	20971
885.148	21036
885.274	21154
885.399	20944
885.524	20872
885.65	20956
885.775	20967
885.9	20994
886.025	21089
886.15	21028
886.275	20823
886.4	20842
886.525	20933
886.65	20746
886.775	20891
886.9	21127
887.025	21176
887.149	20986
887.274	20731
887.399	20686
887.523	20735
887.648	20689
887.773	20682
887.897	20914
888.021	20682
888.146	20705
888.27	20762
888.395	20815
888.519	20705
888.643	20724
888.767	20674
888.891	20609
889.015	20545
889.139	20663
889.263	20446
889.387	20583
889.511	20686
889.635	20636
889.759	20518
889.883	20556
890.006	20522
890.13	20693
890.254	20446
890.377	20374
890.501	20240
890.624	20214
890.748	20324
890.871	20107
890.995	20122
891.118	19993
891.241	20069
891.364	20081
891.488	20221
891.611	20149
891.734	20031
891.857	20100
891.98	20100
892.103	20126
892.226	19947
892.349	20092
892.471	19890
892.594	20084
892.717	20046
892.839	19940
892.962	20081
893.085	20039
893.207	19993
893.33	19791
893.452	19974
893.575	19986
893.697	19936
893.819	20088
893.941	20176
894.064	20161
894.186	19913
894.308	19921
894.43	20100
894.552	20229
894.674	20107
894.796	19955
894.918	19970
895.04	19845
895.161	19955
895.283	20027
895.405	19868
895.526	19970
895.648	20027
895.769	20046
895.891	20020
896.012	20103
896.134	19959
896.255	19989
896.376	19940
896.498	19967
896.619	20043
896.74	20092
896.861	20001
896.982	20225
897.103	20533
897.224	20389
897.345	20259
897.466	20115
897.587	20065
897.708	20408
897.828	20271
897.949	20168
898.07	20050
898.19	20046
898.311	20305
898.431	20168
898.552	20199
898.672	20286
898.792	20377
898.913	20210
899.033	20172
899.153	20096
899.273	19993
899.393	20001
899.513	19925
899.633	19879
899.753	19879
899.873	19921
899.993	19989
900.113	19936
900.232	19932
900.352	19856
900.472	19807
900.591	19803
900.711	19898
900.83	19727
900.95	19852
901.069	19772
901.189	19750
901.308	19457
901.427	19206
901.546	19358
901.665	19369
901.784	19354
901.904	19072
902.023	19019
902.141	18882
902.26	18909
902.379	18738
902.498	18844
902.617	18817
902.735	19015
902.854	18745
902.973	18768
903.091	18585
903.21	18475
903.328	18471
903.446	18437
903.565	18311
903.683	18372
903.801	18232
903.919	18384
904.038	18254
904.156	18155
904.274	18095
904.392	17984
904.51	18114
904.627	18038
904.745	18155
904.863	18121
904.981	17954
905.098	17775
905.216	17813
905.334	17824
905.451	17684
905.569	17661
905.686	17828
905.803	17680
905.921	17573
906.038	17646
906.155	17695
906.272	17406
906.389	17379
906.506	17379
906.623	17372
906.74	17341
906.857	17288
906.974	17064
907.091	17376
907.208	17387
907.324	17296
907.441	17235
907.557	17140
907.674	17079
907.79	17010
907.907	16934
908.023	17022
908.139	17022
908.256	16980
908.372	16930
908.488	16885
908.604	16717
908.72	16729
908.836	16702
908.952	16767
909.068	16831
909.184	16809
909.3	16717
909.415	16778
909.531	16656
909.647	16504
909.762	16455
909.878	16386
909.993	16474
910.108	16432
910.224	16398
910.339	16379
910.454	16295
910.57	16280
910.685	16207
910.8	16466
910.915	16398
911.03	16230
911.145	16086
911.259	16093
911.374	15998
911.489	16021
911.604	15991
911.718	15903
911.833	15766
911.947	15812
912.062	15614
912.176	15762
912.291	15751
912.405	15804
912.519	15968
912.633	15922
912.748	15895
912.862	15819
912.976	15606
913.09	15534
913.204	15568
913.318	15519
913.431	15599
913.545	15682
913.659	15717
913.772	15629
913.886	15492
914	15393
914.113	15545
914.226	15511
914.34	15393
914.453	15336
914.566	15545
914.68	15310
914.793	15329
914.906	15081
915.019	15070
915.132	15001
915.245	14967
915.358	14971
915.47	14979
915.583	15085
915.696	15024
915.809	15055
915.921	15116
916.034	14948
916.146	14925
916.259	14902
916.371	14986
916.483	14941
916.595	14902
916.708	14853
916.82	14849
916.932	14807
917.044	14830
917.156	14686
917.268	14632
917.38	14613
917.491	14678
917.603	14724
917.715	14697
917.826	14735
917.938	14598
918.049	14438
918.161	14606
918.272	14845
918.384	14689
918.495	14610
918.606	14358
918.717	14362
918.828	14522
918.939	14537
919.05	14298
919.161	14351
919.272	14240
919.383	14134
919.494	14408
919.604	14640
919.715	14309
919.826	14286
919.936	14415
920.047	14454
920.157	14492
920.267	14602
920.378	14374
920.488	14339
920.598	14526
920.708	14686
920.818	14575
920.928	14507
921.038	14651
921.148	14545
921.258	14339
921.368	14180
921.477	14130
921.587	14161
921.697	13986
921.806	14168
921.916	13932
922.025	13852
922.134	13849
922.244	13689
922.353	13727
922.462	13651
922.571	13605
922.68	13415
922.789	13438
922.898	13426
923.007	13362
923.116	13449
923.224	13426
923.333	13362
923.442	13251
923.55	13221
923.659	13209
923.767	13369
923.876	13187
923.984	13251
924.092	13149
924.201	13263
924.309	13149
924.417	13107
924.525	13069
924.633	13080
924.741	14031
924.849	12916
924.956	13027
925.064	12897
925.172	12776
925.279	12772
925.387	12882
925.494	12840
925.602	12886
925.709	12878
925.816	12688
925.924	12875
926.031	12875
926.138	12810
926.245	12852
926.352	12627
926.459	12817
926.566	12916
926.673	12703
926.779	12612
926.886	12578
926.993	12407
927.099	12486
927.206	12365
927.312	12479
927.419	12437
927.525	12399
927.631	12464
927.737	12323
927.843	12300
927.95	12148
928.056	12216
928.162	12277
928.267	12292
928.373	12817
928.479	12262
928.585	12079
928.69	12197
928.796	12205
928.901	12072
929.007	11977
929.112	12011
929.218	12076
929.323	12049
929.428	11923
929.533	12102
929.638	11969
929.743	11908
929.848	11984
929.953	11912
930.058	11790
930.163	11634
930.267	11638
930.372	11863
930.477	11608
930.581	11783
930.685	11680
930.79	11512
930.894	11558
930.998	11516
931.103	11684
931.207	11402
931.311	11220
931.415	11094
931.519	10946
931.623	10934
