Data from test_V78500241_947.txt Node
Date: Fri Mar 25 15:16:27 CST 2022
User: usil
Spectrometer: V785-0024
Trigger mode: 0
Integration Time (sec): 4.000000E-1
Scans to average: 1
Nonlinearity correction enabled: false
Boxcar width: 0
Storing dark spectrum: false
XAxis mode: Wavelengths
Number of Pixels in Spectrum: 1024
>>>>>Begin Spectral Data<<<<<
801.071	27865
801.214	27842
801.356	27603
801.499	27538
801.641	27553
801.783	27511
801.926	27424
802.068	27405
802.211	27431
802.353	27530
802.496	27161
802.638	27104
802.78	27123
802.923	27119
803.065	27055
803.208	27058
803.35	27192
803.492	27321
803.635	27173
803.777	27279
803.919	27298
804.061	27690
804.204	27313
804.346	27329
804.488	27230
804.63	27397
804.773	27268
804.915	27473
805.057	27408
805.199	27230
805.341	27530
805.483	27477
805.626	27427
805.768	27306
805.91	27378
806.052	27431
806.194	27389
806.336	27557
806.478	27519
806.62	27519
806.762	27595
806.904	27720
807.046	28002
807.188	27979
807.33	27876
807.472	27945
807.614	27804
807.756	27873
807.898	27816
808.04	27785
808.182	27660
808.324	27728
808.465	27831
808.607	28002
808.749	28150
808.891	27991
809.033	28291
809.174	28173
809.316	27979
809.458	28200
809.6	28029
809.741	28181
809.883	28192
810.025	28360
810.166	28287
810.308	28306
810.45	28360
810.591	28287
810.733	28284
810.875	28158
811.016	28051
811.158	27972
811.299	28150
811.441	28306
811.582	28314
811.724	28120
811.865	28063
812.007	28166
812.148	28196
812.29	28131
812.431	28211
812.573	28436
812.714	28485
812.855	28588
812.997	28668
813.138	28858
813.279	28919
813.421	28790
813.562	28557
813.703	28352
813.845	28363
813.986	28131
814.127	27880
814.268	27869
814.41	27808
814.551	27728
814.692	27781
814.833	27781
814.974	27774
815.115	27838
815.256	27610
815.397	27690
815.539	27835
815.68	27633
815.821	27542
815.962	27652
816.103	27675
816.244	27500
816.385	27523
816.526	27367
816.666	27165
816.807	27089
816.948	27192
817.089	27317
817.23	27287
817.371	27131
817.512	27123
817.653	27173
817.793	27123
817.934	27108
818.075	27157
818.216	27173
818.356	26967
818.497	26940
818.638	26933
818.778	26910
818.919	26963
819.06	26800
819.2	27081
819.341	27013
819.481	27028
819.622	27230
819.762	27435
819.903	27427
820.043	27233
820.184	27332
820.324	27291
820.465	27325
820.605	27165
820.746	27222
820.886	26994
821.026	27214
821.167	27169
821.307	27321
821.447	27112
821.588	27081
821.728	26998
821.868	26758
822.008	26735
822.149	26598
822.289	26476
822.429	26450
822.569	26206
822.709	26332
822.849	26164
822.99	26153
823.13	26058
823.27	25997
823.41	25913
823.55	25734
823.69	26062
823.83	25913
823.97	25780
824.11	25635
824.25	25674
824.389	25704
824.529	25841
824.669	25864
824.809	25860
824.949	25849
825.089	25788
825.228	25795
825.368	25525
825.508	25670
825.648	25708
825.787	25708
825.927	25624
826.067	25693
826.206	25578
826.346	25670
826.485	25693
826.625	25651
826.765	25757
826.904	25651
827.044	25384
827.183	25297
827.323	25369
827.462	25502
827.601	25225
827.741	25343
827.88	25430
828.02	25225
828.159	25285
828.298	25343
828.437	25495
828.577	25255
828.716	25419
828.855	25324
828.994	25091
829.134	25122
829.273	24989
829.412	25038
829.551	25019
829.69	25110
829.829	25145
829.968	25183
830.107	25099
830.246	25072
830.385	25122
830.524	24905
830.663	24802
830.802	24802
830.941	24791
831.08	24597
831.219	24810
831.357	24597
831.496	24833
831.635	24642
831.774	24578
831.913	24536
832.051	24479
832.19	24559
832.329	24456
832.467	24353
832.606	24205
832.744	24414
832.883	24372
833.022	24300
833.16	24300
833.299	24490
833.437	24311
833.576	24388
833.714	24353
833.852	24460
833.991	24376
834.129	24547
834.267	24509
834.406	24441
834.544	24422
834.682	24384
834.821	24254
834.959	24559
835.097	24372
835.235	24460
835.373	24372
835.511	24395
835.65	24197
835.788	24190
835.926	24057
836.064	24034
836.202	24018
836.34	24357
836.478	24220
836.615	24091
836.753	24232
836.891	24228
837.029	24159
837.167	24083
837.305	24194
837.443	24129
837.58	24121
837.718	24239
837.856	24022
837.993	24030
838.131	24095
838.269	23908
838.406	23908
838.544	23866
838.681	23828
838.819	23630
838.956	23558
839.094	23520
839.231	23581
839.369	23733
839.506	23798
839.643	23824
839.781	23547
839.918	23482
840.055	23665
840.193	23505
840.33	23474
840.467	23379
840.604	23520
840.742	23756
840.879	23391
841.016	23433
841.153	23360
841.29	23452
841.427	23482
841.564	23520
841.701	23528
841.838	23577
841.975	23364
842.112	23318
842.249	23322
842.385	23216
842.522	23395
842.659	23147
842.796	23284
842.933	23242
843.069	23185
843.206	23204
843.343	23356
843.479	23334
843.616	23212
843.752	22885
843.889	23064
844.025	23113
844.162	23003
844.298	23117
844.435	22949
844.571	22949
844.708	22984
844.844	23060
844.98	23025
845.117	23109
845.253	23022
845.389	22771
845.525	23025
845.661	22873
845.798	22759
845.934	22816
846.07	22752
846.206	22736
846.342	22896
846.478	22683
846.614	22569
846.75	22424
846.886	22398
847.022	22535
847.158	22557
847.294	22451
847.429	22485
847.565	22497
847.701	22626
847.837	22303
847.972	22242
848.108	22291
848.244	22242
848.379	22086
848.515	22059
848.65	22169
848.786	22070
848.921	22139
849.057	22093
849.192	22253
849.328	22093
849.463	22067
849.598	21960
849.734	21949
849.869	21903
850.004	21720
850.14	21903
850.275	21895
850.41	21625
850.545	21789
850.68	21709
850.815	21854
850.95	21793
851.085	22048
851.22	21911
851.355	21945
851.49	21713
851.625	21667
851.76	21827
851.895	21793
852.03	21827
852.165	21766
852.299	21838
852.434	21816
852.569	21880
852.703	21930
852.838	21930
852.973	21880
853.107	21941
853.242	21690
853.376	21671
853.511	21587
853.645	21610
853.78	21690
853.914	21686
854.048	21603
854.183	21698
854.317	21694
854.451	21747
854.585	21667
854.72	21606
854.854	21637
854.988	21671
855.122	21797
855.256	21519
855.39	21652
855.524	21720
855.658	21709
855.792	21698
855.926	21633
856.06	21778
856.194	21728
856.327	21667
856.461	21587
856.595	21663
856.729	21671
856.862	21736
856.996	21618
857.13	21679
857.263	21739
857.397	21717
857.53	21633
857.664	21595
857.797	21751
857.931	21747
858.064	21614
858.197	21759
858.331	21576
858.464	21526
858.597	21530
858.731	21656
858.864	21667
858.997	21572
859.13	21660
859.263	21698
859.396	21747
859.529	21637
859.662	21648
859.795	21671
859.928	21587
860.061	21690
860.194	21812
860.327	21709
860.46	21648
860.592	21827
860.725	21770
860.858	21789
860.99	21705
861.123	21549
861.256	21515
861.388	21644
861.521	22314
861.653	21477
861.786	21519
861.918	21614
862.05	21557
862.183	21603
862.315	21561
862.447	21660
862.58	21500
862.712	21462
862.844	21344
862.976	21431
863.108	21485
863.24	21956
863.372	21374
863.504	21268
863.636	21233
863.768	21420
863.9	21241
864.032	21370
864.164	21237
864.296	21466
864.428	21462
864.559	21397
864.691	21473
864.823	21359
864.954	21336
865.086	21344
865.217	21310
865.349	21165
865.48	21192
865.612	21310
865.743	21329
865.875	21226
866.006	21100
866.137	21310
866.269	21199
866.4	21245
866.531	21161
866.662	20990
866.793	21233
866.924	21272
867.055	21203
867.186	21176
867.317	21180
867.448	21085
867.579	21116
867.71	21138
867.841	21165
867.972	21195
868.103	21085
868.233	21142
868.364	21085
868.495	21367
868.625	21401
868.756	21557
868.886	21344
869.017	21393
869.147	21557
869.278	21492
869.408	21488
869.539	21424
869.669	21564
869.799	21428
869.929	21447
870.06	21526
870.19	21728
870.32	21778
870.45	21770
870.58	21831
870.71	21819
870.84	21842
870.97	21850
871.1	21804
871.23	21915
871.36	22070
871.489	21918
871.619	21934
871.749	21945
871.879	22036
872.008	22070
872.138	21991
872.267	22063
872.397	21880
872.526	21797
872.656	21888
872.785	21842
872.915	22051
873.044	22120
873.173	21934
873.303	22101
873.432	22029
873.561	22105
873.69	22169
873.819	22116
873.948	22097
874.077	22067
874.206	22032
874.335	21994
874.464	22166
874.593	22200
874.722	22147
874.851	22238
874.979	22280
875.108	22238
875.237	22207
875.365	22139
875.494	22200
875.623	22306
875.751	22238
875.88	22314
876.008	22303
876.136	22379
876.265	22584
876.393	22702
876.521	22797
876.65	22839
876.778	22694
876.906	22588
877.034	22603
877.162	22580
877.29	22584
877.418	22531
877.546	22535
877.674	22725
877.802	22630
877.93	22622
878.058	22500
878.185	22466
878.313	22561
878.441	22512
878.568	22367
878.696	22542
878.824	22637
878.951	22729
879.079	22694
879.206	22812
879.333	22763
879.461	22557
879.588	22675
879.715	22717
879.842	22831
879.97	22721
880.097	22485
880.224	22462
880.351	22478
880.478	22379
880.605	22538
880.732	22360
880.859	22656
880.986	22360
881.112	22363
881.239	22337
881.366	22139
881.493	22059
881.619	22093
881.746	21994
881.872	21922
881.999	21968
882.125	21819
882.252	21960
882.378	21983
882.505	22044
882.631	21918
882.757	21625
882.883	21781
883.01	21701
883.136	21633
883.262	21717
883.388	21382
883.514	21660
883.64	21648
883.766	21629
883.892	21496
884.018	21538
884.143	21629
884.269	21622
884.395	21393
884.52	21275
884.646	21310
884.772	21218
884.897	21272
885.023	21245
885.148	21458
885.274	21416
885.399	21378
885.524	21275
885.65	21408
885.775	21378
885.9	21294
886.025	21367
886.15	21363
886.275	21359
886.4	21214
886.525	21230
886.65	21291
886.775	21237
886.9	21412
887.025	21542
887.149	21329
887.274	21154
887.399	21051
887.523	21123
887.648	21123
887.773	20990
887.897	21085
888.021	21104
888.146	21001
888.27	21089
888.395	21283
888.519	21176
888.643	21051
888.767	21096
888.891	21013
889.015	20895
889.139	20937
889.263	20845
889.387	21043
889.511	21001
889.635	20967
889.759	20830
889.883	20929
890.006	20906
890.13	20982
890.254	20750
890.377	20944
890.501	20617
890.624	20625
890.748	20686
890.871	20590
890.995	20400
891.118	20370
891.241	20545
891.364	20533
891.488	20579
891.611	20473
891.734	20495
891.857	20560
891.98	20492
892.103	20583
892.226	20457
892.349	20461
892.471	20419
892.594	20438
892.717	20454
892.839	20366
892.962	20480
893.085	20484
893.207	20381
893.33	20328
893.452	20294
893.575	20396
893.697	20328
893.819	20488
893.941	20530
894.064	20602
894.186	20301
894.308	20267
894.43	20492
894.552	20568
894.674	20423
894.796	20355
894.918	20336
895.04	20343
895.161	20370
895.283	20309
895.405	20328
895.526	20415
895.648	20301
895.769	20450
895.891	20275
896.012	20400
896.134	20450
896.255	20396
896.376	20366
896.498	20404
896.619	20446
896.74	20324
896.861	20400
896.982	20629
897.103	20876
897.224	20750
897.345	20575
897.466	20438
897.587	20682
897.708	20678
897.828	20602
897.949	20537
898.07	20438
898.19	20518
898.311	20693
898.431	20434
898.552	20530
898.672	20594
898.792	20617
898.913	20530
899.033	20446
899.153	20358
899.273	20309
899.393	20385
899.513	20305
899.633	20301
899.753	20328
899.873	20301
899.993	20385
900.113	20336
900.232	20313
900.352	20142
900.472	20176
900.591	20065
900.711	20111
900.83	20043
900.95	20122
901.069	20115
901.189	20005
901.308	19757
901.427	19681
901.546	19632
901.665	19750
901.784	19628
901.904	19480
902.023	19521
902.141	19312
902.26	19126
902.379	19304
902.498	19171
902.617	19110
902.735	19316
902.854	19046
902.973	19095
903.091	18814
903.21	18859
903.328	18848
903.446	18787
903.565	18585
903.683	18696
903.801	18486
903.919	18616
904.038	18642
904.156	18410
904.274	18585
904.392	18490
904.51	18445
904.627	18395
904.745	18475
904.863	18429
904.981	18243
905.098	18076
905.216	18076
905.334	18209
905.451	18106
905.569	18015
905.686	18152
905.803	18060
905.921	17824
906.038	17992
906.155	17885
906.272	17718
906.389	17859
906.506	17764
906.623	17729
906.74	17665
906.857	17585
906.974	17520
907.091	17657
907.208	17802
907.324	17600
907.441	17543
907.557	17322
907.674	17261
907.79	17311
907.907	17288
908.023	17269
908.139	17406
908.256	17303
908.372	17288
908.488	17250
908.604	17181
908.72	17060
908.836	17185
908.952	16999
909.068	17132
909.184	17140
909.3	17121
909.415	16999
909.531	17060
909.647	16793
909.762	16805
909.878	16710
909.993	16797
910.108	16683
910.224	16759
910.339	16660
910.454	16702
910.57	16603
910.685	16512
910.8	16717
910.915	16782
911.03	16687
911.145	16470
911.259	16310
911.374	16356
911.489	16314
911.604	16268
911.718	16143
911.833	16021
911.947	16055
912.062	15876
912.176	16078
912.291	16120
912.405	16093
912.519	16242
912.633	16284
912.748	16112
912.862	16055
912.976	15918
913.09	15823
913.204	15888
913.318	15918
913.431	15968
913.545	15953
913.659	16086
913.772	15918
913.886	15766
914	15709
914.113	15785
914.226	15793
914.34	15728
914.453	15542
914.566	15732
914.68	15603
914.793	15584
914.906	15405
915.019	15401
915.132	15207
915.245	15313
915.358	15355
915.47	15344
915.583	15340
915.696	15344
915.809	15306
915.921	15382
916.034	15313
916.146	15173
916.259	15108
916.371	15313
916.483	15268
916.595	15138
916.708	15176
916.82	15116
916.932	15169
917.044	15100
917.156	15085
917.268	14956
917.38	15020
917.491	14990
917.603	14944
917.715	15100
917.826	15032
917.938	14910
918.049	14708
918.161	14857
918.272	15005
918.384	15104
918.495	14906
918.606	14826
918.717	14655
918.828	14826
918.939	14686
919.05	14693
919.161	14727
919.272	14560
919.383	14526
919.494	14769
919.604	14857
919.715	14746
919.826	14560
919.936	14743
920.047	14708
920.157	14686
920.267	14819
920.378	14674
920.488	14632
920.598	14826
920.708	14948
920.818	14796
920.928	14762
921.038	14956
921.148	14941
921.258	14602
921.368	14480
921.477	14507
921.587	14446
921.697	14278
921.806	14503
921.916	14229
922.025	14077
922.134	14054
922.244	14039
922.353	14119
922.462	13986
922.571	13856
922.68	13712
922.789	13689
922.898	13769
923.007	13662
923.116	13674
923.224	13696
923.333	13689
923.442	13578
923.55	13540
923.659	13552
923.767	13563
923.876	13411
923.984	13487
924.092	13384
924.201	13438
924.309	13422
924.417	13384
924.525	13373
924.633	13331
924.741	14244
924.849	13099
924.956	13316
925.064	13206
925.172	13099
925.279	13053
925.387	13152
925.494	12996
925.602	13240
925.709	13137
925.816	13042
925.924	13133
926.031	13168
926.138	13114
926.245	13091
926.352	12996
926.459	13114
926.566	13171
926.673	12947
926.779	12920
926.886	12848
926.993	12738
927.099	12688
927.206	12677
927.312	12658
927.419	12825
927.525	12635
927.631	12658
927.737	12623
927.843	12517
927.95	12426
928.056	12452
928.162	12456
928.267	12570
928.373	13126
928.479	12532
928.585	12251
928.69	12471
928.796	12403
928.901	12281
929.007	12178
929.112	12357
929.218	12296
929.323	12201
929.428	12182
929.533	12262
929.638	12190
929.743	12175
929.848	12175
929.953	12167
930.058	12091
930.163	11935
930.267	11851
930.372	11980
930.477	11821
930.581	12068
930.685	11851
930.79	11832
930.894	11832
930.998	11623
931.103	11832
931.207	11493
931.311	11448
931.415	11414
931.519	11299
931.623	11075
