Data from test_V78500241_1597.txt Node
Date: Fri Mar 25 15:20:58 CST 2022
User: usil
Spectrometer: V785-0024
Trigger mode: 0
Integration Time (sec): 4.000000E-1
Scans to average: 1
Nonlinearity correction enabled: false
Boxcar width: 0
Storing dark spectrum: false
XAxis mode: Wavelengths
Number of Pixels in Spectrum: 1024
>>>>>Begin Spectral Data<<<<<
801.071	28025
801.214	27926
801.356	27583
801.499	27709
801.641	27473
801.783	27549
801.926	27545
802.068	27530
802.211	27382
802.353	27367
802.496	27237
802.638	27089
802.78	27150
802.923	27058
803.065	27043
803.208	27001
803.35	27157
803.492	27264
803.635	27310
803.777	27317
803.919	27264
804.061	27686
804.204	27386
804.346	27169
804.488	27268
804.63	27313
804.773	27252
804.915	27397
805.057	27519
805.199	27393
805.341	27351
805.483	27416
805.626	27378
805.768	27252
805.91	27450
806.052	27488
806.194	27370
806.336	27618
806.478	27511
806.62	27412
806.762	27633
806.904	27739
807.046	27964
807.188	27747
807.33	27930
807.472	27930
807.614	27831
807.756	27941
807.898	27751
808.04	27720
808.182	27599
808.324	27682
808.465	27789
808.607	27907
808.749	28116
808.891	28204
809.033	28086
809.174	28234
809.316	28048
809.458	28025
809.6	28093
809.741	28382
809.883	28188
810.025	28325
810.166	28333
810.308	28363
810.45	28299
810.591	28261
810.733	28333
810.875	28055
811.016	27922
811.158	27937
811.299	28169
811.441	28348
811.582	28200
811.724	28188
811.865	28112
812.007	28139
812.148	28181
812.29	28059
812.431	28394
812.573	28485
812.714	28592
812.855	28542
812.997	28748
813.138	28987
813.279	28778
813.421	28824
813.562	28664
813.703	28466
813.845	28386
813.986	28086
814.127	27892
814.268	27838
814.41	27873
814.551	27751
814.692	27854
814.833	27770
814.974	27800
815.115	27854
815.256	27690
815.397	27732
815.539	27679
815.68	27618
815.821	27526
815.962	27599
816.103	27553
816.244	27481
816.385	27389
816.526	27378
816.666	27249
816.807	27058
816.948	27180
817.089	27230
817.23	27093
817.371	27192
817.512	27112
817.653	27169
817.793	26971
817.934	27085
818.075	27077
818.216	27184
818.356	27051
818.497	26929
818.638	26743
818.778	26914
818.919	26883
819.06	26902
819.2	26933
819.341	27077
819.481	27100
819.622	27298
819.762	27420
819.903	27241
820.043	27325
820.184	27150
820.324	27291
820.465	27291
820.605	27310
820.746	27180
820.886	27195
821.026	27180
821.167	27116
821.307	27154
821.447	26971
821.588	26963
821.728	26937
821.868	26777
822.008	26545
822.149	26526
822.289	26594
822.429	26389
822.569	26263
822.709	26180
822.849	26130
822.99	26039
823.13	26005
823.27	26001
823.41	25890
823.55	25887
823.69	25925
823.83	25887
823.97	25849
824.11	25643
824.25	25681
824.389	25845
824.529	25746
824.669	25715
824.809	25894
824.949	25913
825.089	25696
825.228	25677
825.368	25620
825.508	25628
825.648	25643
825.787	25597
825.927	25567
826.067	25689
826.206	25495
826.346	25620
826.485	25814
826.625	25613
826.765	25624
826.904	25700
827.044	25308
827.183	25384
827.323	25209
827.462	25388
827.601	25213
827.741	25244
827.88	25396
828.02	25270
828.159	25160
828.298	25327
828.437	25350
828.577	25266
828.716	25350
828.855	25053
828.994	25107
829.134	25004
829.273	24985
829.412	25008
829.551	24920
829.69	24989
829.829	24886
829.968	25004
830.107	25023
830.246	25027
830.385	24954
830.524	24913
830.663	24848
830.802	24673
830.941	24616
831.08	24582
831.219	24593
831.357	24635
831.496	24871
831.635	24627
831.774	24616
831.913	24494
832.051	24490
832.19	24388
832.329	24258
832.467	24254
832.606	24247
832.744	24258
832.883	24194
833.022	24182
833.16	24323
833.299	24159
833.437	24300
833.576	24296
833.714	24353
833.852	24323
833.991	24407
834.129	24426
834.267	24422
834.406	24342
834.544	24300
834.682	24365
834.821	24327
834.959	24372
835.097	24315
835.235	24300
835.373	24201
835.511	24201
835.65	24235
835.788	24213
835.926	24064
836.064	23927
836.202	24015
836.34	24148
836.478	24270
836.615	24129
836.753	24182
836.891	24239
837.029	24220
837.167	24083
837.305	24106
837.443	24136
837.58	23912
837.718	24106
837.856	24064
837.993	23771
838.131	23942
838.269	23786
838.406	23836
838.544	23855
838.681	23649
838.819	23642
838.956	23368
839.094	23463
839.231	23535
839.369	23531
839.506	23828
839.643	23691
839.781	23368
839.918	23391
840.055	23516
840.193	23417
840.33	23429
840.467	23436
840.604	23368
840.742	23585
840.879	23235
841.016	23269
841.153	23273
841.29	23448
841.427	23448
841.564	23372
841.701	23402
841.838	23364
841.975	23376
842.112	23208
842.249	23090
842.385	23121
842.522	23284
842.659	23121
842.796	23178
842.933	23185
843.069	23143
843.206	23067
843.343	23010
843.479	23102
843.616	23273
843.752	22961
843.889	22889
844.025	23044
844.162	22927
844.298	22930
844.435	22824
844.571	22854
844.708	22942
844.844	23071
844.98	23105
845.117	23029
845.253	22774
845.389	22805
845.525	22763
845.661	22831
845.798	22725
845.934	22691
846.07	22603
846.206	22653
846.342	22835
846.478	22550
846.614	22478
846.75	22348
846.886	22421
847.022	22497
847.158	22386
847.294	22421
847.429	22459
847.565	22329
847.701	22580
847.837	22059
847.972	22105
848.108	22188
848.244	22112
848.379	22067
848.515	21873
848.65	21937
848.786	21987
848.921	22059
849.057	22090
849.192	22093
849.328	21960
849.463	22036
849.598	21926
849.734	21816
849.869	21850
850.004	21823
850.14	21739
850.275	21690
850.41	21625
850.545	21686
850.68	21709
850.815	21808
850.95	21793
851.085	21819
851.22	21865
851.355	21694
851.49	21720
851.625	21774
851.76	21686
851.895	21652
852.03	21538
852.165	21675
852.299	21846
852.434	21789
852.569	21766
852.703	21641
852.838	21789
852.973	21831
853.107	21816
853.242	21663
853.376	21599
853.511	21443
853.645	21488
853.78	21568
853.914	21462
854.048	21538
854.183	21595
854.317	21591
854.451	21667
854.585	21641
854.72	21637
854.854	21603
854.988	21466
855.122	21492
855.256	21481
855.39	21606
855.524	21591
855.658	21519
855.792	21603
855.926	21564
856.06	21549
856.194	21523
856.327	21431
856.461	21450
856.595	21622
856.729	21325
856.862	21656
856.996	21557
857.13	21523
857.263	21644
857.397	21530
857.53	21469
857.664	21496
857.797	21629
857.931	21587
858.064	21542
858.197	21614
858.331	21534
858.464	21439
858.597	21469
858.731	21439
858.864	21488
858.997	21428
859.13	21633
859.263	21568
859.396	21545
859.529	21534
859.662	21469
859.795	21530
859.928	21629
860.061	21762
860.194	21701
860.327	21488
860.46	21523
860.592	21587
860.725	21660
860.858	21671
860.99	21511
861.123	21545
861.256	21401
861.388	21412
861.521	22219
861.653	21454
861.786	21359
861.918	21420
862.05	21367
862.183	21485
862.315	21431
862.447	21553
862.58	21454
862.712	21351
862.844	21123
862.976	21325
863.108	21336
863.24	21701
863.372	21150
863.504	21150
863.636	21298
863.768	21298
863.9	21264
864.032	21154
864.164	21154
864.296	21306
864.428	21447
864.559	21264
864.691	21397
864.823	21157
864.954	21230
865.086	21245
865.217	21214
865.349	21081
865.48	21142
865.612	21074
865.743	21332
865.875	21169
866.006	21123
866.137	21154
866.269	21150
866.4	21100
866.531	21161
866.662	21009
866.793	21017
866.924	21173
867.055	21173
867.186	21089
867.317	20975
867.448	21001
867.579	21005
867.71	20956
867.841	20971
867.972	21123
868.103	21036
868.233	20994
868.364	21062
868.495	21249
868.625	21367
868.756	21386
868.886	21169
869.017	21207
869.147	21420
869.278	21367
869.408	21454
869.539	21340
869.669	21325
869.799	21348
869.929	21431
870.06	21405
870.19	21534
870.32	21595
870.45	21705
870.58	21568
870.71	21842
870.84	21899
870.97	21644
871.1	21572
871.23	21816
871.36	21972
871.489	21785
871.619	21808
871.749	21770
871.879	21937
872.008	21941
872.138	21915
872.267	21907
872.397	21911
872.526	21564
872.656	21743
872.785	21675
872.915	21873
873.044	22101
873.173	21922
873.303	21915
873.432	21987
873.561	22040
873.69	21804
873.819	21857
873.948	22055
874.077	21819
874.206	21926
874.335	22044
874.464	21987
874.593	22188
874.722	22070
874.851	22143
874.979	22040
875.108	22150
875.237	22116
875.365	22051
875.494	22078
875.623	22070
875.751	22074
875.88	22150
876.008	22303
876.136	22405
876.265	22527
876.393	22637
876.521	22584
876.65	22656
876.778	22554
876.906	22459
877.034	22405
877.162	22615
877.29	22409
877.418	22565
877.546	22519
877.674	22497
877.802	22519
877.93	22417
878.058	22519
878.185	22417
878.313	22440
878.441	22382
878.568	22299
878.696	22325
878.824	22542
878.951	22527
879.079	22691
879.206	22702
879.333	22630
879.461	22451
879.588	22554
879.715	22569
879.842	22679
879.97	22569
880.097	22428
880.224	22382
880.351	22394
880.478	22333
880.605	22192
880.732	22280
880.859	22489
880.986	22276
881.112	22295
881.239	22150
881.366	22082
881.493	21953
881.619	21907
881.746	22036
881.872	21998
881.999	21865
882.125	21793
882.252	21797
882.378	21831
882.505	21895
882.631	21701
882.757	21564
882.883	21751
883.01	21458
883.136	21614
883.262	21469
883.388	21458
883.514	21538
883.64	21538
883.766	21511
883.892	21260
884.018	21336
884.143	21443
884.269	21591
884.395	21325
884.52	21207
884.646	21291
884.772	21233
884.897	21108
885.023	21157
885.148	21226
885.274	21313
885.399	21351
885.524	21074
885.65	21291
885.775	21260
885.9	21028
886.025	21256
886.15	21367
886.275	21142
886.4	21074
886.525	21165
886.65	21131
886.775	21074
886.9	21245
887.025	21317
887.149	21165
887.274	20941
887.399	21127
887.523	20857
887.648	20937
887.773	20819
887.897	21093
888.021	21077
888.146	20823
888.27	20937
888.395	21081
888.519	20990
888.643	21009
888.767	20975
888.891	20880
889.015	20804
889.139	20845
889.263	20773
889.387	20956
889.511	21058
889.635	20864
889.759	20838
889.883	20826
890.006	20800
890.13	20944
890.254	20674
890.377	20644
890.501	20514
890.624	20362
890.748	20655
890.871	20461
890.995	20320
891.118	20328
891.241	20431
891.364	20374
891.488	20526
891.611	20286
891.734	20309
891.857	20374
891.98	20374
892.103	20366
892.226	20389
892.349	20259
892.471	20172
892.594	20271
892.717	20240
892.839	20191
892.962	20259
893.085	20423
893.207	20229
893.33	20077
893.452	20221
893.575	20263
893.697	20214
893.819	20374
893.941	20351
894.064	20294
894.186	20206
894.308	20142
894.43	20301
894.552	20248
894.674	20393
894.796	20153
894.918	20309
895.04	20164
895.161	20355
895.283	20301
895.405	20225
895.526	20237
895.648	20168
895.769	20240
895.891	20244
896.012	20347
896.134	20381
896.255	20210
896.376	20317
896.498	20240
896.619	20233
896.74	20164
896.861	20278
896.982	20476
897.103	20625
897.224	20427
897.345	20457
897.466	20366
897.587	20511
897.708	20552
897.828	20522
897.949	20393
898.07	20343
898.19	20328
898.311	20492
898.431	20438
898.552	20408
898.672	20492
898.792	20446
898.913	20415
899.033	20358
899.153	20237
899.273	20168
899.393	20157
899.513	20229
899.633	20176
899.753	20240
899.873	20138
899.993	20263
900.113	20164
900.232	20191
900.352	20202
900.472	20111
900.591	19932
900.711	20024
900.83	19955
900.95	20008
901.069	20027
901.189	19791
901.308	19510
901.427	19506
901.546	19567
901.665	19601
901.784	19655
901.904	19316
902.023	19381
902.141	19156
902.26	19057
902.379	19190
902.498	19019
902.617	19084
902.735	19103
902.854	18985
902.973	19000
903.091	18722
903.21	18738
903.328	18787
903.446	18612
903.565	18631
903.683	18582
903.801	18483
903.919	18570
904.038	18448
904.156	18391
904.274	18369
904.392	18342
904.51	18197
904.627	18327
904.745	18342
904.863	18410
904.981	18098
905.098	17980
905.216	18129
905.334	18057
905.451	18068
905.569	17942
905.686	17946
905.803	18060
905.921	17802
906.038	17908
906.155	17859
906.272	17672
906.389	17710
906.506	17520
906.623	17577
906.74	17497
906.857	17433
906.974	17463
907.091	17512
907.208	17611
907.324	17512
907.441	17391
907.557	17284
907.674	17311
907.79	17151
907.907	17086
908.023	17208
908.139	17242
908.256	17113
908.372	17083
908.488	17060
908.604	17010
908.72	16965
908.836	16999
908.952	16896
909.068	17003
909.184	17071
909.3	16980
909.415	17018
909.531	16942
909.647	16668
909.762	16672
909.878	16763
909.993	16717
910.108	16645
910.224	16675
910.339	16664
910.454	16516
910.57	16531
910.685	16276
910.8	16622
910.915	16615
911.03	16500
911.145	16230
911.259	16188
911.374	16291
911.489	16207
911.604	16234
911.718	15972
911.833	15956
911.947	15850
912.062	15895
912.176	16032
912.291	15956
912.405	15934
912.519	16135
912.633	16063
912.748	16044
912.862	15865
912.976	15842
913.09	15618
913.204	15675
913.318	15800
913.431	15808
913.545	15911
913.659	15861
913.772	15705
913.886	15622
914	15515
914.113	15637
914.226	15675
914.34	15694
914.453	15439
914.566	15618
914.68	15431
914.793	15420
914.906	15355
915.019	15252
915.132	15123
915.245	15249
915.358	15252
915.47	15207
915.583	15127
915.696	15272
915.809	15367
915.921	15291
916.034	15180
916.146	15039
916.259	15028
916.371	15214
916.483	15195
916.595	15005
916.708	15066
916.82	14982
916.932	14963
917.044	15043
917.156	14918
917.268	14872
917.38	14887
917.491	14845
917.603	14941
917.715	14921
917.826	14941
917.938	14765
918.049	14739
918.161	14762
918.272	14990
918.384	14861
918.495	14788
918.606	14587
918.717	14583
918.828	14720
918.939	14613
919.05	14415
919.161	14568
919.272	14351
919.383	14484
919.494	14655
919.604	14800
919.715	14492
919.826	14590
919.936	14560
920.047	14705
920.157	14644
920.267	14705
920.378	14564
920.488	14473
920.598	14739
920.708	14910
920.818	14590
920.928	14705
921.038	15005
921.148	14746
921.258	14560
921.368	14503
921.477	14317
921.587	14298
921.697	14123
921.806	14336
921.916	14199
922.025	14046
922.134	14050
922.244	13879
922.353	14039
922.462	13795
922.571	13727
922.68	13624
922.789	13590
922.898	13559
923.007	13480
923.116	13575
923.224	13559
923.333	13620
923.442	13438
923.55	13415
923.659	13362
923.767	13506
923.876	13346
923.984	13445
924.092	13324
924.201	13320
924.309	13343
924.417	13327
924.525	13232
924.633	13259
924.741	14035
924.849	12996
924.956	13194
925.064	13080
925.172	12935
925.279	13008
925.387	13004
925.494	12962
925.602	13149
925.709	13034
925.816	12981
925.924	13019
926.031	13000
926.138	13072
926.245	13019
926.352	12817
926.459	12939
926.566	13061
926.673	12844
926.779	12745
926.886	12768
926.993	12620
927.099	12528
927.206	12627
927.312	12517
927.419	12673
927.525	12525
927.631	12563
927.737	12467
927.843	12456
927.95	12388
928.056	12456
928.162	12369
928.267	12300
928.373	13095
928.479	12528
928.585	12239
928.69	12357
928.796	12456
928.901	12281
929.007	12098
929.112	12273
929.218	12201
929.323	12159
929.428	12064
929.533	12197
929.638	12095
929.743	12034
929.848	12197
929.953	12007
930.058	11935
930.163	11798
930.267	11798
930.372	11969
930.477	11748
930.581	11939
930.685	11836
930.79	11695
930.894	11710
930.998	11623
931.103	11863
931.207	11448
931.311	11376
931.415	11299
931.519	11151
931.623	10968
