Data from test_V78500241_2825.txt Node
Date: Fri Mar 25 15:29:31 CST 2022
User: usil
Spectrometer: V785-0024
Trigger mode: 0
Integration Time (sec): 4.000000E-1
Scans to average: 1
Nonlinearity correction enabled: false
Boxcar width: 0
Storing dark spectrum: false
XAxis mode: Wavelengths
Number of Pixels in Spectrum: 1024
>>>>>Begin Spectral Data<<<<<
801.071	27249
801.214	27112
801.356	26845
801.499	26807
801.641	26769
801.783	26716
801.926	26629
802.068	26727
802.211	26697
802.353	26625
802.496	26396
802.638	26400
802.78	26377
802.923	26362
803.065	26233
803.208	26199
803.35	26446
803.492	26571
803.635	26530
803.777	26492
803.919	26503
804.061	26883
804.204	26670
804.346	26427
804.488	26434
804.63	26495
804.773	26336
804.915	26495
805.057	26659
805.199	26442
805.341	26667
805.483	26632
805.626	26636
805.768	26537
805.91	26587
806.052	26682
806.194	26587
806.336	26842
806.478	26541
806.62	26511
806.762	26739
806.904	26929
807.046	27096
807.188	27112
807.33	27085
807.472	27024
807.614	26975
807.756	27001
807.898	26990
808.04	26727
808.182	26906
808.324	26975
808.465	26830
808.607	27195
808.749	27146
808.891	27435
809.033	27488
809.174	27291
809.316	27241
809.458	27306
809.6	27226
809.741	27382
809.883	27310
810.025	27473
810.166	27599
810.308	27447
810.45	27534
810.591	27374
810.733	27325
810.875	27218
811.016	27036
811.158	27146
811.299	27359
811.441	27378
811.582	27355
811.724	27256
811.865	27192
812.007	27104
812.148	27173
812.29	27138
812.431	27435
812.573	27504
812.714	27587
812.855	27717
812.997	27759
813.138	28025
813.279	27759
813.421	27778
813.562	27690
813.703	27671
813.845	27389
813.986	27188
814.127	27001
814.268	26929
814.41	26838
814.551	26918
814.692	26914
814.833	26853
814.974	26876
815.115	26830
815.256	26819
815.397	26758
815.539	26773
815.68	26800
815.821	26758
815.962	26697
816.103	26689
816.244	26476
816.385	26545
816.526	26415
816.666	26225
816.807	26149
816.948	26298
817.089	26320
817.23	26153
817.371	26168
817.512	25959
817.653	26100
817.793	26069
817.934	26142
818.075	26058
818.216	26153
818.356	26054
818.497	25932
818.638	25826
818.778	25731
818.919	25932
819.06	25944
819.2	25955
819.341	26183
819.481	26024
819.622	26195
819.762	26427
819.903	26381
820.043	26317
820.184	26309
820.324	26218
820.465	26122
820.605	26237
820.746	26267
820.886	26111
821.026	26252
821.167	26126
821.307	26301
821.447	26161
821.588	26024
821.728	25887
821.868	25776
822.008	25548
822.149	25597
822.289	25582
822.429	25282
822.569	25263
822.709	25304
822.849	25046
822.99	25236
823.13	25004
823.27	25050
823.41	25046
823.55	24772
823.69	24954
823.83	24814
823.97	24833
824.11	24635
824.25	24719
824.389	24798
824.529	24764
824.669	24802
824.809	24863
824.949	24905
825.089	24829
825.228	24616
825.368	24566
825.508	24654
825.648	24639
825.787	24696
825.927	24677
826.067	24616
826.206	24620
826.346	24627
826.485	24544
826.625	24563
826.765	24684
826.904	24661
827.044	24483
827.183	24369
827.323	24380
827.462	24384
827.601	24289
827.741	24270
827.88	24334
828.02	24159
828.159	24194
828.298	24251
828.437	24334
828.577	24266
828.716	24403
828.855	24155
828.994	23912
829.134	23958
829.273	24022
829.412	23920
829.551	23752
829.69	24022
829.829	23992
829.968	24171
830.107	24072
830.246	23931
830.385	23878
830.524	23870
830.663	23767
830.802	23646
830.941	23585
831.08	23539
831.219	23615
831.357	23619
831.496	23805
831.635	23615
831.774	23482
831.913	23490
832.051	23505
832.19	23395
832.329	23531
832.467	23326
832.606	23052
832.744	23250
832.883	23204
833.022	23197
833.16	23383
833.299	23326
833.437	23280
833.576	23421
833.714	23311
833.852	23284
833.991	23341
834.129	23493
834.267	23379
834.406	23349
834.544	23429
834.682	23322
834.821	23242
834.959	23577
835.097	23208
835.235	23391
835.373	23383
835.511	23360
835.65	23140
835.788	23212
835.926	23041
836.064	22949
836.202	23067
836.34	23216
836.478	23231
836.615	23166
836.753	23227
836.891	23273
837.029	23197
837.167	23117
837.305	22995
837.443	22991
837.58	23003
837.718	23128
837.856	23037
837.993	22984
838.131	22923
838.269	22835
838.406	22961
838.544	22771
838.681	22771
838.819	22561
838.956	22500
839.094	22470
839.231	22637
839.369	22702
839.506	22889
839.643	22778
839.781	22618
839.918	22363
840.055	22489
840.193	22485
840.33	22322
840.467	22436
840.604	22512
840.742	22710
840.879	22306
841.016	22238
841.153	22291
841.29	22493
841.427	22363
841.564	22394
841.701	22428
841.838	22329
841.975	22405
842.112	22344
842.249	22291
842.385	22116
842.522	22341
842.659	22261
842.796	22082
842.933	22105
843.069	22143
843.206	22074
843.343	22192
843.479	22280
843.616	22181
843.752	21915
843.889	21937
844.025	22131
844.162	21930
844.298	22128
844.435	21994
844.571	22036
844.708	21960
844.844	22105
844.98	22010
845.117	21972
845.253	21895
845.389	21827
845.525	21838
845.661	21861
845.798	21747
845.934	21751
846.07	21622
846.206	21743
846.342	21922
846.478	21564
846.614	21549
846.75	21355
846.886	21351
847.022	21507
847.158	21473
847.294	21420
847.429	21424
847.565	21306
847.701	21568
847.837	21188
847.972	21024
848.108	21367
848.244	21199
848.379	21135
848.515	21028
848.65	20941
848.786	21062
848.921	21036
849.057	21135
849.192	21055
849.328	21085
849.463	21024
849.598	20895
849.734	21017
849.869	20937
850.004	20785
850.14	20655
850.275	20773
850.41	20720
850.545	20785
850.68	20640
850.815	20800
850.95	20735
851.085	20883
851.22	20857
851.355	20811
851.49	20777
851.625	20842
851.76	20754
851.895	20773
852.03	20762
852.165	20743
852.299	20883
852.434	20918
852.569	20842
852.703	20845
852.838	20743
852.973	20891
853.107	20769
853.242	20648
853.376	20697
853.511	20507
853.645	20598
853.78	20785
853.914	20552
854.048	20514
854.183	20549
854.317	20537
854.451	20830
854.585	20537
854.72	20549
854.854	20644
854.988	20560
855.122	20587
855.256	20427
855.39	20564
855.524	20720
855.658	20609
855.792	20568
855.926	20648
856.06	20571
856.194	20785
856.327	20594
856.461	20511
856.595	20575
856.729	20530
856.862	20617
856.996	20655
857.13	20571
857.263	20621
857.397	20590
857.53	20530
857.664	20598
857.797	20587
857.931	20644
858.064	20590
858.197	20724
858.331	20583
858.464	20609
858.597	20431
858.731	20488
858.864	20590
858.997	20541
859.13	20632
859.263	20571
859.396	20693
859.529	20632
859.662	20686
859.795	20568
859.928	20579
860.061	20625
860.194	20796
860.327	20564
860.46	20541
860.592	20724
860.725	20750
860.858	20724
860.99	20549
861.123	20507
861.256	20590
861.388	20556
861.521	21245
861.653	20492
861.786	20358
861.918	20480
862.05	20507
862.183	20507
862.315	20629
862.447	20648
862.58	20530
862.712	20229
862.844	20195
862.976	20362
863.108	20377
863.24	20895
863.372	20320
863.504	20404
863.636	20271
863.768	20339
863.9	20221
864.032	20282
864.164	20282
864.296	20336
864.428	20530
864.559	20290
864.691	20419
864.823	20237
864.954	20240
865.086	20351
865.217	20180
865.349	20195
865.48	20161
865.612	20206
865.743	20271
865.875	20275
866.006	20206
866.137	20214
866.269	20263
866.4	20145
866.531	20199
866.662	20092
866.793	20206
866.924	20176
867.055	20081
867.186	20218
867.317	20130
867.448	20035
867.579	20252
867.71	20103
867.841	20046
867.972	20142
868.103	20130
868.233	20176
868.364	20149
868.495	20298
868.625	20389
868.756	20568
868.886	20286
869.017	20438
869.147	20503
869.278	20446
869.408	20423
869.539	20423
869.669	20469
869.799	20298
869.929	20514
870.06	20423
870.19	20651
870.32	20796
870.45	20670
870.58	20834
870.71	20975
870.84	20845
870.97	20663
871.1	20686
871.23	20807
871.36	21051
871.489	20944
871.619	20960
871.749	20994
871.879	21070
872.008	21165
872.138	21043
872.267	20891
872.397	20929
872.526	20842
872.656	20826
872.785	20838
872.915	20994
873.044	21104
873.173	21184
873.303	21017
873.432	21096
873.561	21211
873.69	21070
873.819	21036
873.948	21013
874.077	21051
874.206	20990
874.335	21001
874.464	21142
874.593	21192
874.722	21123
874.851	21310
874.979	21233
875.108	21340
875.237	21161
875.365	21138
875.494	21222
875.623	21302
875.751	21157
875.88	21287
876.008	21492
876.136	21458
876.265	21580
876.393	21774
876.521	21732
876.65	21675
876.778	21686
876.906	21808
877.034	21576
877.162	21637
877.29	21561
877.418	21709
877.546	21542
877.674	21599
877.802	21488
877.93	21618
878.058	21606
878.185	21576
878.313	21622
878.441	21641
878.568	21424
878.696	21523
878.824	21690
878.951	21656
879.079	21717
879.206	21907
879.333	21911
879.461	21591
879.588	21755
879.715	21759
879.842	22036
879.97	21648
880.097	21450
880.224	21519
880.351	21447
880.478	21515
880.605	21393
880.732	21367
880.859	21709
880.986	21412
881.112	21424
881.239	21230
881.366	21211
881.493	21085
881.619	21047
881.746	21066
881.872	21001
881.999	20906
882.125	20956
882.252	21013
882.378	20906
882.505	21066
882.631	20853
882.757	20678
882.883	20800
883.01	20765
883.136	20667
883.262	20613
883.388	20511
883.514	20887
883.64	20807
883.766	20735
883.892	20556
884.018	20495
884.143	20674
884.269	20769
884.395	20507
884.52	20324
884.646	20381
884.772	20351
884.897	20202
885.023	20552
885.148	20469
885.274	20541
885.399	20632
885.524	20488
885.65	20400
885.775	20370
885.9	20488
886.025	20492
886.15	20465
886.275	20438
886.4	20309
886.525	20408
886.65	20320
886.775	20355
886.9	20492
887.025	20579
887.149	20278
887.274	20195
887.399	20199
887.523	20248
887.648	20153
887.773	20092
887.897	20233
888.021	20180
888.146	20107
888.27	20168
888.395	20180
888.519	20271
888.643	20199
888.767	20218
888.891	20043
889.015	20020
889.139	20027
889.263	19947
889.387	19997
889.511	20225
889.635	20164
889.759	19921
889.883	19917
890.006	19963
890.13	20035
890.254	19917
890.377	19955
890.501	19719
890.624	19822
890.748	19727
890.871	19685
890.995	19620
891.118	19651
891.241	19670
891.364	19518
891.488	19818
891.611	19597
891.734	19624
891.857	19666
891.98	19544
892.103	19624
892.226	19559
892.349	19506
892.471	19304
892.594	19491
892.717	19510
892.839	19571
892.962	19597
893.085	19609
893.207	19510
893.33	19403
893.452	19392
893.575	19594
893.697	19464
893.819	19685
893.941	19723
894.064	19734
894.186	19388
894.308	19350
894.43	19632
894.552	19655
894.674	19590
894.796	19441
894.918	19400
895.04	19514
895.161	19556
895.283	19430
895.405	19434
895.526	19449
895.648	19449
895.769	19468
895.891	19563
896.012	19639
896.134	19510
896.255	19529
896.376	19457
896.498	19426
896.619	19559
896.74	19590
896.861	19453
896.982	19868
897.103	20073
897.224	19727
897.345	19746
897.466	19746
897.587	19708
897.708	19833
897.828	19719
897.949	19742
898.07	19601
898.19	19658
898.311	19833
898.431	19662
898.552	19818
898.672	19746
898.792	19795
898.913	19727
899.033	19582
899.153	19605
899.273	19506
899.393	19616
899.513	19552
899.633	19601
899.753	19464
899.873	19502
899.993	19533
900.113	19445
900.232	19487
900.352	19449
900.472	19301
900.591	19251
900.711	19301
900.83	19244
900.95	19369
901.069	19392
901.189	19114
901.308	18939
901.427	18840
901.546	18875
901.665	18966
901.784	18909
901.904	18810
902.023	18582
902.141	18456
902.26	18445
902.379	18479
902.498	18376
902.617	18441
902.735	18521
902.854	18486
902.973	18216
903.091	18064
903.21	18079
903.328	18129
903.446	17954
903.565	17802
903.683	17855
903.801	17752
903.919	17961
904.038	17809
904.156	17741
904.274	17733
904.392	17611
904.51	17684
904.627	17668
904.745	17783
904.863	17665
904.981	17425
905.098	17326
905.216	17360
905.334	17406
905.451	17330
905.569	17349
905.686	17372
905.803	17288
905.921	17151
906.038	17170
906.155	17064
906.272	17025
906.389	17067
906.506	16847
906.623	16869
906.74	16797
906.857	16733
906.974	16748
907.091	16889
907.208	17022
907.324	17003
907.441	16748
907.557	16523
907.674	16618
907.79	16523
907.907	16466
908.023	16599
908.139	16641
908.256	16523
908.372	16508
908.488	16561
908.604	16424
908.72	16284
908.836	16318
908.952	16310
909.068	16230
909.184	16375
909.3	16238
909.415	16394
909.531	16322
909.647	16131
909.762	16021
909.878	15964
909.993	15949
910.108	16036
910.224	15975
910.339	15941
910.454	15880
910.57	15823
910.685	15728
910.8	16051
910.915	15922
911.03	15930
911.145	15603
911.259	15656
911.374	15622
911.489	15549
911.604	15534
911.718	15389
911.833	15416
911.947	15252
912.062	15264
912.176	15431
912.291	15526
912.405	15405
912.519	15679
912.633	15504
912.748	15344
912.862	15386
912.976	15184
913.09	15104
913.204	15165
913.318	15176
913.431	15233
913.545	15192
913.659	15241
913.772	15142
913.886	14982
914	15036
914.113	15108
914.226	15146
914.34	15135
914.453	14887
914.566	15074
914.68	14948
914.793	14773
914.906	14686
915.019	14594
915.132	14545
915.245	14590
915.358	14678
915.47	14663
915.583	14518
915.696	14739
915.809	14724
915.921	14716
916.034	14533
916.146	14514
916.259	14431
916.371	14579
916.483	14560
916.595	14393
916.708	14396
916.82	14507
916.932	14389
917.044	14465
917.156	14355
917.268	14317
917.38	14366
917.491	14286
917.603	14351
917.715	14423
917.826	14370
917.938	14278
918.049	14111
918.161	14336
918.272	14313
918.384	14332
918.495	14233
918.606	14100
918.717	14115
918.828	13997
918.939	14256
919.05	13974
919.161	13997
919.272	13753
919.383	13909
919.494	14073
919.604	14309
919.715	14046
919.826	13932
919.936	14054
920.047	14168
920.157	14046
920.267	14202
920.378	14100
920.488	13993
920.598	14199
920.708	14370
920.818	14176
920.928	14153
921.038	14347
921.148	14259
921.258	14065
921.368	13860
921.477	13871
921.587	13727
921.697	13609
921.806	13780
921.916	13594
922.025	13419
922.134	13483
922.244	13468
922.353	13495
922.462	13327
922.571	13232
922.68	13118
922.789	13050
922.898	13034
923.007	13019
923.116	13137
923.224	13027
923.333	12981
923.442	12920
923.55	12932
923.659	12973
923.767	12916
923.876	12840
923.984	12996
924.092	12905
924.201	12745
924.309	12859
924.417	12905
924.525	12722
924.633	12844
924.741	13483
924.849	12623
924.956	12719
925.064	12540
925.172	12448
925.279	12456
925.387	12578
925.494	12593
925.602	12692
925.709	12665
925.816	12544
925.924	12464
926.031	12540
926.138	12486
926.245	12566
926.352	12391
926.459	12429
926.566	12547
926.673	12433
926.779	12369
926.886	12308
926.993	12098
927.099	12121
927.206	12049
927.312	12133
927.419	12091
927.525	12186
927.631	12205
927.737	11950
927.843	11977
927.95	11878
928.056	12015
928.162	11931
928.267	11961
928.373	12589
928.479	11999
928.585	11748
928.69	11874
928.796	11931
928.901	11824
929.007	11672
929.112	11775
929.218	11741
929.323	11653
929.428	11722
929.533	11824
929.638	11646
929.743	11627
929.848	11676
929.953	11649
930.058	11532
930.163	11356
930.267	11402
930.372	11474
930.477	11341
930.581	11573
930.685	11486
930.79	11330
930.894	11303
930.998	11204
931.103	11322
931.207	11022
931.311	10961
931.415	10881
931.519	10687
931.623	10649
