Data from test_V78500241_749.txt Node
Date: Fri Mar 25 15:15:04 CST 2022
User: usil
Spectrometer: V785-0024
Trigger mode: 0
Integration Time (sec): 4.000000E-1
Scans to average: 1
Nonlinearity correction enabled: false
Boxcar width: 0
Storing dark spectrum: false
XAxis mode: Wavelengths
Number of Pixels in Spectrum: 1024
>>>>>Begin Spectral Data<<<<<
801.071	27660
801.214	27587
801.356	27435
801.499	27310
801.641	27169
801.783	27100
801.926	27131
802.068	27028
802.211	27074
802.353	27001
802.496	26750
802.638	26823
802.78	26724
802.923	26750
803.065	26826
803.208	26792
803.35	26895
803.492	26861
803.635	26933
803.777	26899
803.919	26994
804.061	27344
804.204	27020
804.346	26876
804.488	26842
804.63	26940
804.773	27051
804.915	26956
805.057	27135
805.199	27009
805.341	26994
805.483	27077
805.626	27081
805.768	26921
805.91	27055
806.052	27146
806.194	27024
806.336	27310
806.478	27112
806.62	27089
806.762	27245
806.904	27306
807.046	27694
807.188	27553
807.33	27614
807.472	27591
807.614	27317
807.756	27523
807.898	27435
808.04	27370
808.182	27393
808.324	27218
808.465	27481
808.607	27572
808.749	27774
808.891	27762
809.033	27854
809.174	27793
809.316	27804
809.458	27800
809.6	27701
809.741	27873
809.883	27804
810.025	27979
810.166	28070
810.308	27994
810.45	27964
810.591	27934
810.733	27793
810.875	27755
811.016	27648
811.158	27774
811.299	27739
811.441	27789
811.582	27926
811.724	27755
811.865	27583
812.007	27785
812.148	27743
812.29	27739
812.431	27823
812.573	27972
812.714	28139
812.855	28333
812.997	28398
813.138	28649
813.279	28436
813.421	28314
813.562	28196
813.703	28086
813.845	27964
813.986	27652
814.127	27427
814.268	27462
814.41	27462
814.551	27526
814.692	27561
814.833	27397
814.974	27260
815.115	27488
815.256	27245
815.397	27313
815.539	27233
815.68	27272
815.821	27165
815.962	27188
816.103	27226
816.244	27161
816.385	26933
816.526	27001
816.666	26845
816.807	26686
816.948	26762
817.089	26956
817.23	26853
817.371	26800
817.512	26674
817.653	26765
817.793	26670
817.934	26663
818.075	26697
818.216	26796
818.356	26727
818.497	26522
818.638	26507
818.778	26324
818.919	26446
819.06	26511
819.2	26697
819.341	26724
819.481	26651
819.622	26777
819.762	27070
819.903	27013
820.043	26994
820.184	26883
820.324	26845
820.465	26830
820.605	26777
820.746	26708
820.886	26724
821.026	26819
821.167	26834
821.307	26895
821.447	26674
821.588	26602
821.728	26377
821.868	26377
822.008	26256
822.149	26138
822.289	26161
822.429	25982
822.569	25902
822.709	25982
822.849	25708
822.99	25544
823.13	25753
823.27	25552
823.41	25449
823.55	25445
823.69	25518
823.83	25533
823.97	25419
824.11	25377
824.25	25335
824.389	25346
824.529	25346
824.669	25327
824.809	25510
824.949	25479
825.089	25358
825.228	25468
825.368	25187
825.508	25145
825.648	25270
825.787	25327
825.927	25316
826.067	25190
826.206	24901
826.346	25263
826.485	25217
826.625	25091
826.765	25304
826.904	25228
827.044	25050
827.183	24905
827.323	24837
827.462	24966
827.601	24905
827.741	24741
827.88	24932
828.02	24848
828.159	24916
828.298	24867
828.437	24852
828.577	24935
828.716	24943
828.855	24722
828.994	24422
829.134	24498
829.273	24692
829.412	24509
829.551	24547
829.69	24623
829.829	24589
829.968	24681
830.107	24795
830.246	24494
830.385	24563
830.524	24475
830.663	24403
830.802	24292
830.941	24205
831.08	24117
831.219	24285
831.357	24251
831.496	24418
831.635	24254
831.774	24174
831.913	24041
832.051	24015
832.19	23961
832.329	24041
832.467	23946
832.606	23771
832.744	23878
832.883	23901
833.022	23878
833.16	23931
833.299	23889
833.437	23935
833.576	23973
833.714	23916
833.852	23988
833.991	24110
834.129	23931
834.267	24087
834.406	23878
834.544	23977
834.682	24038
834.821	23916
834.959	24095
835.097	23817
835.235	23996
835.373	23836
835.511	23973
835.65	23741
835.788	23771
835.926	23672
836.064	23600
836.202	23627
836.34	23642
836.478	23847
836.615	23847
836.753	23695
836.891	23863
837.029	23977
837.167	23828
837.305	23741
837.443	23611
837.58	23615
837.718	23596
837.856	23661
837.993	23554
838.131	23581
838.269	23524
838.406	23379
838.544	23364
838.681	23353
838.819	23258
838.956	23140
839.094	23086
839.231	23250
839.369	23151
839.506	23482
839.643	23265
839.781	23094
839.918	23064
840.055	23029
840.193	23006
840.33	22968
840.467	23025
840.604	23044
840.742	23303
840.879	22831
841.016	22877
841.153	22843
841.29	23159
841.427	22957
841.564	23014
841.701	23006
841.838	22908
841.975	22835
842.112	22831
842.249	22782
842.385	22725
842.522	22862
842.659	22797
842.796	22797
842.933	22763
843.069	22805
843.206	22706
843.343	22801
843.479	22668
843.616	22778
843.752	22546
843.889	22554
844.025	22717
844.162	22557
844.298	22634
844.435	22504
844.571	22573
844.708	22478
844.844	22626
844.98	22615
845.117	22744
845.253	22409
845.389	22318
845.525	22440
845.661	22421
845.798	22314
845.934	22386
846.07	22295
846.206	22443
846.342	22421
846.478	22348
846.614	22124
846.75	22051
846.886	21842
847.022	22063
847.158	21998
847.294	22025
847.429	22002
847.565	21956
847.701	22257
847.837	21698
847.972	21698
848.108	21774
848.244	21785
848.379	21568
848.515	21591
848.65	21488
848.786	21595
848.921	21553
849.057	21778
849.192	21831
849.328	21557
849.463	21576
849.598	21675
849.734	21519
849.869	21310
850.004	21481
850.14	21466
850.275	21428
850.41	21329
850.545	21260
850.68	21291
850.815	21252
850.95	21329
851.085	21515
851.22	21488
851.355	21424
851.49	21420
851.625	21245
851.76	21237
851.895	21226
852.03	21226
852.165	21306
852.299	21370
852.434	21397
852.569	21401
852.703	21325
852.838	21496
852.973	21545
853.107	21405
853.242	21237
853.376	21138
853.511	21085
853.645	21150
853.78	21283
853.914	21211
854.048	21066
854.183	21203
854.317	21131
854.451	21485
854.585	21230
854.72	21230
854.854	21279
854.988	21138
855.122	21230
855.256	21066
855.39	21138
855.524	21245
855.658	21279
855.792	21131
855.926	21154
856.06	21230
856.194	21188
856.327	21108
856.461	21093
856.595	21096
856.729	21150
856.862	21275
856.996	21142
857.13	21241
857.263	21287
857.397	21214
857.53	21108
857.664	21245
857.797	21233
857.931	21382
858.064	21264
858.197	21237
858.331	21199
858.464	21195
858.597	20994
858.731	21150
858.864	21116
858.997	21142
859.13	21062
859.263	21150
859.396	21275
859.529	21245
859.662	21112
859.795	21150
859.928	21207
860.061	21374
860.194	21405
860.327	21249
860.46	21131
860.592	21317
860.725	21283
860.858	21329
860.99	21142
861.123	21203
861.256	21154
861.388	21184
861.521	21759
861.653	21108
861.786	21032
861.918	21043
862.05	20994
862.183	21024
862.315	21017
862.447	21264
862.58	21055
862.712	20845
862.844	20720
862.976	20960
863.108	21036
863.24	21256
863.372	20857
863.504	20941
863.636	20929
863.768	20956
863.9	20891
864.032	20758
864.164	20948
864.296	20887
864.428	21043
864.559	20986
864.691	20941
864.823	20956
864.954	20864
865.086	20918
865.217	20670
865.349	20636
865.48	20670
865.612	20758
865.743	20944
865.875	20788
866.006	20754
866.137	20819
866.269	20769
866.4	20606
866.531	20727
866.662	20689
866.793	20724
866.924	20621
867.055	20743
867.186	20724
867.317	20651
867.448	20613
867.579	20739
867.71	20632
867.841	20636
867.972	20743
868.103	20769
868.233	20708
868.364	20659
868.495	20883
868.625	20914
868.756	21070
868.886	20781
869.017	20868
869.147	21089
869.278	21070
869.408	20956
869.539	20982
869.669	21108
869.799	21108
869.929	21047
870.06	20998
870.19	21260
870.32	21287
870.45	21310
870.58	21325
870.71	21363
870.84	21408
870.97	21351
871.1	21389
871.23	21454
871.36	21488
871.489	21485
871.619	21534
871.749	21545
871.879	21641
872.008	21629
872.138	21568
872.267	21496
872.397	21534
872.526	21351
872.656	21405
872.785	21340
872.915	21511
873.044	21618
873.173	21595
873.303	21622
873.432	21663
873.561	21530
873.69	21648
873.819	21500
873.948	21580
874.077	21549
874.206	21492
874.335	21553
874.464	21770
874.593	21823
874.722	21827
874.851	21842
874.979	21907
875.108	21838
875.237	21907
875.365	21625
875.494	21633
875.623	21823
875.751	21842
875.88	21785
876.008	21918
876.136	21918
876.265	22226
876.393	22234
876.521	22109
876.65	22356
876.778	22173
876.906	22116
877.034	22223
877.162	22063
877.29	22063
877.418	22074
877.546	22162
877.674	22147
877.802	22219
877.93	22097
878.058	22010
878.185	22025
878.313	22029
878.441	22048
878.568	21956
878.696	21930
878.824	22154
878.951	22272
879.079	22295
879.206	22500
879.333	22318
879.461	22070
879.588	22215
879.715	22303
879.842	22459
879.97	22238
880.097	21899
880.224	21998
880.351	22017
880.478	21960
880.605	21797
880.732	21880
880.859	22166
880.986	21964
881.112	22013
881.239	21816
881.366	21606
881.493	21549
881.619	21549
881.746	21564
881.872	21526
881.999	21428
882.125	21458
882.252	21614
882.378	21534
882.505	21603
882.631	21291
882.757	21230
882.883	21310
883.01	21237
883.136	21214
883.262	21264
883.388	21188
883.514	21272
883.64	21249
883.766	21157
883.892	21085
884.018	21055
884.143	21241
884.269	21264
884.395	21013
884.52	20842
884.646	20941
884.772	20868
884.897	20705
885.023	20853
885.148	20914
885.274	21001
885.399	20906
885.524	20796
885.65	20891
885.775	20944
885.9	20800
886.025	20979
886.15	20990
886.275	20914
886.4	20842
886.525	20785
886.65	20781
886.775	20686
886.9	20861
887.025	21100
887.149	20876
887.274	20648
887.399	20651
887.523	20663
887.648	20545
887.773	20598
887.897	20632
888.021	20659
888.146	20499
888.27	20636
888.395	20727
888.519	20705
888.643	20712
888.767	20777
888.891	20621
889.015	20412
889.139	20530
889.263	20552
889.387	20545
889.511	20651
889.635	20564
889.759	20332
889.883	20366
890.006	20355
890.13	20583
890.254	20431
890.377	20294
890.501	20252
890.624	20176
890.748	20339
890.871	20107
890.995	20088
891.118	19989
891.241	19963
891.364	20031
891.488	20191
891.611	20024
891.734	20054
891.857	20005
891.98	20001
892.103	20180
892.226	20069
892.349	20001
892.471	19738
892.594	19917
892.717	19928
892.839	19837
892.962	19982
893.085	20088
893.207	19982
893.33	19753
893.452	19887
893.575	19947
893.697	19830
893.819	20149
893.941	20088
894.064	20100
894.186	19879
894.308	19811
894.43	19978
894.552	20092
894.674	20016
894.796	19970
894.918	19944
895.04	19803
895.161	20012
895.283	19940
895.405	19921
895.526	19921
895.648	19944
895.769	19913
895.891	19940
896.012	20142
896.134	20039
896.255	20012
896.376	19818
896.498	19928
896.619	19932
896.74	19936
896.861	20020
896.982	20313
897.103	20389
897.224	20229
897.345	20252
897.466	20138
897.587	20084
897.708	20286
897.828	20107
897.949	20081
898.07	19978
898.19	20050
898.311	20168
898.431	19967
898.552	20172
898.672	20252
898.792	20263
898.913	20240
899.033	20130
899.153	19928
899.273	19833
899.393	20008
899.513	19864
899.633	19879
899.753	20020
899.873	19799
899.993	19955
900.113	19757
900.232	19921
900.352	19765
900.472	19704
900.591	19708
900.711	19696
900.83	19605
900.95	19784
901.069	19803
901.189	19620
901.308	19346
901.427	19308
901.546	19263
901.665	19419
901.784	19274
901.904	19217
902.023	19152
902.141	18814
902.26	18882
902.379	18875
902.498	18894
902.617	18703
902.735	18867
902.854	18783
902.973	18696
903.091	18525
903.21	18448
903.328	18540
903.446	18460
903.565	18304
903.683	18213
903.801	18239
903.919	18216
904.038	18228
904.156	18148
904.274	18060
904.392	17939
904.51	18038
904.627	17954
904.745	18140
904.863	18098
904.981	17859
905.098	17726
905.216	17665
905.334	17790
905.451	17703
905.569	17627
905.686	17809
905.803	17714
905.921	17532
906.038	17676
906.155	17596
906.272	17299
906.389	17398
906.506	17212
906.623	17292
906.74	17307
906.857	17242
906.974	17124
907.091	17296
907.208	17448
907.324	17345
907.441	17067
907.557	17025
907.674	17025
907.79	16881
907.907	16953
908.023	17094
908.139	16885
908.256	16965
908.372	16801
908.488	16812
908.604	16797
908.72	16710
908.836	16790
908.952	16668
909.068	16713
909.184	16740
909.3	16668
909.415	16649
909.531	16744
909.647	16440
909.762	16402
909.878	16424
909.993	16516
910.108	16310
910.224	16337
910.339	16398
910.454	16318
910.57	16272
910.685	16169
910.8	16440
910.915	16367
911.03	16242
911.145	16093
911.259	15953
911.374	15956
911.489	15994
911.604	15835
911.718	15755
911.833	15762
911.947	15675
912.062	15561
912.176	15713
912.291	15739
912.405	15709
912.519	15888
912.633	15922
912.748	15755
912.862	15682
912.976	15595
913.09	15447
913.204	15587
913.318	15511
913.431	15610
913.545	15553
913.659	15675
913.772	15553
913.886	15401
914	15321
914.113	15458
914.226	15549
914.34	15435
914.453	15275
914.566	15458
914.68	15283
914.793	15157
914.906	15058
915.019	14960
915.132	14986
915.245	15043
915.358	15036
915.47	14895
915.583	14887
915.696	15077
915.809	15039
915.921	15013
916.034	14982
916.146	14887
916.259	14925
916.371	14902
916.483	14937
916.595	14765
916.708	14788
916.82	14807
916.932	14708
917.044	14777
917.156	14682
917.268	14697
917.38	14583
917.491	14686
917.603	14579
917.715	14705
917.826	14701
917.938	14594
918.049	14503
918.161	14579
918.272	14705
918.384	14777
918.495	14522
918.606	14465
918.717	14298
918.828	14415
918.939	14347
919.05	14347
919.161	14385
919.272	14168
919.383	14252
919.494	14476
919.604	14533
919.715	14317
919.826	14351
919.936	14301
920.047	14393
920.157	14366
920.267	14606
920.378	14396
920.488	14248
920.598	14590
920.708	14632
920.818	14454
920.928	14469
921.038	14632
921.148	14610
921.258	14362
921.368	14225
921.477	14084
921.587	14077
921.697	14020
921.806	14153
921.916	13909
922.025	13753
922.134	13791
922.244	13712
922.353	13704
922.462	13723
922.571	13601
922.68	13369
922.789	13434
922.898	13324
923.007	13396
923.116	13396
923.224	13316
923.333	13358
923.442	13141
923.55	13198
923.659	13217
923.767	13411
923.876	13187
923.984	13179
924.092	13145
924.201	13152
924.309	13145
924.417	13164
924.525	13118
924.633	13107
924.741	13879
924.849	12878
924.956	13031
925.064	12916
925.172	12863
925.279	12833
925.387	12916
925.494	12814
925.602	12943
925.709	12776
925.816	12719
925.924	12837
926.031	12867
926.138	12833
926.245	12719
926.352	12688
926.459	12829
926.566	12776
926.673	12749
926.779	12639
926.886	12540
926.993	12410
927.099	12372
927.206	12353
927.312	12266
927.419	12407
927.525	12410
927.631	12445
927.737	12342
927.843	12186
927.95	12175
928.056	12281
928.162	12258
928.267	12220
928.373	12856
928.479	12201
928.585	12064
928.69	12216
928.796	12220
928.901	12057
929.007	11885
929.112	12057
929.218	12034
929.323	11992
929.428	11874
929.533	12110
929.638	11847
929.743	11836
929.848	11916
929.953	11809
930.058	11805
930.163	11535
930.267	11535
930.372	11794
930.477	11707
930.581	11840
930.685	11608
930.79	11520
930.894	11619
930.998	11425
931.103	11592
931.207	11261
931.311	11151
931.415	11140
931.519	10885
931.623	10816
