Data from test_V78500241_940.txt Node
Date: Fri Mar 25 15:16:24 CST 2022
User: usil
Spectrometer: V785-0024
Trigger mode: 0
Integration Time (sec): 4.000000E-1
Scans to average: 1
Nonlinearity correction enabled: false
Boxcar width: 0
Storing dark spectrum: false
XAxis mode: Wavelengths
Number of Pixels in Spectrum: 1024
>>>>>Begin Spectral Data<<<<<
801.071	27701
801.214	27477
801.356	27348
801.499	27287
801.641	27024
801.783	27237
801.926	27226
802.068	27192
802.211	27013
802.353	26960
802.496	26823
802.638	26792
802.78	26815
802.923	26857
803.065	26823
803.208	26785
803.35	26781
803.492	26921
803.635	26975
803.777	26754
803.919	26861
804.061	27184
804.204	26910
804.346	26872
804.488	26826
804.63	26868
804.773	26845
804.915	26929
805.057	27112
805.199	27093
805.341	27108
805.483	27180
805.626	27146
805.768	26929
805.91	27135
806.052	26956
806.194	27051
806.336	27169
806.478	27017
806.62	27127
806.762	27287
806.904	27370
807.046	27656
807.188	27534
807.33	27542
807.472	27481
807.614	27359
807.756	27481
807.898	27466
808.04	27397
808.182	27249
808.324	27260
808.465	27439
808.607	27576
808.749	27747
808.891	27766
809.033	27739
809.174	27819
809.316	27694
809.458	27599
809.6	27675
809.741	27759
809.883	27793
810.025	27876
810.166	27907
810.308	28010
810.45	27869
810.591	27831
810.733	27720
810.875	27675
811.016	27526
811.158	27462
811.299	27816
811.441	27922
811.582	27759
811.724	27717
811.865	27583
812.007	27732
812.148	27637
812.29	27633
812.431	27876
812.573	28082
812.714	28055
812.855	28169
812.997	28390
813.138	28344
813.279	28215
813.421	28131
813.562	28143
813.703	28006
813.845	27899
813.986	27648
814.127	27545
814.268	27485
814.41	27351
814.551	27424
814.692	27599
814.833	27332
814.974	27424
815.115	27545
815.256	27260
815.397	27233
815.539	27249
815.68	27096
815.821	27074
815.962	27237
816.103	27294
816.244	27131
816.385	26986
816.526	26902
816.666	26765
816.807	26655
816.948	26765
817.089	26857
817.23	26758
817.371	26788
817.512	26788
817.653	26552
817.793	26648
817.934	26754
818.075	26758
818.216	26552
818.356	26602
818.497	26598
818.638	26408
818.778	26423
818.919	26442
819.06	26343
819.2	26621
819.341	26720
819.481	26674
819.622	26838
819.762	26963
819.903	26967
820.043	26925
820.184	26792
820.324	26876
820.465	26845
820.605	26727
820.746	26762
820.886	26587
821.026	26853
821.167	26750
821.307	26830
821.447	26823
821.588	26556
821.728	26484
821.868	26381
822.008	26126
822.149	26233
822.289	26214
822.429	25871
822.569	25925
822.709	25925
822.849	25746
822.99	25746
823.13	25594
823.27	25651
823.41	25514
823.55	25453
823.69	25434
823.83	25521
823.97	25331
824.11	25354
824.25	25422
824.389	25293
824.529	25464
824.669	25308
824.809	25400
824.949	25373
825.089	25502
825.228	25369
825.368	25164
825.508	25206
825.648	25141
825.787	25285
825.927	25320
826.067	25190
826.206	25148
826.346	25217
826.485	25232
826.625	25164
826.765	25232
826.904	25232
827.044	24939
827.183	24947
827.323	24795
827.462	24970
827.601	24996
827.741	24901
827.88	24901
828.02	24768
828.159	24958
828.298	25042
828.437	24920
828.577	24863
828.716	24973
828.855	24738
828.994	24745
829.134	24749
829.273	24722
829.412	24585
829.551	24715
829.69	24574
829.829	24448
829.968	24681
830.107	24604
830.246	24711
830.385	24608
830.524	24505
830.663	24582
830.802	24372
830.941	24159
831.08	24239
831.219	24403
831.357	24270
831.496	24494
831.635	24254
831.774	24228
831.913	24064
832.051	23977
832.19	23942
832.329	24083
832.467	23931
832.606	23863
832.744	23786
832.883	23832
833.022	23897
833.16	23916
833.299	23935
833.437	23942
833.576	23954
833.714	23980
833.852	24076
833.991	24117
834.129	24125
834.267	24136
834.406	24053
834.544	24136
834.682	24038
834.821	23916
834.959	24110
835.097	23897
835.235	24034
835.373	23935
835.511	23912
835.65	23874
835.788	23889
835.926	23661
836.064	23630
836.202	23672
836.34	23836
836.478	23851
836.615	23752
836.753	23920
836.891	23901
837.029	23771
837.167	23824
837.305	23737
837.443	23783
837.58	23562
837.718	23798
837.856	23737
837.993	23661
838.131	23596
838.269	23406
838.406	23695
838.544	23471
838.681	23402
838.819	23452
838.956	23197
839.094	23132
839.231	23197
839.369	23345
839.506	23391
839.643	23265
839.781	23132
839.918	23003
840.055	23166
840.193	23132
840.33	23109
840.467	23128
840.604	23216
840.742	23326
840.879	22892
841.016	23044
841.153	22850
841.29	23071
841.427	23102
841.564	23071
841.701	23170
841.838	22968
841.975	22976
842.112	22904
842.249	22934
842.385	22733
842.522	22991
842.659	22900
842.796	22744
842.933	22828
843.069	22729
843.206	22812
843.343	22953
843.479	22938
843.616	22778
843.752	22603
843.889	22687
844.025	22672
844.162	22615
844.298	22656
844.435	22550
844.571	22569
844.708	22557
844.844	22869
844.98	22771
845.117	22710
845.253	22554
845.389	22306
845.525	22512
845.661	22470
845.798	22249
845.934	22462
846.07	22268
846.206	22318
846.342	22485
846.478	22367
846.614	22185
846.75	21987
846.886	22078
847.022	22078
847.158	22025
847.294	22078
847.429	22029
847.565	21956
847.701	22230
847.837	21759
847.972	21785
848.108	21857
848.244	21876
848.379	21755
848.515	21698
848.65	21648
848.786	21743
848.921	21675
849.057	21698
849.192	21701
849.328	21667
849.463	21720
849.598	21682
849.734	21500
849.869	21542
850.004	21488
850.14	21325
850.275	21511
850.41	21340
850.545	21473
850.68	21412
850.815	21428
850.95	21466
851.085	21545
851.22	21515
851.355	21523
851.49	21401
851.625	21348
851.76	21439
851.895	21355
852.03	21245
852.165	21431
852.299	21382
852.434	21526
852.569	21351
852.703	21545
852.838	21485
852.973	21439
853.107	21553
853.242	21291
853.376	21340
853.511	21066
853.645	21268
853.78	21397
853.914	21283
854.048	21222
854.183	21237
854.317	21188
854.451	21572
854.585	21302
854.72	21195
854.854	21321
854.988	21199
855.122	21272
855.256	21142
855.39	21218
855.524	21214
855.658	21222
855.792	21214
855.926	21211
856.06	21329
856.194	21325
856.327	21081
856.461	21176
856.595	21226
856.729	21192
856.862	21291
856.996	21214
857.13	21291
857.263	21321
857.397	21264
857.53	21218
857.664	21272
857.797	21275
857.931	21306
858.064	21214
858.197	21351
858.331	21245
858.464	21195
858.597	21085
858.731	21218
858.864	21214
858.997	21211
859.13	21317
859.263	21256
859.396	21348
859.529	21176
859.662	21150
859.795	21188
859.928	21268
860.061	21321
860.194	21317
860.327	21279
860.46	21199
860.592	21363
860.725	21393
860.858	21351
860.99	21157
861.123	21233
861.256	21233
861.388	21264
861.521	21941
861.653	21070
861.786	21077
861.918	21119
862.05	21218
862.183	21165
862.315	21351
862.447	21272
862.58	21275
862.712	20895
862.844	20944
862.976	20986
863.108	20929
863.24	21348
863.372	20883
863.504	20929
863.636	21001
863.768	20963
863.9	20929
864.032	20925
864.164	20986
864.296	20948
864.428	21028
864.559	21062
864.691	21123
864.823	20899
864.954	20937
865.086	20925
865.217	21017
865.349	20811
865.48	20834
865.612	20960
865.743	20921
865.875	20941
866.006	20720
866.137	20765
866.269	20902
866.4	20857
866.531	20902
866.662	20754
866.793	20735
866.924	20792
867.055	20739
867.186	20682
867.317	20842
867.448	20682
867.579	20716
867.71	20689
867.841	20682
867.972	20777
868.103	20872
868.233	20796
868.364	20819
868.495	20845
868.625	20982
868.756	21108
868.886	21070
869.017	20948
869.147	21119
869.278	21108
869.408	21085
869.539	21055
869.669	21104
869.799	20963
869.929	21173
870.06	21036
870.19	21245
870.32	21294
870.45	21428
870.58	21382
870.71	21473
870.84	21485
870.97	21424
871.1	21401
871.23	21614
871.36	21614
871.489	21458
871.619	21591
871.749	21549
871.879	21564
872.008	21682
872.138	21656
872.267	21679
872.397	21275
872.526	21496
872.656	21435
872.785	21329
872.915	21675
873.044	21701
873.173	21606
873.303	21583
873.432	21743
873.561	21709
873.69	21671
873.819	21679
873.948	21747
874.077	21671
874.206	21507
874.335	21644
874.464	21770
874.593	21960
874.722	21846
874.851	22010
874.979	21800
875.108	21983
875.237	21865
875.365	21797
875.494	21785
875.623	21964
875.751	21800
875.88	21960
876.008	21987
876.136	21983
876.265	22177
876.393	22344
876.521	22402
876.65	22253
876.778	22200
876.906	22124
877.034	22154
877.162	22242
877.29	22185
877.418	22314
877.546	22021
877.674	22230
877.802	22200
877.93	22196
878.058	22131
878.185	22120
878.313	22162
878.441	22158
878.568	22025
878.696	22112
878.824	22112
878.951	22207
879.079	22352
879.206	22459
879.333	22363
879.461	22200
879.588	22276
879.715	22272
879.842	22398
879.97	22200
880.097	22143
880.224	22002
880.351	21991
880.478	22044
880.605	21922
880.732	22010
880.859	22257
880.986	22013
881.112	22006
881.239	21937
881.366	21804
881.493	21618
881.619	21637
881.746	21648
881.872	21576
881.999	21656
882.125	21545
882.252	21610
882.378	21591
882.505	21671
882.631	21511
882.757	21306
882.883	21302
883.01	21336
883.136	21260
883.262	21268
883.388	21150
883.514	21222
883.64	21287
883.766	21310
883.892	21085
884.018	21112
884.143	21268
884.269	21214
884.395	21001
884.52	20941
884.646	21039
884.772	20823
884.897	20933
885.023	20982
885.148	20998
885.274	21058
885.399	21081
885.524	21001
885.65	20944
885.775	20990
885.9	20963
886.025	21005
886.15	20937
886.275	20872
886.4	20864
886.525	20750
886.65	20918
886.775	20842
886.9	21005
887.025	21119
887.149	21024
887.274	20823
887.399	20689
887.523	20651
887.648	20754
887.773	20598
887.897	20727
888.021	20792
888.146	20693
888.27	20868
888.395	20731
888.519	20746
888.643	20807
888.767	20720
888.891	20636
889.015	20579
889.139	20533
889.263	20533
889.387	20625
889.511	20663
889.635	20632
889.759	20457
889.883	20480
890.006	20469
890.13	20682
890.254	20343
890.377	20446
890.501	20305
890.624	20138
890.748	20282
890.871	20164
890.995	20161
891.118	20065
891.241	20142
891.364	20046
891.488	20111
891.611	20084
891.734	20077
891.857	20172
891.98	20035
892.103	20065
892.226	20035
892.349	19928
892.471	19799
892.594	20008
892.717	20012
892.839	20031
892.962	19932
893.085	19982
893.207	20096
893.33	19833
893.452	19902
893.575	20046
893.697	20046
893.819	20183
893.941	20259
894.064	20134
894.186	19963
894.308	19852
894.43	20164
894.552	20153
894.674	20103
894.796	19849
894.918	19982
895.04	19894
895.161	20001
895.283	20039
895.405	19841
895.526	19982
895.648	19944
895.769	20092
895.891	20035
896.012	20046
896.134	20031
896.255	19944
896.376	19997
896.498	19963
896.619	20103
896.74	19974
896.861	19970
896.982	20298
897.103	20511
897.224	20332
897.345	20142
897.466	20062
897.587	20233
897.708	20351
897.828	20256
897.949	20088
898.07	20134
898.19	20191
898.311	20263
898.431	20130
898.552	20313
898.672	20168
898.792	20244
898.913	20233
899.033	20100
899.153	20031
899.273	19887
899.393	19997
899.513	19890
899.633	19997
899.753	19947
899.873	19856
899.993	19925
900.113	19860
900.232	19959
900.352	19826
900.472	19746
900.591	19784
900.711	19742
900.83	19784
900.95	19955
901.069	19769
901.189	19685
901.308	19472
901.427	19282
901.546	19430
901.665	19358
901.784	19396
901.904	19168
902.023	19069
902.141	18852
902.26	18901
902.379	19015
902.498	18886
902.617	18692
902.735	18993
902.854	18837
902.973	18776
903.091	18540
903.21	18608
903.328	18365
903.446	18448
903.565	18342
903.683	18384
903.801	18232
903.919	18353
904.038	18304
904.156	18152
904.274	18251
904.392	18007
904.51	18068
904.627	18095
904.745	18167
904.863	18041
904.981	17870
905.098	17722
905.216	17821
905.334	17714
905.451	17786
905.569	17703
905.686	17843
905.803	17695
905.921	17543
906.038	17558
906.155	17554
906.272	17398
906.389	17493
906.506	17341
906.623	17280
906.74	17288
906.857	17258
906.974	17200
907.091	17318
907.208	17334
907.324	17299
907.441	17345
907.557	17079
907.674	17045
907.79	16976
907.907	17060
908.023	16930
908.139	17018
908.256	16896
908.372	16881
908.488	16797
908.604	16843
908.72	16664
908.836	16736
908.952	16740
909.068	16733
909.184	16771
909.3	16691
909.415	16759
909.531	16771
909.647	16443
909.762	16405
909.878	16386
909.993	16516
910.108	16519
910.224	16303
910.339	16428
910.454	16268
910.57	16230
910.685	16204
910.8	16417
910.915	16348
911.03	16287
911.145	16192
911.259	16074
911.374	16048
911.489	16048
911.604	15892
911.718	15808
911.833	15869
911.947	15671
912.062	15656
912.176	15713
912.291	15736
912.405	15747
912.519	15907
912.633	15907
912.748	15660
912.862	15732
912.976	15656
913.09	15534
913.204	15549
913.318	15523
913.431	15606
913.545	15595
913.659	15686
913.772	15492
913.886	15443
914	15393
914.113	15485
914.226	15469
914.34	15458
914.453	15344
914.566	15481
914.68	15252
914.793	15127
914.906	15142
915.019	14998
915.132	15013
915.245	14952
915.358	15024
915.47	15013
915.583	15005
915.696	15081
915.809	15150
915.921	15077
916.034	14952
916.146	14944
916.259	14925
916.371	15032
916.483	14944
916.595	14842
916.708	14788
916.82	14883
916.932	14830
917.044	14826
917.156	14826
917.268	14575
917.38	14659
917.491	14655
917.603	14731
917.715	14762
917.826	14708
917.938	14579
918.049	14549
918.161	14552
918.272	14712
918.384	14746
918.495	14682
918.606	14541
918.717	14381
918.828	14476
918.939	14484
919.05	14347
919.161	14366
919.272	14134
919.383	14233
919.494	14507
919.604	14518
919.715	14412
919.826	14366
919.936	14362
920.047	14438
920.157	14339
920.267	14545
920.378	14560
920.488	14259
920.598	14670
920.708	14667
920.818	14560
920.928	14457
921.038	14625
921.148	14682
921.258	14415
921.368	14229
921.477	14176
921.587	14073
921.697	14073
921.806	14214
921.916	13947
922.025	13856
922.134	13696
922.244	13670
922.353	13772
922.462	13670
922.571	13685
922.68	13434
922.789	13415
922.898	13468
923.007	13381
923.116	13457
923.224	13362
923.333	13422
923.442	13304
923.55	13266
923.659	13251
923.767	13312
923.876	13232
923.984	13308
924.092	13183
924.201	13202
924.309	13156
924.417	13149
924.525	13004
924.633	13149
924.741	14069
924.849	12932
924.956	13046
925.064	12856
925.172	12719
925.279	12920
925.387	12833
925.494	12890
925.602	12913
925.709	12939
925.816	12760
925.924	12772
926.031	12871
926.138	12734
926.245	12795
926.352	12677
926.459	12837
926.566	12840
926.673	12722
926.779	12627
926.886	12589
926.993	12437
927.099	12456
927.206	12429
927.312	12407
927.419	12517
927.525	12384
927.631	12395
927.737	12243
927.843	12300
927.95	12136
928.056	12171
928.162	12289
928.267	12285
928.373	12856
928.479	12281
928.585	12003
928.69	12171
928.796	12243
928.901	12098
929.007	11980
929.112	12030
929.218	11980
929.323	11946
929.428	11954
929.533	12079
929.638	11847
929.743	11950
929.848	11973
929.953	11939
930.058	11767
930.163	11608
930.267	11619
930.372	11840
930.477	11634
930.581	11805
930.685	11710
930.79	11471
930.894	11543
930.998	11543
931.103	11741
931.207	11368
931.311	11250
931.415	11128
931.519	10987
931.623	10942
