Data from test_V78500241_1203.txt Node
Date: Fri Mar 25 15:18:13 CST 2022
User: usil
Spectrometer: V785-0024
Trigger mode: 0
Integration Time (sec): 4.000000E-1
Scans to average: 1
Nonlinearity correction enabled: false
Boxcar width: 0
Storing dark spectrum: false
XAxis mode: Wavelengths
Number of Pixels in Spectrum: 1024
>>>>>Begin Spectral Data<<<<<
801.071	28211
801.214	28204
801.356	27941
801.499	27797
801.641	27667
801.783	27823
801.926	27781
802.068	27713
802.211	27720
802.353	27488
802.496	27389
802.638	27355
802.78	27329
802.923	27241
803.065	27279
803.208	27260
803.35	27420
803.492	27439
803.635	27477
803.777	27481
803.919	27606
804.061	27892
804.204	27713
804.346	27439
804.488	27481
804.63	27538
804.773	27351
804.915	27526
805.057	27800
805.199	27622
805.341	27739
805.483	27732
805.626	27587
805.768	27591
805.91	27720
806.052	27694
806.194	27587
806.336	27899
806.478	27949
806.62	27686
806.762	27835
806.904	27960
807.046	28276
807.188	28173
807.33	28082
807.472	28082
807.614	28029
807.756	28070
807.898	27945
808.04	27846
808.182	27835
808.324	28040
808.465	27987
808.607	28173
808.749	28348
808.891	28382
809.033	28440
809.174	28303
809.316	28268
809.458	28367
809.6	28249
809.741	28356
809.883	28447
810.025	28694
810.166	28565
810.308	28679
810.45	28523
810.591	28512
810.733	28371
810.875	28352
811.016	28265
811.158	28318
811.299	28318
811.441	28512
811.582	28481
811.724	28394
811.865	28352
812.007	28318
812.148	28371
812.29	28508
812.431	28535
812.573	28584
812.714	28869
812.855	28915
812.997	28946
813.138	29242
813.279	29029
813.421	28888
813.562	28965
813.703	28782
813.845	28672
813.986	28474
814.127	28181
814.268	28074
814.41	28063
814.551	27838
814.692	28090
814.833	28070
814.974	27949
815.115	28090
815.256	27941
815.397	27941
815.539	27922
815.68	27884
815.821	27854
815.962	27884
816.103	27899
816.244	27709
816.385	27591
816.526	27675
816.666	27507
816.807	27344
816.948	27511
817.089	27523
817.23	27504
817.371	27351
817.512	27435
817.653	27264
817.793	27329
817.934	27450
818.075	27507
818.216	27374
818.356	27264
818.497	27348
818.638	27077
818.778	27207
818.919	27108
819.06	27252
819.2	27192
819.341	27348
819.481	27386
819.622	27500
819.762	27724
819.903	27595
820.043	27606
820.184	27583
820.324	27458
820.465	27538
820.605	27447
820.746	27473
820.886	27336
821.026	27481
821.167	27378
821.307	27462
821.447	27408
821.588	27351
821.728	27199
821.868	26994
822.008	26842
822.149	26849
822.289	26891
822.429	26708
822.569	26590
822.709	26587
822.849	26233
822.99	26492
823.13	26313
823.27	26290
823.41	26168
823.55	26005
823.69	26126
823.83	26172
823.97	26115
824.11	25936
824.25	26005
824.389	25921
824.529	26088
824.669	26157
824.809	26111
824.949	26252
825.089	26199
825.228	26134
825.368	25909
825.508	25997
825.648	25928
825.787	25947
825.927	26062
826.067	25932
826.206	25837
826.346	25978
826.485	25925
826.625	25917
826.765	25947
826.904	25906
827.044	25658
827.183	25662
827.323	25586
827.462	25746
827.601	25696
827.741	25529
827.88	25670
828.02	25544
828.159	25613
828.298	25643
828.437	25719
828.577	25556
828.716	25780
828.855	25388
828.994	25377
829.134	25373
829.273	25460
829.412	25354
829.551	25247
829.69	25384
829.829	25457
829.968	25388
830.107	25491
830.246	25350
830.385	25304
830.524	25301
830.663	25091
830.802	25065
830.941	25076
831.08	24852
831.219	25164
831.357	25015
831.496	25308
831.635	24996
831.774	24833
831.913	24848
832.051	24749
832.19	24776
832.329	24837
832.467	24749
832.606	24547
832.744	24475
832.883	24551
833.022	24551
833.16	24646
833.299	24734
833.437	24665
833.576	24684
833.714	24544
833.852	24863
833.991	24814
834.129	24734
834.267	24806
834.406	24726
834.544	24779
834.682	24787
834.821	24658
834.959	24943
835.097	24692
835.235	24711
835.373	24635
835.511	24715
835.65	24597
835.788	24502
835.926	24456
836.064	24422
836.202	24414
836.34	24582
836.478	24620
836.615	24486
836.753	24555
836.891	24707
837.029	24608
837.167	24498
837.305	24418
837.443	24445
837.58	24361
837.718	24448
837.856	24311
837.993	24327
838.131	24429
838.269	24285
838.406	24194
838.544	24186
838.681	24159
838.819	24072
838.956	23874
839.094	23863
839.231	23836
839.369	23961
839.506	24270
839.643	24110
839.781	23889
839.918	23794
840.055	23878
840.193	23882
840.33	23737
840.467	23718
840.604	23855
840.742	24045
840.879	23630
841.016	23760
841.153	23668
841.29	23882
841.427	23840
841.564	23775
841.701	23691
841.838	23649
841.975	23767
842.112	23695
842.249	23573
842.385	23520
842.522	23695
842.659	23554
842.796	23531
842.933	23539
843.069	23589
843.206	23497
843.343	23604
843.479	23516
843.616	23455
843.752	23315
843.889	23318
844.025	23376
844.162	23326
844.298	23425
844.435	23345
844.571	23216
844.708	23341
844.844	23486
844.98	23611
845.117	23376
845.253	23273
845.389	23033
845.525	23197
845.661	23136
845.798	22991
845.934	23056
846.07	23048
846.206	23075
846.342	23067
846.478	22923
846.614	22892
846.75	22809
846.886	22771
847.022	22805
847.158	22615
847.294	22698
847.429	22904
847.565	22710
847.701	23117
847.837	22557
847.972	22500
848.108	22668
848.244	22630
848.379	22310
848.515	22303
848.65	22318
848.786	22344
848.921	22379
849.057	22371
849.192	22428
849.328	22379
849.463	22417
849.598	22268
849.734	22310
849.869	22143
850.004	22192
850.14	22116
850.275	22006
850.41	22105
850.545	22128
850.68	22044
850.815	22166
850.95	22086
851.085	22188
851.22	22246
851.355	22051
851.49	22135
851.625	21975
851.76	22120
851.895	22082
852.03	22013
852.165	22128
852.299	22124
852.434	22287
852.569	22162
852.703	22131
852.838	22249
852.973	22287
853.107	22246
853.242	22029
853.376	21994
853.511	21846
853.645	21819
853.78	21975
853.914	22025
854.048	21892
854.183	21854
854.317	21953
854.451	21998
854.585	21960
854.72	21945
854.854	21960
854.988	21876
855.122	21899
855.256	21888
855.39	21991
855.524	21865
855.658	21926
855.792	21854
855.926	22002
856.06	21994
856.194	21953
856.327	21907
856.461	21854
856.595	21823
856.729	21930
856.862	21975
856.996	21934
857.13	21895
857.263	22166
857.397	22055
857.53	21998
857.664	21918
857.797	22036
857.931	22002
858.064	21964
858.197	22032
858.331	21956
858.464	21899
858.597	21865
858.731	21865
858.864	21846
858.997	21785
859.13	21827
859.263	21922
859.396	22063
859.529	21884
859.662	21800
859.795	21937
859.928	22067
860.061	22006
860.194	22131
860.327	21892
860.46	21960
860.592	22101
860.725	22044
860.858	22086
860.99	22048
861.123	21964
861.256	21911
861.388	22044
861.521	22706
861.653	21728
861.786	21819
861.918	21869
862.05	21835
862.183	21728
862.315	21953
862.447	21987
862.58	21755
862.712	21701
862.844	21637
862.976	21747
863.108	21724
863.24	22063
863.372	21504
863.504	21549
863.636	21538
863.768	21679
863.9	21561
864.032	21595
864.164	21648
864.296	21660
864.428	21679
864.559	21755
864.691	21743
864.823	21587
864.954	21747
865.086	21583
865.217	21637
865.349	21393
865.48	21477
865.612	21545
865.743	21694
865.875	21511
866.006	21447
866.137	21553
866.269	21462
866.4	21511
866.531	21424
866.662	21405
866.793	21370
866.924	21412
867.055	21504
867.186	21450
867.317	21408
867.448	21367
867.579	21389
867.71	21363
867.841	21397
867.972	21481
868.103	21351
868.233	21454
868.364	21485
868.495	21393
868.625	21705
868.756	21854
868.886	21751
869.017	21629
869.147	21644
869.278	21709
869.408	21789
869.539	21785
869.669	21736
869.799	21755
869.929	21846
870.06	21831
870.19	21930
870.32	21930
870.45	22112
870.58	22169
870.71	22162
870.84	22261
870.97	22044
871.1	22105
871.23	22234
871.36	22211
871.489	22131
871.619	22185
871.749	22234
871.879	22325
872.008	22249
872.138	22284
872.267	22223
872.397	22143
872.526	22051
872.656	22048
872.785	22124
872.915	22261
873.044	22424
873.173	22314
873.303	22356
873.432	22219
873.561	22371
873.69	22200
873.819	22303
873.948	22265
874.077	22169
874.206	22223
874.335	22341
874.464	22295
874.593	22523
874.722	22432
874.851	22424
874.979	22500
875.108	22508
875.237	22470
875.365	22394
875.494	22565
875.623	22523
875.751	22322
875.88	22500
876.008	22694
876.136	22691
876.265	22858
876.393	23060
876.521	22862
876.65	22908
876.778	22904
876.906	22702
877.034	22927
877.162	22801
877.29	22835
877.418	22892
877.546	22786
877.674	22778
877.802	22835
877.93	22949
878.058	22782
878.185	22812
878.313	22847
878.441	22873
878.568	22622
878.696	22702
878.824	22805
878.951	23056
879.079	23033
879.206	23044
879.333	22995
879.461	22820
879.588	22984
879.715	23022
879.842	23124
879.97	22938
880.097	22691
880.224	22691
880.351	22763
880.478	22679
880.605	22603
880.732	22668
880.859	22755
880.986	22592
881.112	22668
881.239	22622
881.366	22329
881.493	22348
881.619	22341
881.746	22242
881.872	22223
881.999	22249
882.125	22105
882.252	22322
882.378	22158
882.505	22382
882.631	21975
882.757	21926
882.883	21983
883.01	21960
883.136	21816
883.262	21838
883.388	21800
883.514	21850
883.64	21911
883.766	21857
883.892	21717
884.018	21743
884.143	21922
884.269	21937
884.395	21545
884.52	21564
884.646	21580
884.772	21610
884.897	21462
885.023	21549
885.148	21622
885.274	21728
885.399	21675
885.524	21580
885.65	21606
885.775	21606
885.9	21466
886.025	21610
886.15	21701
886.275	21507
886.4	21530
886.525	21599
886.65	21511
886.775	21557
886.9	21671
887.025	21660
887.149	21572
887.274	21363
887.399	21351
887.523	21325
887.648	21386
887.773	21226
887.897	21321
888.021	21473
888.146	21230
888.27	21325
888.395	21477
888.519	21397
888.643	21226
888.767	21363
888.891	21233
889.015	21116
889.139	21256
889.263	21051
889.387	21226
889.511	21355
889.635	21233
889.759	21192
889.883	21085
890.006	21104
890.13	21127
890.254	21043
890.377	21036
890.501	20785
890.624	20914
890.748	20910
890.871	20773
890.995	20746
891.118	20556
891.241	20739
891.364	20777
891.488	20758
891.611	20750
891.734	20609
891.857	20720
891.98	20632
892.103	20670
892.226	20667
892.349	20693
892.471	20484
892.594	20556
892.717	20575
892.839	20514
892.962	20575
893.085	20689
893.207	20465
893.33	20476
893.452	20476
893.575	20785
893.697	20434
893.819	20670
893.941	20731
894.064	20708
894.186	20465
894.308	20412
894.43	20644
894.552	20655
894.674	20724
894.796	20552
894.918	20537
895.04	20499
895.161	20617
895.283	20613
895.405	20454
895.526	20514
895.648	20617
895.769	20625
895.891	20625
896.012	20625
896.134	20632
896.255	20590
896.376	20526
896.498	20575
896.619	20511
896.74	20541
896.861	20514
896.982	20963
897.103	21009
897.224	20830
897.345	20845
897.466	20701
897.587	20758
897.708	20864
897.828	20758
897.949	20746
898.07	20629
898.19	20762
898.311	20705
898.431	20743
898.552	20716
898.672	20864
898.792	20754
898.913	20743
899.033	20750
899.153	20575
899.273	20404
899.393	20579
899.513	20587
899.633	20469
899.753	20480
899.873	20374
899.993	20461
900.113	20400
900.232	20484
900.352	20480
900.472	20286
900.591	20138
900.711	20195
900.83	20248
900.95	20377
901.069	20351
901.189	20164
901.308	20020
901.427	19780
901.546	19814
901.665	19822
901.784	19917
901.904	19742
902.023	19666
902.141	19578
902.26	19350
902.379	19548
902.498	19373
902.617	19266
902.735	19350
902.854	19358
902.973	19285
903.091	19145
903.21	19042
903.328	18996
903.446	18932
903.565	18817
903.683	18798
903.801	18749
903.919	18700
904.038	18730
904.156	18677
904.274	18715
904.392	18566
904.51	18479
904.627	18532
904.745	18589
904.863	18589
904.981	18433
905.098	18304
905.216	18304
905.334	18232
905.451	18194
905.569	18144
905.686	18323
905.803	18155
905.921	18030
906.038	18182
906.155	18148
906.272	17988
906.389	17988
906.506	17855
906.623	17874
906.74	17832
906.857	17691
906.974	17691
907.091	17824
907.208	17870
907.324	17707
907.441	17695
907.557	17608
907.674	17497
907.79	17433
907.907	17486
908.023	17509
908.139	17543
908.256	17436
908.372	17330
908.488	17395
908.604	17246
908.72	17204
908.836	17227
908.952	17181
909.068	17296
909.184	17265
909.3	17174
909.415	17212
909.531	17117
909.647	16949
909.762	17075
909.878	16900
909.993	16946
910.108	16835
910.224	16797
910.339	16896
910.454	16717
910.57	16793
910.685	16675
910.8	16946
910.915	16896
911.03	16790
911.145	16618
911.259	16523
911.374	16516
911.489	16459
911.604	16421
911.718	16242
911.833	16162
911.947	16177
912.062	16097
912.176	16242
912.291	16192
912.405	16223
912.519	16436
912.633	16489
912.748	16291
912.862	16120
912.976	16093
913.09	15934
913.204	16112
913.318	16139
913.431	16120
913.545	16135
913.659	16196
913.772	16082
913.886	16093
914	15907
914.113	15869
914.226	15987
914.34	16044
914.453	15656
914.566	15846
914.68	15762
914.793	15789
914.906	15481
915.019	15435
915.132	15435
915.245	15374
915.358	15507
915.47	15370
915.583	15492
915.696	15545
915.809	15492
915.921	15542
916.034	15507
916.146	15458
916.259	15317
916.371	15511
916.483	15424
916.595	15207
916.708	15252
916.82	15336
916.932	15336
917.044	15218
917.156	15214
917.268	15081
917.38	15176
917.491	15039
917.603	15070
917.715	15249
917.826	15165
917.938	15077
918.049	14876
918.161	15043
918.272	15203
918.384	15169
918.495	15043
918.606	14914
918.717	14796
918.828	14842
918.939	14804
919.05	14739
919.161	14788
919.272	14625
919.383	14735
919.494	14880
919.604	14990
919.715	14781
919.826	14697
919.936	14701
920.047	14807
920.157	14887
920.267	14998
920.378	14746
920.488	14815
920.598	14986
920.708	15165
920.818	14933
920.928	14971
921.038	15070
921.148	15017
921.258	14682
921.368	14629
921.477	14526
921.587	14461
921.697	14465
921.806	14495
921.916	14385
922.025	14191
922.134	14187
922.244	14100
922.353	14142
922.462	14111
922.571	13951
922.68	13875
922.789	13822
922.898	13803
923.007	13761
923.116	13818
923.224	13780
923.333	13791
923.442	13639
923.55	13597
923.659	13651
923.767	13658
923.876	13518
923.984	13708
924.092	13537
924.201	13552
924.309	13567
924.417	13578
924.525	13449
924.633	13487
924.741	14271
924.849	13346
924.956	13411
925.064	13293
925.172	13129
925.279	13156
925.387	13198
925.494	13095
925.602	13358
925.709	13255
925.816	13198
925.924	13122
926.031	13251
926.138	13190
926.245	13221
926.352	13061
926.459	13141
926.566	13190
926.673	13019
926.779	12954
926.886	12894
926.993	12779
927.099	12772
927.206	12726
927.312	12757
927.419	12829
927.525	12650
927.631	12757
927.737	12547
927.843	12654
927.95	12475
928.056	12536
928.162	12563
928.267	12620
928.373	13088
928.479	12612
928.585	12407
928.69	12536
928.796	12540
928.901	12372
929.007	12273
929.112	12448
929.218	12361
929.323	12365
929.428	12353
929.533	12410
929.638	12289
929.743	12159
929.848	12277
929.953	12304
930.058	12049
930.163	12026
930.267	11946
930.372	12022
930.477	11935
930.581	12213
930.685	12079
930.79	11859
930.894	11885
930.998	11824
931.103	11916
931.207	11577
931.311	11524
931.415	11417
931.519	11235
931.623	11227
