Data from test_V78500241_3570.txt Node
Date: Fri Mar 25 15:34:43 CST 2022
User: usil
Spectrometer: V785-0024
Trigger mode: 0
Integration Time (sec): 4.000000E-1
Scans to average: 1
Nonlinearity correction enabled: false
Boxcar width: 0
Storing dark spectrum: false
XAxis mode: Wavelengths
Number of Pixels in Spectrum: 1024
>>>>>Begin Spectral Data<<<<<
801.071	27504
801.214	27298
801.356	27104
801.499	26864
801.641	26834
801.783	26705
801.926	26842
802.068	26781
802.211	26727
802.353	26583
802.496	26571
802.638	26629
802.78	26415
802.923	26328
803.065	26400
803.208	26256
803.35	26453
803.492	26621
803.635	26594
803.777	26518
803.919	26769
804.061	27051
804.204	26632
804.346	26720
804.488	26442
804.63	26606
804.773	26461
804.915	26564
805.057	26739
805.199	26655
805.341	26606
805.483	26800
805.626	26773
805.768	26701
805.91	26663
806.052	26727
806.194	26792
806.336	26861
806.478	26541
806.62	26590
806.762	26940
806.904	27001
807.046	27378
807.188	27070
807.33	27249
807.472	27169
807.614	26990
807.756	27226
807.898	27017
808.04	26925
808.182	26944
808.324	27009
808.465	26902
808.607	27184
808.749	27230
808.891	27363
809.033	27386
809.174	27439
809.316	27329
809.458	27389
809.6	27275
809.741	27370
809.883	27458
810.025	27614
810.166	27454
810.308	27671
810.45	27488
810.591	27431
810.733	27397
810.875	27329
811.016	27214
811.158	27249
811.299	27386
811.441	27393
811.582	27279
811.724	27321
811.865	27272
812.007	27310
812.148	27332
812.29	27431
812.431	27526
812.573	27709
812.714	27656
812.855	27762
812.997	28002
813.138	27903
813.279	27888
813.421	27914
813.562	27797
813.703	27618
813.845	27469
813.986	27188
814.127	27180
814.268	26891
814.41	27013
814.551	26925
814.692	27089
814.833	27043
814.974	26769
815.115	26925
815.256	26864
815.397	26758
815.539	26834
815.68	26895
815.821	26632
815.962	26769
816.103	26659
816.244	26530
816.385	26602
816.526	26499
816.666	26408
816.807	26248
816.948	26278
817.089	26275
817.23	26282
817.371	26214
817.512	26294
817.653	26221
817.793	26187
817.934	26172
818.075	26298
818.216	26320
818.356	26092
818.497	26214
818.638	25997
818.778	26001
818.919	26073
819.06	26103
819.2	26157
819.341	26396
819.481	26240
819.622	26336
819.762	26598
819.903	26438
820.043	26446
820.184	26389
820.324	26256
820.465	26237
820.605	26484
820.746	26206
820.886	26195
821.026	26309
821.167	26157
821.307	26244
821.447	26145
821.588	26202
821.728	25909
821.868	25860
822.008	25685
822.149	25761
822.289	25776
822.429	25422
822.569	25453
822.709	25460
822.849	25240
822.99	25327
823.13	25187
823.27	25213
823.41	24878
823.55	24962
823.69	24966
823.83	25084
823.97	24951
824.11	24852
824.25	24897
824.389	24825
824.529	24897
824.669	24996
824.809	25008
824.949	24981
825.089	24916
825.228	24844
825.368	24730
825.508	24677
825.648	24681
825.787	24703
825.927	24848
826.067	24696
826.206	24867
826.346	24810
826.485	24821
826.625	24738
826.765	24825
826.904	24783
827.044	24700
827.183	24498
827.323	24467
827.462	24445
827.601	24224
827.741	24376
827.88	24429
828.02	24315
828.159	24334
828.298	24323
828.437	24460
828.577	24380
828.716	24414
828.855	24475
828.994	24098
829.134	24155
829.273	24133
829.412	24106
829.551	24140
829.69	24133
829.829	24133
829.968	24136
830.107	24178
830.246	24133
830.385	24098
830.524	24072
830.663	23863
830.802	23912
830.941	23824
831.08	23699
831.219	23840
831.357	23973
831.496	23927
831.635	23809
831.774	23657
831.913	23646
832.051	23615
832.19	23543
832.329	23497
832.467	23531
832.606	23398
832.744	23379
832.883	23512
833.022	23490
833.16	23459
833.299	23410
833.437	23490
833.576	23493
833.714	23589
833.852	23585
833.991	23608
834.129	23767
834.267	23676
834.406	23611
834.544	23630
834.682	23486
834.821	23608
834.959	23786
835.097	23444
835.235	23516
835.373	23455
835.511	23535
835.65	23425
835.788	23452
835.926	23178
836.064	23200
836.202	23181
836.34	23387
836.478	23444
836.615	23356
836.753	23345
836.891	23528
837.029	23448
837.167	23406
837.305	23341
837.443	23155
837.58	23265
837.718	23208
837.856	23162
837.993	23235
838.131	23147
838.269	22999
838.406	23273
838.544	23025
838.681	22892
838.819	22873
838.956	22771
839.094	22759
839.231	22790
839.369	22892
839.506	23284
839.643	22923
839.781	22934
839.918	22778
840.055	22626
840.193	22687
840.33	22641
840.467	22668
840.604	22816
840.742	22923
840.879	22519
841.016	22672
841.153	22592
841.29	22786
841.427	22683
841.564	22679
841.701	22588
841.838	22588
841.975	22645
842.112	22603
842.249	22443
842.385	22405
842.522	22694
842.659	22493
842.796	22447
842.933	22542
843.069	22436
843.206	22455
843.343	22519
843.479	22424
843.616	22440
843.752	22226
843.889	22310
844.025	22394
844.162	22135
844.298	22405
844.435	22181
844.571	22230
844.708	22249
844.844	22303
844.98	22405
845.117	22280
845.253	22253
845.389	22048
845.525	22131
845.661	22116
845.798	21816
845.934	21884
846.07	21789
846.206	21949
846.342	22055
846.478	21876
846.614	21751
846.75	21690
846.886	21614
847.022	21743
847.158	21739
847.294	21728
847.429	21698
847.565	21603
847.701	21926
847.837	21519
847.972	21359
848.108	21469
848.244	21534
848.379	21420
848.515	21287
848.65	21291
848.786	21298
848.921	21329
849.057	21435
849.192	21481
849.328	21386
849.463	21252
849.598	21245
849.734	21146
849.869	21119
850.004	21032
850.14	21070
850.275	21017
850.41	20952
850.545	20963
850.68	21104
850.815	21036
850.95	21058
851.085	21173
851.22	21135
851.355	21055
851.49	21077
851.625	21005
851.76	21028
851.895	20842
852.03	21017
852.165	21043
852.299	21142
852.434	21058
852.569	20914
852.703	20975
852.838	21028
852.973	21211
853.107	21142
853.242	20937
853.376	20933
853.511	20644
853.645	20842
853.78	20990
853.914	20876
854.048	20921
854.183	20880
854.317	21020
854.451	20986
854.585	20982
854.72	20872
854.854	20998
854.988	20838
855.122	20975
855.256	20743
855.39	20910
855.524	20990
855.658	20914
855.792	20853
855.926	20861
856.06	21047
856.194	20929
856.327	20895
856.461	20864
856.595	20781
856.729	20762
856.862	20975
856.996	20857
857.13	20944
857.263	20944
857.397	20883
857.53	20902
857.664	20979
857.797	20986
857.931	21028
858.064	20811
858.197	21043
858.331	20857
858.464	20853
858.597	20826
858.731	20895
858.864	20838
858.997	20811
859.13	20876
859.263	20815
859.396	20864
859.529	20785
859.662	20857
859.795	20838
859.928	20921
860.061	21043
860.194	21123
860.327	20933
860.46	20868
860.592	20899
860.725	21066
860.858	20868
860.99	20861
861.123	20689
861.256	20823
861.388	20963
861.521	21709
861.653	20708
861.786	20648
861.918	20674
862.05	20648
862.183	20762
862.315	20842
862.447	20781
862.58	20788
862.712	20568
862.844	20530
862.976	20693
863.108	20621
863.24	20937
863.372	20606
863.504	20667
863.636	20549
863.768	20587
863.9	20606
864.032	20488
864.164	20503
864.296	20560
864.428	20663
864.559	20629
864.691	20590
864.823	20552
864.954	20533
865.086	20640
865.217	20355
865.349	20385
865.48	20381
865.612	20461
865.743	20564
865.875	20408
866.006	20492
866.137	20514
866.269	20522
866.4	20370
866.531	20492
866.662	20362
866.793	20366
866.924	20347
867.055	20514
867.186	20358
867.317	20347
867.448	20336
867.579	20393
867.71	20351
867.841	20339
867.972	20511
868.103	20480
868.233	20465
868.364	20503
868.495	20545
868.625	20712
868.756	20739
868.886	20617
869.017	20594
869.147	20769
869.278	20750
869.408	20693
869.539	20571
869.669	20720
869.799	20644
869.929	20777
870.06	20906
870.19	21009
870.32	20883
870.45	21028
870.58	21066
870.71	21207
870.84	21100
870.97	21039
871.1	21074
871.23	21203
871.36	21218
871.489	21184
871.619	21214
871.749	21275
871.879	21355
872.008	21416
872.138	21317
872.267	21100
872.397	21241
872.526	21089
872.656	21116
872.785	20960
872.915	21199
873.044	21378
873.173	21321
873.303	21386
873.432	21386
873.561	21416
873.69	21287
873.819	21241
873.948	21408
874.077	21313
874.206	21176
874.335	21256
874.464	21416
874.593	21431
874.722	21545
874.851	21679
874.979	21557
875.108	21568
875.237	21603
875.365	21511
875.494	21507
875.623	21534
875.751	21572
875.88	21500
876.008	21675
876.136	21812
876.265	21983
876.393	21972
876.521	21945
876.65	21953
876.778	21823
876.906	21766
877.034	21907
877.162	21884
877.29	21861
877.418	21850
877.546	21869
877.674	21842
877.802	21884
877.93	21945
878.058	21994
878.185	21797
878.313	21941
878.441	21934
878.568	21743
878.696	21812
878.824	21934
878.951	21918
879.079	21994
879.206	22116
879.333	22074
879.461	21888
879.588	21945
879.715	22097
879.842	22067
879.97	21937
880.097	21705
880.224	21686
880.351	21717
880.478	21724
880.605	21701
880.732	21701
880.859	21804
880.986	21743
881.112	21652
881.239	21625
881.366	21496
881.493	21412
881.619	21249
881.746	21325
881.872	21302
881.999	21199
882.125	21252
882.252	21344
882.378	21370
882.505	21378
882.631	21138
882.757	21062
882.883	21112
883.01	21017
883.136	20933
883.262	20880
883.388	20686
883.514	20925
883.64	20986
883.766	20971
883.892	20720
884.018	20861
884.143	20982
884.269	21009
884.395	20754
884.52	20686
884.646	20724
884.772	20526
884.897	20693
885.023	20686
885.148	20754
885.274	20670
885.399	20648
885.524	20705
885.65	20632
885.775	20644
885.9	20689
886.025	20819
886.15	20659
886.275	20507
886.4	20541
886.525	20602
886.65	20606
886.775	20469
886.9	20674
887.025	20811
887.149	20640
887.274	20530
887.399	20393
887.523	20385
887.648	20358
887.773	20286
887.897	20545
888.021	20442
888.146	20271
888.27	20541
888.395	20526
888.519	20461
888.643	20366
888.767	20446
888.891	20309
889.015	20233
889.139	20172
889.263	20180
889.387	20336
889.511	20324
889.635	20442
889.759	20221
889.883	20161
890.006	20221
890.13	20355
890.254	20065
890.377	20168
890.501	19898
890.624	19955
890.748	19967
890.871	20001
890.995	19822
891.118	19868
891.241	19727
891.364	19795
891.488	19875
891.611	19849
891.734	19696
891.857	19860
891.98	19883
892.103	19807
892.226	19731
892.349	19681
892.471	19544
892.594	19693
892.717	19757
892.839	19662
892.962	19689
893.085	19807
893.207	19666
893.33	19609
893.452	19647
893.575	19742
893.697	19601
893.819	19803
893.941	19909
894.064	19879
894.186	19567
894.308	19651
894.43	19761
894.552	19723
894.674	19894
894.796	19601
894.918	19727
895.04	19594
895.161	19864
895.283	19780
895.405	19605
895.526	19803
895.648	19742
895.769	19757
895.891	19727
896.012	19963
896.134	19605
896.255	19696
896.376	19677
896.498	19845
896.619	19818
896.74	19750
896.861	19731
896.982	20043
897.103	20142
897.224	19959
897.345	19951
897.466	19913
897.587	19917
897.708	20107
897.828	19875
897.949	19795
898.07	19738
898.19	19864
898.311	20027
898.431	19883
898.552	19932
898.672	19928
898.792	19906
898.913	19986
899.033	19734
899.153	19738
899.273	19601
899.393	19734
899.513	19780
899.633	19731
899.753	19685
899.873	19594
899.993	19772
900.113	19632
900.232	19651
900.352	19521
900.472	19521
900.591	19480
900.711	19419
900.83	19434
900.95	19476
901.069	19578
901.189	19381
901.308	19126
901.427	19091
901.546	19053
901.665	19061
901.784	18989
901.904	18920
902.023	18749
902.141	18658
902.26	18646
902.379	18730
902.498	18570
902.617	18559
902.735	18620
902.854	18540
902.973	18410
903.091	18247
903.21	18201
903.328	18205
903.446	18201
903.565	18003
903.683	18019
903.801	17885
903.919	17866
904.038	17942
904.156	17847
904.274	17851
904.392	17908
904.51	17821
904.627	17722
904.745	17840
904.863	17843
904.981	17596
905.098	17490
905.216	17505
905.334	17543
905.451	17486
905.569	17524
905.686	17524
905.803	17436
905.921	17246
906.038	17372
906.155	17341
906.272	17162
906.389	17280
906.506	17094
906.623	17033
906.74	17029
906.857	16953
906.974	17003
907.091	17060
907.208	17075
907.324	17166
907.441	16869
907.557	16877
907.674	16835
907.79	16626
907.907	16710
908.023	16763
908.139	16790
908.256	16725
908.372	16672
908.488	16649
908.604	16577
908.72	16531
908.836	16382
908.952	16508
909.068	16497
909.184	16577
909.3	16481
909.415	16432
909.531	16573
909.647	16207
909.762	16246
909.878	16215
909.993	16116
910.108	16131
910.224	16272
910.339	16211
910.454	16101
910.57	15918
910.685	16017
910.8	16139
910.915	16082
911.03	15979
911.145	15865
911.259	15778
911.374	15835
911.489	15804
911.604	15751
911.718	15580
911.833	15530
911.947	15458
912.062	15443
912.176	15545
912.291	15454
912.405	15591
912.519	15637
912.633	15694
912.748	15542
912.862	15576
912.976	15443
913.09	15233
913.204	15325
913.318	15443
913.431	15386
913.545	15435
913.659	15504
913.772	15310
913.886	15116
914	15039
914.113	15192
914.226	15222
914.34	15230
914.453	15066
914.566	15199
914.68	15184
914.793	15017
914.906	14857
915.019	14819
915.132	14845
915.245	14849
915.358	14781
915.47	14804
915.583	14777
915.696	14872
915.809	14887
915.921	14899
916.034	14705
916.146	14644
916.259	14632
916.371	14705
916.483	14823
916.595	14708
916.708	14613
916.82	14564
916.932	14571
917.044	14625
917.156	14564
917.268	14385
917.38	14423
917.491	14434
917.603	14438
917.715	14480
917.826	14362
917.938	14317
918.049	14218
918.161	14347
918.272	14514
918.384	14526
918.495	14381
918.606	14332
918.717	14130
918.828	14294
918.939	14240
919.05	14187
919.161	14252
919.272	13970
919.383	14103
919.494	14290
919.604	14332
919.715	14202
919.826	14065
919.936	14164
920.047	14271
920.157	14149
920.267	14374
920.378	14210
920.488	14142
920.598	14351
920.708	14400
920.818	14263
920.928	14381
921.038	14518
921.148	14328
921.258	14176
921.368	14115
921.477	13925
921.587	13917
921.697	13818
921.806	13993
921.916	13647
922.025	13601
922.134	13605
922.244	13578
922.353	13582
922.462	13476
922.571	13377
922.68	13217
922.789	13232
922.898	13217
923.007	13194
923.116	13324
923.224	13194
923.333	13232
923.442	13084
923.55	13088
923.659	13099
923.767	13141
923.876	13023
923.984	13076
924.092	12954
924.201	13038
924.309	12939
924.417	13019
924.525	12878
924.633	12935
924.741	13868
924.849	12730
924.956	12856
925.064	12650
925.172	12544
925.279	12650
925.387	12722
925.494	12612
925.602	12719
925.709	12654
925.816	12547
925.924	12509
926.031	12669
926.138	12604
926.245	12601
926.352	12445
926.459	12601
926.566	12677
926.673	12563
926.779	12448
926.886	12464
926.993	12232
927.099	12201
927.206	12251
927.312	12251
927.419	12247
927.525	12224
927.631	12327
927.737	12148
927.843	12007
927.95	11961
928.056	12091
928.162	12095
928.267	12201
928.373	12627
928.479	12121
928.585	11882
928.69	11954
928.796	12083
928.901	11977
929.007	11710
929.112	11901
929.218	11980
929.323	11802
929.428	11771
929.533	11870
929.638	11653
929.743	11828
929.848	11802
929.953	11668
930.058	11600
930.163	11497
930.267	11547
930.372	11684
930.477	11452
930.581	11752
930.685	11410
930.79	11353
930.894	11330
930.998	11288
931.103	11512
931.207	11128
931.311	11033
931.415	10953
931.519	10812
931.623	10733
