Data from test_V78500241_3012.txt Node
Date: Fri Mar 25 15:30:49 CST 2022
User: usil
Spectrometer: V785-0024
Trigger mode: 0
Integration Time (sec): 4.000000E-1
Scans to average: 1
Nonlinearity correction enabled: false
Boxcar width: 0
Storing dark spectrum: false
XAxis mode: Wavelengths
Number of Pixels in Spectrum: 1024
>>>>>Begin Spectral Data<<<<<
801.071	27226
801.214	27161
801.356	26899
801.499	26948
801.641	26762
801.783	26937
801.926	26910
802.068	26720
802.211	26804
802.353	26583
802.496	26480
802.638	26480
802.78	26377
802.923	26381
803.065	26385
803.208	26309
803.35	26415
803.492	26446
803.635	26594
803.777	26453
803.919	26632
804.061	26880
804.204	26655
804.346	26507
804.488	26320
804.63	26453
804.773	26465
804.915	26648
805.057	26518
805.199	26526
805.341	26792
805.483	26758
805.626	26735
805.768	26617
805.91	26720
806.052	26853
806.194	26602
806.336	26701
806.478	26663
806.62	26686
806.762	26781
806.904	26891
807.046	27214
807.188	27173
807.33	27256
807.472	27108
807.614	27119
807.756	27009
807.898	27013
808.04	27020
808.182	26883
808.324	26861
808.465	27085
808.607	27150
808.749	27355
808.891	27374
809.033	27401
809.174	27443
809.316	27249
809.458	27252
809.6	27325
809.741	27488
809.883	27519
810.025	27523
810.166	27443
810.308	27606
810.45	27500
810.591	27576
810.733	27256
810.875	27397
811.016	27051
811.158	27264
811.299	27416
811.441	27439
811.582	27401
811.724	27401
811.865	27199
812.007	27157
812.148	27184
812.29	27211
812.431	27382
812.573	27694
812.714	27606
812.855	27759
812.997	27869
813.138	28029
813.279	27941
813.421	27876
813.562	27781
813.703	27603
813.845	27427
813.986	27157
814.127	27070
814.268	26891
814.41	27047
814.551	26979
814.692	26933
814.833	26971
814.974	26975
815.115	27039
815.256	26765
815.397	26800
815.539	26861
815.68	26804
815.821	26720
815.962	26701
816.103	26674
816.244	26522
816.385	26457
816.526	26488
816.666	26366
816.807	26111
816.948	26309
817.089	26339
817.23	26301
817.371	26240
817.512	26248
817.653	26122
817.793	26058
817.934	26214
818.075	26161
818.216	26233
818.356	26229
818.497	25970
818.638	25959
818.778	26020
818.919	25879
819.06	26058
819.2	26142
819.341	26111
819.481	26271
819.622	26351
819.762	26549
819.903	26476
820.043	26400
820.184	26317
820.324	26374
820.465	26309
820.605	26267
820.746	26347
820.886	26115
821.026	26332
821.167	26214
821.307	26282
821.447	26339
821.588	26100
821.728	26005
821.868	25845
822.008	25807
822.149	25674
822.289	25658
822.429	25350
822.569	25365
822.709	25266
822.849	25312
822.99	25187
823.13	25061
823.27	25190
823.41	25004
823.55	24924
823.69	24901
823.83	24985
823.97	24913
824.11	24768
824.25	24757
824.389	24776
824.529	24871
824.669	24703
824.809	24867
824.949	24989
825.089	24806
825.228	24837
825.368	24574
825.508	24776
825.648	24608
825.787	24631
825.927	24688
826.067	24521
826.206	24604
826.346	24650
826.485	24757
826.625	24582
826.765	24745
826.904	24783
827.044	24448
827.183	24509
827.323	24342
827.462	24475
827.601	24426
827.741	24334
827.88	24315
828.02	24232
828.159	24357
828.298	24433
828.437	24365
828.577	24232
828.716	24285
828.855	24235
828.994	24018
829.134	23927
829.273	24136
829.412	24007
829.551	24003
829.69	24026
829.829	24129
829.968	24155
830.107	24125
830.246	24041
830.385	23851
830.524	23927
830.663	23855
830.802	23832
830.941	23745
831.08	23745
831.219	23729
831.357	23718
831.496	23984
831.635	23760
831.774	23581
831.913	23539
832.051	23471
832.19	23398
832.329	23490
832.467	23353
832.606	23235
832.744	23349
832.883	23372
833.022	23239
833.16	23193
833.299	23410
833.437	23490
833.576	23421
833.714	23421
833.852	23471
833.991	23417
834.129	23398
834.267	23478
834.406	23372
834.544	23467
834.682	23436
834.821	23322
834.959	23562
835.097	23242
835.235	23444
835.373	23493
835.511	23322
835.65	23387
835.788	23296
835.926	23140
836.064	23090
836.202	23124
836.34	23277
836.478	23334
836.615	23239
836.753	23246
836.891	23318
837.029	23235
837.167	23121
837.305	23098
837.443	23086
837.58	23006
837.718	23155
837.856	23216
837.993	23029
838.131	23159
838.269	23033
838.406	22999
838.544	22911
838.681	22733
838.819	22683
838.956	22546
839.094	22481
839.231	22634
839.369	22771
839.506	22953
839.643	22816
839.781	22653
839.918	22607
840.055	22459
840.193	22542
840.33	22557
840.467	22504
840.604	22538
840.742	22771
840.879	22322
841.016	22386
841.153	22360
841.29	22535
841.427	22497
841.564	22519
841.701	22363
841.838	22508
841.975	22409
842.112	22497
842.249	22337
842.385	22204
842.522	22493
842.659	22333
842.796	22143
842.933	22291
843.069	22261
843.206	22226
843.343	22200
843.479	22287
843.616	22291
843.752	22051
843.889	21922
844.025	22051
844.162	21983
844.298	22131
844.435	22059
844.571	21994
844.708	21998
844.844	22196
844.98	22192
845.117	22177
845.253	21975
845.389	21857
845.525	21785
845.661	21793
845.798	21728
845.934	21918
846.07	21732
846.206	21850
846.342	21804
846.478	21709
846.614	21538
846.75	21488
846.886	21466
847.022	21466
847.158	21545
847.294	21428
847.429	21568
847.565	21397
847.701	21759
847.837	21348
847.972	21275
848.108	21306
848.244	21230
848.379	21207
848.515	21062
848.65	20960
848.786	21005
848.921	20979
849.057	21142
849.192	21138
849.328	21154
849.463	21009
849.598	21062
849.734	20982
849.869	21028
850.004	20853
850.14	20914
850.275	20762
850.41	20842
850.545	20830
850.68	20769
850.815	20998
850.95	20857
851.085	20937
851.22	20929
851.355	20883
851.49	20906
851.625	20807
851.76	20895
851.895	20750
852.03	20876
852.165	20823
852.299	20918
852.434	20864
852.569	20845
852.703	20929
852.838	20830
852.973	20986
853.107	20960
853.242	20754
853.376	20701
853.511	20663
853.645	20492
853.78	20792
853.914	20773
854.048	20629
854.183	20678
854.317	20674
854.451	20967
854.585	20621
854.72	20746
854.854	20762
854.988	20587
855.122	20606
855.256	20499
855.39	20575
855.524	20792
855.658	20708
855.792	20739
855.926	20682
856.06	20750
856.194	20762
856.327	20686
856.461	20640
856.595	20522
856.729	20552
856.862	20731
856.996	20727
857.13	20697
857.263	20750
857.397	20754
857.53	20655
857.664	20724
857.797	20853
857.931	20754
858.064	20632
858.197	20891
858.331	20781
858.464	20598
858.597	20552
858.731	20716
858.864	20655
858.997	20708
859.13	20659
859.263	20648
859.396	20765
859.529	20632
859.662	20594
859.795	20533
859.928	20712
860.061	20986
860.194	20891
860.327	20697
860.46	20708
860.592	20754
860.725	20880
860.858	20906
860.99	20674
861.123	20556
861.256	20503
861.388	20598
861.521	21237
861.653	20590
861.786	20450
861.918	20511
862.05	20454
862.183	20606
862.315	20682
862.447	20807
862.58	20522
862.712	20423
862.844	20362
862.976	20434
863.108	20427
863.24	20929
863.372	20324
863.504	20465
863.636	20317
863.768	20522
863.9	20328
864.032	20252
864.164	20301
864.296	20473
864.428	20355
864.559	20381
864.691	20465
864.823	20370
864.954	20446
865.086	20442
865.217	20275
865.349	20301
865.48	20317
865.612	20233
865.743	20320
865.875	20298
866.006	20328
866.137	20298
866.269	20332
866.4	20355
866.531	20183
866.662	20176
866.793	20218
866.924	20240
867.055	20358
867.186	20298
867.317	20161
867.448	20046
867.579	20168
867.71	20016
867.841	20229
867.972	20271
868.103	20180
868.233	20195
868.364	20161
868.495	20317
868.625	20408
868.756	20571
868.886	20385
869.017	20427
869.147	20575
869.278	20636
869.408	20393
869.539	20526
869.669	20507
869.799	20606
869.929	20621
870.06	20560
870.19	20785
870.32	20948
870.45	20811
870.58	20960
870.71	20941
870.84	21024
870.97	20819
871.1	20906
871.23	20937
871.36	21119
871.489	20925
871.619	21127
871.749	21085
871.879	21127
872.008	21119
872.138	21165
872.267	21165
872.397	21043
872.526	20918
872.656	20960
872.785	20967
872.915	21169
873.044	21138
873.173	21119
873.303	21157
873.432	21184
873.561	21173
873.69	21112
873.819	21058
873.948	21203
874.077	21066
874.206	21043
874.335	20933
874.464	21306
874.593	21298
874.722	21127
874.851	21245
874.979	21435
875.108	21351
875.237	21329
875.365	21264
875.494	21279
875.623	21504
875.751	21264
875.88	21473
876.008	21458
876.136	21553
876.265	21778
876.393	21774
876.521	21835
876.65	21846
876.778	21743
876.906	21701
877.034	21667
877.162	21713
877.29	21599
877.418	21774
877.546	21720
877.674	21720
877.802	21778
877.93	21652
878.058	21641
878.185	21663
878.313	21690
878.441	21701
878.568	21401
878.696	21523
878.824	21698
878.951	21854
879.079	21823
879.206	21960
879.333	21812
879.461	21610
879.588	21751
879.715	21915
879.842	22051
879.97	21797
880.097	21534
880.224	21351
880.351	21538
880.478	21447
880.605	21488
880.732	21530
880.859	21720
880.986	21519
881.112	21542
881.239	21306
881.366	21325
881.493	21241
881.619	21081
881.746	21142
881.872	21131
881.999	21032
882.125	21017
882.252	21173
882.378	21074
882.505	21058
882.631	20918
882.757	20785
882.883	20883
883.01	20807
883.136	20758
883.262	20689
883.388	20651
883.514	20826
883.64	20804
883.766	20735
883.892	20689
884.018	20590
884.143	20754
884.269	20849
884.395	20583
884.52	20415
884.646	20571
884.772	20552
884.897	20317
885.023	20526
885.148	20571
885.274	20568
885.399	20617
885.524	20461
885.65	20480
885.775	20438
885.9	20427
886.025	20537
886.15	20465
886.275	20476
886.4	20370
886.525	20358
886.65	20278
886.775	20374
886.9	20594
887.025	20678
887.149	20343
887.274	20187
887.399	20263
887.523	20298
887.648	20271
887.773	20157
887.897	20328
888.021	20172
888.146	20161
888.27	20263
888.395	20187
888.519	20237
888.643	20271
888.767	20305
888.891	20130
889.015	20111
889.139	20161
889.263	19970
889.387	20138
889.511	20142
889.635	20218
889.759	19989
889.883	20027
890.006	19989
890.13	20111
890.254	19928
890.377	19967
890.501	19875
890.624	19746
890.748	19879
890.871	19715
890.995	19601
891.118	19540
891.241	19632
891.364	19674
891.488	19780
891.611	19643
891.734	19647
891.857	19689
891.98	19685
892.103	19586
892.226	19620
892.349	19658
892.471	19358
892.594	19586
892.717	19635
892.839	19460
892.962	19495
893.085	19620
893.207	19533
893.33	19316
893.452	19487
893.575	19609
893.697	19491
893.819	19700
893.941	19715
894.064	19662
894.186	19441
894.308	19411
894.43	19666
894.552	19712
894.674	19620
894.796	19468
894.918	19609
895.04	19476
895.161	19594
895.283	19620
895.405	19468
895.526	19438
895.648	19533
895.769	19514
895.891	19594
896.012	19597
896.134	19609
896.255	19499
896.376	19556
896.498	19613
896.619	19525
896.74	19529
896.861	19540
896.982	19967
897.103	20035
897.224	19860
897.345	19708
897.466	19761
897.587	19742
897.708	19887
897.828	19868
897.949	19578
898.07	19635
898.19	19700
898.311	19871
898.431	19712
898.552	19765
898.672	19871
898.792	19928
898.913	19674
899.033	19689
899.153	19567
899.273	19430
899.393	19601
899.513	19594
899.633	19518
899.753	19620
899.873	19415
899.993	19491
900.113	19533
900.232	19571
900.352	19339
900.472	19354
900.591	19339
900.711	19320
900.83	19236
900.95	19415
901.069	19419
901.189	19236
901.308	18913
901.427	18875
901.546	18875
901.665	18905
901.784	18913
901.904	18715
902.023	18673
902.141	18517
902.26	18395
902.379	18627
902.498	18532
902.617	18448
902.735	18490
902.854	18330
902.973	18388
903.091	18152
903.21	18072
903.328	18213
903.446	18049
903.565	18007
903.683	17950
903.801	17790
903.919	17874
904.038	17882
904.156	17741
904.274	17802
904.392	17691
904.51	17634
904.627	17676
904.745	17775
904.863	17737
904.981	17497
905.098	17330
905.216	17387
905.334	17368
905.451	17330
905.569	17349
905.686	17364
905.803	17322
905.921	17071
906.038	17117
906.155	17239
906.272	17094
906.389	17090
906.506	16942
906.623	16934
906.74	16949
906.857	16782
906.974	16759
907.091	17060
907.208	16965
907.324	17003
907.441	16828
907.557	16744
907.674	16637
907.79	16634
907.907	16558
908.023	16630
908.139	16626
908.256	16592
908.372	16493
908.488	16470
908.604	16367
908.72	16379
908.836	16341
908.952	16386
909.068	16333
909.184	16436
909.3	16337
909.415	16295
909.531	16348
909.647	16090
909.762	16097
909.878	16013
909.993	16044
910.108	15998
910.224	15979
910.339	16120
910.454	16013
910.57	15850
910.685	15846
910.8	15987
910.915	16002
911.03	15838
911.145	15637
911.259	15557
911.374	15648
911.489	15450
911.604	15500
911.718	15408
911.833	15424
911.947	15298
912.062	15294
912.176	15469
912.291	15397
912.405	15450
912.519	15625
912.633	15622
912.748	15389
912.862	15420
912.976	15340
913.09	15211
913.204	15150
913.318	15245
913.431	15275
913.545	15279
913.659	15416
913.772	15287
913.886	15017
914	15001
914.113	15135
914.226	15195
914.34	15070
914.453	14899
914.566	14941
914.68	14933
914.793	14876
914.906	14769
915.019	14648
915.132	14610
915.245	14693
915.358	14750
915.47	14758
915.583	14663
915.696	14720
915.809	14712
915.921	14796
916.034	14587
916.146	14579
916.259	14518
916.371	14587
916.483	14716
916.595	14533
916.708	14336
916.82	14644
916.932	14492
917.044	14457
917.156	14400
917.268	14347
917.38	14362
917.491	14180
917.603	14438
917.715	14362
917.826	14431
917.938	14290
918.049	14199
918.161	14282
918.272	14370
918.384	14454
918.495	14259
918.606	14043
918.717	14035
918.828	14111
918.939	14107
919.05	14043
919.161	14096
919.272	13894
919.383	13890
919.494	14020
919.604	14233
919.715	14084
919.826	13967
919.936	13993
920.047	14191
920.157	14142
920.267	14191
920.378	14046
920.488	13982
920.598	14180
920.708	14374
920.818	14240
920.928	14107
921.038	14404
921.148	14278
921.258	14005
921.368	13928
921.477	13909
921.587	13734
921.697	13712
921.806	13761
921.916	13693
922.025	13571
922.134	13510
922.244	13460
922.353	13457
922.462	13354
922.571	13350
922.68	13088
922.789	13099
922.898	13095
923.007	13027
923.116	13118
923.224	13255
923.333	13126
923.442	12962
923.55	12875
923.659	12958
923.767	13012
923.876	12977
923.984	12932
924.092	12890
924.201	12837
924.309	12840
924.417	12882
924.525	12806
924.633	12776
924.741	13518
924.849	12551
924.956	12734
925.064	12631
925.172	12475
925.279	12483
925.387	12616
925.494	12601
925.602	12662
925.709	12665
925.816	12369
925.924	12479
926.031	12566
926.138	12532
926.245	12620
926.352	12433
926.459	12559
926.566	12525
926.673	12426
926.779	12380
926.886	12273
926.993	12140
927.099	12220
927.206	12110
927.312	11999
927.419	12121
927.525	12155
927.631	12148
927.737	12053
927.843	11965
927.95	11897
928.056	11935
928.162	12003
928.267	12049
928.373	12559
928.479	12083
928.585	11802
928.69	11920
928.796	11996
928.901	11840
929.007	11707
929.112	11828
929.218	11745
929.323	11729
929.428	11691
929.533	11832
929.638	11646
929.743	11756
929.848	11691
929.953	11691
930.058	11554
930.163	11364
930.267	11402
930.372	11543
930.477	11410
930.581	11615
930.685	11463
930.79	11216
930.894	11395
930.998	11269
931.103	11410
931.207	11064
931.311	10987
931.415	10881
931.519	10607
931.623	10618
