Data from test_V78500241_2218.txt Node
Date: Fri Mar 25 15:25:18 CST 2022
User: usil
Spectrometer: V785-0024
Trigger mode: 0
Integration Time (sec): 4.000000E-1
Scans to average: 1
Nonlinearity correction enabled: false
Boxcar width: 0
Storing dark spectrum: false
XAxis mode: Wavelengths
Number of Pixels in Spectrum: 1024
>>>>>Begin Spectral Data<<<<<
801.071	27709
801.214	27751
801.356	27561
801.499	27443
801.641	27344
801.783	27374
801.926	27420
802.068	27488
802.211	27222
802.353	27245
802.496	27173
802.638	27024
802.78	26963
802.923	27013
803.065	27043
803.208	27043
803.35	27104
803.492	27173
803.635	27142
803.777	27214
803.919	27180
804.061	27507
804.204	27218
804.346	27085
804.488	27203
804.63	27291
804.773	27157
804.915	27283
805.057	27355
805.199	27287
805.341	27218
805.483	27397
805.626	27363
805.768	27268
805.91	27336
806.052	27340
806.194	27180
806.336	27504
806.478	27230
806.62	27393
806.762	27538
806.904	27755
807.046	27755
807.188	27755
807.33	27690
807.472	27785
807.614	27785
807.756	27743
807.898	27515
808.04	27462
808.182	27603
808.324	27736
808.465	27652
808.607	27819
808.749	28147
808.891	28112
809.033	28101
809.174	27987
809.316	27975
809.458	28010
809.6	27987
809.741	28166
809.883	28017
810.025	28207
810.166	28253
810.308	28329
810.45	28051
810.591	28234
810.733	27983
810.875	28044
811.016	27884
811.158	27880
811.299	28074
811.441	28063
811.582	28029
811.724	27972
811.865	27975
812.007	27972
812.148	27880
812.29	27857
812.431	28219
812.573	28253
812.714	28382
812.855	28428
812.997	28584
813.138	28733
813.279	28546
813.421	28554
813.562	28401
813.703	28230
813.845	28070
813.986	27949
814.127	27903
814.268	27724
814.41	27667
814.551	27587
814.692	27884
814.833	27496
814.974	27728
815.115	27603
815.256	27519
815.397	27519
815.539	27542
815.68	27542
815.821	27500
815.962	27473
816.103	27492
816.244	27310
816.385	27283
816.526	27077
816.666	26986
816.807	27062
816.948	26925
817.089	27043
817.23	26910
817.371	27062
817.512	27017
817.653	26933
817.793	27013
817.934	26883
818.075	26929
818.216	26906
818.356	26895
818.497	26849
818.638	26682
818.778	26739
818.919	26678
819.06	26773
819.2	26834
819.341	26952
819.481	27047
819.622	27058
819.762	27173
819.903	27062
820.043	27203
820.184	26982
820.324	27051
820.465	27142
820.605	27070
820.746	27070
820.886	26975
821.026	27032
821.167	27024
821.307	27013
821.447	26899
821.588	26944
821.728	26640
821.868	26735
822.008	26545
822.149	26423
822.289	26374
822.429	26130
822.569	26138
822.709	26043
822.849	25944
822.99	25822
823.13	25894
823.27	25909
823.41	25670
823.55	25837
823.69	25655
823.83	25750
823.97	25742
824.11	25483
824.25	25613
824.389	25411
824.529	25559
824.669	25575
824.809	25753
824.949	25662
825.089	25582
825.228	25544
825.368	25392
825.508	25392
825.648	25339
825.787	25365
825.927	25434
826.067	25369
826.206	25441
826.346	25552
826.485	25354
826.625	25335
826.765	25529
826.904	25533
827.044	25213
827.183	25141
827.323	25194
827.462	25206
827.601	25236
827.741	25122
827.88	25065
828.02	24905
828.159	25053
828.298	25244
828.437	25240
828.577	24992
828.716	25122
828.855	25118
828.994	24798
829.134	24806
829.273	24802
829.412	24734
829.551	24722
829.69	24715
829.829	24719
829.968	24871
830.107	24814
830.246	24886
830.385	24768
830.524	24707
830.663	24509
830.802	24509
830.941	24467
831.08	24365
831.219	24532
831.357	24437
831.496	24726
831.635	24448
831.774	24266
831.913	24125
832.051	24174
832.19	24224
832.329	24228
832.467	24186
832.606	24186
832.744	24087
832.883	24163
833.022	24155
833.16	24182
833.299	24171
833.437	24007
833.576	24034
833.714	24121
833.852	24209
833.991	24190
834.129	24266
834.267	24235
834.406	24311
834.544	24281
834.682	24171
834.821	24159
834.959	24323
835.097	24068
835.235	24155
835.373	24030
835.511	24110
835.65	24034
835.788	23954
835.926	24018
836.064	23741
836.202	23836
836.34	23923
836.478	24041
836.615	23954
836.753	23859
836.891	24095
837.029	23901
837.167	23923
837.305	23878
837.443	23931
837.58	23866
837.718	23817
837.856	23851
837.993	23714
838.131	23786
838.269	23646
838.406	23608
838.544	23630
838.681	23577
838.819	23436
838.956	23334
839.094	23239
839.231	23341
839.369	23429
839.506	23676
839.643	23520
839.781	23330
839.918	23334
840.055	23307
840.193	23239
840.33	23242
840.467	23117
840.604	23193
840.742	23505
840.879	23064
841.016	23155
841.153	23060
841.29	23322
841.427	23136
841.564	23212
841.701	23220
841.838	23147
841.975	23025
842.112	23041
842.249	22980
842.385	22934
842.522	23117
842.659	22980
842.796	22828
842.933	23033
843.069	22892
843.206	22923
843.343	23075
843.479	23025
843.616	22908
843.752	22687
843.889	22801
844.025	22908
844.162	22729
844.298	22831
844.435	22725
844.571	22618
844.708	22816
844.844	22976
844.98	22889
845.117	22919
845.253	22717
845.389	22611
845.525	22626
845.661	22656
845.798	22546
845.934	22466
846.07	22356
846.206	22504
846.342	22683
846.478	22424
846.614	22371
846.75	22295
846.886	22200
847.022	22185
847.158	22253
847.294	22044
847.429	22215
847.565	22173
847.701	22455
847.837	22021
847.972	21983
848.108	22017
848.244	22010
848.379	21766
848.515	21720
848.65	21709
848.786	21800
848.921	21793
849.057	21854
849.192	21762
849.328	21876
849.463	21846
849.598	21663
849.734	21641
849.869	21644
850.004	21515
850.14	21534
850.275	21496
850.41	21496
850.545	21500
850.68	21504
850.815	21526
850.95	21549
851.085	21743
851.22	21625
851.355	21523
851.49	21462
851.625	21397
851.76	21504
851.895	21549
852.03	21405
852.165	21595
852.299	21515
852.434	21606
852.569	21447
852.703	21473
852.838	21709
852.973	21663
853.107	21591
853.242	21416
853.376	21367
853.511	21268
853.645	21378
853.78	21530
853.914	21363
854.048	21462
854.183	21382
854.317	21412
854.451	21599
854.585	21408
854.72	21439
854.854	21428
854.988	21408
855.122	21317
855.256	21237
855.39	21321
855.524	21568
855.658	21530
855.792	21450
855.926	21317
856.06	21477
856.194	21473
856.327	21466
856.461	21233
856.595	21340
856.729	21367
856.862	21557
856.996	21424
857.13	21462
857.263	21500
857.397	21424
857.53	21374
857.664	21393
857.797	21542
857.931	21553
858.064	21408
858.197	21492
858.331	21393
858.464	21397
858.597	21260
858.731	21355
858.864	21336
858.997	21302
859.13	21393
859.263	21405
859.396	21473
859.529	21355
859.662	21275
859.795	21313
859.928	21374
860.061	21466
860.194	21572
860.327	21336
860.46	21321
860.592	21523
860.725	21530
860.858	21549
860.99	21332
861.123	21382
861.256	21431
861.388	21431
861.521	22181
861.653	21249
861.786	21298
861.918	21195
862.05	21199
862.183	21207
862.315	21378
862.447	21340
862.58	21310
862.712	20918
862.844	21119
862.976	21203
863.108	21192
863.24	21386
863.372	20971
863.504	21150
863.636	21028
863.768	21112
863.9	21058
864.032	20994
864.164	21077
864.296	21165
864.428	21138
864.559	21055
864.691	21218
864.823	21218
864.954	21020
865.086	20956
865.217	20921
865.349	20880
865.48	20979
865.612	20986
865.743	21233
865.875	20986
866.006	21005
866.137	20929
866.269	20990
866.4	20857
866.531	20823
866.662	20800
866.793	20918
866.924	20921
867.055	20899
867.186	21013
867.317	20746
867.448	20777
867.579	20914
867.71	20758
867.841	20693
867.972	20883
868.103	20956
868.233	20925
868.364	20929
868.495	21131
868.625	21135
868.756	21131
868.886	21081
869.017	21173
869.147	21249
869.278	21207
869.408	21264
869.539	21230
869.669	21222
869.799	21195
869.929	21241
870.06	21150
870.19	21473
870.32	21351
870.45	21519
870.58	21519
870.71	21526
870.84	21641
870.97	21625
871.1	21545
871.23	21667
871.36	21747
871.489	21603
871.619	21724
871.749	21717
871.879	21728
872.008	21873
872.138	21701
872.267	21641
872.397	21644
872.526	21572
872.656	21614
872.785	21606
872.915	21705
873.044	21717
873.173	21667
873.303	21812
873.432	21816
873.561	21907
873.69	21766
873.819	21686
873.948	21774
874.077	21827
874.206	21751
874.335	21709
874.464	21949
874.593	21968
874.722	21941
874.851	21960
874.979	21964
875.108	22120
875.237	21819
875.365	21762
875.494	21972
875.623	22040
875.751	22086
875.88	21975
876.008	22090
876.136	22352
876.265	22382
876.393	22546
876.521	22523
876.65	22379
876.778	22306
876.906	22367
877.034	22306
877.162	22299
877.29	22306
877.418	22303
877.546	22375
877.674	22402
877.802	22333
877.93	22363
878.058	22333
878.185	22169
878.313	22139
878.441	22382
878.568	22166
878.696	22299
878.824	22352
878.951	22462
879.079	22417
879.206	22607
879.333	22428
879.461	22405
879.588	22409
879.715	22436
879.842	22535
879.97	22310
880.097	22177
880.224	22101
880.351	22139
880.478	22246
880.605	22044
880.732	22169
880.859	22516
880.986	22204
881.112	22067
881.239	22036
881.366	21865
881.493	21804
881.619	21873
881.746	21823
881.872	21724
881.999	21698
882.125	21641
882.252	21793
882.378	21800
882.505	21922
882.631	21583
882.757	21408
882.883	21466
883.01	21340
883.136	21241
883.262	21275
883.388	21264
883.514	21382
883.64	21431
883.766	21393
883.892	21203
884.018	21176
884.143	21359
884.269	21469
884.395	21131
884.52	21066
884.646	20994
884.772	21032
884.897	21093
885.023	20982
885.148	21218
885.274	21294
885.399	21195
885.524	21108
885.65	21077
885.775	21089
885.9	21028
886.025	21138
886.15	21188
886.275	20967
886.4	21085
886.525	21062
886.65	20941
886.775	21028
886.9	21127
887.025	21180
887.149	21093
887.274	20872
887.399	20876
887.523	20830
887.648	20853
887.773	20670
887.897	20902
888.021	20781
888.146	20720
888.27	20929
888.395	21009
888.519	20781
888.643	20857
888.767	20838
888.891	20705
889.015	20590
889.139	20727
889.263	20575
889.387	20743
889.511	20918
889.635	20701
889.759	20617
889.883	20701
890.006	20708
890.13	20651
890.254	20488
890.377	20560
890.501	20393
890.624	20294
890.748	20309
890.871	20244
890.995	20275
891.118	20172
891.241	20180
891.364	20145
891.488	20294
891.611	20225
891.734	20195
891.857	20267
891.98	20221
892.103	20183
892.226	20210
892.349	20126
892.471	19936
892.594	20256
892.717	20126
892.839	20218
892.962	20176
893.085	20142
893.207	20172
893.33	19963
893.452	20107
893.575	20172
893.697	20138
893.819	20301
893.941	20256
894.064	20252
894.186	20092
894.308	20039
894.43	20111
894.552	20252
894.674	20130
894.796	19936
894.918	19986
895.04	20031
895.161	20161
895.283	20164
895.405	20180
895.526	20134
895.648	20020
895.769	20081
895.891	20103
896.012	20191
896.134	20096
896.255	20096
896.376	19959
896.498	20164
896.619	20142
896.74	20142
896.861	20100
896.982	20488
897.103	20526
897.224	20305
897.345	20294
897.466	20351
897.587	20278
897.708	20423
897.828	20381
897.949	20168
898.07	20142
898.19	20214
898.311	20324
898.431	20317
898.552	20313
898.672	20400
898.792	20343
898.913	20377
899.033	20259
899.153	20100
899.273	20149
899.393	20012
899.513	20008
899.633	19978
899.753	20195
899.873	20058
899.993	20138
900.113	19989
900.232	19959
900.352	20027
900.472	19947
900.591	19822
900.711	19860
900.83	19875
900.95	19849
901.069	19959
901.189	19788
901.308	19510
901.427	19358
901.546	19362
901.665	19468
901.784	19289
901.904	19285
902.023	19236
902.141	18958
902.26	19072
902.379	18970
902.498	18856
902.617	18943
902.735	18916
902.854	18962
902.973	18772
903.091	18623
903.21	18681
903.328	18646
903.446	18506
903.565	18498
903.683	18426
903.801	18315
903.919	18433
904.038	18445
904.156	18152
904.274	18346
904.392	18216
904.51	18110
904.627	18144
904.745	18285
904.863	18201
904.981	17954
905.098	17859
905.216	17832
905.334	17893
905.451	17897
905.569	17729
905.686	17824
905.803	17889
905.921	17718
906.038	17809
906.155	17577
906.272	17444
906.389	17467
906.506	17406
906.623	17376
906.74	17395
906.857	17280
906.974	17318
907.091	17391
907.208	17482
907.324	17410
907.441	17227
907.557	17056
907.674	17083
907.79	16999
907.907	17128
908.023	17151
908.139	17090
908.256	16949
908.372	17025
908.488	16919
908.604	16786
908.72	16778
908.836	16763
908.952	16812
909.068	16873
909.184	16816
909.3	16744
909.415	16793
909.531	16835
909.647	16527
909.762	16436
909.878	16432
909.993	16535
910.108	16538
910.224	16558
910.339	16459
910.454	16333
910.57	16341
910.685	16249
910.8	16542
910.915	16546
911.03	16310
911.145	16242
911.259	16131
911.374	16143
911.489	15998
911.604	15979
911.718	15827
911.833	15926
911.947	15720
912.062	15686
912.176	15831
912.291	15850
912.405	15899
912.519	16010
912.633	15998
912.748	15956
912.862	15797
912.976	15679
913.09	15462
913.204	15728
913.318	15629
913.431	15785
913.545	15755
913.659	15739
913.772	15568
913.886	15431
914	15401
914.113	15568
914.226	15564
914.34	15603
914.453	15332
914.566	15450
914.68	15359
914.793	15408
914.906	15157
915.019	15100
915.132	15001
915.245	15093
915.358	15077
915.47	15165
915.583	15070
915.696	15131
915.809	15157
915.921	15222
916.034	14990
916.146	14906
916.259	14971
916.371	15043
916.483	15047
916.595	14861
916.708	14963
916.82	14868
916.932	14933
917.044	14868
917.156	14838
917.268	14735
917.38	14804
917.491	14792
917.603	14667
917.715	14826
917.826	14758
917.938	14655
918.049	14674
918.161	14686
918.272	14785
918.384	14845
918.495	14712
918.606	14476
918.717	14461
918.828	14632
918.939	14640
919.05	14324
919.161	14492
919.272	14206
919.383	14427
919.494	14495
919.604	14743
919.715	14514
919.826	14374
919.936	14450
920.047	14522
920.157	14476
920.267	14735
920.378	14514
920.488	14408
920.598	14594
920.708	14731
920.818	14663
920.928	14610
921.038	14731
921.148	14587
921.258	14465
921.368	14252
921.477	14145
921.587	14248
921.697	14088
921.806	14168
921.916	14039
922.025	13841
922.134	13852
922.244	13814
922.353	13947
922.462	13704
922.571	13666
922.68	13548
922.789	13441
922.898	13438
923.007	13384
923.116	13518
923.224	13346
923.333	13502
923.442	13343
923.55	13362
923.659	13259
923.767	13316
923.876	13255
923.984	13312
924.092	13175
924.201	13206
924.309	13228
924.417	13236
924.525	13133
924.633	13179
924.741	13860
924.849	12985
924.956	13114
925.064	12966
925.172	12920
925.279	12977
925.387	12943
925.494	12890
925.602	13042
925.709	12958
925.816	12856
925.924	12882
926.031	12890
926.138	12871
926.245	12859
926.352	12719
926.459	12905
926.566	13019
926.673	12806
926.779	12703
926.886	12631
926.993	12547
927.099	12475
927.206	12441
927.312	12403
927.419	12471
927.525	12494
927.631	12464
927.737	12342
927.843	12323
927.95	12178
928.056	12285
928.162	12346
928.267	12346
928.373	12962
928.479	12391
928.585	12129
928.69	12270
928.796	12155
928.901	12095
929.007	12045
929.112	12167
929.218	12182
929.323	12133
929.428	11973
929.533	12110
929.638	11969
929.743	11984
929.848	12030
929.953	11988
930.058	11889
930.163	11802
930.267	11646
930.372	11817
930.477	11653
930.581	11783
930.685	11726
930.79	11649
930.894	11585
930.998	11562
931.103	11824
931.207	11391
931.311	11288
931.415	11121
931.519	10968
931.623	11045
