Data from test_V78500241_162.txt Node
Date: Fri Mar 25 15:10:59 CST 2022
User: usil
Spectrometer: V785-0024
Trigger mode: 0
Integration Time (sec): 4.000000E-1
Scans to average: 1
Nonlinearity correction enabled: false
Boxcar width: 0
Storing dark spectrum: false
XAxis mode: Wavelengths
Number of Pixels in Spectrum: 1024
>>>>>Begin Spectral Data<<<<<
801.071	28067
801.214	27892
801.356	27743
801.499	27595
801.641	27724
801.783	27511
801.926	27656
802.068	27637
802.211	27481
802.353	27462
802.496	27355
802.638	27298
802.78	27222
802.923	27039
803.065	27199
803.208	27085
803.35	27077
803.492	27291
803.635	27317
803.777	27272
803.919	27332
804.061	27572
804.204	27336
804.346	27226
804.488	27150
804.63	27283
804.773	27096
804.915	27241
805.057	27207
805.199	27199
805.341	27466
805.483	27237
805.626	27363
805.768	27131
805.91	27393
806.052	27454
806.194	27272
806.336	27557
806.478	27298
806.62	27264
806.762	27389
806.904	27553
807.046	27759
807.188	27713
807.33	27622
807.472	27850
807.614	27587
807.756	27599
807.898	27549
808.04	27523
808.182	27443
808.324	27504
808.465	27443
808.607	27762
808.749	27743
808.891	27941
809.033	28086
809.174	28025
809.316	27831
809.458	27914
809.6	27739
809.741	27949
809.883	27987
810.025	27983
810.166	28032
810.308	28093
810.45	28135
810.591	27953
810.733	27861
810.875	27937
811.016	27827
811.158	27694
811.299	27793
811.441	27949
811.582	27888
811.724	27785
811.865	27751
812.007	27709
812.148	27793
812.29	27812
812.431	28093
812.573	28101
812.714	28238
812.855	28257
812.997	28409
813.138	28401
813.279	28360
813.421	28325
813.562	28154
813.703	28097
813.845	27949
813.986	27629
814.127	27583
814.268	27382
814.41	27401
814.551	27447
814.692	27538
814.833	27389
814.974	27389
815.115	27496
815.256	27245
815.397	27264
815.539	27237
815.68	27150
815.821	27192
815.962	27169
816.103	27226
816.244	27005
816.385	26963
816.526	26982
816.666	26674
816.807	26629
816.948	26686
817.089	26758
817.23	26693
817.371	26453
817.512	26575
817.653	26579
817.793	26514
817.934	26552
818.075	26476
818.216	26613
818.356	26617
818.497	26370
818.638	26240
818.778	26248
818.919	26267
819.06	26305
819.2	26453
819.341	26518
819.481	26415
819.622	26705
819.762	26762
819.903	26693
820.043	26655
820.184	26583
820.324	26598
820.465	26708
820.605	26617
820.746	26556
820.886	26465
821.026	26663
821.167	26533
821.307	26655
821.447	26419
821.588	26503
821.728	26229
821.868	26229
822.008	25966
822.149	25940
822.289	25917
822.429	25632
822.569	25651
822.709	25609
822.849	25419
822.99	25502
823.13	25377
823.27	25411
823.41	25274
823.55	25160
823.69	25274
823.83	25270
823.97	25202
824.11	25027
824.25	25027
824.389	25118
824.529	25278
824.669	25065
824.809	25285
824.949	25065
825.089	25072
825.228	25072
825.368	24852
825.508	24852
825.648	24776
825.787	24913
825.927	25008
826.067	24749
826.206	24772
826.346	24810
826.485	24947
826.625	24768
826.765	24871
826.904	24913
827.044	24601
827.183	24570
827.323	24528
827.462	24631
827.601	24479
827.741	24490
827.88	24612
828.02	24399
828.159	24380
828.298	24601
828.437	24585
828.577	24376
828.716	24570
828.855	24342
828.994	24239
829.134	24209
829.273	24281
829.412	24140
829.551	24091
829.69	24125
829.829	24350
829.968	24296
830.107	24414
830.246	24403
830.385	24163
830.524	24053
830.663	24003
830.802	23901
830.941	23703
831.08	23824
831.219	23828
831.357	23824
831.496	24011
831.635	23642
831.774	23714
831.913	23619
832.051	23661
832.19	23459
832.329	23570
832.467	23452
832.606	23486
832.744	23497
832.883	23360
833.022	23459
833.16	23505
833.299	23570
833.437	23562
833.576	23474
833.714	23398
833.852	23493
833.991	23608
834.129	23444
834.267	23661
834.406	23429
834.544	23501
834.682	23433
834.821	23417
834.959	23554
835.097	23490
835.235	23444
835.373	23433
835.511	23551
835.65	23288
835.788	23208
835.926	23121
836.064	23136
836.202	23086
836.34	23383
836.478	23360
836.615	23284
836.753	23372
836.891	23261
837.029	23318
837.167	23322
837.305	23166
837.443	23174
837.58	23143
837.718	23102
837.856	22999
837.993	23083
838.131	23060
838.269	22946
838.406	23022
838.544	22831
838.681	22710
838.819	22752
838.956	22725
839.094	22557
839.231	22527
839.369	22656
839.506	22946
839.643	22793
839.781	22596
839.918	22455
840.055	22637
840.193	22500
840.33	22447
840.467	22382
840.604	22516
840.742	22782
840.879	22299
841.016	22341
841.153	22451
841.29	22535
841.427	22466
841.564	22504
841.701	22466
841.838	22363
841.975	22299
842.112	22333
842.249	22249
842.385	22124
842.522	22333
842.659	22188
842.796	22143
842.933	22109
843.069	22101
843.206	22173
843.343	22150
843.479	22196
843.616	22219
843.752	22051
843.889	21873
844.025	22124
844.162	21762
844.298	22017
844.435	21975
844.571	21911
844.708	21930
844.844	22124
844.98	22105
845.117	22029
845.253	21679
845.389	21751
845.525	21907
845.661	21774
845.798	21736
845.934	21637
846.07	21705
846.206	21610
846.342	21675
846.478	21694
846.614	21561
846.75	21374
846.886	21275
847.022	21439
847.158	21466
847.294	21348
847.429	21355
847.565	21428
847.701	21530
847.837	21093
847.972	21077
848.108	21108
848.244	21188
848.379	20937
848.515	20895
848.65	20914
848.786	20967
848.921	20941
849.057	21039
849.192	20975
849.328	20960
849.463	20956
849.598	20918
849.734	20956
849.869	20834
850.004	20655
850.14	20735
850.275	20674
850.41	20651
850.545	20621
850.68	20712
850.815	20758
850.95	20678
851.085	20773
851.22	20845
851.355	20758
851.49	20686
851.625	20564
851.76	20560
851.895	20594
852.03	20446
852.165	20640
852.299	20644
852.434	20792
852.569	20750
852.703	20651
852.838	20682
852.973	20891
853.107	20849
853.242	20651
853.376	20579
853.511	20442
853.645	20537
853.78	20575
853.914	20568
854.048	20571
854.183	20564
854.317	20522
854.451	20689
854.585	20556
854.72	20564
854.854	20541
854.988	20431
855.122	20393
855.256	20214
855.39	20488
855.524	20469
855.658	20587
855.792	20518
855.926	20518
856.06	20613
856.194	20667
856.327	20518
856.461	20358
856.595	20518
856.729	20351
856.862	20636
856.996	20530
857.13	20495
857.263	20651
857.397	20480
857.53	20488
857.664	20602
857.797	20613
857.931	20583
858.064	20438
858.197	20644
858.331	20480
858.464	20457
858.597	20317
858.731	20408
858.864	20351
858.997	20385
859.13	20495
859.263	20495
859.396	20560
859.529	20377
859.662	20377
859.795	20317
859.928	20389
860.061	20621
860.194	20590
860.327	20450
860.46	20450
860.592	20549
860.725	20503
860.858	20530
860.99	20469
861.123	20271
861.256	20313
861.388	20488
861.521	21100
861.653	20305
861.786	20282
861.918	20294
862.05	20263
862.183	20419
862.315	20495
862.447	20511
862.58	20377
862.712	20237
862.844	20202
862.976	20221
863.108	20336
863.24	20469
863.372	20065
863.504	20126
863.636	20092
863.768	20229
863.9	20111
864.032	20100
864.164	20096
864.296	20183
864.428	20237
864.559	20214
864.691	20240
864.823	20134
864.954	20084
865.086	20103
865.217	20062
865.349	19928
865.48	20088
865.612	20065
865.743	20100
865.875	20001
866.006	20016
866.137	20050
866.269	19997
866.4	20084
866.531	20008
866.662	19868
866.793	19913
866.924	20035
867.055	20073
867.186	19974
867.317	19967
867.448	19734
867.579	19947
867.71	19932
867.841	19974
867.972	19978
868.103	20039
868.233	20039
868.364	20008
868.495	20103
868.625	20358
868.756	20259
868.886	20088
869.017	20248
869.147	20351
869.278	20442
869.408	20290
869.539	20271
869.669	20240
869.799	20263
869.929	20362
870.06	20396
870.19	20507
870.32	20507
870.45	20511
870.58	20716
870.71	20644
870.84	20758
870.97	20636
871.1	20636
871.23	20853
871.36	20777
871.489	20796
871.619	20735
871.749	20842
871.879	21043
872.008	20895
872.138	20895
872.267	20960
872.397	20746
872.526	20735
872.656	20739
872.785	20693
872.915	20769
873.044	20910
873.173	20880
873.303	20872
873.432	20861
873.561	20994
873.69	20838
873.819	20815
873.948	21001
874.077	20925
874.206	20731
874.335	21058
874.464	21039
874.593	21096
874.722	21058
874.851	21169
874.979	21009
875.108	21195
875.237	21074
875.365	20960
875.494	21032
875.623	21214
875.751	21058
875.88	21146
876.008	21249
876.136	21298
876.265	21488
876.393	21644
876.521	21625
876.65	21614
876.778	21481
876.906	21496
877.034	21424
877.162	21557
877.29	21382
877.418	21477
877.546	21504
877.674	21401
877.802	21405
877.93	21428
878.058	21488
878.185	21310
878.313	21416
878.441	21454
878.568	21264
878.696	21504
878.824	21599
878.951	21583
879.079	21717
879.206	21842
879.333	21610
879.461	21576
879.588	21519
879.715	21637
879.842	21732
879.97	21549
880.097	21306
880.224	21245
880.351	21340
880.478	21306
880.605	21294
880.732	21268
880.859	21507
880.986	21329
881.112	21428
881.239	21256
881.366	20921
881.493	21020
881.619	20868
881.746	20887
881.872	21009
881.999	20849
882.125	20807
882.252	20849
882.378	20967
882.505	20986
882.631	20769
882.757	20621
882.883	20777
883.01	20651
883.136	20613
883.262	20457
883.388	20492
883.514	20583
883.64	20613
883.766	20598
883.892	20267
884.018	20473
884.143	20556
884.269	20720
884.395	20229
884.52	20324
884.646	20298
884.772	20229
884.897	20161
885.023	20309
885.148	20320
885.274	20355
885.399	20362
885.524	20240
885.65	20278
885.775	20263
885.9	20225
886.025	20393
886.15	20221
886.275	20221
886.4	20233
886.525	20271
886.65	20084
886.775	20134
886.9	20412
887.025	20480
887.149	20210
887.274	20077
887.399	20039
887.523	20016
887.648	20081
887.773	19871
887.897	20126
888.021	20096
888.146	20005
888.27	20149
888.395	20062
888.519	20126
888.643	19978
888.767	20142
888.891	20005
889.015	19746
889.139	19871
889.263	19715
889.387	19883
889.511	20084
889.635	19811
889.759	19906
889.883	19784
890.006	19696
890.13	19856
890.254	19746
890.377	19811
890.501	19548
890.624	19563
890.748	19620
890.871	19460
890.995	19373
891.118	19354
891.241	19457
891.364	19521
891.488	19635
891.611	19343
891.734	19476
891.857	19419
891.98	19407
892.103	19441
892.226	19476
892.349	19324
892.471	19171
892.594	19251
892.717	19381
892.839	19282
892.962	19396
893.085	19331
893.207	19293
893.33	19213
893.452	19198
893.575	19483
893.697	19232
893.819	19381
893.941	19571
894.064	19411
894.186	19293
894.308	19240
894.43	19388
894.552	19362
894.674	19301
894.796	19324
894.918	19312
895.04	19335
895.161	19346
895.283	19358
895.405	19278
895.526	19388
895.648	19312
895.769	19411
895.891	19407
896.012	19460
896.134	19392
896.255	19339
896.376	19320
896.498	19331
896.619	19403
896.74	19457
896.861	19434
896.982	19693
897.103	19898
897.224	19639
897.345	19499
897.466	19514
897.587	19480
897.708	19689
897.828	19719
897.949	19491
898.07	19453
898.19	19529
898.311	19715
898.431	19586
898.552	19521
898.672	19491
898.792	19578
898.913	19495
899.033	19518
899.153	19350
899.273	19164
899.393	19266
899.513	19331
899.633	19198
899.753	19278
899.873	19259
899.993	19335
900.113	19228
900.232	19190
900.352	19274
900.472	19095
900.591	19084
900.711	19156
900.83	19004
900.95	19247
901.069	19190
901.189	19023
901.308	18829
901.427	18700
901.546	18608
901.665	18692
901.784	18749
901.904	18509
902.023	18498
902.141	18323
902.26	18296
902.379	18300
902.498	18136
902.617	18121
902.735	18224
902.854	18220
902.973	18102
903.091	17931
903.21	17863
903.328	17832
903.446	17874
903.565	17615
903.683	17630
903.801	17573
903.919	17691
904.038	17703
904.156	17436
904.274	17463
904.392	17459
904.51	17459
904.627	17455
904.745	17516
904.863	17566
904.981	17223
905.098	17060
905.216	17102
905.334	17200
905.451	17254
905.569	17071
905.686	17147
905.803	17155
905.921	16881
906.038	16927
906.155	16953
906.272	16752
906.389	16843
906.506	16531
906.623	16721
906.74	16603
906.857	16504
906.974	16672
907.091	16710
907.208	16752
907.324	16672
907.441	16451
907.557	16527
907.674	16447
907.79	16276
907.907	16337
908.023	16447
908.139	16390
908.256	16287
908.372	16265
908.488	16223
908.604	16078
908.72	16029
908.836	16090
908.952	16124
909.068	16120
909.184	16196
909.3	16036
909.415	16128
909.531	15960
909.647	15778
909.762	15709
909.878	15720
909.993	15808
910.108	15759
910.224	15648
910.339	15766
910.454	15682
910.57	15576
910.685	15545
910.8	15831
910.915	15743
911.03	15564
911.145	15485
911.259	15420
911.374	15351
911.489	15313
911.604	15294
911.718	15154
911.833	15089
911.947	15047
912.062	14982
912.176	15138
912.291	15119
912.405	15127
912.519	15302
912.633	15291
912.748	15127
912.862	14990
912.976	14864
913.09	14773
913.204	14849
913.318	14956
913.431	14967
913.545	15066
913.659	14963
913.772	14887
913.886	14781
914	14762
914.113	14750
914.226	14849
914.34	14785
914.453	14667
914.566	14826
914.68	14659
914.793	14594
914.906	14442
915.019	14324
915.132	14336
915.245	14400
915.358	14336
915.47	14484
915.583	14370
915.696	14480
915.809	14503
915.921	14484
916.034	14358
916.146	14237
916.259	14286
916.371	14320
916.483	14271
916.595	14206
916.708	14263
916.82	14134
916.932	14073
917.044	14111
917.156	14134
917.268	14065
917.38	14024
917.491	14065
917.603	14054
917.715	14164
917.826	14115
917.938	14043
918.049	13925
918.161	13967
918.272	14050
918.384	14161
918.495	13989
918.606	13856
918.717	13704
918.828	13879
918.939	13772
919.05	13719
919.161	13769
919.272	13643
919.383	13616
919.494	13826
919.604	14031
919.715	13776
919.826	13704
919.936	13670
920.047	13887
920.157	13818
920.267	13887
920.378	13833
920.488	13780
920.598	13887
920.708	13997
920.818	13940
920.928	13849
921.038	14046
921.148	13906
921.258	13765
921.368	13624
921.477	13548
921.587	13510
921.697	13544
921.806	13441
921.916	13384
922.025	13206
922.134	13095
922.244	13228
922.353	13156
922.462	13137
922.571	13000
922.68	12833
922.789	12821
922.898	12875
923.007	12715
923.116	12829
923.224	12783
923.333	12749
923.442	12585
923.55	12639
923.659	12677
923.767	12631
923.876	12650
923.984	12779
924.092	12608
924.201	12585
924.309	12555
924.417	12597
924.525	12513
924.633	12448
924.741	13289
924.849	12319
924.956	12441
925.064	12273
925.172	12258
925.279	12258
925.387	12232
925.494	12262
925.602	12452
925.709	12350
925.816	12232
925.924	12281
926.031	12315
926.138	12224
926.245	12254
926.352	12163
926.459	12209
926.566	12239
926.673	12076
926.779	11999
926.886	12034
926.993	11786
927.099	11843
927.206	11760
927.312	11802
927.419	11927
927.525	11828
927.631	11920
927.737	11729
927.843	11649
927.95	11600
928.056	11741
928.162	11722
928.267	11783
928.373	12228
928.479	11722
928.585	11562
928.69	11661
928.796	11703
928.901	11524
929.007	11406
929.112	11516
929.218	11505
929.323	11463
929.428	11376
929.533	11539
929.638	11376
929.743	11379
929.848	11429
929.953	11383
930.058	11303
930.163	11208
930.267	11094
930.372	11212
930.477	11109
930.581	11307
930.685	11102
930.79	11056
930.894	11060
930.998	11014
931.103	11075
931.207	10755
931.311	10691
931.415	10580
931.519	10360
931.623	10478
