Data from test_V78500241_1556.txt Node
Date: Fri Mar 25 15:20:41 CST 2022
User: usil
Spectrometer: V785-0024
Trigger mode: 0
Integration Time (sec): 4.000000E-1
Scans to average: 1
Nonlinearity correction enabled: false
Boxcar width: 0
Storing dark spectrum: false
XAxis mode: Wavelengths
Number of Pixels in Spectrum: 1024
>>>>>Begin Spectral Data<<<<<
801.071	27998
801.214	27899
801.356	27694
801.499	27667
801.641	27496
801.783	27477
801.926	27443
802.068	27545
802.211	27408
802.353	27557
802.496	27192
802.638	27214
802.78	27108
802.923	26994
803.065	27085
803.208	27100
803.35	27268
803.492	27275
803.635	27344
803.777	27294
803.919	27439
804.061	27698
804.204	27561
804.346	27340
804.488	27344
804.63	27405
804.773	27230
804.915	27443
805.057	27530
805.199	27287
805.341	27378
805.483	27526
805.626	27466
805.768	27435
805.91	27427
806.052	27591
806.194	27439
806.336	27774
806.478	27447
806.62	27507
806.762	27618
806.904	27663
807.046	27911
807.188	27838
807.33	27934
807.472	27987
807.614	27850
807.756	27914
807.898	27873
808.04	27705
808.182	27667
808.324	27739
808.465	27937
808.607	28048
808.749	28090
808.891	28166
809.033	28443
809.174	28261
809.316	28135
809.458	28276
809.6	28090
809.741	28291
809.883	28341
810.025	28512
810.166	28500
810.308	28493
810.45	28375
810.591	28318
810.733	28246
810.875	28249
811.016	27983
811.158	28006
811.299	28093
811.441	28390
811.582	28173
811.724	28246
811.865	28135
812.007	28097
812.148	28166
812.29	28139
812.431	28367
812.573	28432
812.714	28626
812.855	28637
812.997	28881
813.138	28828
813.279	28824
813.421	28744
813.562	28592
813.703	28538
813.845	28428
813.986	28044
814.127	28013
814.268	27922
814.41	27778
814.551	27793
814.692	27892
814.833	27728
814.974	27781
815.115	27842
815.256	27846
815.397	27854
815.539	27732
815.68	27603
815.821	27644
815.962	27614
816.103	27587
816.244	27431
816.385	27500
816.526	27447
816.666	27112
816.807	27310
816.948	27188
817.089	27275
817.23	27116
817.371	27119
817.512	27066
817.653	27252
817.793	27062
817.934	27150
818.075	27138
818.216	27169
818.356	26994
818.497	27058
818.638	26830
818.778	26845
818.919	26952
819.06	27024
819.2	27009
819.341	27070
819.481	27298
819.622	27405
819.762	27401
819.903	27427
820.043	27439
820.184	27123
820.324	27142
820.465	27241
820.605	27344
820.746	27302
820.886	26921
821.026	27108
821.167	27321
821.307	27230
821.447	27119
821.588	27074
821.728	27058
821.868	26842
822.008	26659
822.149	26602
822.289	26606
822.429	26374
822.569	26233
822.709	26374
822.849	26183
822.99	26168
823.13	26039
823.27	26039
823.41	25944
823.55	25826
823.69	25932
823.83	25966
823.97	25811
824.11	25803
824.25	25742
824.389	25674
824.529	25925
824.669	25776
824.809	25757
824.949	25887
825.089	25883
825.228	25693
825.368	25514
825.508	25563
825.648	25761
825.787	25639
825.927	25799
826.067	25632
826.206	25719
826.346	25559
826.485	25772
826.625	25643
826.765	25738
826.904	25510
827.044	25457
827.183	25411
827.323	25396
827.462	25354
827.601	25521
827.741	25403
827.88	25312
828.02	25244
828.159	25331
828.298	25266
828.437	25415
828.577	25206
828.716	25472
828.855	25228
828.994	25008
829.134	24996
829.273	25050
829.412	24894
829.551	25046
829.69	25099
829.829	25027
829.968	25168
830.107	25091
830.246	25065
830.385	24992
830.524	24985
830.663	24795
830.802	24684
830.941	24578
831.08	24681
831.219	24833
831.357	24707
831.496	24760
831.635	24669
831.774	24494
831.913	24585
832.051	24380
832.19	24479
832.329	24429
832.467	24460
832.606	24300
832.744	24220
832.883	24270
833.022	24350
833.16	24334
833.299	24327
833.437	24369
833.576	24357
833.714	24292
833.852	24399
833.991	24505
834.129	24563
834.267	24357
834.406	24460
834.544	24479
834.682	24334
834.821	24475
834.959	24460
835.097	24304
835.235	24467
835.373	24319
835.511	24369
835.65	24159
835.788	24270
835.926	24041
836.064	24057
836.202	24026
836.34	24129
836.478	24281
836.615	24110
836.753	24190
836.891	24289
837.029	24258
837.167	24102
837.305	24030
837.443	24053
837.58	24125
837.718	24064
837.856	24026
837.993	23977
838.131	24022
838.269	23969
838.406	23847
838.544	23775
838.681	23623
838.819	23665
838.956	23600
839.094	23547
839.231	23585
839.369	23741
839.506	23851
839.643	23684
839.781	23566
839.918	23433
840.055	23490
840.193	23570
840.33	23482
840.467	23349
840.604	23436
840.742	23608
840.879	23269
841.016	23368
841.153	23246
841.29	23478
841.427	23360
841.564	23528
841.701	23387
841.838	23383
841.975	23246
842.112	23246
842.249	23231
842.385	23200
842.522	23501
842.659	23227
842.796	23029
842.933	23098
843.069	23105
843.206	23010
843.343	23098
843.479	23200
843.616	23170
843.752	22976
843.889	22908
844.025	23044
844.162	22908
844.298	23010
844.435	23071
844.571	22927
844.708	22972
844.844	23041
844.98	23185
845.117	23022
845.253	22953
845.389	22691
845.525	22847
845.661	22847
845.798	22694
845.934	22755
846.07	22630
846.206	22641
846.342	22694
846.478	22592
846.614	22451
846.75	22402
846.886	22367
847.022	22489
847.158	22474
847.294	22443
847.429	22527
847.565	22424
847.701	22694
847.837	22188
847.972	22093
848.108	22185
848.244	22226
848.379	22112
848.515	22074
848.65	21987
848.786	21941
848.921	22105
849.057	22204
849.192	22101
849.328	21983
849.463	21983
849.598	21937
849.734	21949
849.869	21755
850.004	21732
850.14	21766
850.275	21827
850.41	21671
850.545	21755
850.68	21747
850.815	21835
850.95	21797
851.085	21968
851.22	21888
851.355	21739
851.49	21755
851.625	21663
851.76	21713
851.895	21675
852.03	21614
852.165	21679
852.299	21766
852.434	21694
852.569	21808
852.703	21861
852.838	21831
852.973	21797
853.107	21743
853.242	21694
853.376	21587
853.511	21466
853.645	21603
853.78	21576
853.914	21549
854.048	21439
854.183	21568
854.317	21656
854.451	21694
854.585	21549
854.72	21431
854.854	21625
854.988	21458
855.122	21641
855.256	21469
855.39	21511
855.524	21622
855.658	21595
855.792	21603
855.926	21545
856.06	21698
856.194	21526
856.327	21568
856.461	21610
856.595	21576
856.729	21420
856.862	21656
856.996	21580
857.13	21545
857.263	21644
857.397	21724
857.53	21496
857.664	21591
857.797	21603
857.931	21690
858.064	21663
858.197	21675
858.331	21568
858.464	21458
858.597	21469
858.731	21652
858.864	21428
858.997	21576
859.13	21557
859.263	21519
859.396	21561
859.529	21538
859.662	21614
859.795	21599
859.928	21644
860.061	21690
860.194	21720
860.327	21625
860.46	21583
860.592	21842
860.725	21759
860.858	21671
860.99	21625
861.123	21473
861.256	21504
861.388	21553
861.521	22268
861.653	21405
861.786	21351
861.918	21424
862.05	21515
862.183	21443
862.315	21454
862.447	21466
862.58	21443
862.712	21241
862.844	21249
862.976	21382
863.108	21405
863.24	21667
863.372	21344
863.504	21283
863.636	21291
863.768	21355
863.9	21176
864.032	21176
864.164	21207
864.296	21233
864.428	21351
864.559	21359
864.691	21192
864.823	21329
864.954	21287
865.086	21256
865.217	21138
865.349	21039
865.48	21161
865.612	21192
865.743	21359
865.875	21230
866.006	21070
866.137	21142
866.269	21165
866.4	21138
866.531	21081
866.662	21020
866.793	21077
866.924	21112
867.055	21138
867.186	21093
867.317	21112
867.448	20960
867.579	20937
867.71	21055
867.841	20967
867.972	21096
868.103	21001
868.233	21135
868.364	20994
868.495	21230
868.625	21260
868.756	21477
868.886	21283
869.017	21416
869.147	21332
869.278	21466
869.408	21279
869.539	21317
869.669	21389
869.799	21382
869.929	21603
870.06	21420
870.19	21660
870.32	21698
870.45	21568
870.58	21804
870.71	21812
870.84	21827
870.97	21808
871.1	21751
871.23	21869
871.36	21953
871.489	21770
871.619	21804
871.749	21972
871.879	21930
872.008	22067
872.138	21915
872.267	21979
872.397	21838
872.526	21667
872.656	21892
872.785	21797
872.915	21899
873.044	22051
873.173	21960
873.303	22006
873.432	21949
873.561	21922
873.69	21956
873.819	21964
873.948	22036
874.077	21960
874.206	21937
874.335	21880
874.464	22109
874.593	22219
874.722	22158
874.851	22287
874.979	22128
875.108	22265
875.237	22025
875.365	22101
875.494	22101
875.623	22337
875.751	22032
875.88	22139
876.008	22363
876.136	22341
876.265	22557
876.393	22557
876.521	22512
876.65	22645
876.778	22489
876.906	22493
877.034	22481
877.162	22580
877.29	22447
877.418	22516
877.546	22565
877.674	22497
877.802	22500
877.93	22611
878.058	22523
878.185	22295
878.313	22481
878.441	22333
878.568	22154
878.696	22459
878.824	22512
878.951	22485
879.079	22607
879.206	22664
879.333	22679
879.461	22485
879.588	22641
879.715	22615
879.842	22774
879.97	22500
880.097	22485
880.224	22306
880.351	22314
880.478	22371
880.605	22226
880.732	22329
880.859	22637
880.986	22363
881.112	22322
881.239	22154
881.366	22025
881.493	21953
881.619	21922
881.746	21926
881.872	21842
881.999	21918
882.125	21880
882.252	21816
882.378	21728
882.505	22032
882.631	21675
882.757	21644
882.883	21652
883.01	21580
883.136	21614
883.262	21511
883.388	21450
883.514	21542
883.64	21717
883.766	21614
883.892	21412
884.018	21374
884.143	21496
884.269	21656
884.395	21317
884.52	21272
884.646	21298
884.772	21104
884.897	21093
885.023	21218
885.148	21450
885.274	21378
885.399	21336
885.524	21313
885.65	21226
885.775	21180
885.9	21260
886.025	21389
886.15	21298
886.275	21245
886.4	21184
886.525	21355
886.65	21302
886.775	21013
886.9	21291
887.025	21378
887.149	21298
887.274	21020
887.399	21020
887.523	21207
887.648	21116
887.773	20948
887.897	21123
888.021	21096
888.146	21043
888.27	20944
888.395	21108
888.519	21039
888.643	20956
888.767	21112
888.891	20982
889.015	20788
889.139	20887
889.263	20807
889.387	20990
889.511	21074
889.635	20994
889.759	20819
889.883	20731
890.006	20838
890.13	21001
890.254	20788
890.377	20739
890.501	20526
890.624	20602
890.748	20682
890.871	20575
890.995	20408
891.118	20450
891.241	20507
891.364	20389
891.488	20446
891.611	20343
891.734	20324
891.857	20419
891.98	20385
892.103	20396
892.226	20427
892.349	20389
892.471	20172
892.594	20362
892.717	20423
892.839	20282
892.962	20309
893.085	20396
893.207	20263
893.33	20138
893.452	20339
893.575	20362
893.697	20233
893.819	20393
893.941	20613
894.064	20431
894.186	20301
894.308	20180
894.43	20446
894.552	20454
894.674	20450
894.796	20381
894.918	20377
895.04	20358
895.161	20366
895.283	20267
895.405	20259
895.526	20317
895.648	20339
895.769	20362
895.891	20370
896.012	20317
896.134	20427
896.255	20298
896.376	20256
896.498	20172
896.619	20343
896.74	20339
896.861	20347
896.982	20503
897.103	20773
897.224	20583
897.345	20556
897.466	20450
897.587	20469
897.708	20598
897.828	20511
897.949	20423
898.07	20351
898.19	20355
898.311	20579
898.431	20495
898.552	20507
898.672	20579
898.792	20613
898.913	20431
899.033	20377
899.153	20275
899.273	20187
899.393	20317
899.513	20309
899.633	20358
899.753	20275
899.873	20195
899.993	20343
900.113	20168
900.232	20263
900.352	20191
900.472	20153
900.591	19967
900.711	19970
900.83	20031
900.95	20183
901.069	20126
901.189	20046
901.308	19655
901.427	19704
901.546	19681
901.665	19693
901.784	19620
901.904	19460
902.023	19324
902.141	19282
902.26	19156
902.379	19339
902.498	19107
902.617	19084
902.735	19129
902.854	19088
902.973	19004
903.091	18844
903.21	18760
903.328	18897
903.446	18673
903.565	18570
903.683	18608
903.801	18445
903.919	18559
904.038	18574
904.156	18479
904.274	18479
904.392	18270
904.51	18300
904.627	18445
904.745	18334
904.863	18395
904.981	18190
905.098	18060
905.216	18019
905.334	18057
905.451	18079
905.569	17946
905.686	18015
905.803	18201
905.921	17821
906.038	17847
906.155	17840
906.272	17684
906.389	17824
906.506	17657
906.623	17661
906.74	17505
906.857	17474
906.974	17467
907.091	17718
907.208	17733
907.324	17516
907.441	17463
907.557	17353
907.674	17417
907.79	17178
907.907	17250
908.023	17280
908.139	17341
908.256	17212
908.372	17121
908.488	17170
908.604	16946
908.72	16949
908.836	17022
908.952	17090
909.068	17003
909.184	17056
909.3	17014
909.415	16999
909.531	16965
909.647	16908
909.762	16740
909.878	16683
909.993	16691
910.108	16725
910.224	16615
910.339	16637
910.454	16523
910.57	16558
910.685	16360
910.8	16668
910.915	16626
911.03	16523
911.145	16405
911.259	16325
911.374	16246
911.489	16276
911.604	16192
911.718	16139
911.833	16101
911.947	15934
912.062	15949
912.176	16078
912.291	16036
912.405	16051
912.519	16097
912.633	16200
912.748	15953
912.862	16002
912.976	15861
913.09	15743
913.204	15899
913.318	15781
913.431	15964
913.545	15953
913.659	16006
913.772	15823
913.886	15648
914	15660
914.113	15698
914.226	15724
914.34	15690
914.453	15523
914.566	15698
914.68	15424
914.793	15496
914.906	15298
915.019	15264
915.132	15230
915.245	15283
915.358	15256
915.47	15275
915.583	15188
915.696	15306
915.809	15344
915.921	15363
916.034	15252
916.146	15081
916.259	15104
916.371	15203
916.483	15211
916.595	15047
916.708	15131
916.82	15074
916.932	15051
917.044	15028
917.156	14994
917.268	14899
917.38	14929
917.491	14830
917.603	14838
917.715	14975
917.826	14994
917.938	14811
918.049	14769
918.161	14872
918.272	15066
918.384	14933
918.495	14785
918.606	14682
918.717	14632
918.828	14659
918.939	14602
919.05	14602
919.161	14682
919.272	14518
919.383	14480
919.494	14689
919.604	14834
919.715	14674
919.826	14556
919.936	14590
920.047	14686
920.157	14640
920.267	14720
920.378	14640
920.488	14530
920.598	14754
920.708	14857
920.818	14682
920.928	14807
921.038	14902
921.148	14792
921.258	14571
921.368	14556
921.477	14374
921.587	14332
921.697	14157
921.806	14526
921.916	14206
922.025	14043
922.134	14005
922.244	13883
922.353	14058
922.462	13883
922.571	13788
922.68	13677
922.789	13590
922.898	13647
923.007	13499
923.116	13609
923.224	13658
923.333	13548
923.442	13556
923.55	13529
923.659	13453
923.767	13578
923.876	13434
923.984	13487
924.092	13369
924.201	13392
924.309	13293
924.417	13335
924.525	13270
924.633	13316
924.741	14081
924.849	13141
924.956	13339
925.064	13114
925.172	12970
925.279	12928
925.387	13080
925.494	13031
925.602	13088
925.709	13091
925.816	12935
925.924	13012
926.031	12943
926.138	12970
926.245	12989
926.352	12886
926.459	13019
926.566	13015
926.673	12905
926.779	12791
926.886	12757
926.993	12681
927.099	12570
927.206	12604
927.312	12525
927.419	12578
927.525	12563
927.631	12585
927.737	12525
927.843	12391
927.95	12429
928.056	12395
928.162	12475
928.267	12483
928.373	13099
928.479	12498
928.585	12197
928.69	12391
928.796	12395
928.901	12319
929.007	12136
929.112	12319
929.218	12273
929.323	12201
929.428	12121
929.533	12323
929.638	12057
929.743	12034
929.848	12148
929.953	12060
930.058	11965
930.163	11790
930.267	11828
930.372	11885
930.477	11813
930.581	12003
930.685	11912
930.79	11657
930.894	11665
930.998	11680
931.103	11790
931.207	11429
931.311	11315
931.415	11288
931.519	11128
931.623	11109
