Data from test_V78500241_1100.txt Node
Date: Fri Mar 25 15:17:31 CST 2022
User: usil
Spectrometer: V785-0024
Trigger mode: 0
Integration Time (sec): 4.000000E-1
Scans to average: 1
Nonlinearity correction enabled: false
Boxcar width: 0
Storing dark spectrum: false
XAxis mode: Wavelengths
Number of Pixels in Spectrum: 1024
>>>>>Begin Spectral Data<<<<<
801.071	28401
801.214	28466
801.356	28234
801.499	28124
801.641	27930
801.783	27914
801.926	27975
802.068	28070
802.211	27934
802.353	27956
802.496	27778
802.638	27633
802.78	27656
802.923	27507
803.065	27679
803.208	27705
803.35	27599
803.492	27781
803.635	27869
803.777	27743
803.919	27884
804.061	28181
804.204	28067
804.346	27854
804.488	27884
804.63	27903
804.773	27888
804.915	27926
805.057	28116
805.199	27941
805.341	28063
805.483	28048
805.626	28154
805.768	27998
805.91	28120
806.052	28055
806.194	28139
806.336	28268
806.478	28188
806.62	28097
806.762	28162
806.904	28314
807.046	28550
807.188	28322
807.33	28451
807.472	28550
807.614	28478
807.756	28516
807.898	28394
808.04	28424
808.182	28287
808.324	28481
808.465	28344
808.607	28706
808.749	28725
808.891	28778
809.033	29003
809.174	28793
809.316	28816
809.458	28641
809.6	28740
809.741	28877
809.883	28828
810.025	29014
810.166	28938
810.308	29132
810.45	28946
810.591	28869
810.733	28774
810.875	28717
811.016	28805
811.158	28683
811.299	28885
811.441	28938
811.582	29037
811.724	28771
811.865	28812
812.007	28675
812.148	28710
812.29	28782
812.431	28991
812.573	28995
812.714	29174
812.855	29223
812.997	29372
813.138	29516
813.279	29326
813.421	29326
813.562	29208
813.703	29277
813.845	29048
813.986	28786
814.127	28531
814.268	28550
814.41	28455
814.551	28523
814.692	28497
814.833	28421
814.974	28470
815.115	28527
815.256	28322
815.397	28398
815.539	28474
815.68	28325
815.821	28230
815.962	28394
816.103	28394
816.244	28147
816.385	28169
816.526	28013
816.666	27968
816.807	27728
816.948	27899
817.089	27922
817.23	27816
817.371	27682
817.512	27785
817.653	27789
817.793	27724
817.934	27861
818.075	27987
818.216	27869
818.356	27774
818.497	27682
818.638	27378
818.778	27686
818.919	27591
819.06	27542
819.2	27679
819.341	27831
819.481	27949
819.622	27911
819.762	28131
819.903	27994
820.043	28051
820.184	27812
820.324	27941
820.465	28044
820.605	27850
820.746	27914
820.886	27781
821.026	27949
821.167	27819
821.307	27945
821.447	27987
821.588	27610
821.728	27595
821.868	27439
822.008	27412
822.149	27256
822.289	27249
822.429	27051
822.569	26990
822.709	26994
822.849	26765
822.99	26785
823.13	26708
823.27	26648
823.41	26769
823.55	26579
823.69	26575
823.83	26602
823.97	26541
824.11	26526
824.25	26446
824.389	26404
824.529	26648
824.669	26503
824.809	26712
824.949	26503
825.089	26545
825.228	26587
825.368	26324
825.508	26305
825.648	26290
825.787	26453
825.927	26419
826.067	26290
826.206	26347
826.346	26328
826.485	26434
826.625	26313
826.765	26423
826.904	26339
827.044	26103
827.183	26183
827.323	26100
827.462	26168
827.601	26069
827.741	25997
827.88	25970
828.02	25913
828.159	26130
828.298	26024
828.437	26145
828.577	26001
828.716	26233
828.855	25963
828.994	25719
829.134	25856
829.273	25913
829.412	25803
829.551	25689
829.69	25708
829.829	25761
829.968	25849
830.107	25864
830.246	25769
830.385	25784
830.524	25826
830.663	25544
830.802	25750
830.941	25403
831.08	25301
831.219	25434
831.357	25597
831.496	25738
831.635	25559
831.774	25400
831.913	25179
832.051	25301
832.19	25114
832.329	25133
832.467	25103
832.606	25110
832.744	25012
832.883	25061
833.022	25008
833.16	25065
833.299	25095
833.437	25141
833.576	25072
833.714	25179
833.852	25289
833.991	25095
834.129	25225
834.267	25270
834.406	25263
834.544	25069
834.682	25137
834.821	25031
834.959	25441
835.097	25141
835.235	25148
835.373	25050
835.511	25027
835.65	25152
835.788	25072
835.926	24958
836.064	24856
836.202	24806
836.34	24962
836.478	25091
836.615	25004
836.753	25004
836.891	25084
837.029	24943
837.167	24985
837.305	24856
837.443	24920
837.58	24863
837.718	24875
837.856	24802
837.993	24764
838.131	24692
838.269	24623
838.406	24783
838.544	24604
838.681	24452
838.819	24490
838.956	24327
839.094	24372
839.231	24254
839.369	24418
839.506	24707
839.643	24532
839.781	24254
839.918	24277
840.055	24330
840.193	24304
840.33	24289
840.467	24163
840.604	24194
840.742	24475
840.879	23992
841.016	24163
841.153	24007
841.29	24251
841.427	24106
841.564	24216
841.701	24277
841.838	24174
841.975	24167
842.112	24095
842.249	24049
842.385	23965
842.522	24087
842.659	24057
842.796	23931
842.933	23939
843.069	23828
843.206	23847
843.343	23969
843.479	23927
843.616	23988
843.752	23748
843.889	23821
844.025	23802
844.162	23813
844.298	23893
844.435	23722
844.571	23649
844.708	23885
844.844	23771
844.98	23882
845.117	23897
845.253	23843
845.389	23619
845.525	23691
845.661	23554
845.798	23364
845.934	23585
846.07	23478
846.206	23474
846.342	23535
846.478	23471
846.614	23280
846.75	23075
846.886	23242
847.022	23391
847.158	23216
847.294	23121
847.429	23181
847.565	23174
847.701	23414
847.837	22961
847.972	22900
848.108	23083
848.244	22972
848.379	22774
848.515	22782
848.65	22786
848.786	22801
848.921	22873
849.057	22980
849.192	22862
849.328	22904
849.463	22797
849.598	22812
849.734	22584
849.869	22618
850.004	22512
850.14	22584
850.275	22622
850.41	22253
850.545	22649
850.68	22504
850.815	22584
850.95	22573
851.085	22710
851.22	22790
851.355	22577
851.49	22508
851.625	22542
851.76	22596
851.895	22443
852.03	22451
852.165	22577
852.299	22634
852.434	22698
852.569	22649
852.703	22535
852.838	22500
852.973	22702
853.107	22763
853.242	22550
853.376	22306
853.511	22287
853.645	22253
853.78	22466
853.914	22432
854.048	22341
854.183	22318
854.317	22348
854.451	22618
854.585	22402
854.72	22344
854.854	22481
854.988	22234
855.122	22443
855.256	22341
855.39	22322
855.524	22398
855.658	22386
855.792	22417
855.926	22538
856.06	22455
856.194	22535
856.327	22417
856.461	22405
856.595	22291
856.729	22493
856.862	22641
856.996	22470
857.13	22390
857.263	22432
857.397	22500
857.53	22382
857.664	22379
857.797	22508
857.931	22493
858.064	22333
858.197	22459
858.331	22356
858.464	22272
858.597	22257
858.731	22295
858.864	22249
858.997	22257
859.13	22284
859.263	22375
859.396	22478
859.529	22447
859.662	22367
859.795	22379
859.928	22428
860.061	22466
860.194	22481
860.327	22367
860.46	22405
860.592	22413
860.725	22542
860.858	22565
860.99	22356
861.123	22272
861.256	22306
861.388	22455
861.521	23041
861.653	22226
861.786	22055
861.918	22211
862.05	22280
862.183	22337
862.315	22257
862.447	22344
862.58	22287
862.712	22074
862.844	21930
862.976	22211
863.108	22223
863.24	22478
863.372	22078
863.504	22021
863.636	22036
863.768	22173
863.9	22090
864.032	22147
864.164	21968
864.296	22093
864.428	22135
864.559	22207
864.691	22173
864.823	22067
864.954	21960
865.086	22116
865.217	22029
865.349	21911
865.48	22070
865.612	21918
865.743	22181
865.875	22017
866.006	21854
866.137	21994
866.269	21880
866.4	22044
866.531	21816
866.662	21907
866.793	21968
866.924	21895
867.055	21991
867.186	21899
867.317	21823
867.448	21873
867.579	21800
867.71	21800
867.841	21751
867.972	22013
868.103	21884
868.233	21907
868.364	21876
868.495	21983
868.625	22181
868.756	22257
868.886	22074
869.017	21911
869.147	22238
869.278	22287
869.408	22135
869.539	22090
869.669	22249
869.799	22230
869.929	22303
870.06	22249
870.19	22523
870.32	22542
870.45	22565
870.58	22459
870.71	22618
870.84	22637
870.97	22459
871.1	22512
871.23	22637
871.36	22675
871.489	22588
871.619	22755
871.749	22744
871.879	22767
872.008	22820
872.138	22744
872.267	22664
872.397	22660
872.526	22603
872.656	22489
872.785	22672
872.915	22653
873.044	22828
873.173	22786
873.303	22797
873.432	22820
873.561	22877
873.69	22763
873.819	22782
873.948	22809
874.077	22736
874.206	22679
874.335	22752
874.464	22797
874.593	23003
874.722	23064
874.851	23014
874.979	22991
875.108	23003
875.237	22786
875.365	22771
875.494	22984
875.623	23052
875.751	22930
875.88	22942
876.008	23086
876.136	23079
876.265	23383
876.393	23554
876.521	23326
876.65	23372
876.778	23296
876.906	23258
877.034	23197
877.162	23265
877.29	23250
877.418	23159
877.546	23254
877.674	23292
877.802	23200
877.93	23269
878.058	23349
878.185	23151
878.313	23246
878.441	23239
878.568	23105
878.696	23155
878.824	23326
878.951	23299
879.079	23334
879.206	23547
879.333	23436
879.461	23265
879.588	23326
879.715	23360
879.842	23589
879.97	23307
880.097	23094
880.224	23094
880.351	23086
880.478	23025
880.605	22991
880.732	23090
880.859	23444
880.986	23102
881.112	23204
881.239	23018
881.366	22965
881.493	22759
881.619	22527
881.746	22630
881.872	22691
881.999	22603
882.125	22565
882.252	22653
882.378	22672
882.505	22755
882.631	22557
882.757	22451
882.883	22428
883.01	22344
883.136	22314
883.262	22375
883.388	22249
883.514	22303
883.64	22314
883.766	22219
883.892	21991
884.018	22177
884.143	22314
884.269	22356
884.395	22135
884.52	21895
884.646	21922
884.772	21804
884.897	21701
885.023	21926
885.148	22082
885.274	22040
885.399	21998
885.524	22006
885.65	21895
885.775	21972
885.9	21899
886.025	22036
886.15	21994
886.275	21972
886.4	21937
886.525	21892
886.65	21888
886.775	21892
886.9	22013
887.025	22185
887.149	21861
887.274	21694
887.399	21724
887.523	21751
887.648	21736
887.773	21736
887.897	21789
888.021	21705
888.146	21644
888.27	21819
888.395	21739
888.519	21766
888.643	21717
888.767	21633
888.891	21671
889.015	21557
889.139	21610
889.263	21496
889.387	21675
889.511	21747
889.635	21720
889.759	21557
889.883	21576
890.006	21622
890.13	21614
890.254	21374
890.377	21420
890.501	21355
890.624	21237
890.748	21241
890.871	21199
890.995	21066
891.118	21066
891.241	21077
891.364	21066
891.488	21146
891.611	21066
891.734	21135
891.857	21199
891.98	21085
892.103	21173
892.226	21081
892.349	21020
892.471	20925
892.594	20971
892.717	20902
892.839	20986
892.962	21017
893.085	20990
893.207	20998
893.33	20952
893.452	20899
893.575	20986
893.697	20952
893.819	21020
893.941	21165
894.064	21013
894.186	20883
894.308	20792
894.43	20952
894.552	21070
894.674	20986
894.796	20952
894.918	20853
895.04	20819
895.161	21013
895.283	20982
895.405	20849
895.526	20853
895.648	20929
895.769	20929
895.891	20929
896.012	21036
896.134	20994
896.255	20979
896.376	20853
896.498	20899
896.619	20906
896.74	20979
896.861	20990
896.982	21306
897.103	21325
897.224	21192
897.345	21192
897.466	20990
897.587	21009
897.708	21249
897.828	21039
897.949	21043
898.07	21013
898.19	21131
898.311	21169
898.431	20948
898.552	21089
898.672	21157
898.792	21165
898.913	21066
899.033	21009
899.153	20880
899.273	20777
899.393	20853
899.513	20967
899.633	20842
899.753	20906
899.873	20765
899.993	20876
900.113	20697
900.232	20773
900.352	20720
900.472	20640
900.591	20503
900.711	20564
900.83	20568
900.95	20712
901.069	20716
901.189	20450
901.308	20351
901.427	20115
901.546	20233
901.665	20210
901.784	20103
901.904	20096
902.023	19894
902.141	19753
902.26	19696
902.379	19830
902.498	19689
902.617	19681
902.735	19658
902.854	19719
902.973	19647
903.091	19297
903.21	19381
903.328	19297
903.446	19274
903.565	19213
903.683	19255
903.801	18951
903.919	19110
904.038	19118
904.156	18894
904.274	18989
904.392	19000
904.51	18806
904.627	18829
904.745	18954
904.863	18954
904.981	18772
905.098	18616
905.216	18677
905.334	18639
905.451	18608
905.569	18551
905.686	18540
905.803	18578
905.921	18395
906.038	18525
906.155	18483
906.272	18338
906.389	18270
906.506	18155
906.623	18197
906.74	18155
906.857	17965
906.974	17977
907.091	18144
907.208	18194
907.324	18167
907.441	18022
907.557	17840
907.674	17901
907.79	17851
907.907	17809
908.023	17885
908.139	17866
908.256	17741
908.372	17649
908.488	17680
908.604	17642
908.72	17554
908.836	17611
908.952	17497
909.068	17665
909.184	17642
909.3	17490
909.415	17520
909.531	17623
909.647	17296
909.762	17288
909.878	17303
909.993	17178
910.108	17269
910.224	17220
910.339	17231
910.454	17113
910.57	17102
910.685	16991
910.8	17265
910.915	17235
911.03	17109
911.145	16866
911.259	16866
911.374	16820
911.489	16744
911.604	16672
911.718	16497
911.833	16500
911.947	16451
912.062	16462
912.176	16542
912.291	16618
912.405	16546
912.519	16698
912.633	16755
912.748	16565
912.862	16573
912.976	16363
913.09	16299
913.204	16432
913.318	16421
913.431	16459
913.545	16500
913.659	16421
913.772	16299
913.886	16139
914	16112
914.113	16276
914.226	16238
914.34	16306
914.453	16025
914.566	16219
914.68	16048
914.793	16105
914.906	15819
915.019	15812
915.132	15701
915.245	15682
915.358	15637
915.47	15694
915.583	15770
915.696	15789
915.809	15960
915.921	15857
916.034	15701
916.146	15713
916.259	15694
916.371	15770
916.483	15671
916.595	15515
916.708	15591
916.82	15523
916.932	15561
917.044	15515
917.156	15473
917.268	15450
917.38	15405
917.491	15294
917.603	15321
917.715	15405
917.826	15549
917.938	15302
918.049	15218
918.161	15359
918.272	15359
918.384	15359
918.495	15340
918.606	15165
918.717	15097
918.828	15161
918.939	15135
919.05	15081
919.161	15119
919.272	14842
919.383	15013
919.494	15161
919.604	15340
919.715	15138
919.826	15001
919.936	15112
920.047	15150
920.157	15051
920.267	15176
920.378	15005
920.488	15074
920.598	15230
920.708	15428
920.818	15195
920.928	15241
921.038	15447
921.148	15401
921.258	14944
921.368	14948
921.477	14834
921.587	14902
921.697	14758
921.806	14819
921.916	14670
922.025	14408
922.134	14438
922.244	14366
922.353	14427
922.462	14256
922.571	14202
922.68	14157
922.789	14134
922.898	14153
923.007	13993
923.116	14176
923.224	14092
923.333	13940
923.442	13906
923.55	13883
923.659	13883
923.767	14012
923.876	13856
923.984	13928
924.092	13803
924.201	13791
924.309	13803
924.417	13811
924.525	13658
924.633	13772
924.741	14594
924.849	13468
924.956	13753
925.064	13495
925.172	13453
925.279	13514
925.387	13453
925.494	13407
925.602	13544
925.709	13502
925.816	13400
925.924	13502
926.031	13445
926.138	13308
926.245	13491
926.352	13274
926.459	13422
926.566	13445
926.673	13304
926.779	13225
926.886	13152
926.993	13084
927.099	13027
927.206	12947
927.312	12928
927.419	13031
927.525	12958
927.631	13000
927.737	12886
927.843	12905
927.95	12726
928.056	12768
928.162	12806
928.267	12844
928.373	13464
928.479	12859
928.585	12726
928.69	12692
928.796	12833
928.901	12616
929.007	12502
929.112	12585
929.218	12544
929.323	12589
929.428	12536
929.533	12722
929.638	12464
929.743	12483
929.848	12509
929.953	12467
930.058	12380
930.163	12186
930.267	12235
930.372	12490
930.477	12041
930.581	12452
930.685	12209
930.79	12117
930.894	12083
930.998	12034
931.103	12251
931.207	11764
931.311	11767
931.415	11627
931.519	11459
931.623	11398
