Data from test_V78500241_2396.txt Node
Date: Fri Mar 25 15:26:32 CST 2022
User: usil
Spectrometer: V785-0024
Trigger mode: 0
Integration Time (sec): 4.000000E-1
Scans to average: 1
Nonlinearity correction enabled: false
Boxcar width: 0
Storing dark spectrum: false
XAxis mode: Wavelengths
Number of Pixels in Spectrum: 1024
>>>>>Begin Spectral Data<<<<<
801.071	27142
801.214	27089
801.356	26845
801.499	26785
801.641	26678
801.783	26678
801.926	26670
802.068	26670
802.211	26560
802.353	26621
802.496	26324
802.638	26381
802.78	26298
802.923	26267
803.065	26282
803.208	26389
803.35	26404
803.492	26473
803.635	26492
803.777	26389
803.919	26655
804.061	26823
804.204	26488
804.346	26400
804.488	26400
804.63	26522
804.773	26305
804.915	26488
805.057	26549
805.199	26533
805.341	26606
805.483	26674
805.626	26609
805.768	26541
805.91	26530
806.052	26697
806.194	26587
806.336	26735
806.478	26621
806.62	26629
806.762	26609
806.904	26777
807.046	26952
807.188	27005
807.33	26975
807.472	27180
807.614	26937
807.756	26853
807.898	26758
808.04	26849
808.182	26868
808.324	26842
808.465	26925
808.607	27013
808.749	27085
808.891	27275
809.033	27370
809.174	27233
809.316	27184
809.458	27222
809.6	27252
809.741	27256
809.883	27298
810.025	27401
810.166	27412
810.308	27469
810.45	27374
810.591	27344
810.733	27222
810.875	27142
811.016	27062
811.158	27001
811.299	27142
811.441	27294
811.582	27310
811.724	27256
811.865	27119
812.007	27089
812.148	27142
812.29	27249
812.431	27374
812.573	27447
812.714	27625
812.855	27679
812.997	27633
813.138	27892
813.279	27698
813.421	27648
813.562	27679
813.703	27401
813.845	27329
813.986	27039
814.127	27024
814.268	27043
814.41	26952
814.551	26880
814.692	26697
814.833	26883
814.974	26785
815.115	26769
815.256	26739
815.397	26785
815.539	26583
815.68	26613
815.821	26617
815.962	26640
816.103	26678
816.244	26377
816.385	26339
816.526	26442
816.666	26081
816.807	25947
816.948	26172
817.089	26385
817.23	26081
817.371	26138
817.512	26122
817.653	26126
817.793	25978
817.934	26058
818.075	26039
818.216	26043
818.356	25993
818.497	25947
818.638	25788
818.778	25727
818.919	25807
819.06	25875
819.2	26096
819.341	26035
819.481	26001
819.622	26199
819.762	26431
819.903	26393
820.043	26145
820.184	26214
820.324	26240
820.465	26240
820.605	26195
820.746	26164
820.886	26130
821.026	26092
821.167	26115
821.307	26221
821.447	26183
821.588	26020
821.728	25852
821.868	25635
822.008	25552
822.149	25563
822.289	25518
822.429	25324
822.569	25236
822.709	25297
822.849	25057
822.99	25084
823.13	25076
823.27	25042
823.41	24928
823.55	24867
823.69	24932
823.83	24966
823.97	24722
824.11	24730
824.25	24639
824.389	24551
824.529	24616
824.669	24760
824.809	24882
824.949	24791
825.089	24677
825.228	24696
825.368	24498
825.508	24490
825.648	24433
825.787	24471
825.927	24620
826.067	24532
826.206	24490
826.346	24608
826.485	24509
826.625	24483
826.765	24688
826.904	24566
827.044	24342
827.183	24346
827.323	24205
827.462	24391
827.601	24334
827.741	24178
827.88	24296
828.02	24053
828.159	24216
828.298	24254
828.437	24311
828.577	24285
828.716	24365
828.855	24121
828.994	23977
829.134	24030
829.273	23973
829.412	23939
829.551	24022
829.69	23836
829.829	23942
829.968	24144
830.107	24087
830.246	24038
830.385	23878
830.524	23843
830.663	23824
830.802	23741
830.941	23680
831.08	23516
831.219	23687
831.357	23634
831.496	23836
831.635	23581
831.774	23478
831.913	23596
832.051	23406
832.19	23379
832.329	23292
832.467	23197
832.606	23143
832.744	23178
832.883	23174
833.022	23128
833.16	23140
833.299	23280
833.437	23220
833.576	23284
833.714	23296
833.852	23501
833.991	23383
834.129	23410
834.267	23463
834.406	23383
834.544	23387
834.682	23322
834.821	23269
834.959	23425
835.097	23204
835.235	23337
835.373	23410
835.511	23433
835.65	23067
835.788	23185
835.926	23159
836.064	22968
836.202	22896
836.34	23185
836.478	23208
836.615	23113
836.753	23136
836.891	23246
837.029	23159
837.167	23227
837.305	23128
837.443	23018
837.58	23048
837.718	23029
837.856	23052
837.993	22938
838.131	22911
838.269	22927
838.406	22835
838.544	22759
838.681	22774
838.819	22580
838.956	22569
839.094	22516
839.231	22599
839.369	22653
839.506	22934
839.643	22679
839.781	22466
839.918	22432
840.055	22489
840.193	22447
840.33	22508
840.467	22394
840.604	22375
840.742	22622
840.879	22238
841.016	22287
841.153	22402
841.29	22523
841.427	22371
841.564	22546
841.701	22436
841.838	22379
841.975	22276
842.112	22363
842.249	22322
842.385	22192
842.522	22390
842.659	22215
842.796	22116
842.933	22116
843.069	22116
843.206	22177
843.343	22162
843.479	22188
843.616	22272
843.752	22082
843.889	21956
844.025	22188
844.162	21956
844.298	22128
844.435	21865
844.571	21968
844.708	21937
844.844	22002
844.98	22128
845.117	22067
845.253	21899
845.389	21759
845.525	21800
845.661	21884
845.798	21690
845.934	21922
846.07	21648
846.206	21743
846.342	21698
846.478	21625
846.614	21405
846.75	21393
846.886	21408
847.022	21564
847.158	21462
847.294	21431
847.429	21511
847.565	21488
847.701	21557
847.837	21146
847.972	21104
848.108	21222
848.244	21260
848.379	21104
848.515	21112
848.65	20963
848.786	21020
848.921	20895
849.057	21192
849.192	21135
849.328	20998
849.463	21001
849.598	20979
849.734	20872
849.869	20838
850.004	20743
850.14	20807
850.275	20773
850.41	20667
850.545	20697
850.68	20773
850.815	20849
850.95	20777
851.085	20941
851.22	21001
851.355	20807
851.49	20754
851.625	20804
851.76	20792
851.895	20769
852.03	20632
852.165	20762
852.299	20765
852.434	20906
852.569	20811
852.703	20807
852.838	20819
852.973	20979
853.107	20921
853.242	20686
853.376	20682
853.511	20545
853.645	20632
853.78	20701
853.914	20552
854.048	20480
854.183	20575
854.317	20568
854.451	20800
854.585	20571
854.72	20640
854.854	20743
854.988	20552
855.122	20590
855.256	20590
855.39	20560
855.524	20735
855.658	20686
855.792	20651
855.926	20560
856.06	20678
856.194	20568
856.327	20488
856.461	20632
856.595	20514
856.729	20686
856.862	20781
856.996	20499
857.13	20731
857.263	20598
857.397	20613
857.53	20568
857.664	20511
857.797	20636
857.931	20640
858.064	20609
858.197	20689
858.331	20609
858.464	20492
858.597	20465
858.731	20613
858.864	20689
858.997	20629
859.13	20758
859.263	20598
859.396	20716
859.529	20602
859.662	20503
859.795	20522
859.928	20667
860.061	20743
860.194	20750
860.327	20609
860.46	20689
860.592	20792
860.725	20792
860.858	20697
860.99	20446
861.123	20606
861.256	20590
861.388	20693
861.521	21184
861.653	20537
861.786	20423
861.918	20393
862.05	20454
862.183	20564
862.315	20541
862.447	20686
862.58	20522
862.712	20419
862.844	20320
862.976	20473
863.108	20362
863.24	20651
863.372	20206
863.504	20259
863.636	20396
863.768	20244
863.9	20290
864.032	20240
864.164	20252
864.296	20393
864.428	20339
864.559	20423
864.691	20328
864.823	20374
864.954	20263
865.086	20309
865.217	20313
865.349	20122
865.48	20290
865.612	20225
865.743	20305
865.875	20351
866.006	20263
866.137	20195
866.269	20115
866.4	20153
866.531	20259
866.662	20187
866.793	20130
866.924	20183
867.055	20282
867.186	20187
867.317	20157
867.448	20138
867.579	20069
867.71	19978
867.841	20065
867.972	20058
868.103	20172
868.233	20313
868.364	20103
868.495	20210
868.625	20366
868.756	20522
868.886	20290
869.017	20450
869.147	20408
869.278	20514
869.408	20434
869.539	20393
869.669	20549
869.799	20259
869.929	20545
870.06	20609
870.19	20644
870.32	20674
870.45	20781
870.58	20727
870.71	20933
870.84	20906
870.97	20750
871.1	20777
871.23	21009
871.36	21005
871.489	21005
871.619	20929
871.749	21005
871.879	21104
872.008	21104
872.138	20986
872.267	20944
872.397	20876
872.526	20815
872.656	20902
872.785	20788
872.915	21039
873.044	21096
873.173	21051
873.303	21043
873.432	21074
873.561	21127
873.69	21005
873.819	20956
873.948	21074
874.077	21028
874.206	21039
874.335	20963
874.464	21085
874.593	21256
874.722	21268
874.851	21348
874.979	21374
875.108	21336
875.237	21260
875.365	21230
875.494	21310
875.623	21389
875.751	21230
875.88	21344
876.008	21272
876.136	21439
876.265	21720
876.393	21724
876.521	21759
876.65	21793
876.778	21690
876.906	21759
877.034	21595
877.162	21671
877.29	21580
877.418	21648
877.546	21720
877.674	21572
877.802	21542
877.93	21603
878.058	21599
878.185	21542
878.313	21656
878.441	21679
878.568	21447
878.696	21572
878.824	21629
878.951	21724
879.079	21846
879.206	21793
879.333	21835
879.461	21610
879.588	21751
879.715	21774
879.842	21869
879.97	21633
880.097	21447
880.224	21408
880.351	21500
880.478	21530
880.605	21481
880.732	21454
880.859	21728
880.986	21367
881.112	21466
881.239	21283
881.366	21275
881.493	21112
881.619	21112
881.746	21135
881.872	21005
881.999	21138
882.125	20929
882.252	21085
882.378	20948
882.505	21119
882.631	20910
882.757	20804
882.883	20800
883.01	20853
883.136	20606
883.262	20648
883.388	20545
883.514	20701
883.64	20830
883.766	20636
883.892	20552
884.018	20552
884.143	20629
884.269	20739
884.395	20492
884.52	20328
884.646	20393
884.772	20347
884.897	20301
885.023	20347
885.148	20465
885.274	20522
885.399	20526
885.524	20514
885.65	20450
885.775	20377
885.9	20225
886.025	20514
886.15	20526
886.275	20263
886.4	20237
886.525	20358
886.65	20351
886.775	20237
886.9	20450
887.025	20587
887.149	20370
887.274	20267
887.399	20062
887.523	20195
887.648	20191
887.773	20142
887.897	20317
888.021	20187
888.146	20096
888.27	20358
888.395	20313
888.519	20180
888.643	20244
888.767	20180
888.891	20039
889.015	19959
889.139	20001
889.263	19997
889.387	20062
889.511	20221
889.635	20122
889.759	19864
889.883	19871
890.006	19928
890.13	20126
890.254	19978
890.377	19982
890.501	19712
890.624	19670
890.748	19750
890.871	19651
890.995	19468
891.118	19502
891.241	19632
891.364	19533
891.488	19639
891.611	19620
891.734	19445
891.857	19635
891.98	19495
892.103	19392
892.226	19651
892.349	19556
892.471	19392
892.594	19464
892.717	19438
892.839	19552
892.962	19441
893.085	19525
893.207	19411
893.33	19434
893.452	19419
893.575	19575
893.697	19495
893.819	19571
893.941	19628
894.064	19563
894.186	19483
894.308	19457
894.43	19502
894.552	19613
894.674	19624
894.796	19476
894.918	19483
895.04	19392
895.161	19537
895.283	19571
895.405	19480
895.526	19514
895.648	19434
895.769	19460
895.891	19468
896.012	19540
896.134	19510
896.255	19525
896.376	19430
896.498	19571
896.619	19575
896.74	19426
896.861	19590
896.982	19868
897.103	19951
897.224	19685
897.345	19647
897.466	19544
897.587	19780
897.708	19833
897.828	19746
897.949	19719
898.07	19571
898.19	19597
898.311	19727
898.431	19700
898.552	19753
898.672	19860
898.792	19849
898.913	19731
899.033	19571
899.153	19552
899.273	19381
899.393	19449
899.513	19422
899.633	19430
899.753	19480
899.873	19445
899.993	19582
900.113	19430
900.232	19449
900.352	19331
900.472	19464
900.591	19247
900.711	19304
900.83	19202
900.95	19434
901.069	19365
901.189	19247
901.308	18989
901.427	18848
901.546	18875
901.665	18924
901.784	18863
901.904	18783
902.023	18696
902.141	18486
902.26	18426
902.379	18422
902.498	18327
902.617	18407
902.735	18445
902.854	18445
902.973	18251
903.091	18174
903.21	18102
903.328	18076
903.446	18003
903.565	17961
903.683	17931
903.801	17722
903.919	17821
904.038	17912
904.156	17707
904.274	17798
904.392	17695
904.51	17691
904.627	17680
904.745	17745
904.863	17809
904.981	17539
905.098	17269
905.216	17345
905.334	17414
905.451	17337
905.569	17296
905.686	17353
905.803	17311
905.921	17242
906.038	17200
906.155	17181
906.272	17037
906.389	17075
906.506	16877
906.623	16881
906.74	16862
906.857	16771
906.974	16824
907.091	17025
907.208	16987
907.324	16957
907.441	16862
907.557	16668
907.674	16558
907.79	16535
907.907	16516
908.023	16649
908.139	16717
908.256	16550
908.372	16474
908.488	16455
908.604	16375
908.72	16360
908.836	16329
908.952	16333
909.068	16287
909.184	16462
909.3	16246
909.415	16344
909.531	16265
909.647	16055
909.762	16048
909.878	16071
909.993	16071
910.108	16040
910.224	15972
910.339	16051
910.454	15994
910.57	15835
910.685	15835
910.8	16120
910.915	15998
911.03	15865
911.145	15652
911.259	15656
911.374	15614
911.489	15580
911.604	15549
911.718	15393
911.833	15443
911.947	15291
912.062	15230
912.176	15340
912.291	15424
912.405	15332
912.519	15523
912.633	15599
912.748	15504
912.862	15428
912.976	15169
913.09	15214
913.204	15165
913.318	15241
913.431	15329
913.545	15389
913.659	15317
913.772	15119
913.886	15108
914	15055
914.113	15154
914.226	15138
914.34	15058
914.453	14979
914.566	15062
914.68	14868
914.793	14754
914.906	14746
915.019	14670
915.132	14602
915.245	14682
915.358	14701
915.47	14743
915.583	14602
915.696	14655
915.809	14720
915.921	14724
916.034	14457
916.146	14457
916.259	14537
916.371	14625
916.483	14564
916.595	14473
916.708	14434
916.82	14499
916.932	14469
917.044	14461
917.156	14408
917.268	14313
917.38	14381
917.491	14183
917.603	14328
917.715	14473
917.826	14454
917.938	14259
918.049	14142
918.161	14191
918.272	14400
918.384	14313
918.495	14256
918.606	14153
918.717	13917
918.828	14119
918.939	14164
919.05	13967
919.161	14107
919.272	13830
919.383	14020
919.494	14149
919.604	14271
919.715	14103
919.826	13986
919.936	14016
920.047	14161
920.157	14107
920.267	14218
920.378	14077
920.488	13986
920.598	14172
920.708	14328
920.818	14142
920.928	14183
921.038	14267
921.148	14339
921.258	13959
921.368	13856
921.477	13799
921.587	13765
921.697	13776
921.806	13841
921.916	13715
922.025	13552
922.134	13415
922.244	13476
922.353	13506
922.462	13335
922.571	13274
922.68	13217
922.789	13095
922.898	13110
923.007	13099
923.116	13114
923.224	13149
923.333	13175
923.442	13000
923.55	12867
923.659	12985
923.767	13004
923.876	12798
923.984	13008
924.092	12897
924.201	12863
924.309	12814
924.417	12913
924.525	12810
924.633	12833
924.741	13746
924.849	12700
924.956	12677
925.064	12547
925.172	12502
925.279	12544
925.387	12540
925.494	12574
925.602	12684
925.709	12578
925.816	12464
925.924	12604
926.031	12498
926.138	12509
926.245	12555
926.352	12452
926.459	12578
926.566	12623
926.673	12498
926.779	12388
926.886	12315
926.993	12121
927.099	12079
927.206	12136
927.312	12057
927.419	12175
927.525	12155
927.631	12171
927.737	12007
927.843	11935
927.95	11843
928.056	11878
928.162	11882
928.267	11984
928.373	12650
928.479	12034
928.585	11840
928.69	11889
928.796	11897
928.901	11870
929.007	11691
929.112	11824
929.218	11756
929.323	11661
929.428	11714
929.533	11836
929.638	11570
929.743	11615
929.848	11657
929.953	11627
930.058	11528
930.163	11341
930.267	11406
930.372	11535
930.477	11345
930.581	11623
930.685	11455
930.79	11231
930.894	11341
930.998	11303
931.103	11368
931.207	11018
931.311	10923
931.415	10835
931.519	10801
931.623	10687
