Data from test_V78500241_3523.txt Node
Date: Fri Mar 25 15:34:23 CST 2022
User: usil
Spectrometer: V785-0024
Trigger mode: 0
Integration Time (sec): 4.000000E-1
Scans to average: 1
Nonlinearity correction enabled: false
Boxcar width: 0
Storing dark spectrum: false
XAxis mode: Wavelengths
Number of Pixels in Spectrum: 1024
>>>>>Begin Spectral Data<<<<<
801.071	27427
801.214	27344
801.356	27062
801.499	27001
801.641	27077
801.783	26910
801.926	26944
802.068	26994
802.211	26788
802.353	26857
802.496	26800
802.638	26564
802.78	26583
802.923	26438
803.065	26415
803.208	26473
803.35	26469
803.492	26769
803.635	26781
803.777	26587
803.919	26716
804.061	27001
804.204	26815
804.346	26724
804.488	26571
804.63	26617
804.773	26655
804.915	26712
805.057	26758
805.199	26697
805.341	26773
805.483	26880
805.626	26876
805.768	26750
805.91	26834
806.052	26834
806.194	26800
806.336	26948
806.478	26804
806.62	26842
806.762	27013
806.904	27192
807.046	27302
807.188	27230
807.33	27298
807.472	27173
807.614	27279
807.756	27146
807.898	27081
808.04	27020
808.182	26990
808.324	26998
808.465	27020
808.607	27203
808.749	27313
808.891	27568
809.033	27549
809.174	27359
809.316	27427
809.458	27485
809.6	27466
809.741	27545
809.883	27439
810.025	27720
810.166	27751
810.308	27789
810.45	27709
810.591	27663
810.733	27466
810.875	27477
811.016	27401
811.158	27348
811.299	27450
811.441	27568
811.582	27515
811.724	27447
811.865	27351
812.007	27412
812.148	27416
812.29	27439
812.431	27644
812.573	27705
812.714	27747
812.855	27835
812.997	27968
813.138	28105
813.279	28063
813.421	28032
813.562	27861
813.703	27778
813.845	27633
813.986	27355
814.127	27180
814.268	27013
814.41	27112
814.551	27123
814.692	27226
814.833	27116
814.974	27009
815.115	27123
815.256	26857
815.397	26944
815.539	26971
815.68	26910
815.821	26796
815.962	26887
816.103	26906
816.244	26716
816.385	26720
816.526	26480
816.666	26400
816.807	26343
816.948	26431
817.089	26469
817.23	26252
817.371	26298
817.512	26305
817.653	26366
817.793	26256
817.934	26385
818.075	26461
818.216	26362
818.356	26320
818.497	26294
818.638	26027
818.778	26122
818.919	26020
819.06	26088
819.2	26229
819.341	26396
819.481	26370
819.622	26609
819.762	26670
819.903	26621
820.043	26537
820.184	26568
820.324	26427
820.465	26617
820.605	26442
820.746	26507
820.886	26256
821.026	26393
821.167	26343
821.307	26469
821.447	26324
821.588	26202
821.728	26225
821.868	26024
822.008	25955
822.149	25894
822.289	25856
822.429	25609
822.569	25693
822.709	25529
822.849	25228
822.99	25244
823.13	25483
823.27	25259
823.41	25126
823.55	25012
823.69	25156
823.83	25152
823.97	25065
824.11	24928
824.25	24886
824.389	24970
824.529	25148
824.669	25099
824.809	25091
824.949	25012
825.089	25175
825.228	25023
825.368	24863
825.508	24791
825.648	24882
825.787	24840
825.927	25012
826.067	24867
826.206	24852
826.346	24951
826.485	25015
826.625	24787
826.765	24901
826.904	24821
827.044	24627
827.183	24513
827.323	24646
827.462	24574
827.601	24486
827.741	24601
827.88	24513
828.02	24536
828.159	24547
828.298	24612
828.437	24540
828.577	24479
828.716	24673
828.855	24475
828.994	24201
829.134	24357
829.273	24338
829.412	24209
829.551	24167
829.69	24148
829.829	24323
829.968	24391
830.107	24285
830.246	24304
830.385	24114
830.524	24125
830.663	24129
830.802	24041
830.941	23935
831.08	23851
831.219	23980
831.357	24026
831.496	24125
831.635	23866
831.774	23794
831.913	23668
832.051	23687
832.19	23600
832.329	23672
832.467	23497
832.606	23512
832.744	23478
832.883	23539
833.022	23649
833.16	23486
833.299	23611
833.437	23467
833.576	23570
833.714	23638
833.852	23695
833.991	23596
834.129	23733
834.267	23714
834.406	23726
834.544	23714
834.682	23752
834.821	23642
834.959	23889
835.097	23615
835.235	23577
835.373	23703
835.511	23684
835.65	23562
835.788	23566
835.926	23334
836.064	23402
836.202	23322
836.34	23452
836.478	23665
836.615	23353
836.753	23490
836.891	23543
837.029	23478
837.167	23288
837.305	23414
837.443	23376
837.58	23425
837.718	23353
837.856	23223
837.993	23303
838.131	23334
838.269	23250
838.406	23242
838.544	23227
838.681	22923
838.819	23109
838.956	22805
839.094	22854
839.231	22938
839.369	22976
839.506	23220
839.643	23151
839.781	22763
839.918	22835
840.055	22862
840.193	22862
840.33	22679
840.467	22683
840.604	22752
840.742	23033
840.879	22634
841.016	22717
841.153	22698
841.29	22816
841.427	22790
841.564	22740
841.701	22618
841.838	22706
841.975	22702
842.112	22649
842.249	22656
842.385	22706
842.522	22660
842.659	22516
842.796	22569
842.933	22500
843.069	22424
843.206	22436
843.343	22641
843.479	22470
843.616	22580
843.752	22295
843.889	22337
844.025	22504
844.162	22303
844.298	22390
844.435	22318
844.571	22261
844.708	22333
844.844	22360
844.98	22440
845.117	22500
845.253	22284
845.389	22147
845.525	22265
845.661	22006
845.798	22036
845.934	22067
846.07	22021
846.206	22109
846.342	22147
846.478	22044
846.614	21812
846.75	21819
846.886	21819
847.022	21838
847.158	21819
847.294	21629
847.429	21732
847.565	21686
847.701	22017
847.837	21534
847.972	21405
848.108	21538
848.244	21408
848.379	21397
848.515	21264
848.65	21420
848.786	21378
848.921	21298
849.057	21454
849.192	21458
849.328	21408
849.463	21424
849.598	21389
849.734	21275
849.869	21260
850.004	21135
850.14	21138
850.275	21112
850.41	21074
850.545	21157
850.68	21085
850.815	21226
850.95	21154
851.085	21241
851.22	21351
851.355	21104
851.49	21146
851.625	21055
851.76	21123
851.895	21066
852.03	20941
852.165	21081
852.299	21081
852.434	21264
852.569	21070
852.703	21058
852.838	21127
852.973	21302
853.107	21313
853.242	21055
853.376	20906
853.511	20861
853.645	20933
853.78	21100
853.914	20986
854.048	20975
854.183	20807
854.317	21009
854.451	21108
854.585	20963
854.72	20902
854.854	20963
854.988	20857
855.122	20941
855.256	20785
855.39	20895
855.524	20952
855.658	20979
855.792	20960
855.926	20979
856.06	20899
856.194	21017
856.327	20887
856.461	20872
856.595	20815
856.729	20925
856.862	20994
856.996	20845
857.13	21036
857.263	21028
857.397	21108
857.53	20982
857.664	20963
857.797	21024
857.931	20948
858.064	21005
858.197	20979
858.331	20918
858.464	20864
858.597	20826
858.731	20830
858.864	20925
858.997	21005
859.13	20921
859.263	21039
859.396	21131
859.529	20925
859.662	20979
859.795	20929
859.928	20876
860.061	21192
860.194	21157
860.327	20864
860.46	20868
860.592	21055
860.725	21154
860.858	21119
860.99	20899
861.123	20838
861.256	20899
861.388	20876
861.521	21755
861.653	20750
861.786	20735
861.918	20743
862.05	20826
862.183	20960
862.315	20872
862.447	20906
862.58	20834
862.712	20693
862.844	20727
862.976	20746
863.108	20693
863.24	21066
863.372	20571
863.504	20762
863.636	20807
863.768	20807
863.9	20697
864.032	20606
864.164	20587
864.296	20735
864.428	20845
864.559	20724
864.691	20781
864.823	20678
864.954	20731
865.086	20583
865.217	20552
865.349	20568
865.48	20511
865.612	20579
865.743	20701
865.875	20587
866.006	20560
866.137	20533
866.269	20606
866.4	20560
866.531	20404
866.662	20484
866.793	20549
866.924	20575
867.055	20587
867.186	20507
867.317	20488
867.448	20408
867.579	20442
867.71	20412
867.841	20473
867.972	20434
868.103	20541
868.233	20617
868.364	20492
868.495	20663
868.625	20716
868.756	20952
868.886	20625
869.017	20708
869.147	20895
869.278	20830
869.408	20735
869.539	20739
869.669	20838
869.799	20663
869.929	20872
870.06	20895
870.19	21005
870.32	21058
870.45	21104
870.58	21096
870.71	21184
870.84	21249
870.97	21119
871.1	21119
871.23	21294
871.36	21321
871.489	21302
871.619	21291
871.749	21458
871.879	21416
872.008	21469
872.138	21428
872.267	21488
872.397	21351
872.526	21203
872.656	21249
872.785	21150
872.915	21321
873.044	21477
873.173	21500
873.303	21481
873.432	21466
873.561	21530
873.69	21313
873.819	21348
873.948	21428
874.077	21344
874.206	21256
874.335	21367
874.464	21500
874.593	21603
874.722	21633
874.851	21652
874.979	21701
875.108	21800
875.237	21667
875.365	21526
875.494	21587
875.623	21705
875.751	21622
875.88	21667
876.008	21789
876.136	21835
876.265	22051
876.393	22097
876.521	22017
876.65	22143
876.778	22025
876.906	21956
877.034	21899
877.162	21998
877.29	21979
877.418	21994
877.546	21968
877.674	21888
877.802	21960
877.93	21918
878.058	21888
878.185	21819
878.313	22051
878.441	21915
878.568	21743
878.696	21876
878.824	21987
878.951	22010
879.079	22086
879.206	22192
879.333	22040
879.461	21880
879.588	22013
879.715	22082
879.842	22158
879.97	21922
880.097	21789
880.224	21762
880.351	21774
880.478	21892
880.605	21728
880.732	21720
880.859	22025
880.986	21880
881.112	21686
881.239	21644
881.366	21587
881.493	21439
881.619	21351
881.746	21291
881.872	21344
881.999	21256
882.125	21230
882.252	21336
882.378	21408
882.505	21500
882.631	21203
882.757	21249
882.883	21112
883.01	21074
883.136	20971
883.262	20944
883.388	20956
883.514	21108
883.64	21089
883.766	20902
883.892	20925
884.018	20902
884.143	21024
884.269	21074
884.395	20708
884.52	20746
884.646	20796
884.772	20667
884.897	20686
885.023	20727
885.148	20826
885.274	20918
885.399	20845
885.524	20594
885.65	20705
885.775	20762
885.9	20762
886.025	20857
886.15	20720
886.275	20621
886.4	20575
886.525	20621
886.65	20724
886.775	20621
886.9	20746
887.025	20944
887.149	20731
887.274	20549
887.399	20465
887.523	20499
887.648	20404
887.773	20530
887.897	20476
888.021	20518
888.146	20278
888.27	20549
888.395	20537
888.519	20568
888.643	20568
888.767	20511
888.891	20298
889.015	20396
889.139	20313
889.263	20180
889.387	20366
889.511	20522
889.635	20587
889.759	20332
889.883	20336
890.006	20301
890.13	20385
890.254	20313
890.377	20218
890.501	20001
890.624	19986
890.748	20134
890.871	19894
890.995	19928
891.118	19712
891.241	19944
891.364	19864
891.488	20046
891.611	19757
891.734	19963
891.857	19898
891.98	19856
892.103	20058
892.226	19826
892.349	19879
892.471	19620
892.594	19833
892.717	19757
892.839	19715
892.962	19791
893.085	19830
893.207	19875
893.33	19655
893.452	19734
893.575	19837
893.697	19814
893.819	19845
893.941	19974
894.064	19814
894.186	19704
894.308	19731
894.43	19803
894.552	19856
894.674	19925
894.796	19643
894.918	19845
895.04	19590
895.161	19841
895.283	19830
895.405	19742
895.526	19693
895.648	19772
895.769	19803
895.891	19750
896.012	19856
896.134	19830
896.255	19772
896.376	19696
896.498	19750
896.619	19837
896.74	19791
896.861	19727
896.982	20157
897.103	20286
897.224	19997
897.345	19963
897.466	19944
897.587	19925
897.708	20088
897.828	20119
897.949	19902
898.07	19883
898.19	19970
898.311	20065
898.431	19944
898.552	20005
898.672	20073
898.792	19989
898.913	20012
899.033	19909
899.153	19788
899.273	19643
899.393	19712
899.513	19822
899.633	19666
899.753	19845
899.873	19681
899.993	19795
900.113	19586
900.232	19655
900.352	19575
900.472	19563
900.591	19400
900.711	19594
900.83	19419
900.95	19559
901.069	19639
901.189	19419
901.308	19168
901.427	18985
901.546	19164
901.665	19168
901.784	19152
901.904	18977
902.023	18867
902.141	18741
902.26	18627
902.379	18745
902.498	18639
902.617	18452
902.735	18608
902.854	18570
902.973	18642
903.091	18369
903.21	18369
903.328	18258
903.446	18117
903.565	18232
903.683	18182
903.801	18045
903.919	18106
904.038	18015
904.156	17939
904.274	17973
904.392	17813
904.51	17855
904.627	17889
904.745	17897
904.863	17977
904.981	17764
905.098	17642
905.216	17570
905.334	17684
905.451	17665
905.569	17528
905.686	17562
905.803	17501
905.921	17376
906.038	17501
906.155	17395
906.272	17197
906.389	17315
906.506	17170
906.623	17178
906.74	17102
906.857	16957
906.974	17071
907.091	17170
907.208	17296
907.324	17254
907.441	17014
907.557	16835
907.674	16892
907.79	16786
907.907	16911
908.023	16896
908.139	16854
908.256	16774
908.372	16809
908.488	16694
908.604	16607
908.72	16622
908.836	16637
908.952	16478
909.068	16516
909.184	16634
909.3	16634
909.415	16554
909.531	16527
909.647	16356
909.762	16325
909.878	16299
909.993	16303
910.108	16181
910.224	16249
910.339	16246
910.454	16128
910.57	16105
910.685	15987
910.8	16306
910.915	16325
911.03	16010
911.145	15956
911.259	15911
911.374	15823
911.489	15812
911.604	15736
911.718	15694
911.833	15751
911.947	15485
912.062	15511
912.176	15675
912.291	15812
912.405	15591
912.519	15831
912.633	15827
912.748	15713
912.862	15720
912.976	15481
913.09	15344
913.204	15405
913.318	15507
913.431	15515
913.545	15549
913.659	15481
913.772	15336
913.886	15241
914	15313
914.113	15359
914.226	15420
914.34	15447
914.453	15123
914.566	15332
914.68	15093
914.793	15138
914.906	14921
915.019	14883
915.132	14891
915.245	14952
915.358	14880
915.47	14960
915.583	14925
915.696	14887
915.809	14998
915.921	15017
916.034	14708
916.146	14769
916.259	14792
916.371	14887
916.483	14887
916.595	14750
916.708	14621
916.82	14727
916.932	14617
917.044	14705
917.156	14610
917.268	14583
917.38	14606
917.491	14503
917.603	14571
917.715	14670
917.826	14602
917.938	14438
918.049	14339
918.161	14450
918.272	14689
918.384	14587
918.495	14492
918.606	14271
918.717	14271
918.828	14328
918.939	14362
919.05	14233
919.161	14305
919.272	14119
919.383	14145
919.494	14332
919.604	14583
919.715	14282
919.826	14161
919.936	14248
920.047	14332
920.157	14305
920.267	14427
920.378	14301
920.488	14267
920.598	14374
920.708	14575
920.818	14408
920.928	14374
921.038	14549
921.148	14495
921.258	14298
921.368	14054
921.477	14084
921.587	14107
921.697	13894
921.806	14084
921.916	13822
922.025	13670
922.134	13651
922.244	13620
922.353	13685
922.462	13594
922.571	13525
922.68	13316
922.789	13339
922.898	13335
923.007	13236
923.116	13278
923.224	13304
923.333	13316
923.442	13232
923.55	13046
923.659	13244
923.767	13221
923.876	13095
923.984	13221
924.092	13110
924.201	13042
924.309	13103
924.417	13103
924.525	12985
924.633	13103
924.741	13761
924.849	12821
924.956	12966
925.064	12795
925.172	12688
925.279	12673
925.387	12829
925.494	12783
925.602	12890
925.709	12730
925.816	12650
925.924	12650
926.031	12802
926.138	12604
926.245	12688
926.352	12566
926.459	12684
926.566	12776
926.673	12642
926.779	12563
926.886	12490
926.993	12388
927.099	12311
927.206	12175
927.312	12247
927.419	12323
927.525	12304
927.631	12418
927.737	12155
927.843	12076
927.95	12102
928.056	12129
928.162	12057
928.267	12224
928.373	12650
928.479	12254
928.585	11946
928.69	12095
928.796	12140
928.901	12026
929.007	11863
929.112	12053
929.218	12038
929.323	11996
929.428	11950
929.533	11885
929.638	11798
929.743	11790
929.848	11798
929.953	11756
930.058	11733
930.163	11543
930.267	11638
930.372	11752
930.477	11486
930.581	11729
930.685	11649
930.79	11478
930.894	11493
930.998	11467
931.103	11524
931.207	11162
931.311	11121
931.415	11117
931.519	10824
931.623	10858
