Data from test_V78500241_1160.txt Node
Date: Fri Mar 25 15:17:56 CST 2022
User: usil
Spectrometer: V785-0024
Trigger mode: 0
Integration Time (sec): 4.000000E-1
Scans to average: 1
Nonlinearity correction enabled: false
Boxcar width: 0
Storing dark spectrum: false
XAxis mode: Wavelengths
Number of Pixels in Spectrum: 1024
>>>>>Begin Spectral Data<<<<<
801.071	28382
801.214	28356
801.356	27930
801.499	27918
801.641	27937
801.783	28044
801.926	27956
802.068	27998
802.211	27918
802.353	27903
802.496	27622
802.638	27595
802.78	27549
802.923	27458
803.065	27477
803.208	27648
803.35	27629
803.492	27663
803.635	27789
803.777	27690
803.919	27812
804.061	28120
804.204	27945
804.346	27732
804.488	27564
804.63	27739
804.773	27861
804.915	27873
805.057	27865
805.199	27857
805.341	27861
805.483	27918
805.626	27934
805.768	27865
805.91	27979
806.052	27956
806.194	27934
806.336	28196
806.478	28048
806.62	28021
806.762	28055
806.904	28303
807.046	28531
807.188	28432
807.33	28538
807.472	28390
807.614	28398
807.756	28291
807.898	28322
808.04	28196
808.182	28188
808.324	28181
808.465	28230
808.607	28481
808.749	28618
808.891	28752
809.033	28740
809.174	28573
809.316	28596
809.458	28774
809.6	28470
809.741	28675
809.883	28786
810.025	28839
810.166	29056
810.308	28927
810.45	28835
810.591	28786
810.733	28653
810.875	28641
811.016	28683
811.158	28569
811.299	28683
811.441	28713
811.582	28717
811.724	28580
811.865	28626
812.007	28683
812.148	28679
812.29	28637
812.431	28801
812.573	28877
812.714	29071
812.855	29086
812.997	29334
813.138	29345
813.279	29261
813.421	29280
813.562	29067
813.703	29003
813.845	28866
813.986	28630
814.127	28360
814.268	28474
814.41	28322
814.551	28360
814.692	28466
814.833	28348
814.974	28325
815.115	28371
815.256	28261
815.397	28177
815.539	28310
815.68	28253
815.821	28124
815.962	28188
816.103	28185
816.244	28177
816.385	28051
816.526	27972
816.666	27682
816.807	27622
816.948	27789
817.089	27751
817.23	27789
817.371	27637
817.512	27713
817.653	27743
817.793	27564
817.934	27755
818.075	27759
818.216	27717
818.356	27705
818.497	27580
818.638	27363
818.778	27450
818.919	27473
819.06	27511
819.2	27526
819.341	27759
819.481	27709
819.622	27808
819.762	28044
819.903	27914
820.043	27926
820.184	27755
820.324	27739
820.465	27724
820.605	27850
820.746	27823
820.886	27694
821.026	27956
821.167	27739
821.307	27808
821.447	27770
821.588	27591
821.728	27534
821.868	27302
822.008	27131
822.149	27184
822.289	27135
822.429	26956
822.569	26819
822.709	26937
822.849	26655
822.99	26758
823.13	26632
823.27	26655
823.41	26552
823.55	26374
823.69	26507
823.83	26609
823.97	26488
824.11	26339
824.25	26237
824.389	26278
824.529	26431
824.669	26389
824.809	26492
824.949	26412
825.089	26469
825.228	26423
825.368	26252
825.508	26145
825.648	26164
825.787	26298
825.927	26256
826.067	26221
826.206	26301
826.346	26221
826.485	26282
826.625	26202
826.765	26275
826.904	26404
827.044	26043
827.183	26039
827.323	25852
827.462	26073
827.601	25974
827.741	25925
827.88	26065
828.02	25757
828.159	25856
828.298	25871
828.437	26050
828.577	26012
828.716	26065
828.855	25940
828.994	25704
829.134	25700
829.273	25742
829.412	25670
829.551	25666
829.69	25696
829.829	25594
829.968	25670
830.107	25807
830.246	25662
830.385	25681
830.524	25605
830.663	25457
830.802	25449
830.941	25141
831.08	25324
831.219	25293
831.357	25373
831.496	25521
831.635	25327
831.774	25225
831.913	25133
832.051	25103
832.19	25084
832.329	25160
832.467	24977
832.606	24966
832.744	24947
832.883	24981
833.022	24947
833.16	25069
833.299	24989
833.437	25145
833.576	25076
833.714	24817
833.852	24977
833.991	24985
834.129	24996
834.267	25061
834.406	24992
834.544	25012
834.682	24943
834.821	24981
834.959	25137
835.097	25008
835.235	25122
835.373	24970
835.511	24924
835.65	24924
835.788	24909
835.926	24821
836.064	24627
836.202	24753
836.34	24897
836.478	25012
836.615	24760
836.753	24852
836.891	24909
837.029	25031
837.167	24882
837.305	24741
837.443	24677
837.58	24707
837.718	24757
837.856	24726
837.993	24593
838.131	24730
838.269	24528
838.406	24578
838.544	24608
838.681	24300
838.819	24296
838.956	24190
839.094	24251
839.231	24273
839.369	24330
839.506	24544
839.643	24414
839.781	24201
839.918	24076
840.055	24296
840.193	24174
840.33	24068
840.467	24095
840.604	24091
840.742	24277
840.879	23961
841.016	24087
841.153	24049
841.29	24060
841.427	24178
841.564	24011
841.701	24026
841.838	24163
841.975	23946
842.112	23920
842.249	23893
842.385	23870
842.522	24064
842.659	23946
842.796	23794
842.933	23764
843.069	23623
843.206	23889
843.343	23840
843.479	23866
843.616	23840
843.752	23684
843.889	23680
844.025	23775
844.162	23501
844.298	23729
844.435	23790
844.571	23596
844.708	23737
844.844	23726
844.98	23771
845.117	23703
845.253	23695
845.389	23627
845.525	23649
845.661	23539
845.798	23299
845.934	23471
846.07	23242
846.206	23246
846.342	23341
846.478	23269
846.614	23022
846.75	22987
846.886	23041
847.022	23124
847.158	23022
847.294	23166
847.429	23117
847.565	22991
847.701	23296
847.837	22733
847.972	22748
848.108	22847
848.244	22942
848.379	22740
848.515	22592
848.65	22679
848.786	22675
848.921	22611
849.057	22740
849.192	22771
849.328	22672
849.463	22664
849.598	22538
849.734	22577
849.869	22516
850.004	22436
850.14	22459
850.275	22451
850.41	22348
850.545	22447
850.68	22432
850.815	22489
850.95	22443
851.085	22531
851.22	22580
851.355	22390
851.49	22413
851.625	22466
851.76	22394
851.895	22337
852.03	22314
852.165	22447
852.299	22424
852.434	22531
852.569	22637
852.703	22424
852.838	22470
852.973	22485
853.107	22466
853.242	22333
853.376	22314
853.511	22181
853.645	22253
853.78	22306
853.914	22257
854.048	22166
854.183	22162
854.317	22162
854.451	22386
854.585	22272
854.72	22188
854.854	22310
854.988	22158
855.122	22204
855.256	22063
855.39	22101
855.524	22371
855.658	22135
855.792	22322
855.926	22265
856.06	22261
856.194	22405
856.327	22158
856.461	22128
856.595	22154
856.729	22207
856.862	22249
856.996	22230
857.13	22310
857.263	22352
857.397	22284
857.53	22226
857.664	22253
857.797	22204
857.931	22253
858.064	22272
858.197	22367
858.331	22200
858.464	22097
858.597	22219
858.731	22246
858.864	22166
858.997	22276
859.13	22238
859.263	22223
859.396	22352
859.529	22128
859.662	22215
859.795	22211
859.928	22295
860.061	22295
860.194	22390
860.327	22306
860.46	22147
860.592	22428
860.725	22352
860.858	22318
860.99	22223
861.123	22143
861.256	22169
861.388	22329
861.521	22999
861.653	22078
861.786	22029
861.918	22109
862.05	22070
862.183	22093
862.315	22143
862.447	22249
862.58	22139
862.712	21975
862.844	21945
862.976	21998
863.108	21903
863.24	22223
863.372	21846
863.504	21941
863.636	21903
863.768	21888
863.9	21998
864.032	21892
864.164	21804
864.296	21945
864.428	22109
864.559	21888
864.691	22067
864.823	21994
864.954	21892
865.086	21816
865.217	21964
865.349	21720
865.48	21911
865.612	21766
865.743	21964
865.875	21865
866.006	21838
866.137	21816
866.269	21816
866.4	21895
866.531	21785
866.662	21709
866.793	21728
866.924	21701
867.055	21701
867.186	21736
867.317	21686
867.448	21530
867.579	21622
867.71	21682
867.841	21766
867.972	21675
868.103	21816
868.233	21766
868.364	21656
868.495	21819
868.625	22074
868.756	22112
868.886	21930
869.017	21991
869.147	22074
869.278	21926
869.408	22021
869.539	21937
869.669	21983
869.799	22040
869.929	22226
870.06	22124
870.19	22215
870.32	22246
870.45	22280
870.58	22303
870.71	22371
870.84	22500
870.97	22466
871.1	22394
871.23	22634
871.36	22679
871.489	22485
871.619	22554
871.749	22577
871.879	22504
872.008	22634
872.138	22466
872.267	22702
872.397	22459
872.526	22371
872.656	22440
872.785	22367
872.915	22607
873.044	22717
873.173	22611
873.303	22618
873.432	22733
873.561	22554
873.69	22622
873.819	22554
873.948	22691
874.077	22615
874.206	22561
874.335	22580
874.464	22694
874.593	22839
874.722	22698
874.851	22809
874.979	22843
875.108	22873
875.237	22831
875.365	22691
875.494	22847
875.623	22767
875.751	22713
875.88	22869
876.008	22949
876.136	22957
876.265	23212
876.393	23322
876.521	23200
876.65	23326
876.778	23269
876.906	23132
877.034	23033
877.162	23109
877.29	23223
877.418	23136
877.546	23189
877.674	23014
877.802	23143
877.93	23056
878.058	23094
878.185	23060
878.313	23083
878.441	23121
878.568	22904
878.696	22976
878.824	23128
878.951	23269
879.079	23421
879.206	23467
879.333	23349
879.461	23189
879.588	23349
879.715	23322
879.842	23535
879.97	23197
880.097	22991
880.224	22885
880.351	23022
880.478	23006
880.605	22877
880.732	22980
880.859	23292
880.986	22923
881.112	23079
881.239	22816
881.366	22706
881.493	22550
881.619	22519
881.746	22497
881.872	22493
881.999	22546
882.125	22390
882.252	22615
882.378	22451
882.505	22637
882.631	22337
882.757	22325
882.883	22303
883.01	22284
883.136	22181
883.262	22116
883.388	22048
883.514	22150
883.64	22196
883.766	22150
883.892	21987
884.018	21991
884.143	22207
884.269	22207
884.395	21956
884.52	21907
884.646	21983
884.772	21789
884.897	21755
885.023	21846
885.148	21949
885.274	21918
885.399	21812
885.524	21937
885.65	21819
885.775	21842
885.9	21785
886.025	21918
886.15	21854
886.275	21770
886.4	21827
886.525	21930
886.65	21755
886.775	21759
886.9	21831
887.025	21983
887.149	21808
887.274	21610
887.399	21557
887.523	21648
887.648	21545
887.773	21511
887.897	21793
888.021	21629
888.146	21534
888.27	21709
888.395	21781
888.519	21686
888.643	21549
888.767	21679
888.891	21431
889.015	21466
889.139	21511
889.263	21317
889.387	21477
889.511	21622
889.635	21477
889.759	21348
889.883	21226
890.006	21302
890.13	21389
890.254	21249
890.377	21329
890.501	21264
890.624	21028
890.748	21184
890.871	21074
890.995	20979
891.118	20895
891.241	20952
891.364	20960
891.488	21085
891.611	20891
891.734	20891
891.857	21009
891.98	20998
892.103	20986
892.226	20998
892.349	20933
892.471	20769
892.594	20845
892.717	20895
892.839	20842
892.962	20880
893.085	20872
893.207	20815
893.33	20796
893.452	20788
893.575	20861
893.697	20769
893.819	20921
893.941	21123
894.064	21058
894.186	20777
894.308	20724
894.43	20979
894.552	20941
894.674	20868
894.796	20815
894.918	20781
895.04	20849
895.161	20880
895.283	20849
895.405	20720
895.526	20746
895.648	20785
895.769	20876
895.891	20785
896.012	20876
896.134	20937
896.255	20815
896.376	20807
896.498	20819
896.619	20918
896.74	20743
896.861	20925
896.982	21154
897.103	21169
897.224	20994
897.345	21070
897.466	20910
897.587	20956
897.708	21230
897.828	21131
897.949	20864
898.07	20823
898.19	20967
898.311	21135
898.431	20902
898.552	20990
898.672	20986
898.792	21058
898.913	21043
899.033	20845
899.153	20842
899.273	20712
899.393	20792
899.513	20796
899.633	20746
899.753	20746
899.873	20648
899.993	20788
900.113	20644
900.232	20663
900.352	20708
900.472	20545
900.591	20499
900.711	20423
900.83	20492
900.95	20594
901.069	20545
901.189	20412
901.308	20199
901.427	20126
901.546	20035
901.665	20164
901.784	20130
901.904	19921
902.023	19890
902.141	19681
902.26	19727
902.379	19670
902.498	19662
902.617	19468
902.735	19693
902.854	19514
902.973	19525
903.091	19282
903.21	19232
903.328	19221
903.446	19278
903.565	19080
903.683	19031
903.801	18840
903.919	19057
904.038	19072
904.156	18821
904.274	18897
904.392	18825
904.51	18852
904.627	18700
904.745	18798
904.863	18772
904.981	18536
905.098	18456
905.216	18502
905.334	18574
905.451	18448
905.569	18509
905.686	18528
905.803	18528
905.921	18315
906.038	18292
906.155	18243
906.272	18254
906.389	18247
906.506	18057
906.623	18064
906.74	17946
906.857	17916
906.974	17969
907.091	18148
907.208	18064
907.324	18064
907.441	18003
907.557	17771
907.674	17752
907.79	17634
907.907	17813
908.023	17661
908.139	17840
908.256	17794
908.372	17554
908.488	17573
908.604	17490
908.72	17433
908.836	17448
908.952	17497
909.068	17467
909.184	17619
909.3	17406
909.415	17368
909.531	17368
909.647	17261
909.762	17132
909.878	17159
909.993	17166
910.108	17147
910.224	17121
910.339	17086
910.454	17052
910.57	17018
910.685	16889
910.8	17128
910.915	17102
911.03	17006
911.145	16801
911.259	16740
911.374	16759
911.489	16637
911.604	16512
911.718	16538
911.833	16478
911.947	16204
912.062	16394
912.176	16405
912.291	16474
912.405	16409
912.519	16577
912.633	16641
912.748	16561
912.862	16398
912.976	16310
913.09	16280
913.204	16249
913.318	16295
913.431	16295
913.545	16341
913.659	16470
913.772	16207
913.886	16131
914	16044
914.113	16078
914.226	16093
914.34	16135
914.453	15941
914.566	16078
914.68	15964
914.793	15983
914.906	15797
915.019	15720
915.132	15595
915.245	15542
915.358	15713
915.47	15709
915.583	15622
915.696	15690
915.809	15648
915.921	15724
916.034	15561
916.146	15504
916.259	15545
916.371	15614
916.483	15603
916.595	15515
916.708	15534
916.82	15401
916.932	15336
917.044	15424
917.156	15355
917.268	15306
917.38	15420
917.491	15272
917.603	15291
917.715	15443
917.826	15351
917.938	15230
918.049	15214
918.161	15135
918.272	15401
918.384	15348
918.495	15104
918.606	15070
918.717	15138
918.828	15116
918.939	15039
919.05	15001
919.161	15055
919.272	14807
919.383	14845
919.494	15055
919.604	15169
919.715	14990
919.826	14933
919.936	14906
920.047	15085
920.157	14975
920.267	15131
920.378	15116
920.488	14929
920.598	15089
920.708	15306
920.818	15089
920.928	15074
921.038	15226
921.148	15199
921.258	14819
921.368	14853
921.477	14754
921.587	14686
921.697	14598
921.806	14796
921.916	14587
922.025	14419
922.134	14370
922.244	14252
922.353	14469
922.462	14282
922.571	14199
922.68	13989
922.789	14050
922.898	14012
923.007	13913
923.116	14084
923.224	13890
923.333	13883
923.442	13818
923.55	13841
923.659	13845
923.767	13841
923.876	13753
923.984	13875
924.092	13769
924.201	13807
924.309	13681
924.417	13712
924.525	13689
924.633	13712
924.741	14530
924.849	13480
924.956	13632
925.064	13362
925.172	13354
925.279	13365
925.387	13430
925.494	13407
925.602	13537
925.709	13373
925.816	13285
925.924	13297
926.031	13384
926.138	13434
926.245	13377
926.352	13244
926.459	13335
926.566	13419
926.673	13228
926.779	13168
926.886	13175
926.993	12840
927.099	12916
927.206	12859
927.312	12848
927.419	13042
927.525	12901
927.631	12951
927.737	12719
927.843	12779
927.95	12684
928.056	12810
928.162	12715
928.267	12829
928.373	13293
928.479	12810
928.585	12589
928.69	12688
928.796	12684
928.901	12635
929.007	12483
929.112	12540
929.218	12559
929.323	12506
929.428	12448
929.533	12620
929.638	12353
929.743	12475
929.848	12399
929.953	12433
930.058	12323
930.163	12167
930.267	12228
930.372	12330
930.477	12076
930.581	12361
930.685	12136
930.79	12045
930.894	11999
930.998	11882
931.103	12049
931.207	11748
931.311	11688
931.415	11585
931.519	11406
931.623	11364
