Data from test_V78500241_2833.txt Node
Date: Fri Mar 25 15:29:35 CST 2022
User: usil
Spectrometer: V785-0024
Trigger mode: 0
Integration Time (sec): 4.000000E-1
Scans to average: 1
Nonlinearity correction enabled: false
Boxcar width: 0
Storing dark spectrum: false
XAxis mode: Wavelengths
Number of Pixels in Spectrum: 1024
>>>>>Begin Spectral Data<<<<<
801.071	27348
801.214	27203
801.356	26948
801.499	27039
801.641	26842
801.783	26724
801.926	26830
802.068	26769
802.211	26720
802.353	26693
802.496	26495
802.638	26488
802.78	26408
802.923	26332
803.065	26309
803.208	26385
803.35	26374
803.492	26480
803.635	26568
803.777	26484
803.919	26693
804.061	26902
804.204	26640
804.346	26518
804.488	26389
804.63	26655
804.773	26415
804.915	26678
805.057	26590
805.199	26442
805.341	26670
805.483	26746
805.626	26655
805.768	26545
805.91	26697
806.052	26678
806.194	26648
806.336	26895
806.478	26644
806.62	26636
806.762	26807
806.904	26876
807.046	27199
807.188	27051
807.33	27138
807.472	27169
807.614	27112
807.756	27062
807.898	26937
808.04	26838
808.182	26868
808.324	27036
808.465	27070
808.607	27260
808.749	27237
808.891	27344
809.033	27568
809.174	27416
809.316	27355
809.458	27367
809.6	27348
809.741	27363
809.883	27591
810.025	27492
810.166	27553
810.308	27435
810.45	27485
810.591	27431
810.733	27207
810.875	27325
811.016	27192
811.158	27203
811.299	27420
811.441	27408
811.582	27515
811.724	27313
811.865	27142
812.007	27313
812.148	27279
812.29	27192
812.431	27401
812.573	27701
812.714	27660
812.855	27739
812.997	28044
813.138	28116
813.279	27972
813.421	27648
813.562	27759
813.703	27633
813.845	27469
813.986	27199
814.127	27024
814.268	26948
814.41	26982
814.551	27020
814.692	26971
814.833	27024
814.974	26899
815.115	27047
815.256	26754
815.397	26857
815.539	26773
815.68	26804
815.821	26651
815.962	26842
816.103	26834
816.244	26644
816.385	26427
816.526	26659
816.666	26438
816.807	26206
816.948	26252
817.089	26309
817.23	26180
817.371	26282
817.512	26282
817.653	26202
817.793	26259
817.934	26218
818.075	26191
818.216	26313
818.356	26206
818.497	25947
818.638	26046
818.778	26073
818.919	25982
819.06	26020
819.2	26081
819.341	26161
819.481	26282
819.622	26393
819.762	26560
819.903	26355
820.043	26351
820.184	26374
820.324	26275
820.465	26427
820.605	26328
820.746	26286
820.886	26256
821.026	26240
821.167	26153
821.307	26278
821.447	26252
821.588	26065
821.728	25913
821.868	25753
822.008	25742
822.149	25883
822.289	25639
822.429	25506
822.569	25472
822.709	25396
822.849	25247
822.99	25274
823.13	25225
823.27	25183
823.41	25053
823.55	25008
823.69	25072
823.83	25148
823.97	25057
824.11	24901
824.25	24878
824.389	24837
824.529	25000
824.669	24810
824.809	24810
824.949	25000
825.089	24932
825.228	24837
825.368	24612
825.508	24681
825.648	24715
825.787	24764
825.927	24757
826.067	24719
826.206	24810
826.346	24795
826.485	24738
826.625	24650
826.765	24863
826.904	24757
827.044	24456
827.183	24475
827.323	24544
827.462	24494
827.601	24319
827.741	24445
827.88	24452
828.02	24399
828.159	24388
828.298	24460
828.437	24475
828.577	24357
828.716	24486
828.855	24277
828.994	24038
829.134	24110
829.273	24076
829.412	24072
829.551	24022
829.69	24087
829.829	24140
829.968	24140
830.107	24163
830.246	24163
830.385	24034
830.524	24091
830.663	23870
830.802	23824
830.941	23657
831.08	23790
831.219	23817
831.357	23802
831.496	23885
831.635	23676
831.774	23687
831.913	23490
832.051	23497
832.19	23501
832.329	23535
832.467	23474
832.606	23277
832.744	23364
832.883	23444
833.022	23372
833.16	23440
833.299	23417
833.437	23372
833.576	23539
833.714	23455
833.852	23493
833.991	23421
834.129	23520
834.267	23547
834.406	23543
834.544	23406
834.682	23410
834.821	23299
834.959	23501
835.097	23417
835.235	23410
835.373	23490
835.511	23459
835.65	23417
835.788	23391
835.926	23147
836.064	23079
836.202	23277
836.34	23231
836.478	23299
836.615	23231
836.753	23277
836.891	23322
837.029	23353
837.167	23223
837.305	23140
837.443	23174
837.58	23216
837.718	23292
837.856	23075
837.993	23090
838.131	23064
838.269	22976
838.406	23140
838.544	23025
838.681	22679
838.819	22805
838.956	22535
839.094	22542
839.231	22687
839.369	22645
839.506	23105
839.643	22816
839.781	22679
839.918	22462
840.055	22546
840.193	22580
840.33	22478
840.467	22615
840.604	22649
840.742	22797
840.879	22337
841.016	22447
841.153	22379
841.29	22725
841.427	22516
841.564	22428
841.701	22489
841.838	22455
841.975	22451
842.112	22409
842.249	22314
842.385	22428
842.522	22462
842.659	22375
842.796	22287
842.933	22211
843.069	22143
843.206	22265
843.343	22333
843.479	22314
843.616	22413
843.752	22040
843.889	22169
844.025	22139
844.162	22051
844.298	22044
844.435	22093
844.571	22006
844.708	22067
844.844	22135
844.98	22143
845.117	22177
845.253	21869
845.389	21975
845.525	22021
845.661	21789
845.798	21762
845.934	21797
846.07	21838
846.206	21857
846.342	21888
846.478	21724
846.614	21580
846.75	21523
846.886	21557
847.022	21671
847.158	21591
847.294	21473
847.429	21610
847.565	21545
847.701	21827
847.837	21351
847.972	21313
848.108	21431
848.244	21332
848.379	21135
848.515	21108
848.65	21218
848.786	21028
848.921	21184
849.057	21112
849.192	21226
849.328	21100
849.463	21150
849.598	21119
849.734	21024
849.869	21005
850.004	20933
850.14	20925
850.275	20956
850.41	20815
850.545	20842
850.68	20956
850.815	20872
850.95	20876
851.085	21081
851.22	21039
851.355	20937
851.49	20834
851.625	20785
851.76	20796
851.895	20941
852.03	20773
852.165	20834
852.299	20883
852.434	21013
852.569	20929
852.703	20845
852.838	20948
852.973	21062
853.107	21036
853.242	20864
853.376	20739
853.511	20651
853.645	20735
853.78	20891
853.914	20754
854.048	20746
854.183	20743
854.317	20598
854.451	20902
854.585	20785
854.72	20705
854.854	20777
854.988	20720
855.122	20739
855.256	20644
855.39	20758
855.524	20826
855.658	20644
855.792	20686
855.926	20727
856.06	20788
856.194	20762
856.327	20644
856.461	20705
856.595	20594
856.729	20640
856.862	20830
856.996	20842
857.13	20762
857.263	20830
857.397	20929
857.53	20720
857.664	20701
857.797	20701
857.931	20826
858.064	20712
858.197	20906
858.331	20705
858.464	20716
858.597	20625
858.731	20712
858.864	20632
858.997	20727
859.13	20682
859.263	20826
859.396	20883
859.529	20724
859.662	20602
859.795	20651
859.928	20762
860.061	20811
860.194	20929
860.327	20777
860.46	20800
860.592	20819
860.725	20823
860.858	20804
860.99	20735
861.123	20663
861.256	20648
861.388	20651
861.521	21348
861.653	20530
861.786	20484
861.918	20648
862.05	20629
862.183	20667
862.315	20644
862.447	20743
862.58	20811
862.712	20355
862.844	20469
862.976	20556
863.108	20419
863.24	20933
863.372	20358
863.504	20503
863.636	20393
863.768	20461
863.9	20423
864.032	20400
864.164	20492
864.296	20503
864.428	20511
864.559	20545
864.691	20571
864.823	20423
864.954	20427
865.086	20366
865.217	20419
865.349	20358
865.48	20324
865.612	20298
865.743	20484
865.875	20366
866.006	20221
866.137	20347
866.269	20355
866.4	20374
866.531	20328
866.662	20164
866.793	20313
866.924	20161
867.055	20351
867.186	20282
867.317	20229
867.448	20180
867.579	20267
867.71	20065
867.841	20229
867.972	20320
868.103	20263
868.233	20237
868.364	20275
868.495	20332
868.625	20454
868.756	20579
868.886	20473
869.017	20454
869.147	20598
869.278	20560
869.408	20587
869.539	20404
869.669	20655
869.799	20606
869.929	20568
870.06	20522
870.19	20811
870.32	20712
870.45	20937
870.58	20899
870.71	20982
870.84	20982
870.97	21017
871.1	20895
871.23	21032
871.36	21207
871.489	20979
871.619	21116
871.749	21066
871.879	21192
872.008	21294
872.138	21138
872.267	21135
872.397	20986
872.526	20857
872.656	20937
872.785	20944
872.915	21047
873.044	21218
873.173	21188
873.303	21146
873.432	21203
873.561	21154
873.69	21184
873.819	21161
873.948	21214
874.077	21161
874.206	21093
874.335	21020
874.464	21066
874.593	21416
874.722	21401
874.851	21329
874.979	21348
875.108	21416
875.237	21222
875.365	21298
875.494	21344
875.623	21447
875.751	21283
875.88	21420
876.008	21504
876.136	21568
876.265	21766
876.393	21926
876.521	21888
876.65	21926
876.778	21595
876.906	21736
877.034	21694
877.162	21770
877.29	21644
877.418	21667
877.546	21812
877.674	21736
877.802	21667
877.93	21797
878.058	21724
878.185	21580
878.313	21732
878.441	21648
878.568	21587
878.696	21717
878.824	21701
878.951	21705
879.079	21930
879.206	22010
879.333	21846
879.461	21713
879.588	21759
879.715	21899
879.842	21956
879.97	21728
880.097	21564
880.224	21591
880.351	21485
880.478	21564
880.605	21587
880.732	21370
880.859	21819
880.986	21561
881.112	21526
881.239	21306
881.366	21184
881.493	21317
881.619	21089
881.746	21272
881.872	21165
881.999	21058
882.125	21032
882.252	21161
882.378	21112
882.505	21283
882.631	20948
882.757	20902
882.883	21009
883.01	20902
883.136	20640
883.262	20644
883.388	20697
883.514	20712
883.64	20838
883.766	20708
883.892	20571
884.018	20762
884.143	20682
884.269	20887
884.395	20438
884.52	20438
884.646	20530
884.772	20484
884.897	20366
885.023	20541
885.148	20514
885.274	20640
885.399	20522
885.524	20499
885.65	20495
885.775	20438
885.9	20419
886.025	20549
886.15	20602
886.275	20438
886.4	20442
886.525	20412
886.65	20461
886.775	20400
886.9	20545
887.025	20743
887.149	20427
887.274	20294
887.399	20157
887.523	20206
887.648	20176
887.773	20183
887.897	20355
888.021	20431
888.146	20180
888.27	20366
888.395	20336
888.519	20298
888.643	20202
888.767	20290
888.891	20157
889.015	20046
889.139	20035
889.263	20062
889.387	20180
889.511	20229
889.635	20039
889.759	20161
889.883	20035
890.006	20027
890.13	20149
890.254	20046
890.377	20050
890.501	19795
890.624	19753
890.748	19967
890.871	19605
890.995	19571
891.118	19670
891.241	19719
891.364	19727
891.488	19811
891.611	19674
891.734	19655
891.857	19723
891.98	19651
892.103	19727
892.226	19662
892.349	19578
892.471	19377
892.594	19567
892.717	19552
892.839	19540
892.962	19571
893.085	19586
893.207	19468
893.33	19449
893.452	19487
893.575	19666
893.697	19552
893.819	19655
893.941	19753
894.064	19712
894.186	19521
894.308	19590
894.43	19624
894.552	19750
894.674	19594
894.796	19468
894.918	19533
895.04	19464
895.161	19670
895.283	19628
895.405	19499
895.526	19575
895.648	19575
895.769	19556
895.891	19628
896.012	19658
896.134	19666
896.255	19609
896.376	19514
896.498	19548
896.619	19502
896.74	19491
896.861	19651
896.982	19879
897.103	20054
897.224	19864
897.345	19715
897.466	19693
897.587	19868
897.708	19982
897.828	19841
897.949	19738
898.07	19708
898.19	19765
898.311	19898
898.431	19719
898.552	19830
898.672	19856
898.792	19750
898.913	19791
899.033	19769
899.153	19537
899.273	19540
899.393	19540
899.513	19616
899.633	19540
899.753	19548
899.873	19605
899.993	19518
900.113	19533
900.232	19563
900.352	19544
900.472	19411
900.591	19213
900.711	19403
900.83	19274
900.95	19445
901.069	19495
901.189	19259
901.308	19164
901.427	18894
901.546	18932
901.665	18924
901.784	18977
901.904	18802
902.023	18753
902.141	18464
902.26	18494
902.379	18536
902.498	18479
902.617	18372
902.735	18502
902.854	18407
902.973	18361
903.091	18095
903.21	18095
903.328	18072
903.446	18110
903.565	17908
903.683	17946
903.801	17813
903.919	17786
904.038	17946
904.156	17691
904.274	17832
904.392	17680
904.51	17646
904.627	17783
904.745	17718
904.863	17718
904.981	17425
905.098	17440
905.216	17395
905.334	17436
905.451	17345
905.569	17391
905.686	17322
905.803	17433
905.921	17170
906.038	17311
906.155	17193
906.272	17094
906.389	17041
906.506	16961
906.623	16946
906.74	16934
906.857	16774
906.974	16801
907.091	17060
907.208	17056
907.324	16862
907.441	16786
907.557	16702
907.674	16641
907.79	16683
907.907	16596
908.023	16668
908.139	16656
908.256	16584
908.372	16615
908.488	16440
908.604	16405
908.72	16284
908.836	16379
908.952	16314
909.068	16443
909.184	16542
909.3	16310
909.415	16394
909.531	16299
909.647	16105
909.762	16006
909.878	16025
909.993	16116
910.108	16048
910.224	16105
910.339	16017
910.454	16090
910.57	15846
910.685	15800
910.8	16128
910.915	16055
911.03	15899
911.145	15720
911.259	15652
911.374	15660
911.489	15682
911.604	15660
911.718	15321
911.833	15564
911.947	15439
912.062	15325
912.176	15428
912.291	15591
912.405	15507
912.519	15644
912.633	15682
912.748	15447
912.862	15439
912.976	15256
913.09	15100
913.204	15272
913.318	15302
913.431	15291
913.545	15336
913.659	15344
913.772	15226
913.886	15089
914	15066
914.113	15135
914.226	15173
914.34	15150
914.453	14971
914.566	15005
914.68	14979
914.793	14941
914.906	14701
915.019	14583
915.132	14632
915.245	14667
915.358	14781
915.47	14724
915.583	14697
915.696	14651
915.809	14773
915.921	14838
916.034	14648
916.146	14541
916.259	14541
916.371	14689
916.483	14636
916.595	14518
916.708	14499
916.82	14499
916.932	14408
917.044	14400
917.156	14427
917.268	14377
917.38	14366
917.491	14286
917.603	14366
917.715	14434
917.826	14431
917.938	14332
918.049	14240
918.161	14309
918.272	14450
918.384	14427
918.495	14237
918.606	14050
918.717	14084
918.828	14092
918.939	14100
919.05	14073
919.161	14103
919.272	13845
919.383	13986
919.494	14237
919.604	14305
919.715	14187
919.826	13974
919.936	14065
920.047	14214
920.157	14031
920.267	14267
920.378	14123
920.488	14054
920.598	14298
920.708	14408
920.818	14081
920.928	14225
921.038	14317
921.148	14320
921.258	14058
921.368	13860
921.477	13875
921.587	13757
921.697	13681
921.806	13803
921.916	13772
922.025	13502
922.134	13483
922.244	13457
922.353	13548
922.462	13263
922.571	13266
922.68	13137
922.789	13164
922.898	13110
923.007	13141
923.116	13038
923.224	13114
923.333	13076
923.442	12993
923.55	13027
923.659	13008
923.767	13034
923.876	12989
923.984	12962
924.092	12852
924.201	12837
924.309	12890
924.417	12924
924.525	12825
924.633	12817
924.741	13742
924.849	12650
924.956	12730
925.064	12639
925.172	12475
925.279	12551
925.387	12585
925.494	12582
925.602	12692
925.709	12620
925.816	12418
925.924	12452
926.031	12597
926.138	12502
926.245	12566
926.352	12464
926.459	12502
926.566	12475
926.673	12399
926.779	12365
926.886	12296
926.993	12194
927.099	12167
927.206	12087
927.312	12175
927.419	12194
927.525	12125
927.631	12175
927.737	11999
927.843	11984
927.95	11954
928.056	12015
928.162	11980
928.267	12003
928.373	12650
928.479	12079
928.585	11878
928.69	11916
928.796	11973
928.901	11775
929.007	11699
929.112	11931
929.218	11866
929.323	11695
929.428	11703
929.533	11859
929.638	11547
929.743	11653
929.848	11638
929.953	11638
930.058	11596
930.163	11383
930.267	11433
930.372	11520
930.477	11364
930.581	11562
930.685	11440
930.79	11242
930.894	11284
930.998	11334
931.103	11448
931.207	11136
931.311	11003
931.415	10904
931.519	10763
931.623	10721
