Data from test_V78500241_2615.txt Node
Date: Fri Mar 25 15:28:04 CST 2022
User: usil
Spectrometer: V785-0024
Trigger mode: 0
Integration Time (sec): 4.000000E-1
Scans to average: 1
Nonlinearity correction enabled: false
Boxcar width: 0
Storing dark spectrum: false
XAxis mode: Wavelengths
Number of Pixels in Spectrum: 1024
>>>>>Begin Spectral Data<<<<<
801.071	27135
801.214	26986
801.356	26921
801.499	26906
801.641	26720
801.783	26781
801.926	26845
802.068	26636
802.211	26621
802.353	26575
802.496	26362
802.638	26366
802.78	26282
802.923	26278
803.065	26233
803.208	26237
803.35	26393
803.492	26381
803.635	26606
803.777	26362
803.919	26590
804.061	26906
804.204	26609
804.346	26499
804.488	26503
804.63	26465
804.773	26419
804.915	26465
805.057	26613
805.199	26461
805.341	26613
805.483	26720
805.626	26465
805.768	26564
805.91	26750
806.052	26617
806.194	26484
806.336	26762
806.478	26636
806.62	26606
806.762	26716
806.904	26853
807.046	27074
807.188	27051
807.33	27001
807.472	27020
807.614	26971
807.756	27100
807.898	26876
808.04	26891
808.182	26781
808.324	26830
808.465	26842
808.607	26918
808.749	27214
808.891	27218
809.033	27485
809.174	27302
809.316	27203
809.458	27154
809.6	27077
809.741	27359
809.883	27306
810.025	27420
810.166	27405
810.308	27530
810.45	27450
810.591	27393
810.733	27325
810.875	27192
811.016	27127
811.158	27028
811.299	27363
811.441	27382
811.582	27287
811.724	27268
811.865	27230
812.007	27218
812.148	27161
812.29	27264
812.431	27336
812.573	27511
812.714	27667
812.855	27720
812.997	27732
813.138	27918
813.279	27751
813.421	27644
813.562	27652
813.703	27359
813.845	27424
813.986	27169
814.127	26857
814.268	26929
814.41	26952
814.551	26800
814.692	26944
814.833	26807
814.974	26823
815.115	26899
815.256	26602
815.397	26735
815.539	26708
815.68	26686
815.821	26621
815.962	26765
816.103	26651
816.244	26415
816.385	26438
816.526	26351
816.666	26206
816.807	26111
816.948	26115
817.089	26240
817.23	26317
817.371	26282
817.512	26069
817.653	26069
817.793	25955
817.934	26149
818.075	26046
818.216	26100
818.356	26005
818.497	26103
818.638	25902
818.778	25936
818.919	25799
819.06	25795
819.2	25974
819.341	26107
819.481	26134
819.622	26324
819.762	26320
819.903	26332
820.043	26301
820.184	26271
820.324	26313
820.465	26180
820.605	26187
820.746	26134
820.886	26088
821.026	26187
821.167	26016
821.307	26199
821.447	26149
821.588	26119
821.728	25837
821.868	25616
822.008	25438
822.149	25643
822.289	25616
822.429	25396
822.569	25293
822.709	25320
822.849	25190
822.99	25027
823.13	25050
823.27	24939
823.41	24894
823.55	24772
823.69	24821
823.83	24844
823.97	24829
824.11	24700
824.25	24623
824.389	24665
824.529	24753
824.669	24760
824.809	24802
824.949	24962
825.089	24738
825.228	24757
825.368	24601
825.508	24654
825.648	24593
825.787	24623
825.927	24585
826.067	24620
826.206	24673
826.346	24601
826.485	24787
826.625	24585
826.765	24642
826.904	24505
827.044	24346
827.183	24422
827.323	24308
827.462	24194
827.601	24289
827.741	24338
827.88	24273
828.02	24129
828.159	24414
828.298	24323
828.437	24365
828.577	24258
828.716	24384
828.855	24117
828.994	24049
829.134	23954
829.273	24110
829.412	23980
829.551	23874
829.69	24022
829.829	24038
829.968	24079
830.107	24087
830.246	24034
830.385	23908
830.524	23870
830.663	23916
830.802	23699
830.941	23547
831.08	23646
831.219	23680
831.357	23577
831.496	23809
831.635	23630
831.774	23501
831.913	23524
832.051	23356
832.19	23379
832.329	23353
832.467	23288
832.606	23193
832.744	23303
832.883	23398
833.022	23273
833.16	23349
833.299	23326
833.437	23280
833.576	23360
833.714	23383
833.852	23467
833.991	23440
834.129	23509
834.267	23509
834.406	23265
834.544	23372
834.682	23364
834.821	23414
834.959	23558
835.097	23284
835.235	23467
835.373	23307
835.511	23349
835.65	23235
835.788	23094
835.926	23132
836.064	22995
836.202	23071
836.34	23227
836.478	23170
836.615	23193
836.753	23311
836.891	23326
837.029	23246
837.167	23250
837.305	23147
837.443	23109
837.58	23044
837.718	23113
837.856	23056
837.993	22984
838.131	23056
838.269	22965
838.406	22972
838.544	22866
838.681	22767
838.819	22702
838.956	22573
839.094	22596
839.231	22653
839.369	22664
839.506	23025
839.643	22668
839.781	22561
839.918	22382
840.055	22535
840.193	22523
840.33	22478
840.467	22436
840.604	22611
840.742	22748
840.879	22409
841.016	22447
841.153	22398
841.29	22523
841.427	22424
841.564	22607
841.701	22546
841.838	22440
841.975	22386
842.112	22485
842.249	22428
842.385	22219
842.522	22443
842.659	22371
842.796	22272
842.933	22150
843.069	22246
843.206	22356
843.343	22284
843.479	22169
843.616	22314
843.752	22070
843.889	22044
844.025	22173
844.162	21998
844.298	22131
844.435	22025
844.571	22025
844.708	22131
844.844	22101
844.98	22101
845.117	22074
845.253	22040
845.389	21937
845.525	21888
845.661	21850
845.798	21705
845.934	21736
846.07	21660
846.206	21781
846.342	21850
846.478	21686
846.614	21614
846.75	21462
846.886	21450
847.022	21667
847.158	21450
847.294	21572
847.429	21538
847.565	21595
847.701	21717
847.837	21100
847.972	21252
848.108	21370
848.244	21291
848.379	21135
848.515	21123
848.65	21142
848.786	21135
848.921	21112
849.057	21157
849.192	21226
849.328	21233
849.463	21074
849.598	21096
849.734	20990
849.869	20895
850.004	20861
850.14	20948
850.275	20838
850.41	20697
850.545	20849
850.68	20857
850.815	20826
850.95	20788
851.085	21013
851.22	20948
851.355	20883
851.49	20800
851.625	20807
851.76	20899
851.895	20876
852.03	20883
852.165	21066
852.299	20891
852.434	21028
852.569	20819
852.703	20944
852.838	21020
852.973	20944
853.107	20982
853.242	20765
853.376	20800
853.511	20556
853.645	20682
853.78	20807
853.914	20648
854.048	20583
854.183	20678
854.317	20743
854.451	20800
854.585	20727
854.72	20788
854.854	20754
854.988	20629
855.122	20720
855.256	20556
855.39	20575
855.524	20670
855.658	20693
855.792	20716
855.926	20724
856.06	20705
856.194	20838
856.327	20602
856.461	20659
856.595	20613
856.729	20667
856.862	20762
856.996	20686
857.13	20906
857.263	20804
857.397	20716
857.53	20644
857.664	20689
857.797	20708
857.931	20857
858.064	20823
858.197	20792
858.331	20762
858.464	20590
858.597	20541
858.731	20693
858.864	20636
858.997	20678
859.13	20651
859.263	20609
859.396	20750
859.529	20708
859.662	20568
859.795	20720
859.928	20804
860.061	20765
860.194	20845
860.327	20788
860.46	20686
860.592	20883
860.725	20796
860.858	20807
860.99	20659
861.123	20575
861.256	20609
861.388	20518
861.521	21298
861.653	20583
861.786	20442
861.918	20492
862.05	20594
862.183	20594
862.315	20659
862.447	20689
862.58	20389
862.712	20419
862.844	20339
862.976	20526
863.108	20465
863.24	20975
863.372	20225
863.504	20393
863.636	20465
863.768	20427
863.9	20377
864.032	20374
864.164	20301
864.296	20488
864.428	20423
864.559	20370
864.691	20400
864.823	20313
864.954	20305
865.086	20351
865.217	20168
865.349	20161
865.48	20282
865.612	20370
865.743	20351
865.875	20309
866.006	20339
866.137	20237
866.269	20351
866.4	20317
866.531	20225
866.662	20298
866.793	20298
866.924	20195
867.055	20275
867.186	20248
867.317	20237
867.448	20202
867.579	20176
867.71	20199
867.841	20115
867.972	20210
868.103	20187
868.233	20244
868.364	20221
868.495	20305
868.625	20499
868.756	20419
868.886	20415
869.017	20518
869.147	20533
869.278	20564
869.408	20507
869.539	20537
869.669	20571
869.799	20575
869.929	20686
870.06	20461
870.19	20925
870.32	20765
870.45	20712
870.58	20845
870.71	20990
870.84	20975
870.97	20895
871.1	20902
871.23	21039
871.36	21085
871.489	20918
871.619	20895
871.749	21039
871.879	21188
872.008	21138
872.138	21047
872.267	21116
872.397	20941
872.526	20960
872.656	20880
872.785	20963
872.915	21138
873.044	21150
873.173	21142
873.303	21093
873.432	21085
873.561	21214
873.69	21093
873.819	21020
873.948	21135
874.077	21017
874.206	21096
874.335	21070
874.464	21272
874.593	21317
874.722	21302
874.851	21378
874.979	21332
875.108	21344
875.237	21416
875.365	21165
875.494	21302
875.623	21515
875.751	21332
875.88	21264
876.008	21511
876.136	21542
876.265	21717
876.393	21945
876.521	21808
876.65	21778
876.778	21671
876.906	21759
877.034	21595
877.162	21720
877.29	21572
877.418	21622
877.546	21781
877.674	21686
877.802	21660
877.93	21743
878.058	21739
878.185	21591
878.313	21583
878.441	21580
878.568	21545
878.696	21736
878.824	21648
878.951	21892
879.079	22017
879.206	21930
879.333	21846
879.461	21797
879.588	21819
879.715	21854
879.842	21873
879.97	21644
880.097	21542
880.224	21447
880.351	21568
880.478	21557
880.605	21439
880.732	21614
880.859	21656
880.986	21595
881.112	21534
881.239	21481
881.366	21420
881.493	21192
881.619	21138
881.746	21100
881.872	21100
881.999	21070
882.125	21043
882.252	21142
882.378	21135
882.505	21165
882.631	21062
882.757	20887
882.883	20956
883.01	20880
883.136	20735
883.262	20750
883.388	20727
883.514	20823
883.64	20769
883.766	20727
883.892	20590
884.018	20587
884.143	20845
884.269	20883
884.395	20492
884.52	20511
884.646	20598
884.772	20507
884.897	20358
885.023	20499
885.148	20590
885.274	20579
885.399	20568
885.524	20434
885.65	20503
885.775	20404
885.9	20324
886.025	20617
886.15	20488
886.275	20465
886.4	20366
886.525	20461
886.65	20362
886.775	20423
886.9	20602
887.025	20621
887.149	20438
887.274	20343
887.399	20298
887.523	20187
887.648	20237
887.773	20058
887.897	20309
888.021	20313
888.146	20214
888.27	20374
888.395	20370
888.519	20233
888.643	20195
888.767	20278
888.891	20138
889.015	20218
889.139	20138
889.263	20065
889.387	20172
889.511	20218
889.635	20278
889.759	20138
889.883	20115
890.006	20153
890.13	19989
890.254	19997
890.377	19875
890.501	19826
890.624	19795
890.748	19818
890.871	19761
890.995	19590
891.118	19605
891.241	19734
891.364	19601
891.488	19765
891.611	19655
891.734	19616
891.857	19666
891.98	19582
892.103	19715
892.226	19605
892.349	19666
892.471	19453
892.594	19658
892.717	19518
892.839	19502
892.962	19662
893.085	19609
893.207	19529
893.33	19468
893.452	19609
893.575	19613
893.697	19441
893.819	19715
893.941	19833
894.064	19662
894.186	19590
894.308	19533
894.43	19521
894.552	19658
894.674	19575
894.796	19449
894.918	19544
895.04	19464
895.161	19525
895.283	19658
895.405	19491
895.526	19582
895.648	19434
895.769	19624
895.891	19651
896.012	19521
896.134	19499
896.255	19544
896.376	19529
896.498	19582
896.619	19552
896.74	19582
896.861	19715
896.982	19868
897.103	20088
897.224	19822
897.345	19693
897.466	19624
897.587	19795
897.708	19864
897.828	19799
897.949	19750
898.07	19525
898.19	19693
898.311	19906
898.431	19803
898.552	19742
898.672	19822
898.792	19978
898.913	19811
899.033	19689
899.153	19578
899.273	19525
899.393	19537
899.513	19662
899.633	19613
899.753	19655
899.873	19426
899.993	19647
900.113	19430
900.232	19548
900.352	19453
900.472	19327
900.591	19282
900.711	19419
900.83	19304
900.95	19335
901.069	19392
901.189	19255
901.308	19080
901.427	18913
901.546	18989
901.665	18962
901.784	18856
901.904	18707
902.023	18646
902.141	18486
902.26	18490
902.379	18528
902.498	18479
902.617	18384
902.735	18426
902.854	18464
902.973	18361
903.091	18133
903.21	18190
903.328	18171
903.446	18095
903.565	17961
903.683	17893
903.801	17821
903.919	17893
904.038	17836
904.156	17695
904.274	17802
904.392	17657
904.51	17630
904.627	17642
904.745	17756
904.863	17737
904.981	17493
905.098	17417
905.216	17364
905.334	17452
905.451	17379
905.569	17379
905.686	17459
905.803	17376
905.921	17162
906.038	17322
906.155	17136
906.272	17060
906.389	17071
906.506	16873
906.623	17037
906.74	16904
906.857	16771
906.974	16824
907.091	16957
907.208	17086
907.324	16927
907.441	16672
907.557	16672
907.674	16702
907.79	16683
907.907	16561
908.023	16637
908.139	16733
908.256	16634
908.372	16569
908.488	16512
908.604	16428
908.72	16318
908.836	16413
908.952	16223
909.068	16371
909.184	16523
909.3	16413
909.415	16276
909.531	16249
909.647	16131
909.762	16074
909.878	16063
909.993	16116
910.108	15937
910.224	16029
910.339	15998
910.454	15972
910.57	15873
910.685	15873
910.8	16128
910.915	16074
911.03	15956
911.145	15690
911.259	15656
911.374	15675
911.489	15553
911.604	15545
911.718	15477
911.833	15492
911.947	15359
912.062	15275
912.176	15477
912.291	15431
912.405	15534
912.519	15747
912.633	15625
912.748	15462
912.862	15492
912.976	15192
913.09	15013
913.204	15116
913.318	15249
913.431	15264
913.545	15321
913.659	15287
913.772	15199
913.886	15237
914	15074
914.113	15180
914.226	15184
914.34	15131
914.453	14921
914.566	15135
914.68	15070
914.793	14815
914.906	14682
915.019	14587
915.132	14712
915.245	14663
915.358	14659
915.47	14705
915.583	14686
915.696	14682
915.809	14857
915.921	14769
916.034	14606
916.146	14579
916.259	14541
916.371	14667
916.483	14587
916.595	14541
916.708	14549
916.82	14522
916.932	14526
917.044	14461
917.156	14370
917.268	14256
917.38	14438
917.491	14324
917.603	14317
917.715	14374
917.826	14499
917.938	14263
918.049	14142
918.161	14328
918.272	14366
918.384	14389
918.495	14237
918.606	14161
918.717	14050
918.828	14134
918.939	14145
919.05	13997
919.161	14027
919.272	13921
919.383	13890
919.494	14153
919.604	14221
919.715	14016
919.826	14084
919.936	14111
920.047	14115
920.157	14020
920.267	14259
920.378	14107
920.488	13978
920.598	14263
920.708	14431
920.818	14267
920.928	14275
921.038	14419
921.148	14355
921.258	14020
921.368	13902
921.477	13837
921.587	13776
921.697	13582
921.806	13871
921.916	13594
922.025	13483
922.134	13487
922.244	13445
922.353	13518
922.462	13468
922.571	13297
922.68	13168
922.789	13126
922.898	13065
923.007	13069
923.116	13114
923.224	13038
923.333	13088
923.442	12996
923.55	13008
923.659	12989
923.767	12973
923.876	12939
923.984	12966
924.092	12840
924.201	12901
924.309	12848
924.417	12802
924.525	12798
924.633	12768
924.741	13780
924.849	12631
924.956	12677
925.064	12532
925.172	12555
925.279	12502
925.387	12639
925.494	12608
925.602	12601
925.709	12585
925.816	12460
925.924	12517
926.031	12612
926.138	12601
926.245	12563
926.352	12452
926.459	12574
926.566	12582
926.673	12452
926.779	12266
926.886	12369
926.993	12171
927.099	12049
927.206	12114
927.312	12106
927.419	12102
927.525	12175
927.631	12110
927.737	12019
927.843	12019
927.95	11851
928.056	11908
928.162	11885
928.267	11958
928.373	12536
928.479	12007
928.585	11805
928.69	11923
928.796	11904
928.901	11813
929.007	11726
929.112	11809
929.218	11707
929.323	11771
929.428	11634
929.533	11855
929.638	11543
929.743	11718
929.848	11707
929.953	11646
930.058	11615
930.163	11379
930.267	11429
930.372	11429
930.477	11341
930.581	11581
930.685	11455
930.79	11223
930.894	11318
930.998	11292
931.103	11478
931.207	11006
931.311	10957
931.415	10965
931.519	10721
931.623	10637
