Data from test_V78500241_3362.txt Node
Date: Fri Mar 25 15:33:16 CST 2022
User: usil
Spectrometer: V785-0024
Trigger mode: 0
Integration Time (sec): 4.000000E-1
Scans to average: 1
Nonlinearity correction enabled: false
Boxcar width: 0
Storing dark spectrum: false
XAxis mode: Wavelengths
Number of Pixels in Spectrum: 1024
>>>>>Begin Spectral Data<<<<<
801.071	27135
801.214	27001
801.356	26834
801.499	26758
801.641	26644
801.783	26571
801.926	26686
802.068	26777
802.211	26621
802.353	26511
802.496	26393
802.638	26339
802.78	26339
802.923	26263
803.065	26206
803.208	26271
803.35	26343
803.492	26415
803.635	26609
803.777	26377
803.919	26484
804.061	26792
804.204	26480
804.346	26450
804.488	26415
804.63	26400
804.773	26423
804.915	26427
805.057	26575
805.199	26415
805.341	26434
805.483	26495
805.626	26564
805.768	26469
805.91	26587
806.052	26442
806.194	26564
806.336	26689
806.478	26526
806.62	26511
806.762	26629
806.904	26811
807.046	26990
807.188	26933
807.33	26994
807.472	26975
807.614	26845
807.756	26899
807.898	26895
808.04	26792
808.182	26720
808.324	26880
808.465	26727
808.607	27039
808.749	27184
808.891	27241
809.033	27359
809.174	27233
809.316	27032
809.458	27009
809.6	27077
809.741	27180
809.883	27287
810.025	27252
810.166	27473
810.308	27553
810.45	27443
810.591	27260
810.733	27233
810.875	27142
811.016	27093
811.158	26944
811.299	27104
811.441	27351
811.582	27207
811.724	27161
811.865	27062
812.007	27264
812.148	27100
812.29	27325
812.431	27279
812.573	27504
812.714	27603
812.855	27534
812.997	27686
813.138	27835
813.279	27686
813.421	27625
813.562	27667
813.703	27599
813.845	27321
813.986	26998
814.127	26891
814.268	26785
814.41	26819
814.551	26743
814.692	26849
814.833	26845
814.974	26583
815.115	26727
815.256	26689
815.397	26590
815.539	26571
815.68	26442
815.821	26552
815.962	26461
816.103	26492
816.244	26351
816.385	26339
816.526	26385
816.666	26180
816.807	26096
816.948	26062
817.089	26176
817.23	26012
817.371	26062
817.512	26119
817.653	25925
817.793	25856
817.934	26084
818.075	26039
818.216	26008
818.356	26039
818.497	25841
818.638	25837
818.778	25875
818.919	25826
819.06	25864
819.2	25978
819.341	26031
819.481	25974
819.622	26088
819.762	26259
819.903	26309
820.043	26301
820.184	26092
820.324	26092
820.465	26176
820.605	26096
820.746	25974
820.886	25833
821.026	26073
821.167	26024
821.307	26191
821.447	25932
821.588	25959
821.728	25852
821.868	25582
822.008	25460
822.149	25453
822.289	25514
822.429	25232
822.569	25240
822.709	25103
822.849	24985
822.99	25015
823.13	24913
823.27	24958
823.41	24814
823.55	24677
823.69	24814
823.83	24825
823.97	24650
824.11	24597
824.25	24627
824.389	24730
824.529	24700
824.669	24642
824.809	24802
824.949	24574
825.089	24654
825.228	24646
825.368	24604
825.508	24479
825.648	24563
825.787	24566
825.927	24555
826.067	24429
826.206	24635
826.346	24597
826.485	24547
826.625	24498
826.765	24570
826.904	24441
827.044	24342
827.183	24350
827.323	24251
827.462	24285
827.601	24262
827.741	24186
827.88	24117
828.02	24117
828.159	24095
828.298	24209
828.437	24194
828.577	24163
828.716	24254
828.855	24041
828.994	23824
829.134	24053
829.273	24068
829.412	23790
829.551	23901
829.69	23988
829.829	23999
829.968	23988
830.107	24064
830.246	23851
830.385	23878
830.524	23874
830.663	23729
830.802	23638
830.941	23547
831.08	23421
831.219	23589
831.357	23741
831.496	23687
831.635	23471
831.774	23589
831.913	23455
832.051	23391
832.19	23296
832.329	23303
832.467	23349
832.606	23113
832.744	23277
832.883	23227
833.022	23124
833.16	23254
833.299	23303
833.437	23216
833.576	23296
833.714	23376
833.852	23395
833.991	23379
834.129	23296
834.267	23387
834.406	23383
834.544	23277
834.682	23288
834.821	23311
834.959	23410
835.097	23239
835.235	23246
835.373	23349
835.511	23296
835.65	23102
835.788	23128
835.926	22987
836.064	22972
836.202	23006
836.34	23086
836.478	23105
836.615	23143
836.753	23143
836.891	23265
837.029	23246
837.167	23132
837.305	23143
837.443	22980
837.58	23056
837.718	23037
837.856	22995
837.993	22949
838.131	23014
838.269	22953
838.406	22946
838.544	22793
838.681	22786
838.819	22611
838.956	22398
839.094	22497
839.231	22424
839.369	22744
839.506	23025
839.643	22744
839.781	22402
839.918	22325
840.055	22512
840.193	22531
840.33	22344
840.467	22428
840.604	22421
840.742	22626
840.879	22257
841.016	22367
841.153	22265
841.29	22455
841.427	22436
841.564	22508
841.701	22417
841.838	22489
841.975	22177
842.112	22352
842.249	22131
842.385	22093
842.522	22314
842.659	22173
842.796	22150
842.933	22223
843.069	22223
843.206	22185
843.343	22215
843.479	22211
843.616	22257
843.752	21873
843.889	21972
844.025	22036
844.162	21922
844.298	21956
844.435	21918
844.571	21998
844.708	21994
844.844	22101
844.98	22055
845.117	22063
845.253	21770
845.389	21720
845.525	21895
845.661	21762
845.798	21705
845.934	21629
846.07	21553
846.206	21759
846.342	21804
846.478	21743
846.614	21435
846.75	21420
846.886	21500
847.022	21545
847.158	21412
847.294	21466
847.429	21435
847.565	21405
847.701	21648
847.837	21195
847.972	21203
848.108	21245
848.244	21165
848.379	21104
848.515	21104
848.65	21077
848.786	21085
848.921	20994
849.057	21154
849.192	21127
849.328	21066
849.463	21047
849.598	20952
849.734	20956
849.869	20807
850.004	20921
850.14	20811
850.275	20800
850.41	20807
850.545	20746
850.68	20849
850.815	20746
850.95	20701
851.085	21051
851.22	20864
851.355	20731
851.49	20739
851.625	20796
851.76	20686
851.895	20708
852.03	20720
852.165	20773
852.299	20807
852.434	20686
852.569	20735
852.703	20746
852.838	20788
852.973	21005
853.107	20861
853.242	20636
853.376	20492
853.511	20473
853.645	20609
853.78	20686
853.914	20560
854.048	20667
854.183	20499
854.317	20552
854.451	20811
854.585	20697
854.72	20674
854.854	20602
854.988	20598
855.122	20655
855.256	20533
855.39	20651
855.524	20590
855.658	20625
855.792	20621
855.926	20663
856.06	20613
856.194	20697
856.327	20594
856.461	20476
856.595	20507
856.729	20575
856.862	20701
856.996	20568
857.13	20670
857.263	20769
857.397	20727
857.53	20617
857.664	20667
857.797	20651
857.931	20663
858.064	20655
858.197	20712
858.331	20686
858.464	20518
858.597	20518
858.731	20564
858.864	20571
858.997	20579
859.13	20632
859.263	20670
859.396	20617
859.529	20495
859.662	20590
859.795	20602
859.928	20705
860.061	20826
860.194	20670
860.327	20659
860.46	20670
860.592	20716
860.725	20880
860.858	20731
860.99	20667
861.123	20450
861.256	20568
861.388	20594
861.521	21389
861.653	20457
861.786	20511
861.918	20461
862.05	20545
862.183	20522
862.315	20609
862.447	20568
862.58	20484
862.712	20377
862.844	20252
862.976	20431
863.108	20317
863.24	20632
863.372	20202
863.504	20313
863.636	20282
863.768	20393
863.9	20381
864.032	20153
864.164	20328
864.296	20415
864.428	20412
864.559	20415
864.691	20408
864.823	20336
864.954	20301
865.086	20122
865.217	20176
865.349	20183
865.48	20130
865.612	20221
865.743	20423
865.875	20282
866.006	20225
866.137	20221
866.269	20214
866.4	20278
866.531	20183
866.662	20126
866.793	20157
866.924	20107
867.055	20294
867.186	20229
867.317	20164
867.448	20035
867.579	20168
867.71	20122
867.841	20107
867.972	20161
868.103	20138
868.233	20199
868.364	20142
868.495	20298
868.625	20434
868.756	20533
868.886	20415
869.017	20484
869.147	20514
869.278	20503
869.408	20355
869.539	20526
869.669	20442
869.799	20473
869.929	20469
870.06	20533
870.19	20769
870.32	20804
870.45	20781
870.58	20925
870.71	20967
870.84	20880
870.97	20830
871.1	20769
871.23	21077
871.36	21062
871.489	20967
871.619	20986
871.749	21005
871.879	21051
872.008	21222
872.138	21093
872.267	21131
872.397	20842
872.526	20796
872.656	20960
872.785	20849
872.915	21051
873.044	21119
873.173	20937
873.303	21184
873.432	21100
873.561	21093
873.69	21157
873.819	21089
873.948	21024
874.077	20994
874.206	20960
874.335	20963
874.464	21294
874.593	21252
874.722	21237
874.851	21211
874.979	21256
875.108	21416
875.237	21298
875.365	21222
875.494	21142
875.623	21363
875.751	21310
875.88	21344
876.008	21485
876.136	21466
876.265	21770
876.393	21774
876.521	21633
876.65	21854
876.778	21652
876.906	21564
877.034	21580
877.162	21789
877.29	21572
877.418	21732
877.546	21606
877.674	21534
877.802	21641
877.93	21633
878.058	21568
878.185	21504
878.313	21682
878.441	21736
878.568	21523
878.696	21580
878.824	21686
878.951	21770
879.079	21793
879.206	21918
879.333	21903
879.461	21701
879.588	21686
879.715	21861
879.842	21926
879.97	21671
880.097	21428
880.224	21428
880.351	21500
880.478	21488
880.605	21523
880.732	21545
880.859	21766
880.986	21667
881.112	21492
881.239	21412
881.366	21199
881.493	21192
881.619	21108
881.746	21062
881.872	21055
881.999	20948
882.125	21081
882.252	21127
882.378	21074
882.505	21055
882.631	20880
882.757	20727
882.883	20788
883.01	20754
883.136	20693
883.262	20602
883.388	20621
883.514	20689
883.64	20769
883.766	20663
883.892	20533
884.018	20541
884.143	20689
884.269	20883
884.395	20446
884.52	20362
884.646	20571
884.772	20339
884.897	20298
885.023	20336
885.148	20454
885.274	20507
885.399	20568
885.524	20419
885.65	20469
885.775	20511
885.9	20438
886.025	20522
886.15	20533
886.275	20431
886.4	20278
886.525	20381
886.65	20480
886.775	20385
886.9	20404
887.025	20571
887.149	20442
887.274	20275
887.399	20225
887.523	20214
887.648	20168
887.773	20126
887.897	20275
888.021	20092
888.146	20096
888.27	20370
888.395	20305
888.519	20081
888.643	20263
888.767	20237
888.891	20096
889.015	20050
889.139	20031
889.263	20020
889.387	20130
889.511	20267
889.635	20012
889.759	20050
889.883	20012
890.006	20001
890.13	20096
890.254	19864
890.377	19967
890.501	19814
890.624	19734
890.748	19757
890.871	19696
890.995	19571
891.118	19594
891.241	19696
891.364	19708
891.488	19753
891.611	19700
891.734	19582
891.857	19677
891.98	19556
892.103	19495
892.226	19609
892.349	19525
892.471	19411
892.594	19521
892.717	19464
892.839	19518
892.962	19597
893.085	19521
893.207	19480
893.33	19339
893.452	19388
893.575	19495
893.697	19457
893.819	19616
893.941	19670
894.064	19689
894.186	19563
894.308	19438
894.43	19563
894.552	19666
894.674	19529
894.796	19537
894.918	19571
895.04	19518
895.161	19529
895.283	19537
895.405	19537
895.526	19537
895.648	19407
895.769	19487
895.891	19613
896.012	19609
896.134	19571
896.255	19483
896.376	19628
896.498	19563
896.619	19609
896.74	19483
896.861	19586
896.982	19830
897.103	19906
897.224	19734
897.345	19753
897.466	19605
897.587	19674
897.708	19856
897.828	19784
897.949	19601
898.07	19597
898.19	19658
898.311	19681
898.431	19620
898.552	19795
898.672	19780
898.792	19818
898.913	19757
899.033	19708
899.153	19499
899.273	19350
899.393	19510
899.513	19529
899.633	19559
899.753	19419
899.873	19483
899.993	19480
900.113	19415
900.232	19468
900.352	19445
900.472	19297
900.591	19270
900.711	19266
900.83	19282
900.95	19304
901.069	19316
901.189	19095
901.308	18916
901.427	18741
901.546	18882
901.665	18920
901.784	18768
901.904	18684
902.023	18650
902.141	18330
902.26	18338
902.379	18414
902.498	18399
902.617	18235
902.735	18426
902.854	18304
902.973	18258
903.091	17980
903.21	18057
903.328	18038
903.446	17988
903.565	17863
903.683	17878
903.801	17824
903.919	17878
904.038	17760
904.156	17619
904.274	17687
904.392	17687
904.51	17589
904.627	17535
904.745	17684
904.863	17809
904.981	17414
905.098	17269
905.216	17303
905.334	17353
905.451	17360
905.569	17307
905.686	17334
905.803	17303
905.921	17136
906.038	17197
906.155	17052
906.272	16980
906.389	17041
906.506	16839
906.623	16881
906.74	16816
906.857	16831
906.974	16809
907.091	16938
907.208	16991
907.324	16854
907.441	16767
907.557	16577
907.674	16508
907.79	16512
907.907	16519
908.023	16527
908.139	16618
908.256	16535
908.372	16527
908.488	16390
908.604	16287
908.72	16303
908.836	16234
908.952	16265
909.068	16367
909.184	16424
909.3	16306
909.415	16303
909.531	16207
909.647	16006
909.762	16067
909.878	16002
909.993	16093
910.108	15911
910.224	15926
910.339	15915
910.454	16017
910.57	15835
910.685	15762
910.8	16036
910.915	15983
911.03	15838
911.145	15515
911.259	15523
911.374	15591
911.489	15549
911.604	15519
911.718	15355
911.833	15485
911.947	15340
912.062	15211
912.176	15431
912.291	15397
912.405	15336
912.519	15572
912.633	15641
912.748	15481
912.862	15374
912.976	15211
913.09	15157
913.204	15150
913.318	15169
913.431	15268
913.545	15226
913.659	15302
913.772	15100
913.886	15036
914	15020
914.113	15085
914.226	15097
914.34	14998
914.453	14902
914.566	15009
914.68	14910
914.793	14777
914.906	14727
915.019	14537
915.132	14590
915.245	14636
915.358	14689
915.47	14610
915.583	14708
915.696	14598
915.809	14678
915.921	14731
916.034	14537
916.146	14495
916.259	14488
916.371	14663
916.483	14674
916.595	14511
916.708	14473
916.82	14488
916.932	14465
917.044	14480
917.156	14282
917.268	14214
917.38	14271
917.491	14294
917.603	14305
917.715	14336
917.826	14423
917.938	14263
918.049	14191
918.161	14336
918.272	14408
918.384	14301
918.495	14240
918.606	14084
918.717	14077
918.828	14153
918.939	14084
919.05	14031
919.161	14012
919.272	13807
919.383	13928
919.494	14123
919.604	14221
919.715	14046
919.826	13967
919.936	14050
920.047	14016
920.157	14001
920.267	14134
920.378	14024
920.488	14016
920.598	14202
920.708	14210
920.818	14149
920.928	14157
921.038	14313
921.148	14248
921.258	13993
921.368	13936
921.477	13788
921.587	13852
921.697	13616
921.806	13856
921.916	13636
922.025	13457
922.134	13320
922.244	13464
922.353	13487
922.462	13373
922.571	13293
922.68	13072
922.789	13114
922.898	13171
923.007	13034
923.116	13110
923.224	13122
923.333	12970
923.442	13008
923.55	12958
923.659	12932
923.767	13027
923.876	12829
923.984	12863
924.092	12882
924.201	12928
924.309	12738
924.417	12783
924.525	12692
924.633	12787
924.741	13700
924.849	12555
924.956	12673
925.064	12521
925.172	12559
925.279	12494
925.387	12589
925.494	12437
925.602	12646
925.709	12506
925.816	12486
925.924	12532
926.031	12623
926.138	12452
926.245	12532
926.352	12410
926.459	12559
926.566	12551
926.673	12369
926.779	12258
926.886	12270
926.993	12228
927.099	12205
927.206	12015
927.312	12072
927.419	12102
927.525	12163
927.631	12106
927.737	12007
927.843	12038
927.95	11954
928.056	11935
928.162	11961
928.267	11977
928.373	12528
928.479	12041
928.585	11752
928.69	11920
928.796	11923
928.901	11767
929.007	11722
929.112	11836
929.218	11737
929.323	11737
929.428	11672
929.533	11821
929.638	11710
929.743	11665
929.848	11653
929.953	11608
930.058	11615
930.163	11368
930.267	11402
930.372	11668
930.477	11379
930.581	11642
930.685	11459
930.79	11341
930.894	11356
930.998	11239
931.103	11452
931.207	11105
931.311	11083
931.415	10889
931.519	10691
931.623	10752
