Data from test_V78500241_1682.txt Node
Date: Fri Mar 25 15:21:34 CST 2022
User: usil
Spectrometer: V785-0024
Trigger mode: 0
Integration Time (sec): 4.000000E-1
Scans to average: 1
Nonlinearity correction enabled: false
Boxcar width: 0
Storing dark spectrum: false
XAxis mode: Wavelengths
Number of Pixels in Spectrum: 1024
>>>>>Begin Spectral Data<<<<<
801.071	28070
801.214	28025
801.356	27934
801.499	27720
801.641	27667
801.783	27557
801.926	27603
802.068	27610
802.211	27572
802.353	27504
802.496	27279
802.638	27096
802.78	27108
802.923	27188
803.065	27039
803.208	27275
803.35	27272
803.492	27275
803.635	27424
803.777	27268
803.919	27370
804.061	27709
804.204	27572
804.346	27332
804.488	27355
804.63	27443
804.773	27416
804.915	27466
805.057	27519
805.199	27393
805.341	27622
805.483	27701
805.626	27519
805.768	27610
805.91	27534
806.052	27523
806.194	27496
806.336	27667
806.478	27561
806.62	27549
806.762	27705
806.904	27831
807.046	27964
807.188	28017
807.33	27926
807.472	28059
807.614	27880
807.756	27922
807.898	27816
808.04	27587
808.182	27679
808.324	27857
808.465	27968
808.607	27960
808.749	28325
808.891	28318
809.033	28424
809.174	28329
809.316	28200
809.458	28166
809.6	28207
809.741	28474
809.883	28352
810.025	28478
810.166	28436
810.308	28238
810.45	28440
810.591	28291
810.733	28063
810.875	28078
811.016	28017
811.158	28067
811.299	28223
811.441	28147
811.582	28390
811.724	28223
811.865	28154
812.007	28166
812.148	28200
812.29	28196
812.431	28451
812.573	28466
812.714	28523
812.855	28748
812.997	28858
813.138	28953
813.279	28862
813.421	28763
813.562	28592
813.703	28459
813.845	28424
813.986	28131
814.127	27953
814.268	27865
814.41	27812
814.551	27884
814.692	27960
814.833	27899
814.974	27762
815.115	27934
815.256	27679
815.397	27850
815.539	27675
815.68	27583
815.821	27538
815.962	27804
816.103	27561
816.244	27572
816.385	27504
816.526	27321
816.666	27298
816.807	27184
816.948	27389
817.089	27241
817.23	27180
817.371	27138
817.512	26998
817.653	27241
817.793	27051
817.934	27005
818.075	27176
818.216	27176
818.356	27051
818.497	26963
818.638	26933
818.778	27001
818.919	26940
819.06	27043
819.2	27119
819.341	27370
819.481	27173
819.622	27382
819.762	27595
819.903	27443
820.043	27294
820.184	27249
820.324	27313
820.465	27382
820.605	27272
820.746	27313
820.886	27184
821.026	27283
821.167	27165
821.307	27386
821.447	27176
821.588	27161
821.728	26895
821.868	26918
822.008	26765
822.149	26625
822.289	26678
822.429	26423
822.569	26332
822.709	26309
822.849	26149
822.99	26180
823.13	26073
823.27	26058
823.41	25963
823.55	26008
823.69	26001
823.83	25993
823.97	25875
824.11	25712
824.25	25864
824.389	25811
824.529	25826
824.669	25875
824.809	25898
824.949	25959
825.089	25913
825.228	25898
825.368	25761
825.508	25578
825.648	25712
825.787	25776
825.927	25700
826.067	25674
826.206	25700
826.346	25674
826.485	25708
826.625	25746
826.765	25757
826.904	25700
827.044	25487
827.183	25400
827.323	25373
827.462	25354
827.601	25533
827.741	25346
827.88	25464
828.02	25392
828.159	25362
828.298	25255
828.437	25438
828.577	25346
828.716	25556
828.855	25240
828.994	25179
829.134	25171
829.273	25202
829.412	24992
829.551	24996
829.69	25103
829.829	25228
829.968	25164
830.107	25103
830.246	25107
830.385	25023
830.524	24901
830.663	24916
830.802	24878
830.941	24642
831.08	24669
831.219	24802
831.357	24745
831.496	24776
831.635	24665
831.774	24749
831.913	24578
832.051	24547
832.19	24365
832.329	24418
832.467	24456
832.606	24289
832.744	24330
832.883	24456
833.022	24171
833.16	24323
833.299	24498
833.437	24281
833.576	24433
833.714	24513
833.852	24555
833.991	24502
834.129	24566
834.267	24426
834.406	24563
834.544	24498
834.682	24452
834.821	24372
834.959	24631
835.097	24323
835.235	24490
835.373	24410
835.511	24464
835.65	24380
835.788	24330
835.926	24171
836.064	24171
836.202	24091
836.34	24209
836.478	24407
836.615	24292
836.753	24232
836.891	24350
837.029	24216
837.167	24136
837.305	24296
837.443	24155
837.58	24125
837.718	24304
837.856	24148
837.993	24038
838.131	24129
838.269	23954
838.406	24076
838.544	23840
838.681	23745
838.819	23745
838.956	23543
839.094	23520
839.231	23600
839.369	23741
839.506	24011
839.643	23961
839.781	23684
839.918	23547
840.055	23611
840.193	23493
840.33	23566
840.467	23562
840.604	23554
840.742	23813
840.879	23364
841.016	23467
841.153	23292
841.29	23596
841.427	23478
841.564	23551
841.701	23372
841.838	23421
841.975	23387
842.112	23410
842.249	23360
842.385	23216
842.522	23433
842.659	23223
842.796	23227
842.933	23174
843.069	23353
843.206	23185
843.343	23265
843.479	23383
843.616	23200
843.752	23025
843.889	23121
844.025	23250
844.162	22946
844.298	23197
844.435	22995
844.571	23037
844.708	22984
844.844	23216
844.98	23155
845.117	23185
845.253	22930
845.389	22850
845.525	22991
845.661	22896
845.798	22740
845.934	22812
846.07	22748
846.206	22664
846.342	22850
846.478	22805
846.614	22519
846.75	22474
846.886	22443
847.022	22542
847.158	22409
847.294	22573
847.429	22481
847.565	22538
847.701	22729
847.837	22261
847.972	22135
848.108	22318
848.244	22276
848.379	22207
848.515	22200
848.65	22032
848.786	22097
848.921	22070
849.057	22192
849.192	22287
849.328	22040
849.463	22097
849.598	22226
849.734	21945
849.869	21934
850.004	21762
850.14	21842
850.275	21869
850.41	21766
850.545	21781
850.68	21861
850.815	21842
850.95	21854
851.085	22025
851.22	21983
851.355	21930
851.49	21857
851.625	21766
851.76	21857
851.895	21724
852.03	21755
852.165	21793
852.299	21873
852.434	21953
852.569	21945
852.703	21857
852.838	21819
852.973	21903
853.107	21926
853.242	21766
853.376	21667
853.511	21690
853.645	21580
853.78	21732
853.914	21564
854.048	21614
854.183	21667
854.317	21793
854.451	21812
854.585	21671
854.72	21660
854.854	21690
854.988	21481
855.122	21667
855.256	21553
855.39	21591
855.524	21800
855.658	21671
855.792	21781
855.926	21728
856.06	21656
856.194	21774
856.327	21557
856.461	21637
856.595	21667
856.729	21751
856.862	21682
856.996	21568
857.13	21679
857.263	21603
857.397	21717
857.53	21644
857.664	21675
857.797	21599
857.931	21663
858.064	21717
858.197	21774
858.331	21656
858.464	21545
858.597	21485
858.731	21568
858.864	21614
858.997	21511
859.13	21778
859.263	21561
859.396	21625
859.529	21618
859.662	21637
859.795	21576
859.928	21614
860.061	21724
860.194	21770
860.327	21755
860.46	21720
860.592	21736
860.725	21785
860.858	21736
860.99	21610
861.123	21701
861.256	21492
861.388	21698
861.521	22295
861.653	21348
861.786	21310
861.918	21591
862.05	21504
862.183	21523
862.315	21591
862.447	21625
862.58	21625
862.712	21405
862.844	21370
862.976	21485
863.108	21526
863.24	21633
863.372	21329
863.504	21222
863.636	21389
863.768	21462
863.9	21458
864.032	21393
864.164	21298
864.296	21405
864.428	21488
864.559	21610
864.691	21439
864.823	21435
864.954	21336
865.086	21443
865.217	21340
865.349	21176
865.48	21241
865.612	21279
865.743	21355
865.875	21302
866.006	21207
866.137	21268
866.269	21154
866.4	21245
866.531	21222
866.662	21081
866.793	21199
866.924	21252
867.055	21192
867.186	21169
867.317	21096
867.448	20963
867.579	21237
867.71	21058
867.841	21161
867.972	21256
868.103	21226
868.233	21180
868.364	21252
868.495	21275
868.625	21344
868.756	21507
868.886	21370
869.017	21424
869.147	21424
869.278	21576
869.408	21477
869.539	21439
869.669	21515
869.799	21420
869.929	21523
870.06	21542
870.19	21827
870.32	21690
870.45	21895
870.58	21812
870.71	21949
870.84	21907
870.97	21903
871.1	21865
871.23	22093
871.36	22086
871.489	21960
871.619	22090
871.749	22044
871.879	22082
872.008	22169
872.138	22013
872.267	22032
872.397	21994
872.526	21800
872.656	21964
872.785	21827
872.915	22078
873.044	22162
873.173	22051
873.303	22173
873.432	22105
873.561	22131
873.69	22097
873.819	22128
873.948	22280
874.077	22067
874.206	21964
874.335	22109
874.464	22196
874.593	22390
874.722	22234
874.851	22280
874.979	22398
875.108	22447
875.237	22325
875.365	22158
875.494	22162
875.623	22356
875.751	22261
875.88	22280
876.008	22451
876.136	22554
876.265	22679
876.393	22729
876.521	22858
876.65	22854
876.778	22653
876.906	22573
877.034	22713
877.162	22523
877.29	22538
877.418	22729
877.546	22733
877.674	22656
877.802	22744
877.93	22615
878.058	22497
878.185	22508
878.313	22588
878.441	22485
878.568	22451
878.696	22519
878.824	22653
878.951	22759
879.079	22843
879.206	23006
879.333	22778
879.461	22744
879.588	22801
879.715	22885
879.842	22877
879.97	22683
880.097	22493
880.224	22554
880.351	22455
880.478	22504
880.605	22322
880.732	22371
880.859	22687
880.986	22386
881.112	22466
881.239	22272
881.366	22188
881.493	22131
881.619	22017
881.746	22059
881.872	22067
881.999	22029
882.125	21949
882.252	22044
882.378	22025
882.505	22185
882.631	22013
882.757	21694
882.883	21808
883.01	21743
883.136	21728
883.262	21660
883.388	21549
883.514	21633
883.64	21671
883.766	21682
883.892	21515
884.018	21526
884.143	21743
884.269	21762
884.395	21469
884.52	21302
884.646	21511
884.772	21348
884.897	21237
885.023	21275
885.148	21492
885.274	21545
885.399	21412
885.524	21405
885.65	21382
885.775	21336
885.9	21386
886.025	21397
886.15	21363
886.275	21211
886.4	21241
886.525	21203
886.65	21340
886.775	21298
886.9	21466
887.025	21610
887.149	21325
887.274	21138
887.399	21066
887.523	21192
887.648	20990
887.773	21028
887.897	21165
888.021	21131
888.146	21116
888.27	21214
888.395	21195
888.519	21214
888.643	21055
888.767	21169
888.891	21104
889.015	20918
889.139	20948
889.263	20956
889.387	20941
889.511	21127
889.635	21047
889.759	20967
889.883	20754
890.006	20975
890.13	20872
890.254	20746
890.377	20982
890.501	20636
890.624	20629
890.748	20659
890.871	20606
890.995	20552
891.118	20374
891.241	20552
891.364	20537
891.488	20537
891.611	20526
891.734	20438
891.857	20636
891.98	20530
892.103	20423
892.226	20495
892.349	20465
892.471	20332
892.594	20465
892.717	20408
892.839	20252
892.962	20385
893.085	20450
893.207	20332
893.33	20233
893.452	20351
893.575	20290
893.697	20351
893.819	20621
893.941	20511
894.064	20507
894.186	20252
894.308	20358
894.43	20389
894.552	20370
894.674	20408
894.796	20248
894.918	20389
895.04	20442
895.161	20457
895.283	20370
895.405	20248
895.526	20381
895.648	20419
895.769	20450
895.891	20423
896.012	20442
896.134	20366
896.255	20263
896.376	20351
896.498	20320
896.619	20400
896.74	20389
896.861	20301
896.982	20735
897.103	20807
897.224	20606
897.345	20670
897.466	20499
897.587	20594
897.708	20602
897.828	20484
897.949	20568
898.07	20461
898.19	20587
898.311	20594
898.431	20495
898.552	20533
898.672	20606
898.792	20689
898.913	20625
899.033	20526
899.153	20404
899.273	20271
899.393	20256
899.513	20301
899.633	20355
899.753	20324
899.873	20351
899.993	20377
900.113	20286
900.232	20309
900.352	20233
900.472	20145
900.591	20065
900.711	20111
900.83	19989
900.95	20259
901.069	20191
901.189	19947
901.308	19647
901.427	19731
901.546	19753
901.665	19719
901.784	19700
901.904	19548
902.023	19411
902.141	19282
902.26	19148
902.379	19358
902.498	19331
902.617	19194
902.735	19206
902.854	19164
902.973	19114
903.091	18768
903.21	18768
903.328	18821
903.446	18806
903.565	18620
903.683	18673
903.801	18566
903.919	18574
904.038	18582
904.156	18418
904.274	18498
904.392	18414
904.51	18407
904.627	18418
904.745	18578
904.863	18410
904.981	18209
905.098	18102
905.216	18117
905.334	18129
905.451	18011
905.569	18022
905.686	18136
905.803	18053
905.921	17935
906.038	17988
906.155	17931
906.272	17764
906.389	17798
906.506	17516
906.623	17722
906.74	17611
906.857	17455
906.974	17577
907.091	17710
907.208	17699
907.324	17634
907.441	17543
907.557	17353
907.674	17387
907.79	17250
907.907	17421
908.023	17315
908.139	17284
908.256	17311
908.372	17159
908.488	17200
908.604	17121
908.72	17075
908.836	17113
908.952	17045
909.068	17113
909.184	17174
909.3	17045
909.415	17064
909.531	17045
909.647	16862
909.762	16744
909.878	16752
909.993	16782
910.108	16733
910.224	16683
910.339	16744
910.454	16725
910.57	16550
910.685	16417
910.8	16736
910.915	16611
911.03	16569
911.145	16417
911.259	16337
911.374	16306
911.489	16291
911.604	16135
911.718	16055
911.833	16021
911.947	16010
912.062	15937
912.176	16158
912.291	16219
912.405	15934
912.519	16196
912.633	16166
912.748	16105
912.862	16002
912.976	15911
913.09	15800
913.204	15930
913.318	15903
913.431	15979
913.545	15941
913.659	16017
913.772	15899
913.886	15686
914	15633
914.113	15835
914.226	15785
914.34	15895
914.453	15591
914.566	15679
914.68	15622
914.793	15682
914.906	15386
915.019	15344
915.132	15256
915.245	15203
915.358	15348
915.47	15275
915.583	15359
915.696	15317
915.809	15416
915.921	15408
916.034	15264
916.146	15176
916.259	15283
916.371	15260
916.483	15310
916.595	15131
916.708	15089
916.82	15241
916.932	15165
917.044	14971
917.156	15070
917.268	14967
917.38	15005
917.491	14994
917.603	14910
917.715	15036
917.826	15077
917.938	14857
918.049	14830
918.161	14902
918.272	15062
918.384	14918
918.495	14845
918.606	14769
918.717	14701
918.828	14712
918.939	14765
919.05	14579
919.161	14667
919.272	14560
919.383	14575
919.494	14659
919.604	14895
919.715	14670
919.826	14545
919.936	14632
920.047	14720
920.157	14708
920.267	14819
920.378	14682
920.488	14667
920.598	14777
920.708	14963
920.818	14796
920.928	14765
921.038	14925
921.148	14910
921.258	14533
921.368	14560
921.477	14351
921.587	14355
921.697	14278
921.806	14396
921.916	14263
922.025	14096
922.134	14046
922.244	13864
922.353	14115
922.462	13837
922.571	13883
922.68	13689
922.789	13658
922.898	13727
923.007	13616
923.116	13700
923.224	13628
923.333	13689
923.442	13590
923.55	13506
923.659	13552
923.767	13677
923.876	13419
923.984	13502
924.092	13510
924.201	13464
924.309	13343
924.417	13358
924.525	13327
924.633	13354
924.741	14077
924.849	13114
924.956	13247
925.064	13122
925.172	13061
925.279	13107
925.387	13114
925.494	13050
925.602	13137
925.709	13069
925.816	13019
925.924	13080
926.031	13080
926.138	12993
926.245	13061
926.352	12886
926.459	13107
926.566	13015
926.673	12905
926.779	12928
926.886	12776
926.993	12715
927.099	12650
927.206	12662
927.312	12601
927.419	12570
927.525	12646
927.631	12662
927.737	12551
927.843	12437
927.95	12410
928.056	12483
928.162	12536
928.267	12498
928.373	12954
928.479	12585
928.585	12407
928.69	12426
928.796	12509
928.901	12281
929.007	12209
929.112	12300
929.218	12323
929.323	12239
929.428	12148
929.533	12350
929.638	12114
929.743	12106
929.848	12163
929.953	12117
930.058	12053
930.163	11885
930.267	11912
930.372	12007
930.477	11840
930.581	12060
930.685	11946
930.79	11809
930.894	11710
930.998	11767
931.103	11927
931.207	11478
931.311	11433
931.415	11372
931.519	11151
931.623	11086
