Data from test_V78500241_3344.txt Node
Date: Fri Mar 25 15:33:08 CST 2022
User: usil
Spectrometer: V785-0024
Trigger mode: 0
Integration Time (sec): 4.000000E-1
Scans to average: 1
Nonlinearity correction enabled: false
Boxcar width: 0
Storing dark spectrum: false
XAxis mode: Wavelengths
Number of Pixels in Spectrum: 1024
>>>>>Begin Spectral Data<<<<<
801.071	27230
801.214	27218
801.356	26861
801.499	26940
801.641	26819
801.783	26804
801.926	26982
802.068	26861
802.211	26788
802.353	26697
802.496	26568
802.638	26488
802.78	26328
802.923	26237
803.065	26263
803.208	26351
803.35	26366
803.492	26594
803.635	26629
803.777	26488
803.919	26621
804.061	26956
804.204	26560
804.346	26568
804.488	26423
804.63	26537
804.773	26476
804.915	26495
805.057	26568
805.199	26488
805.341	26503
805.483	26762
805.626	26579
805.768	26648
805.91	26705
806.052	26682
806.194	26594
806.336	26788
806.478	26621
806.62	26621
806.762	26609
806.904	26819
807.046	27051
807.188	27081
807.33	26998
807.472	27077
807.614	27024
807.756	27017
807.898	26868
808.04	26975
808.182	26853
808.324	26902
808.465	27001
808.607	27275
808.749	27176
808.891	27329
809.033	27435
809.174	27351
809.316	27165
809.458	27180
809.6	27161
809.741	27302
809.883	27443
810.025	27427
810.166	27450
810.308	27477
810.45	27447
810.591	27355
810.733	27264
810.875	27218
811.016	27104
811.158	27256
811.299	27340
811.441	27462
811.582	27473
811.724	27241
811.865	27329
812.007	27226
812.148	27203
812.29	27367
812.431	27374
812.573	27530
812.714	27644
812.855	27709
812.997	27854
813.138	27956
813.279	27869
813.421	27720
813.562	27770
813.703	27644
813.845	27469
813.986	27165
814.127	27001
814.268	26830
814.41	26883
814.551	26853
814.692	26933
814.833	26925
814.974	26880
815.115	27066
815.256	26781
815.397	26739
815.539	26834
815.68	26705
815.821	26598
815.962	26807
816.103	26735
816.244	26609
816.385	26355
816.526	26377
816.666	26271
816.807	26176
816.948	26229
817.089	26298
817.23	26229
817.371	26164
817.512	26202
817.653	26058
817.793	26054
817.934	26126
818.075	26275
818.216	26225
818.356	26157
818.497	26039
818.638	25894
818.778	26020
818.919	26039
819.06	26043
819.2	26046
819.341	26172
819.481	26237
819.622	26381
819.762	26495
819.903	26355
820.043	26290
820.184	26396
820.324	26248
820.465	26282
820.605	26320
820.746	26176
820.886	26191
821.026	26172
821.167	26218
821.307	26320
821.447	26225
821.588	26031
821.728	25799
821.868	25852
822.008	25643
822.149	25571
822.289	25571
822.429	25263
822.569	25350
822.709	25365
822.849	25190
822.99	25000
823.13	25088
823.27	24996
823.41	24981
823.55	24924
823.69	25057
823.83	25038
823.97	24852
824.11	24677
824.25	24677
824.389	24738
824.529	24882
824.669	24722
824.809	24897
824.949	25004
825.089	24798
825.228	24642
825.368	24593
825.508	24566
825.648	24688
825.787	24585
825.927	24665
826.067	24570
826.206	24608
826.346	24722
826.485	24696
826.625	24646
826.765	24738
826.904	24582
827.044	24422
827.183	24452
827.323	24452
827.462	24429
827.601	24334
827.741	24342
827.88	24513
828.02	24254
828.159	24308
828.298	24262
828.437	24445
828.577	24235
828.716	24475
828.855	24342
828.994	23973
829.134	24053
829.273	24083
829.412	24038
829.551	23958
829.69	24030
829.829	24079
829.968	24216
830.107	24072
830.246	24171
830.385	23935
830.524	24003
830.663	23824
830.802	23783
830.941	23813
831.08	23619
831.219	23771
831.357	23866
831.496	23969
831.635	23608
831.774	23687
831.913	23482
832.051	23497
832.19	23440
832.329	23474
832.467	23417
832.606	23265
832.744	23379
832.883	23341
833.022	23368
833.16	23383
833.299	23330
833.437	23463
833.576	23531
833.714	23341
833.852	23395
833.991	23459
834.129	23535
834.267	23372
834.406	23573
834.544	23497
834.682	23467
834.821	23440
834.959	23676
835.097	23395
835.235	23410
835.373	23543
835.511	23353
835.65	23341
835.788	23166
835.926	23212
836.064	23155
836.202	23143
836.34	23258
836.478	23303
836.615	23322
836.753	23315
836.891	23284
837.029	23311
837.167	23094
837.305	23250
837.443	23025
837.58	22980
837.718	23178
837.856	23117
837.993	23086
838.131	23079
838.269	22953
838.406	23056
838.544	22812
838.681	22809
838.819	22645
838.956	22698
839.094	22687
839.231	22675
839.369	22698
839.506	23083
839.643	22869
839.781	22649
839.918	22557
840.055	22550
840.193	22573
840.33	22599
840.467	22599
840.604	22603
840.742	22892
840.879	22485
841.016	22379
841.153	22413
841.29	22630
841.427	22508
841.564	22538
841.701	22634
841.838	22451
841.975	22497
842.112	22432
842.249	22424
842.385	22268
842.522	22504
842.659	22402
842.796	22139
842.933	22375
843.069	22192
843.206	22272
843.343	22436
843.479	22287
843.616	22428
843.752	22090
843.889	22086
844.025	22234
844.162	22067
844.298	22219
844.435	22006
844.571	22082
844.708	22192
844.844	22287
844.98	22166
845.117	22158
845.253	22051
845.389	21842
845.525	22036
845.661	21857
845.798	21755
845.934	21865
846.07	21873
846.206	21987
846.342	21846
846.478	21720
846.614	21599
846.75	21561
846.886	21568
847.022	21622
847.158	21538
847.294	21603
847.429	21755
847.565	21424
847.701	21857
847.837	21363
847.972	21222
848.108	21408
848.244	21340
848.379	21226
848.515	21138
848.65	21116
848.786	21165
848.921	21104
849.057	21272
849.192	21203
849.328	21138
849.463	21085
849.598	21096
849.734	21005
849.869	20979
850.004	20994
850.14	20857
850.275	21055
850.41	20853
850.545	20880
850.68	20834
850.815	20971
850.95	20838
851.085	21135
851.22	21062
851.355	20887
851.49	20842
851.625	20921
851.76	20861
851.895	20792
852.03	20823
852.165	20933
852.299	20849
852.434	21036
852.569	20963
852.703	20941
852.838	20910
852.973	20990
853.107	21058
853.242	20765
853.376	20853
853.511	20621
853.645	20712
853.78	20895
853.914	20785
854.048	20777
854.183	20754
854.317	20697
854.451	20853
854.585	20800
854.72	20659
854.854	20667
854.988	20708
855.122	20701
855.256	20556
855.39	20823
855.524	20826
855.658	20792
855.792	20693
855.926	20826
856.06	20731
856.194	20944
856.327	20792
856.461	20587
856.595	20632
856.729	20663
856.862	20853
856.996	20811
857.13	20781
857.263	20838
857.397	20800
857.53	20693
857.664	20861
857.797	20823
857.931	20815
858.064	20815
858.197	20895
858.331	20826
858.464	20655
858.597	20644
858.731	20625
858.864	20861
858.997	20632
859.13	20807
859.263	20686
859.396	20834
859.529	20659
859.662	20693
859.795	20727
859.928	20804
860.061	20834
860.194	20963
860.327	20773
860.46	20743
860.592	20872
860.725	20921
860.858	20906
860.99	20826
861.123	20648
861.256	20674
861.388	20705
861.521	21321
861.653	20674
861.786	20526
861.918	20613
862.05	20583
862.183	20686
862.315	20815
862.447	20724
862.58	20686
862.712	20526
862.844	20602
862.976	20522
863.108	20549
863.24	20864
863.372	20377
863.504	20537
863.636	20556
863.768	20522
863.9	20408
864.032	20412
864.164	20328
864.296	20484
864.428	20541
864.559	20560
864.691	20427
864.823	20503
864.954	20336
865.086	20358
865.217	20442
865.349	20271
865.48	20366
865.612	20358
865.743	20537
865.875	20362
866.006	20286
866.137	20450
866.269	20244
866.4	20404
866.531	20336
866.662	20332
866.793	20408
866.924	20385
867.055	20339
867.186	20233
867.317	20309
867.448	20195
867.579	20195
867.71	20252
867.841	20172
867.972	20366
868.103	20404
868.233	20381
868.364	20259
868.495	20412
868.625	20488
868.756	20598
868.886	20377
869.017	20480
869.147	20537
869.278	20609
869.408	20549
869.539	20438
869.669	20670
869.799	20609
869.929	20609
870.06	20712
870.19	20944
870.32	20804
870.45	20826
870.58	20937
870.71	21017
870.84	20994
870.97	20986
871.1	20899
871.23	21150
871.36	21066
871.489	21020
871.619	21081
871.749	21157
871.879	21077
872.008	21310
872.138	21123
872.267	21154
872.397	21043
872.526	20960
872.656	21093
872.785	20963
872.915	21127
873.044	21370
873.173	21226
873.303	21218
873.432	21268
873.561	21272
873.69	21207
873.819	21081
873.948	21108
874.077	21157
874.206	21146
874.335	21096
874.464	21332
874.593	21481
874.722	21298
874.851	21515
874.979	21485
875.108	21477
875.237	21405
875.365	21325
875.494	21313
875.623	21561
875.751	21348
875.88	21454
876.008	21603
876.136	21679
876.265	21842
876.393	22029
876.521	21850
876.65	21827
876.778	21812
876.906	21819
877.034	21808
877.162	21781
877.29	21838
877.418	21838
877.546	21823
877.674	21827
877.802	21819
877.93	21679
878.058	21606
878.185	21652
878.313	21701
878.441	21641
878.568	21679
878.696	21652
878.824	21827
878.951	21850
879.079	21922
879.206	22067
879.333	21964
879.461	21705
879.588	21941
879.715	21861
879.842	22086
879.97	21899
880.097	21656
880.224	21686
880.351	21698
880.478	21739
880.605	21694
880.732	21629
880.859	21892
880.986	21637
881.112	21682
881.239	21523
881.366	21431
881.493	21291
881.619	21226
881.746	21245
881.872	21256
881.999	21211
882.125	21043
882.252	21199
882.378	21256
882.505	21359
882.631	20994
882.757	20952
882.883	21043
883.01	20986
883.136	20944
883.262	20815
883.388	20845
883.514	20902
883.64	20956
883.766	20853
883.892	20670
884.018	20750
884.143	20910
884.269	20952
884.395	20587
884.52	20602
884.646	20568
884.772	20514
884.897	20537
885.023	20625
885.148	20731
885.274	20670
885.399	20693
885.524	20488
885.65	20575
885.775	20541
885.9	20575
886.025	20663
886.15	20663
886.275	20518
886.4	20427
886.525	20434
886.65	20514
886.775	20454
886.9	20686
887.025	20689
887.149	20579
887.274	20381
887.399	20298
887.523	20324
887.648	20301
887.773	20130
887.897	20339
888.021	20317
888.146	20221
888.27	20461
888.395	20473
888.519	20343
888.643	20374
888.767	20358
888.891	20202
889.015	20221
889.139	20092
889.263	20073
889.387	20237
889.511	20377
889.635	20244
889.759	20161
889.883	20153
890.006	20218
890.13	20301
890.254	20027
890.377	20107
890.501	19871
890.624	19883
890.748	19951
890.871	19833
890.995	19704
891.118	19693
891.241	19772
891.364	19750
891.488	19852
891.611	19693
891.734	19696
891.857	19784
891.98	19822
892.103	19776
892.226	19685
892.349	19586
892.471	19506
892.594	19689
892.717	19746
892.839	19559
892.962	19643
893.085	19666
893.207	19556
893.33	19487
893.452	19563
893.575	19624
893.697	19643
893.819	19814
893.941	19864
894.064	19689
894.186	19430
894.308	19613
894.43	19811
894.552	19738
894.674	19788
894.796	19590
894.918	19628
895.04	19567
895.161	19639
895.283	19651
895.405	19537
895.526	19651
895.648	19605
895.769	19727
895.891	19624
896.012	19818
896.134	19616
896.255	19689
896.376	19605
896.498	19559
896.619	19712
896.74	19696
896.861	19689
896.982	19868
897.103	20111
897.224	19845
897.345	19868
897.466	19822
897.587	19879
897.708	20058
897.828	19742
897.949	19860
898.07	19677
898.19	19750
898.311	20016
898.431	19807
898.552	19795
898.672	20027
898.792	19833
898.913	19868
899.033	19784
899.153	19700
899.273	19632
899.393	19639
899.513	19590
899.633	19548
899.753	19677
899.873	19518
899.993	19605
900.113	19624
900.232	19639
900.352	19502
900.472	19464
900.591	19312
900.711	19377
900.83	19274
900.95	19457
901.069	19411
901.189	19274
901.308	19160
901.427	19000
901.546	18947
901.665	18989
901.784	19061
901.904	18848
902.023	18715
902.141	18635
902.26	18479
902.379	18540
902.498	18498
902.617	18513
902.735	18445
902.854	18388
902.973	18441
903.091	18110
903.21	18148
903.328	18159
903.446	18110
903.565	18011
903.683	18038
903.801	17939
903.919	17855
904.038	17866
904.156	17870
904.274	17714
904.392	17627
904.51	17733
904.627	17703
904.745	17885
904.863	17882
904.981	17573
905.098	17516
905.216	17467
905.334	17558
905.451	17528
905.569	17417
905.686	17414
905.803	17482
905.921	17162
906.038	17349
906.155	17315
906.272	17121
906.389	17212
906.506	17014
906.623	16987
906.74	16995
906.857	16873
906.974	16843
907.091	16991
907.208	17048
907.324	16957
907.441	16831
907.557	16580
907.674	16630
907.79	16649
907.907	16672
908.023	16816
908.139	16733
908.256	16641
908.372	16771
908.488	16592
908.604	16489
908.72	16470
908.836	16432
908.952	16356
909.068	16485
909.184	16592
909.3	16497
909.415	16489
909.531	16409
909.647	16238
909.762	16204
909.878	16063
909.993	16158
910.108	16131
910.224	16135
910.339	16059
910.454	15922
910.57	16002
910.685	15854
910.8	16219
910.915	16109
911.03	15934
911.145	15747
911.259	15736
911.374	15679
911.489	15739
911.604	15504
911.718	15488
911.833	15405
911.947	15340
912.062	15405
912.176	15492
912.291	15568
912.405	15591
912.519	15591
912.633	15701
912.748	15538
912.862	15420
912.976	15272
913.09	15150
913.204	15275
913.318	15264
913.431	15401
913.545	15389
913.659	15420
913.772	15230
913.886	15119
914	15062
914.113	15211
914.226	15173
914.34	15154
914.453	14960
914.566	15043
914.68	15066
914.793	14986
914.906	14796
915.019	14792
915.132	14625
915.245	14663
915.358	14731
915.47	14735
915.583	14724
915.696	14739
915.809	14750
915.921	14864
916.034	14670
916.146	14606
916.259	14686
916.371	14678
916.483	14701
916.595	14583
916.708	14518
916.82	14545
916.932	14465
917.044	14568
917.156	14465
917.268	14404
917.38	14454
917.491	14358
917.603	14480
917.715	14446
917.826	14469
917.938	14305
918.049	14225
918.161	14381
918.272	14492
918.384	14473
918.495	14415
918.606	14317
918.717	14035
918.828	14202
918.939	14278
919.05	14126
919.161	14123
919.272	13898
919.383	14065
919.494	14176
919.604	14301
919.715	14176
919.826	14161
919.936	14100
920.047	14168
920.157	14081
920.267	14362
920.378	14138
920.488	14134
920.598	14244
920.708	14339
920.818	14233
920.928	14278
921.038	14419
921.148	14450
921.258	14016
921.368	14005
921.477	13959
921.587	13883
921.697	13731
921.806	13879
921.916	13807
922.025	13525
922.134	13499
922.244	13594
922.353	13666
922.462	13377
922.571	13251
922.68	13217
922.789	13133
922.898	13206
923.007	13126
923.116	13206
923.224	13141
923.333	13137
923.442	13012
923.55	12973
923.659	13019
923.767	13156
923.876	13019
923.984	13046
924.092	12905
924.201	12875
924.309	12837
924.417	12852
924.525	12897
924.633	12867
924.741	13868
924.849	12741
924.956	12810
925.064	12555
925.172	12616
925.279	12566
925.387	12700
925.494	12696
925.602	12802
925.709	12715
925.816	12494
925.924	12551
926.031	12669
926.138	12601
926.245	12597
926.352	12525
926.459	12532
926.566	12608
926.673	12490
926.779	12399
926.886	12330
926.993	12159
927.099	12254
927.206	12277
927.312	12270
927.419	12182
927.525	12163
927.631	12136
927.737	12163
927.843	12068
927.95	11870
928.056	11950
928.162	12136
928.267	12079
928.373	12623
928.479	12148
928.585	11840
928.69	11977
928.796	12053
928.901	11874
929.007	11703
929.112	11927
929.218	11859
929.323	11748
929.428	11684
929.533	11859
929.638	11688
929.743	11684
929.848	11783
929.953	11733
930.058	11600
930.163	11436
930.267	11516
930.372	11581
930.477	11353
930.581	11630
930.685	11562
930.79	11364
930.894	11482
930.998	11330
931.103	11474
931.207	11147
931.311	11105
931.415	10923
931.519	10755
931.623	10748
