Data from test_V78500241_3584.txt Node
Date: Fri Mar 25 15:34:48 CST 2022
User: usil
Spectrometer: V785-0024
Trigger mode: 0
Integration Time (sec): 4.000000E-1
Scans to average: 1
Nonlinearity correction enabled: false
Boxcar width: 0
Storing dark spectrum: false
XAxis mode: Wavelengths
Number of Pixels in Spectrum: 1024
>>>>>Begin Spectral Data<<<<<
801.071	27367
801.214	27283
801.356	27157
801.499	26990
801.641	26880
801.783	26944
801.926	26929
802.068	26940
802.211	26739
802.353	26796
802.496	26769
802.638	26480
802.78	26537
802.923	26465
803.065	26351
803.208	26408
803.35	26613
803.492	26765
803.635	26587
803.777	26594
803.919	26651
804.061	27032
804.204	26746
804.346	26473
804.488	26530
804.63	26792
804.773	26659
804.915	26670
805.057	26819
805.199	26663
805.341	26819
805.483	26670
805.626	26792
805.768	26705
805.91	26845
806.052	26914
806.194	26762
806.336	27001
806.478	26750
806.62	26727
806.762	26956
806.904	27154
807.046	27298
807.188	27146
807.33	27077
807.472	27184
807.614	27043
807.756	27272
807.898	27001
808.04	26963
808.182	26906
808.324	27032
808.465	27039
808.607	27138
808.749	27367
808.891	27424
809.033	27523
809.174	27568
809.316	27332
809.458	27397
809.6	27370
809.741	27454
809.883	27420
810.025	27648
810.166	27800
810.308	27705
810.45	27762
810.591	27781
810.733	27496
810.875	27488
811.016	27454
811.158	27378
811.299	27564
811.441	27595
811.582	27561
811.724	27393
811.865	27405
812.007	27298
812.148	27325
812.29	27545
812.431	27431
812.573	27656
812.714	27743
812.855	27789
812.997	27914
813.138	28067
813.279	28032
813.421	27964
813.562	27846
813.703	27797
813.845	27511
813.986	27272
814.127	26952
814.268	26971
814.41	27074
814.551	27070
814.692	27146
814.833	26998
814.974	27093
815.115	27077
815.256	26857
815.397	26765
815.539	26880
815.68	26918
815.821	26716
815.962	26830
816.103	26636
816.244	26678
816.385	26533
816.526	26568
816.666	26541
816.807	26366
816.948	26282
817.089	26427
817.23	26332
817.371	26336
817.512	26301
817.653	26343
817.793	26202
817.934	26214
818.075	26278
818.216	26263
818.356	26248
818.497	26313
818.638	26065
818.778	26027
818.919	26027
819.06	26134
819.2	26199
819.341	26278
819.481	26286
819.622	26469
819.762	26769
819.903	26552
820.043	26393
820.184	26473
820.324	26415
820.465	26549
820.605	26450
820.746	26324
820.886	26244
821.026	26309
821.167	26393
821.307	26473
821.447	26332
821.588	26183
821.728	26100
821.868	26043
822.008	25811
822.149	25704
822.289	25533
822.429	25567
822.569	25441
822.709	25468
822.849	25293
822.99	25240
823.13	25354
823.27	25194
823.41	25031
823.55	25008
823.69	25027
823.83	25122
823.97	24954
824.11	24795
824.25	24939
824.389	24878
824.529	24977
824.669	24951
824.809	25042
824.949	24996
825.089	25152
825.228	25023
825.368	24886
825.508	24719
825.648	24681
825.787	24871
825.927	24871
826.067	24802
826.206	24760
826.346	24909
826.485	24779
826.625	24844
826.765	24924
826.904	24833
827.044	24513
827.183	24696
827.323	24300
827.462	24639
827.601	24437
827.741	24544
827.88	24551
828.02	24403
828.159	24437
828.298	24604
828.437	24547
828.577	24525
828.716	24441
828.855	24384
828.994	24327
829.134	24190
829.273	24220
829.412	24125
829.551	24300
829.69	24327
829.829	24178
829.968	24346
830.107	24235
830.246	24159
830.385	24201
830.524	24129
830.663	23977
830.802	23969
830.941	23863
831.08	23786
831.219	23878
831.357	23878
831.496	24076
831.635	23912
831.774	23687
831.913	23619
832.051	23665
832.19	23634
832.329	23604
832.467	23459
832.606	23455
832.744	23356
832.883	23414
833.022	23558
833.16	23398
833.299	23551
833.437	23619
833.576	23505
833.714	23630
833.852	23665
833.991	23577
834.129	23649
834.267	23581
834.406	23547
834.544	23589
834.682	23589
834.821	23554
834.959	23863
835.097	23520
835.235	23623
835.373	23676
835.511	23646
835.65	23486
835.788	23433
835.926	23277
836.064	23189
836.202	23303
836.34	23425
836.478	23490
836.615	23444
836.753	23433
836.891	23448
837.029	23444
837.167	23315
837.305	23379
837.443	23372
837.58	23265
837.718	23463
837.856	23254
837.993	23254
838.131	23261
838.269	23128
838.406	23178
838.544	23102
838.681	23052
838.819	22873
838.956	22755
839.094	22683
839.231	22778
839.369	22915
839.506	23143
839.643	23113
839.781	22786
839.918	22656
840.055	22786
840.193	22755
840.33	22713
840.467	22805
840.604	22729
840.742	23006
840.879	22599
841.016	22618
841.153	22550
841.29	22782
841.427	22710
841.564	22740
841.701	22797
841.838	22755
841.975	22679
842.112	22611
842.249	22599
842.385	22405
842.522	22694
842.659	22599
842.796	22375
842.933	22462
843.069	22291
843.206	22394
843.343	22500
843.479	22466
843.616	22641
843.752	22074
843.889	22246
844.025	22344
844.162	22185
844.298	22234
844.435	22188
844.571	22219
844.708	22276
844.844	22485
844.98	22360
845.117	22257
845.253	22173
845.389	22207
845.525	22192
845.661	22139
845.798	21873
845.934	21911
846.07	21903
846.206	22048
846.342	22029
846.478	21831
846.614	21850
846.75	21667
846.886	21675
847.022	21903
847.158	21717
847.294	21732
847.429	21762
847.565	21663
847.701	21911
847.837	21374
847.972	21317
848.108	21561
848.244	21545
848.379	21283
848.515	21374
848.65	21321
848.786	21218
848.921	21279
849.057	21287
849.192	21412
849.328	21283
849.463	21291
849.598	21351
849.734	21176
849.869	21039
850.004	21055
850.14	20975
850.275	21157
850.41	20956
850.545	20929
850.68	21089
850.815	21123
850.95	21062
851.085	21252
851.22	21245
851.355	21131
851.49	21036
851.625	21005
851.76	21020
851.895	20982
852.03	20967
852.165	21043
852.299	21058
852.434	21039
852.569	21165
852.703	21024
852.838	21055
852.973	21161
853.107	21157
853.242	20963
853.376	20895
853.511	20807
853.645	20807
853.78	21028
853.914	20857
854.048	20998
854.183	20921
854.317	21028
854.451	21116
854.585	20952
854.72	20918
854.854	20963
854.988	20864
855.122	20960
855.256	20834
855.39	20990
855.524	21032
855.658	20979
855.792	20910
855.926	20872
856.06	20975
856.194	20986
856.327	20826
856.461	20956
856.595	20720
856.729	20910
856.862	20998
856.996	20887
857.13	20834
857.263	20944
857.397	20880
857.53	20929
857.664	20937
857.797	20948
857.931	20842
858.064	21036
858.197	20967
858.331	20861
858.464	20807
858.597	20792
858.731	20910
858.864	20887
858.997	20933
859.13	20918
859.263	20948
859.396	21001
859.529	20872
859.662	20914
859.795	20880
859.928	20963
860.061	21119
860.194	21119
860.327	21096
860.46	20925
860.592	20918
860.725	21074
860.858	21028
860.99	20963
861.123	20826
861.256	20800
861.388	20849
861.521	21819
861.653	20743
861.786	20686
861.918	20743
862.05	20750
862.183	20906
862.315	20823
862.447	20826
862.58	20708
862.712	20640
862.844	20530
862.976	20693
863.108	20686
863.24	20956
863.372	20537
863.504	20697
863.636	20648
863.768	20629
863.9	20686
864.032	20579
864.164	20571
864.296	20693
864.428	20773
864.559	20701
864.691	20724
864.823	20640
864.954	20636
865.086	20579
865.217	20507
865.349	20442
865.48	20530
865.612	20560
865.743	20590
865.875	20564
866.006	20492
866.137	20442
866.269	20594
866.4	20385
866.531	20537
866.662	20473
866.793	20465
866.924	20450
867.055	20541
867.186	20530
867.317	20396
867.448	20366
867.579	20366
867.71	20434
867.841	20526
867.972	20598
868.103	20431
868.233	20423
868.364	20522
868.495	20514
868.625	20674
868.756	20750
868.886	20625
869.017	20750
869.147	20834
869.278	20853
869.408	20785
869.539	20735
869.669	20743
869.799	20682
869.929	20956
870.06	20796
870.19	20994
870.32	21066
870.45	20960
870.58	21085
870.71	21142
870.84	21138
870.97	21135
871.1	21093
871.23	21218
871.36	21287
871.489	21214
871.619	21313
871.749	21279
871.879	21298
872.008	21386
872.138	21192
872.267	21420
872.397	21214
872.526	21020
872.656	21157
872.785	21131
872.915	21268
873.044	21332
873.173	21401
873.303	21310
873.432	21367
873.561	21530
873.69	21268
873.819	21359
873.948	21378
874.077	21412
874.206	21272
874.335	21241
874.464	21447
874.593	21523
874.722	21572
874.851	21705
874.979	21534
875.108	21656
875.237	21519
875.365	21542
875.494	21633
875.623	21606
875.751	21488
875.88	21614
876.008	21701
876.136	21873
876.265	22002
876.393	22078
876.521	22051
876.65	22002
876.778	21991
876.906	21804
877.034	21876
877.162	21941
877.29	21888
877.418	21949
877.546	21991
877.674	21975
877.802	21998
877.93	21892
878.058	21800
878.185	21762
878.313	21827
878.441	21930
878.568	21743
878.696	21857
878.824	22063
878.951	21808
879.079	22021
879.206	22226
879.333	22074
879.461	21876
879.588	21991
879.715	22116
879.842	22242
879.97	21998
880.097	21800
880.224	21762
880.351	21922
880.478	21785
880.605	21766
880.732	21755
880.859	21899
880.986	21728
881.112	21808
881.239	21580
881.366	21420
881.493	21386
881.619	21393
881.746	21443
881.872	21393
881.999	21203
882.125	21241
882.252	21298
882.378	21378
882.505	21310
882.631	21150
882.757	21116
882.883	21138
883.01	21043
883.136	21001
883.262	20918
883.388	20845
883.514	21028
883.64	21173
883.766	21070
883.892	20769
884.018	20769
884.143	20979
884.269	21093
884.395	20906
884.52	20670
884.646	20735
884.772	20613
884.897	20545
885.023	20746
885.148	20743
885.274	20800
885.399	20648
885.524	20743
885.65	20792
885.775	20712
885.9	20560
886.025	20788
886.15	20739
886.275	20708
886.4	20549
886.525	20689
886.65	20560
886.775	20674
886.9	20720
887.025	20777
887.149	20800
887.274	20465
887.399	20400
887.523	20476
887.648	20412
887.773	20347
887.897	20556
888.021	20541
888.146	20488
888.27	20473
888.395	20488
888.519	20492
888.643	20518
888.767	20488
888.891	20328
889.015	20259
889.139	20332
889.263	20248
889.387	20358
889.511	20370
889.635	20469
889.759	20199
889.883	20305
890.006	20214
890.13	20328
890.254	20172
890.377	20206
890.501	19906
890.624	19921
890.748	20081
890.871	19963
890.995	19753
891.118	19734
891.241	19738
891.364	19750
891.488	19944
891.611	19769
891.734	19871
891.857	19830
891.98	19871
892.103	19947
892.226	19890
892.349	19803
892.471	19578
892.594	19788
892.717	19841
892.839	19712
892.962	19704
893.085	19826
893.207	19784
893.33	19616
893.452	19791
893.575	19818
893.697	19769
893.819	19932
893.941	19913
894.064	19906
894.186	19643
894.308	19635
894.43	19822
894.552	19814
894.674	19772
894.796	19658
894.918	19734
895.04	19837
895.161	19757
895.283	19731
895.405	19632
895.526	19750
895.648	19632
895.769	19643
895.891	19830
896.012	19826
896.134	19894
896.255	19700
896.376	19639
896.498	19746
896.619	19753
896.74	19784
896.861	19883
896.982	20100
897.103	20237
897.224	20054
897.345	19856
897.466	19883
897.587	19951
897.708	20153
897.828	20005
897.949	19890
898.07	19811
898.19	19974
898.311	20084
898.431	19921
898.552	20024
898.672	20077
898.792	20130
898.913	19982
899.033	19883
899.153	19772
899.273	19723
899.393	19723
899.513	19864
899.633	19647
899.753	19818
899.873	19594
899.993	19753
900.113	19677
900.232	19788
900.352	19594
900.472	19499
900.591	19624
900.711	19529
900.83	19567
900.95	19502
901.069	19624
901.189	19339
901.308	19179
901.427	19126
901.546	19244
901.665	19057
901.784	19031
901.904	19027
902.023	18901
902.141	18654
902.26	18738
902.379	18677
902.498	18623
902.617	18597
902.735	18616
902.854	18547
902.973	18593
903.091	18220
903.21	18334
903.328	18365
903.446	18163
903.565	18072
903.683	18102
903.801	17908
903.919	18011
904.038	18030
904.156	17897
904.274	17939
904.392	17790
904.51	17969
904.627	17931
904.745	17866
904.863	17870
904.981	17680
905.098	17592
905.216	17535
905.334	17509
905.451	17512
905.569	17539
905.686	17627
905.803	17467
905.921	17284
906.038	17474
906.155	17326
906.272	17166
906.389	17269
906.506	17098
906.623	17220
906.74	17094
906.857	16934
906.974	16976
907.091	17121
907.208	17128
907.324	17124
907.441	16911
907.557	16698
907.674	16850
907.79	16767
907.907	16675
908.023	16816
908.139	16885
908.256	16778
908.372	16668
908.488	16694
908.604	16558
908.72	16542
908.836	16538
908.952	16459
909.068	16569
909.184	16596
909.3	16565
909.415	16500
909.531	16405
909.647	16325
909.762	16306
909.878	16192
909.993	16188
910.108	16150
910.224	16112
910.339	16162
910.454	16128
910.57	16051
910.685	15880
910.8	16234
910.915	16234
911.03	16082
911.145	15892
911.259	15854
911.374	15842
911.489	15816
911.604	15759
911.718	15542
911.833	15572
911.947	15500
912.062	15500
912.176	15614
912.291	15667
912.405	15587
912.519	15709
912.633	15838
912.748	15705
912.862	15553
912.976	15420
913.09	15279
913.204	15351
913.318	15367
913.431	15511
913.545	15431
913.659	15549
913.772	15408
913.886	15218
914	15298
914.113	15275
914.226	15283
914.34	15252
914.453	15112
914.566	15188
914.68	15051
914.793	15047
914.906	14895
915.019	14750
915.132	14670
915.245	14887
915.358	14857
915.47	14823
915.583	14769
915.696	14933
915.809	14914
915.921	15024
916.034	14659
916.146	14720
916.259	14804
916.371	14872
916.483	14746
916.595	14663
916.708	14606
916.82	14640
916.932	14644
917.044	14549
917.156	14636
917.268	14579
917.38	14564
917.491	14461
917.603	14461
917.715	14556
917.826	14537
917.938	14454
918.049	14355
918.161	14484
918.272	14473
918.384	14530
918.495	14457
918.606	14259
918.717	14259
918.828	14343
918.939	14324
919.05	14069
919.161	14218
919.272	14084
919.383	14130
919.494	14275
919.604	14469
919.715	14244
919.826	14130
919.936	14172
920.047	14278
920.157	14244
920.267	14385
920.378	14134
920.488	14229
920.598	14355
920.708	14389
920.818	14324
920.928	14336
921.038	14587
921.148	14476
921.258	14187
921.368	14100
921.477	13940
921.587	13970
921.697	13868
921.806	14008
921.916	13837
922.025	13639
922.134	13597
922.244	13540
922.353	13662
922.462	13502
922.571	13426
922.68	13388
922.789	13263
922.898	13343
923.007	13251
923.116	13274
923.224	13247
923.333	13304
923.442	13088
923.55	13137
923.659	13202
923.767	13050
923.876	12947
923.984	13034
924.092	13008
924.201	13057
924.309	12989
924.417	12958
924.525	12993
924.633	13000
924.741	13871
924.849	12627
924.956	12916
925.064	12700
925.172	12681
925.279	12741
925.387	12730
925.494	12791
925.602	12825
925.709	12829
925.816	12494
925.924	12715
926.031	12791
926.138	12673
926.245	12669
926.352	12517
926.459	12738
926.566	12726
926.673	12521
926.779	12525
926.886	12380
926.993	12319
927.099	12346
927.206	12285
927.312	12140
927.419	12315
927.525	12270
927.631	12327
927.737	12220
927.843	12110
927.95	12034
928.056	12228
928.162	12144
928.267	12190
928.373	12658
928.479	12186
928.585	11984
928.69	12015
928.796	12190
928.901	11977
929.007	11893
929.112	12041
929.218	11950
929.323	11870
929.428	11897
929.533	11969
929.638	11756
929.743	11760
929.848	11870
929.953	11767
930.058	11668
930.163	11501
930.267	11570
930.372	11707
930.477	11516
930.581	11703
930.685	11532
930.79	11512
930.894	11459
930.998	11406
931.103	11570
931.207	11189
931.311	11140
931.415	10991
931.519	10828
931.623	10759
