Data from test_V78500241_3466.txt Node
Date: Fri Mar 25 15:33:59 CST 2022
User: usil
Spectrometer: V785-0024
Trigger mode: 0
Integration Time (sec): 4.000000E-1
Scans to average: 1
Nonlinearity correction enabled: false
Boxcar width: 0
Storing dark spectrum: false
XAxis mode: Wavelengths
Number of Pixels in Spectrum: 1024
>>>>>Begin Spectral Data<<<<<
801.071	27211
801.214	27264
801.356	27081
801.499	26925
801.641	26800
801.783	26906
801.926	26918
802.068	26807
802.211	26663
802.353	26621
802.496	26609
802.638	26511
802.78	26530
802.923	26419
803.065	26324
803.208	26305
803.35	26427
803.492	26560
803.635	26571
803.777	26480
803.919	26659
804.061	27009
804.204	26564
804.346	26579
804.488	26404
804.63	26537
804.773	26385
804.915	26613
805.057	26720
805.199	26629
805.341	26632
805.483	26606
805.626	26682
805.768	26625
805.91	26773
806.052	26655
806.194	26484
806.336	26963
806.478	26644
806.62	26674
806.762	26750
806.904	27085
807.046	27241
807.188	27123
807.33	27081
807.472	27066
807.614	27058
807.756	27154
807.898	26952
808.04	26842
808.182	26910
808.324	26982
808.465	26994
808.607	27203
808.749	27367
808.891	27332
809.033	27416
809.174	27272
809.316	27245
809.458	27230
809.6	27146
809.741	27302
809.883	27447
810.025	27553
810.166	27534
810.308	27549
810.45	27625
810.591	27545
810.733	27416
810.875	27310
811.016	27203
811.158	27207
811.299	27329
811.441	27526
811.582	27538
811.724	27355
811.865	27211
812.007	27222
812.148	27176
812.29	27298
812.431	27378
812.573	27576
812.714	27545
812.855	27846
812.997	27709
813.138	28010
813.279	27873
813.421	27781
813.562	27747
813.703	27614
813.845	27561
813.986	27207
814.127	27077
814.268	26834
814.41	26842
814.551	26895
814.692	26998
814.833	26963
814.974	26857
815.115	26815
815.256	26701
815.397	26830
815.539	26792
815.68	26746
815.821	26689
815.962	26762
816.103	26651
816.244	26484
816.385	26473
816.526	26621
816.666	26332
816.807	26050
816.948	26145
817.089	26309
817.23	26343
817.371	26237
817.512	26267
817.653	26172
817.793	26202
817.934	26195
818.075	26172
818.216	26317
818.356	26256
818.497	26122
818.638	25864
818.778	26005
818.919	25986
819.06	25940
819.2	26073
819.341	26145
819.481	26153
819.622	26202
819.762	26541
819.903	26484
820.043	26347
820.184	26415
820.324	26263
820.465	26408
820.605	26267
820.746	26301
820.886	26069
821.026	26221
821.167	26259
821.307	26343
821.447	26202
821.588	26100
821.728	25906
821.868	25811
822.008	25693
822.149	25647
822.289	25685
822.429	25259
822.569	25297
822.709	25278
822.849	25145
822.99	25244
823.13	25046
823.27	25050
823.41	25042
823.55	24848
823.69	24935
823.83	24992
823.97	24886
824.11	24776
824.25	24791
824.389	24715
824.529	24806
824.669	24928
824.809	24973
824.949	24878
825.089	25004
825.228	24863
825.368	24749
825.508	24627
825.648	24711
825.787	24646
825.927	24597
826.067	24601
826.206	24646
826.346	24760
826.485	24654
826.625	24730
826.765	24882
826.904	24760
827.044	24380
827.183	24479
827.323	24437
827.462	24467
827.601	24323
827.741	24281
827.88	24509
828.02	24216
828.159	24456
828.298	24452
828.437	24388
828.577	24319
828.716	24494
828.855	24239
828.994	24098
829.134	24030
829.273	24121
829.412	24095
829.551	24102
829.69	24117
829.829	24152
829.968	24243
830.107	24262
830.246	24114
830.385	23942
830.524	24163
830.663	23969
830.802	23984
830.941	23790
831.08	23722
831.219	23836
831.357	23783
831.496	23908
831.635	23718
831.774	23551
831.913	23691
832.051	23615
832.19	23467
832.329	23433
832.467	23452
832.606	23402
832.744	23433
832.883	23417
833.022	23391
833.16	23288
833.299	23410
833.437	23429
833.576	23562
833.714	23406
833.852	23539
833.991	23615
834.129	23505
834.267	23497
834.406	23493
834.544	23539
834.682	23482
834.821	23368
834.959	23589
835.097	23379
835.235	23406
835.373	23410
835.511	23448
835.65	23383
835.788	23334
835.926	23189
836.064	23140
836.202	23159
836.34	23277
836.478	23364
836.615	23376
836.753	23311
836.891	23395
837.029	23356
837.167	23334
837.305	23223
837.443	23227
837.58	23181
837.718	23094
837.856	23223
837.993	22965
838.131	23117
838.269	23155
838.406	23136
838.544	22850
838.681	22835
838.819	22782
838.956	22645
839.094	22622
839.231	22656
839.369	22763
839.506	22946
839.643	22835
839.781	22672
839.918	22569
840.055	22706
840.193	22599
840.33	22535
840.467	22717
840.604	22637
840.742	22812
840.879	22398
841.016	22527
841.153	22527
841.29	22736
841.427	22523
841.564	22554
841.701	22592
841.838	22584
841.975	22455
842.112	22497
842.249	22489
842.385	22344
842.522	22500
842.659	22375
842.796	22382
842.933	22333
843.069	22207
843.206	22306
843.343	22398
843.479	22409
843.616	22310
843.752	22124
843.889	22090
844.025	22230
844.162	22063
844.298	22303
844.435	22097
844.571	22006
844.708	22112
844.844	22219
844.98	22249
845.117	22150
845.253	21998
845.389	22078
845.525	22093
845.661	21975
845.798	21915
845.934	21934
846.07	21876
846.206	21945
846.342	21964
846.478	21888
846.614	21675
846.75	21526
846.886	21515
847.022	21663
847.158	21694
847.294	21530
847.429	21675
847.565	21629
847.701	21857
847.837	21241
847.972	21317
848.108	21439
848.244	21481
848.379	21188
848.515	21150
848.65	21077
848.786	21184
848.921	21218
849.057	21146
849.192	21252
849.328	21283
849.463	21203
849.598	21104
849.734	20948
849.869	21116
850.004	21093
850.14	20944
850.275	20929
850.41	20868
850.545	20891
850.68	20918
850.815	21024
850.95	20887
851.085	21116
851.22	21032
851.355	20960
851.49	20948
851.625	20887
851.76	20842
851.895	20971
852.03	20823
852.165	20929
852.299	21047
852.434	20906
852.569	21032
852.703	20998
852.838	20952
852.973	21123
853.107	21116
853.242	20960
853.376	20830
853.511	20648
853.645	20796
853.78	20724
853.914	20815
854.048	20765
854.183	20754
854.317	20731
854.451	21017
854.585	20819
854.72	20807
854.854	20861
854.988	20663
855.122	20735
855.256	20629
855.39	20777
855.524	20823
855.658	20925
855.792	20910
855.926	20864
856.06	20982
856.194	20857
856.327	20845
856.461	20769
856.595	20819
856.729	20701
856.862	20914
856.996	20708
857.13	20887
857.263	20941
857.397	20838
857.53	20735
857.664	20857
857.797	20731
857.931	21020
858.064	20804
858.197	20823
858.331	20834
858.464	20621
858.597	20659
858.731	20659
858.864	20762
858.997	20758
859.13	20754
859.263	20804
859.396	20910
859.529	20823
859.662	20743
859.795	20754
859.928	20895
860.061	20910
860.194	21062
860.327	20895
860.46	20834
860.592	20910
860.725	20880
860.858	20826
860.99	20754
861.123	20754
861.256	20762
861.388	20762
861.521	21488
861.653	20655
861.786	20606
861.918	20613
862.05	20765
862.183	20804
862.315	20731
862.447	20743
862.58	20636
862.712	20640
862.844	20545
862.976	20552
863.108	20621
863.24	21028
863.372	20412
863.504	20560
863.636	20442
863.768	20640
863.9	20431
864.032	20385
864.164	20450
864.296	20568
864.428	20533
864.559	20613
864.691	20571
864.823	20442
864.954	20412
865.086	20427
865.217	20503
865.349	20294
865.48	20408
865.612	20438
865.743	20488
865.875	20381
866.006	20415
866.137	20343
866.269	20385
866.4	20343
866.531	20309
866.662	20347
866.793	20393
866.924	20362
867.055	20275
867.186	20339
867.317	20282
867.448	20298
867.579	20404
867.71	20244
867.841	20271
867.972	20400
868.103	20450
868.233	20343
868.364	20389
868.495	20488
868.625	20484
868.756	20587
868.886	20556
869.017	20590
869.147	20712
869.278	20739
869.408	20526
869.539	20609
869.669	20689
869.799	20640
869.929	20617
870.06	20785
870.19	20868
870.32	20872
870.45	20918
870.58	20815
870.71	21020
870.84	21055
870.97	21047
871.1	21005
871.23	21169
871.36	21237
871.489	21127
871.619	21283
871.749	21241
871.879	21116
872.008	21310
872.138	21264
872.267	21176
872.397	21112
872.526	21085
872.656	21005
872.785	21009
872.915	21291
873.044	21256
873.173	21173
873.303	21188
873.432	21230
873.561	21313
873.69	21192
873.819	21230
873.948	21230
874.077	21142
874.206	21077
874.335	21245
874.464	21405
874.593	21542
874.722	21336
874.851	21431
874.979	21340
875.108	21557
875.237	21542
875.365	21382
875.494	21458
875.623	21488
875.751	21526
875.88	21485
876.008	21435
876.136	21663
876.265	21861
876.393	21911
876.521	21953
876.65	21956
876.778	21949
876.906	21762
877.034	21800
877.162	21842
877.29	21770
877.418	21793
877.546	21884
877.674	21759
877.802	21751
877.93	21793
878.058	21728
878.185	21564
878.313	21827
878.441	21808
878.568	21732
878.696	21686
878.824	21785
878.951	21865
879.079	21888
879.206	22086
879.333	21895
879.461	21861
879.588	21926
879.715	21842
879.842	22063
879.97	21812
880.097	21728
880.224	21606
880.351	21675
880.478	21538
880.605	21545
880.732	21618
880.859	21846
880.986	21717
881.112	21622
881.239	21561
881.366	21321
881.493	21260
881.619	21275
881.746	21268
881.872	21157
881.999	21081
882.125	21336
882.252	21275
882.378	21291
882.505	21252
882.631	21081
882.757	20899
882.883	20929
883.01	20960
883.136	20876
883.262	20819
883.388	20785
883.514	20948
883.64	21055
883.766	20899
883.892	20724
884.018	20765
884.143	20952
884.269	20864
884.395	20655
884.52	20667
884.646	20663
884.772	20450
884.897	20396
885.023	20674
885.148	20697
885.274	20693
885.399	20788
885.524	20674
885.65	20629
885.775	20655
885.9	20545
886.025	20640
886.15	20670
886.275	20511
886.4	20587
886.525	20636
886.65	20465
886.775	20503
886.9	20708
887.025	20750
887.149	20564
887.274	20415
887.399	20355
887.523	20400
887.648	20358
887.773	20275
887.897	20412
888.021	20339
888.146	20301
888.27	20419
888.395	20377
888.519	20370
888.643	20271
888.767	20385
888.891	20244
889.015	20134
889.139	20187
889.263	20218
889.387	20248
889.511	20294
889.635	20263
889.759	20122
889.883	20130
890.006	20134
890.13	20286
890.254	20142
890.377	20092
890.501	19875
890.624	19879
890.748	19944
890.871	19814
890.995	19715
891.118	19750
891.241	19750
891.364	19860
891.488	19795
891.611	19811
891.734	19643
891.857	19643
891.98	19651
892.103	19830
892.226	19753
892.349	19761
892.471	19537
892.594	19795
892.717	19575
892.839	19643
892.962	19677
893.085	19753
893.207	19674
893.33	19438
893.452	19601
893.575	19757
893.697	19616
893.819	19875
893.941	19704
894.064	19761
894.186	19681
894.308	19597
894.43	19761
894.552	19712
894.674	19734
894.796	19563
894.918	19559
895.04	19655
895.161	19791
895.283	19681
895.405	19662
895.526	19597
895.648	19674
895.769	19632
895.891	19704
896.012	19715
896.134	19712
896.255	19613
896.376	19620
896.498	19548
896.619	19837
896.74	19567
896.861	19635
896.982	19947
897.103	20065
897.224	19951
897.345	19871
897.466	19883
897.587	19845
897.708	20062
897.828	19879
897.949	19791
898.07	19696
898.19	19849
898.311	20043
898.431	19761
898.552	19902
898.672	19974
898.792	19989
898.913	19947
899.033	19685
899.153	19685
899.273	19556
899.393	19628
899.513	19616
899.633	19712
899.753	19609
899.873	19502
899.993	19742
900.113	19480
900.232	19601
900.352	19624
900.472	19563
900.591	19396
900.711	19373
900.83	19297
900.95	19480
901.069	19415
901.189	19339
901.308	18943
901.427	19000
901.546	19000
901.665	18935
901.784	18943
901.904	18848
902.023	18798
902.141	18486
902.26	18673
902.379	18620
902.498	18513
902.617	18395
902.735	18467
902.854	18456
902.973	18365
903.091	18247
903.21	18140
903.328	18129
903.446	18129
903.565	18011
903.683	17999
903.801	17954
903.919	18015
904.038	18087
904.156	17771
904.274	17908
904.392	17783
904.51	17729
904.627	17760
904.745	17786
904.863	17874
904.981	17592
905.098	17433
905.216	17448
905.334	17516
905.451	17353
905.569	17345
905.686	17452
905.803	17421
905.921	17197
906.038	17383
906.155	17220
906.272	17113
906.389	17075
906.506	17014
906.623	17025
906.74	16881
906.857	16896
906.974	17025
907.091	17045
907.208	17098
907.324	16961
907.441	16847
907.557	16786
907.674	16725
907.79	16675
907.907	16691
908.023	16759
908.139	16740
908.256	16584
908.372	16637
908.488	16466
908.604	16481
908.72	16405
908.836	16398
908.952	16466
909.068	16379
909.184	16538
909.3	16421
909.415	16500
909.531	16394
909.647	16200
909.762	16192
909.878	16002
909.993	16147
910.108	16040
910.224	16029
910.339	16109
910.454	16093
910.57	16013
910.685	15915
910.8	16207
910.915	16086
911.03	15869
911.145	15724
911.259	15823
911.374	15747
911.489	15652
911.604	15652
911.718	15523
911.833	15534
911.947	15576
912.062	15325
912.176	15420
912.291	15477
912.405	15542
912.519	15717
912.633	15656
912.748	15542
912.862	15393
912.976	15359
913.09	15176
913.204	15348
913.318	15329
913.431	15397
913.545	15412
913.659	15348
913.772	15306
913.886	15203
914	15104
914.113	15192
914.226	15230
914.34	15188
914.453	15028
914.566	15157
914.68	15062
914.793	14895
914.906	14902
915.019	14804
915.132	14648
915.245	14720
915.358	14727
915.47	14765
915.583	14777
915.696	14777
915.809	14872
915.921	14777
916.034	14632
916.146	14670
916.259	14621
916.371	14720
916.483	14697
916.595	14579
916.708	14670
916.82	14651
916.932	14514
917.044	14514
917.156	14480
917.268	14385
917.38	14457
917.491	14431
917.603	14396
917.715	14488
917.826	14461
917.938	14377
918.049	14290
918.161	14336
918.272	14499
918.384	14469
918.495	14355
918.606	14107
918.717	14130
918.828	14214
918.939	14259
919.05	14024
919.161	14134
919.272	13986
919.383	14027
919.494	14248
919.604	14305
919.715	14149
919.826	14027
919.936	14187
920.047	14180
920.157	14168
920.267	14290
920.378	14252
920.488	14077
920.598	14309
920.708	14415
920.818	14271
920.928	14290
921.038	14442
921.148	14446
921.258	14008
921.368	13978
921.477	13925
921.587	13894
921.697	13769
921.806	13906
921.916	13738
922.025	13658
922.134	13544
922.244	13476
922.353	13681
922.462	13434
922.571	13339
922.68	13331
922.789	13190
922.898	13145
923.007	13072
923.116	13255
923.224	13160
923.333	13099
923.442	13015
923.55	13023
923.659	13057
923.767	13065
923.876	12993
923.984	12981
924.092	12890
924.201	12913
924.309	12897
924.417	12935
924.525	12901
924.633	12920
924.741	13586
924.849	12681
924.956	12787
925.064	12620
925.172	12631
925.279	12684
925.387	12601
925.494	12578
925.602	12707
925.709	12665
925.816	12410
925.924	12585
926.031	12627
926.138	12509
926.245	12673
926.352	12547
926.459	12684
926.566	12650
926.673	12483
926.779	12414
926.886	12407
926.993	12224
927.099	12140
927.206	12213
927.312	12148
927.419	12277
927.525	12163
927.631	12243
927.737	12140
927.843	12015
927.95	11916
928.056	12026
928.162	11996
928.267	12060
928.373	12532
928.479	12114
928.585	11809
928.69	11977
928.796	12140
928.901	11824
929.007	11802
929.112	11851
929.218	11756
929.323	11771
929.428	11764
929.533	11893
929.638	11756
929.743	11729
929.848	11748
929.953	11760
930.058	11623
930.163	11436
930.267	11478
930.372	11547
930.477	11414
930.581	11615
930.685	11474
930.79	11376
930.894	11345
930.998	11330
931.103	11417
931.207	11147
931.311	10968
931.415	11022
931.519	10706
931.623	10702
