Data from test_V78500241_2894.txt Node
Date: Fri Mar 25 15:30:00 CST 2022
User: usil
Spectrometer: V785-0024
Trigger mode: 0
Integration Time (sec): 4.000000E-1
Scans to average: 1
Nonlinearity correction enabled: false
Boxcar width: 0
Storing dark spectrum: false
XAxis mode: Wavelengths
Number of Pixels in Spectrum: 1024
>>>>>Begin Spectral Data<<<<<
801.071	27203
801.214	27184
801.356	27028
801.499	27013
801.641	26876
801.783	26811
801.926	27009
802.068	27020
802.211	26830
802.353	26727
802.496	26571
802.638	26473
802.78	26476
802.923	26381
803.065	26480
803.208	26438
803.35	26552
803.492	26533
803.635	26651
803.777	26556
803.919	26667
804.061	27032
804.204	26670
804.346	26727
804.488	26617
804.63	26606
804.773	26590
804.915	26648
805.057	26697
805.199	26663
805.341	26731
805.483	26792
805.626	26800
805.768	26705
805.91	26785
806.052	26712
806.194	26644
806.336	26918
806.478	26914
806.62	26819
806.762	26857
806.904	27028
807.046	27176
807.188	27211
807.33	27252
807.472	27142
807.614	27146
807.756	27108
807.898	27039
808.04	26925
808.182	26861
808.324	27047
808.465	26986
808.607	27249
808.749	27454
808.891	27454
809.033	27523
809.174	27496
809.316	27264
809.458	27260
809.6	27344
809.741	27439
809.883	27477
810.025	27648
810.166	27583
810.308	27629
810.45	27667
810.591	27709
810.733	27454
810.875	27260
811.016	27283
811.158	27389
811.299	27420
811.441	27576
811.582	27477
811.724	27340
811.865	27439
812.007	27237
812.148	27203
812.29	27336
812.431	27378
812.573	27644
812.714	27774
812.855	27850
812.997	27934
813.138	28116
813.279	27998
813.421	27937
813.562	27778
813.703	27568
813.845	27553
813.986	27260
814.127	27173
814.268	27100
814.41	27039
814.551	27017
814.692	27135
814.833	26963
814.974	27116
815.115	27119
815.256	26834
815.397	26925
815.539	26944
815.68	26906
815.821	26659
815.962	26792
816.103	26940
816.244	26716
816.385	26575
816.526	26651
816.666	26503
816.807	26332
816.948	26355
817.089	26453
817.23	26320
817.371	26309
817.512	26408
817.653	26263
817.793	26161
817.934	26313
818.075	26339
818.216	26298
818.356	26130
818.497	26058
818.638	26031
818.778	25951
818.919	25963
819.06	26073
819.2	26134
819.341	26206
819.481	26161
819.622	26400
819.762	26465
819.903	26488
820.043	26187
820.184	26522
820.324	26484
820.465	26533
820.605	26351
820.746	26412
820.886	26301
821.026	26271
821.167	26377
821.307	26336
821.447	26358
821.588	26240
821.728	26180
821.868	25932
822.008	25761
822.149	25841
822.289	25689
822.429	25594
822.569	25388
822.709	25441
822.849	25377
822.99	25335
823.13	25019
823.27	25107
823.41	25053
823.55	24981
823.69	25118
823.83	24943
823.97	25061
824.11	24878
824.25	24886
824.389	24951
824.529	24954
824.669	24897
824.809	25012
824.949	24958
825.089	24924
825.228	24901
825.368	24703
825.508	24753
825.648	24772
825.787	24745
825.927	24760
826.067	24738
826.206	24749
826.346	24760
826.485	24738
826.625	24665
826.765	24802
826.904	24844
827.044	24414
827.183	24460
827.323	24338
827.462	24391
827.601	24429
827.741	24490
827.88	24361
828.02	24292
828.159	24464
828.298	24505
828.437	24513
828.577	24319
828.716	24498
828.855	24311
828.994	24197
829.134	24148
829.273	24224
829.412	24114
829.551	24038
829.69	24106
829.829	24239
829.968	24289
830.107	24319
830.246	24110
830.385	24190
830.524	23996
830.663	24034
830.802	23961
830.941	23714
831.08	23703
831.219	23897
831.357	23874
831.496	23984
831.635	23691
831.774	23707
831.913	23676
832.051	23436
832.19	23490
832.329	23638
832.467	23531
832.606	23391
832.744	23387
832.883	23425
833.022	23436
833.16	23345
833.299	23402
833.437	23577
833.576	23535
833.714	23360
833.852	23505
833.991	23535
834.129	23539
834.267	23554
834.406	23421
834.544	23589
834.682	23543
834.821	23467
834.959	23581
835.097	23341
835.235	23524
835.373	23459
835.511	23482
835.65	23345
835.788	23398
835.926	23178
836.064	23033
836.202	23102
836.34	23269
836.478	23387
836.615	23284
836.753	23398
836.891	23356
837.029	23246
837.167	23254
837.305	23159
837.443	23113
837.58	23052
837.718	23121
837.856	23189
837.993	23086
838.131	23166
838.269	22980
838.406	23121
838.544	22968
838.681	22763
838.819	22854
838.956	22687
839.094	22675
839.231	22615
839.369	22748
839.506	22987
839.643	22710
839.781	22626
839.918	22588
840.055	22660
840.193	22470
840.33	22588
840.467	22653
840.604	22615
840.742	22869
840.879	22428
841.016	22493
841.153	22580
841.29	22660
841.427	22451
841.564	22603
841.701	22622
841.838	22497
841.975	22344
842.112	22432
842.249	22462
842.385	22344
842.522	22535
842.659	22440
842.796	22246
842.933	22284
843.069	22280
843.206	22230
843.343	22211
843.479	22314
843.616	22242
843.752	22090
843.889	22105
844.025	22169
844.162	22135
844.298	22120
844.435	22124
844.571	22101
844.708	22101
844.844	22173
844.98	22097
845.117	22173
845.253	22021
845.389	21884
845.525	21949
845.661	21846
845.798	21831
845.934	21800
846.07	21895
846.206	21941
846.342	21823
846.478	21808
846.614	21618
846.75	21416
846.886	21568
847.022	21652
847.158	21549
847.294	21530
847.429	21610
847.565	21553
847.701	21812
847.837	21291
847.972	21287
848.108	21370
848.244	21306
848.379	21313
848.515	21066
848.65	21043
848.786	21062
848.921	21184
849.057	21340
849.192	21192
849.328	21116
849.463	21135
849.598	21188
849.734	21055
849.869	20960
850.004	20895
850.14	20914
850.275	20849
850.41	20743
850.545	20853
850.68	20899
850.815	20815
850.95	20979
851.085	21112
851.22	21100
851.355	20963
851.49	20800
851.625	20956
851.76	20891
851.895	20815
852.03	20842
852.165	20990
852.299	20956
852.434	20868
852.569	20910
852.703	20842
852.838	21032
852.973	21051
853.107	21009
853.242	20826
853.376	20785
853.511	20594
853.645	20788
853.78	20811
853.914	20769
854.048	20758
854.183	20781
854.317	20754
854.451	20971
854.585	20682
854.72	20762
854.854	20868
854.988	20655
855.122	20773
855.256	20670
855.39	20655
855.524	20800
855.658	20689
855.792	20842
855.926	20811
856.06	20727
856.194	20902
856.327	20689
856.461	20682
856.595	20762
856.729	20705
856.862	20823
856.996	20781
857.13	20716
857.263	20807
857.397	20845
857.53	20701
857.664	20708
857.797	20826
857.931	20921
858.064	20830
858.197	20857
858.331	20720
858.464	20724
858.597	20750
858.731	20765
858.864	20682
858.997	20762
859.13	20746
859.263	20746
859.396	20788
859.529	20724
859.662	20754
859.795	20648
859.928	20659
860.061	20819
860.194	20895
860.327	20739
860.46	20712
860.592	20887
860.725	20842
860.858	20921
860.99	20697
861.123	20701
861.256	20746
861.388	20731
861.521	21443
861.653	20632
861.786	20617
861.918	20541
862.05	20663
862.183	20651
862.315	20735
862.447	20785
862.58	20617
862.712	20446
862.844	20377
862.976	20571
863.108	20537
863.24	21024
863.372	20431
863.504	20400
863.636	20480
863.768	20568
863.9	20537
864.032	20423
864.164	20465
864.296	20423
864.428	20625
864.559	20533
864.691	20560
864.823	20499
864.954	20454
865.086	20298
865.217	20366
865.349	20282
865.48	20256
865.612	20271
865.743	20377
865.875	20412
866.006	20351
866.137	20237
866.269	20271
866.4	20393
866.531	20278
866.662	20214
866.793	20362
866.924	20339
867.055	20252
867.186	20408
867.317	20320
867.448	20240
867.579	20199
867.71	20248
867.841	20237
867.972	20263
868.103	20339
868.233	20282
868.364	20256
868.495	20290
868.625	20587
868.756	20731
868.886	20434
869.017	20507
869.147	20674
869.278	20579
869.408	20434
869.539	20484
869.669	20549
869.799	20571
869.929	20724
870.06	20651
870.19	20815
870.32	20842
870.45	20963
870.58	20864
870.71	20937
870.84	20967
870.97	20876
871.1	20891
871.23	21150
871.36	21013
871.489	21096
871.619	21146
871.749	21001
871.879	21230
872.008	21211
872.138	21188
872.267	21093
872.397	21036
872.526	20895
872.656	20876
872.785	20963
872.915	21268
873.044	21226
873.173	21127
873.303	21184
873.432	21123
873.561	21230
873.69	21199
873.819	21226
873.948	21306
874.077	21157
874.206	21032
874.335	21104
874.464	21348
874.593	21428
874.722	21332
874.851	21416
874.979	21511
875.108	21386
875.237	21405
875.365	21405
875.494	21344
875.623	21557
875.751	21367
875.88	21428
876.008	21481
876.136	21591
876.265	21804
876.393	21968
876.521	21816
876.65	21793
876.778	21873
876.906	21747
877.034	21816
877.162	21625
877.29	21778
877.418	21770
877.546	21705
877.674	21675
877.802	21762
877.93	21705
878.058	21713
878.185	21694
878.313	21743
878.441	21751
878.568	21530
878.696	21675
878.824	21580
878.951	21873
879.079	21945
879.206	22086
879.333	21892
879.461	21816
879.588	21816
879.715	21911
879.842	22074
879.97	21880
880.097	21549
880.224	21599
880.351	21648
880.478	21622
880.605	21603
880.732	21564
880.859	21804
880.986	21568
881.112	21614
881.239	21393
881.366	21154
881.493	21222
881.619	21131
881.746	21279
881.872	21138
881.999	21138
882.125	21070
882.252	21104
882.378	21074
882.505	21214
882.631	20845
882.757	20948
882.883	20868
883.01	20906
883.136	20948
883.262	20701
883.388	20655
883.514	20769
883.64	20929
883.766	20716
883.892	20571
884.018	20697
884.143	20708
884.269	20868
884.395	20564
884.52	20530
884.646	20469
884.772	20431
884.897	20385
885.023	20438
885.148	20575
885.274	20701
885.399	20686
885.524	20495
885.65	20480
885.775	20526
885.9	20552
886.025	20636
886.15	20583
886.275	20507
886.4	20389
886.525	20511
886.65	20366
886.775	20362
886.9	20667
887.025	20739
887.149	20549
887.274	20324
887.399	20263
887.523	20301
887.648	20294
887.773	20187
887.897	20332
888.021	20225
888.146	20240
888.27	20400
888.395	20298
888.519	20237
888.643	20339
888.767	20275
888.891	20111
889.015	20103
889.139	20218
889.263	20062
889.387	20153
889.511	20374
889.635	20058
889.759	20039
889.883	20062
890.006	20130
890.13	20252
890.254	20035
890.377	19989
890.501	19856
890.624	19959
890.748	19845
890.871	19700
890.995	19647
891.118	19620
891.241	19662
891.364	19685
891.488	19761
891.611	19601
891.734	19624
891.857	19696
891.98	19620
892.103	19719
892.226	19540
892.349	19662
892.471	19480
892.594	19639
892.717	19594
892.839	19525
892.962	19575
893.085	19704
893.207	19597
893.33	19487
893.452	19590
893.575	19655
893.697	19643
893.819	19635
893.941	19807
894.064	19677
894.186	19510
894.308	19438
894.43	19609
894.552	19772
894.674	19643
894.796	19445
894.918	19590
895.04	19597
895.161	19719
895.283	19521
895.405	19578
895.526	19586
895.648	19647
895.769	19628
895.891	19575
896.012	19666
896.134	19693
896.255	19670
896.376	19582
896.498	19632
896.619	19540
896.74	19548
896.861	19772
896.982	20031
897.103	19909
897.224	19818
897.345	19753
897.466	19780
897.587	19784
897.708	19925
897.828	19788
897.949	19761
898.07	19670
898.19	19693
898.311	19868
898.431	19818
898.552	19925
898.672	19894
898.792	19845
898.913	19849
899.033	19776
899.153	19689
899.273	19677
899.393	19438
899.513	19753
899.633	19620
899.753	19510
899.873	19556
899.993	19620
900.113	19616
900.232	19514
900.352	19521
900.472	19403
900.591	19365
900.711	19381
900.83	19339
900.95	19422
901.069	19419
901.189	19297
901.308	19076
901.427	19004
901.546	18970
901.665	19027
901.784	19031
901.904	18840
902.023	18764
902.141	18494
902.26	18471
902.379	18570
902.498	18460
902.617	18395
902.735	18608
902.854	18433
902.973	18323
903.091	18224
903.21	18083
903.328	18159
903.446	18136
903.565	17965
903.683	18038
903.801	17889
903.919	17961
904.038	17912
904.156	17764
904.274	17859
904.392	17771
904.51	17695
904.627	17729
904.745	17699
904.863	17817
904.981	17554
905.098	17372
905.216	17402
905.334	17463
905.451	17509
905.569	17315
905.686	17402
905.803	17379
905.921	17231
906.038	17277
906.155	17239
906.272	17113
906.389	17124
906.506	16908
906.623	16942
906.74	16869
906.857	16885
906.974	16820
907.091	17022
907.208	17128
907.324	17086
907.441	16873
907.557	16702
907.674	16744
907.79	16664
907.907	16649
908.023	16755
908.139	16565
908.256	16656
908.372	16546
908.488	16550
908.604	16443
908.72	16428
908.836	16390
908.952	16322
909.068	16398
909.184	16386
909.3	16497
909.415	16436
909.531	16299
909.647	16242
909.762	16059
909.878	16139
909.993	16116
910.108	16124
910.224	16044
910.339	16032
910.454	15998
910.57	15945
910.685	15808
910.8	16032
910.915	16002
911.03	15861
911.145	15705
911.259	15698
911.374	15701
911.489	15538
911.604	15694
911.718	15466
911.833	15355
911.947	15408
912.062	15393
912.176	15485
912.291	15523
912.405	15538
912.519	15660
912.633	15599
912.748	15564
912.862	15462
912.976	15211
913.09	15211
913.204	15252
913.318	15325
913.431	15340
913.545	15344
913.659	15382
913.772	15203
913.886	15123
914	15112
914.113	15119
914.226	15218
914.34	15256
914.453	14921
914.566	15146
914.68	15009
914.793	14975
914.906	14735
915.019	14644
915.132	14632
915.245	14659
915.358	14823
915.47	14712
915.583	14651
915.696	14724
915.809	14735
915.921	14807
916.034	14598
916.146	14655
916.259	14640
916.371	14644
916.483	14678
916.595	14503
916.708	14507
916.82	14514
916.932	14492
917.044	14583
917.156	14438
917.268	14370
917.38	14374
917.491	14396
917.603	14339
917.715	14431
917.826	14419
917.938	14301
918.049	14199
918.161	14389
918.272	14473
918.384	14427
918.495	14381
918.606	14187
918.717	14081
918.828	14046
918.939	14229
919.05	14062
919.161	14115
919.272	13947
919.383	14031
919.494	14157
919.604	14393
919.715	14073
919.826	13978
919.936	14081
920.047	14126
920.157	14050
920.267	14256
920.378	14142
920.488	14016
920.598	14328
920.708	14328
920.818	14271
920.928	14248
921.038	14339
921.148	14324
921.258	14050
921.368	13917
921.477	13955
921.587	13841
921.697	13769
921.806	13807
921.916	13681
922.025	13632
922.134	13491
922.244	13441
922.353	13540
922.462	13400
922.571	13343
922.68	13095
922.789	13145
922.898	13209
923.007	13046
923.116	13114
923.224	13194
923.333	13190
923.442	13027
923.55	12935
923.659	12985
923.767	13057
923.876	12943
923.984	12985
924.092	12916
924.201	13015
924.309	12882
924.417	12943
924.525	12856
924.633	12901
924.741	13738
924.849	12623
924.956	12802
925.064	12585
925.172	12540
925.279	12574
925.387	12616
925.494	12563
925.602	12711
925.709	12620
925.816	12544
925.924	12563
926.031	12604
926.138	12593
926.245	12631
926.352	12471
926.459	12574
926.566	12608
926.673	12452
926.779	12342
926.886	12262
926.993	12247
927.099	12224
927.206	12197
927.312	12034
927.419	12216
927.525	12087
927.631	12110
927.737	11961
927.843	12038
927.95	11969
928.056	11946
928.162	11965
928.267	12038
928.373	12658
928.479	12076
928.585	11874
928.69	11961
928.796	11912
928.901	11843
929.007	11703
929.112	11874
929.218	11809
929.323	11741
929.428	11813
929.533	11813
929.638	11653
929.743	11714
929.848	11779
929.953	11703
930.058	11596
930.163	11417
930.267	11493
930.372	11486
930.477	11372
930.581	11733
930.685	11440
930.79	11280
930.894	11429
930.998	11280
931.103	11425
931.207	11052
931.311	10972
931.415	10889
931.519	10736
931.623	10717
