Data from test_V78500241_3488.txt Node
Date: Fri Mar 25 15:34:08 CST 2022
User: usil
Spectrometer: V785-0024
Trigger mode: 0
Integration Time (sec): 4.000000E-1
Scans to average: 1
Nonlinearity correction enabled: false
Boxcar width: 0
Storing dark spectrum: false
XAxis mode: Wavelengths
Number of Pixels in Spectrum: 1024
>>>>>Begin Spectral Data<<<<<
801.071	27310
801.214	27062
801.356	26933
801.499	26868
801.641	26773
801.783	26765
801.926	26849
802.068	26792
802.211	26708
802.353	26682
802.496	26465
802.638	26404
802.78	26294
802.923	26328
803.065	26263
803.208	26221
803.35	26301
803.492	26587
803.635	26712
803.777	26549
803.919	26583
804.061	26823
804.204	26514
804.346	26328
804.488	26358
804.63	26434
804.773	26415
804.915	26511
805.057	26606
805.199	26503
805.341	26575
805.483	26564
805.626	26632
805.768	26621
805.91	26636
806.052	26636
806.194	26564
806.336	26655
806.478	26754
806.62	26571
806.762	26811
806.904	26823
807.046	27135
807.188	27055
807.33	27036
807.472	27093
807.614	27024
807.756	26956
807.898	26887
808.04	26811
808.182	26792
808.324	26975
808.465	26910
808.607	26940
808.749	27173
808.891	27401
809.033	27416
809.174	27226
809.316	27325
809.458	27157
809.6	27199
809.741	27233
809.883	27427
810.025	27481
810.166	27488
810.308	27580
810.45	27496
810.591	27481
810.733	27317
810.875	27233
811.016	27211
811.158	27237
811.299	27450
811.441	27393
811.582	27416
811.724	27237
811.865	27184
812.007	27123
812.148	27207
812.29	27142
812.431	27367
812.573	27488
812.714	27507
812.855	27781
812.997	27812
813.138	27899
813.279	27934
813.421	27606
813.562	27606
813.703	27538
813.845	27317
813.986	27093
814.127	26998
814.268	26929
814.41	26857
814.551	26800
814.692	27001
814.833	26724
814.974	26891
815.115	26849
815.256	26617
815.397	26750
815.539	26731
815.68	26617
815.821	26469
815.962	26746
816.103	26598
816.244	26473
816.385	26419
816.526	26453
816.666	26305
816.807	26187
816.948	26309
817.089	26252
817.23	26149
817.371	26073
817.512	26168
817.653	26252
817.793	26149
817.934	26069
818.075	26145
818.216	26202
818.356	26039
818.497	25936
818.638	25841
818.778	25814
818.919	25913
819.06	25970
819.2	26024
819.341	26138
819.481	26115
819.622	26309
819.762	26446
819.903	26434
820.043	26336
820.184	26343
820.324	26233
820.465	26282
820.605	26130
820.746	26324
820.886	26103
821.026	26176
821.167	26191
821.307	26206
821.447	26012
821.588	26024
821.728	25959
821.868	26008
822.008	25586
822.149	25575
822.289	25563
822.429	25400
822.569	25369
822.709	25373
822.849	25084
822.99	25171
823.13	25217
823.27	25129
823.41	24989
823.55	24764
823.69	24825
823.83	24962
823.97	24760
824.11	24753
824.25	24715
824.389	24817
824.529	24852
824.669	24806
824.809	24817
824.949	24852
825.089	24829
825.228	24905
825.368	24601
825.508	24490
825.648	24570
825.787	24673
825.927	24505
826.067	24536
826.206	24631
826.346	24741
826.485	24646
826.625	24578
826.765	24760
826.904	24566
827.044	24399
827.183	24399
827.323	24319
827.462	24490
827.601	24486
827.741	24338
827.88	24399
828.02	24038
828.159	24369
828.298	24292
828.437	24426
828.577	24369
828.716	24464
828.855	24338
828.994	24049
829.134	24144
829.273	24114
829.412	23992
829.551	23980
829.69	23980
829.829	24057
829.968	24091
830.107	24060
830.246	24106
830.385	23866
830.524	23988
830.663	23859
830.802	23790
830.941	23710
831.08	23665
831.219	23745
831.357	23703
831.496	23897
831.635	23710
831.774	23592
831.913	23535
832.051	23600
832.19	23417
832.329	23296
832.467	23223
832.606	23231
832.744	23261
832.883	23185
833.022	23425
833.16	23345
833.299	23368
833.437	23356
833.576	23436
833.714	23414
833.852	23436
833.991	23452
834.129	23509
834.267	23406
834.406	23459
834.544	23436
834.682	23493
834.821	23406
834.959	23512
835.097	23299
835.235	23452
835.373	23444
835.511	23330
835.65	23242
835.788	23341
835.926	23174
836.064	22991
836.202	23208
836.34	23258
836.478	23391
836.615	23151
836.753	23299
836.891	23341
837.029	23356
837.167	23197
837.305	23193
837.443	23216
837.58	23090
837.718	23102
837.856	23239
837.993	23124
838.131	23117
838.269	23083
838.406	22961
838.544	22968
838.681	22835
838.819	22854
838.956	22679
839.094	22664
839.231	22717
839.369	22740
839.506	22900
839.643	22809
839.781	22626
839.918	22615
840.055	22577
840.193	22561
840.33	22580
840.467	22577
840.604	22565
840.742	22744
840.879	22481
841.016	22474
841.153	22356
841.29	22569
841.427	22634
841.564	22516
841.701	22550
841.838	22436
841.975	22329
842.112	22516
842.249	22341
842.385	22295
842.522	22554
842.659	22386
842.796	22341
842.933	22314
843.069	22158
843.206	22242
843.343	22352
843.479	22230
843.616	22219
843.752	22017
843.889	22048
844.025	22120
844.162	22082
844.298	22128
844.435	22078
844.571	22070
844.708	22150
844.844	22082
844.98	22181
845.117	22162
845.253	21945
845.389	21964
845.525	21998
845.661	21850
845.798	21755
845.934	21835
846.07	21667
846.206	21751
846.342	21869
846.478	21800
846.614	21538
846.75	21462
846.886	21572
847.022	21564
847.158	21561
847.294	21492
847.429	21682
847.565	21564
847.701	21774
847.837	21363
847.972	21146
848.108	21359
848.244	21317
848.379	21214
848.515	21188
848.65	20994
848.786	21066
848.921	21077
849.057	21245
849.192	21226
849.328	21180
849.463	21165
849.598	21062
849.734	21116
849.869	20937
850.004	20739
850.14	20979
850.275	20899
850.41	20769
850.545	20830
850.68	20785
850.815	20899
850.95	20861
851.085	21039
851.22	20925
851.355	20887
851.49	20880
851.625	20800
851.76	20963
851.895	20845
852.03	20861
852.165	20826
852.299	20963
852.434	20952
852.569	20876
852.703	20872
852.838	20941
852.973	21001
853.107	20849
853.242	20864
853.376	20686
853.511	20644
853.645	20670
853.78	20796
853.914	20807
854.048	20663
854.183	20686
854.317	20716
854.451	20743
854.585	20785
854.72	20781
854.854	20758
854.988	20777
855.122	20720
855.256	20590
855.39	20670
855.524	20739
855.658	20773
855.792	20701
855.926	20727
856.06	20826
856.194	20807
856.327	20629
856.461	20625
856.595	20686
856.729	20724
856.862	20823
856.996	20754
857.13	20830
857.263	20708
857.397	20914
857.53	20697
857.664	20762
857.797	20667
857.931	20792
858.064	20716
858.197	20918
858.331	20769
858.464	20731
858.597	20625
858.731	20716
858.864	20739
858.997	20758
859.13	20663
859.263	20670
859.396	20876
859.529	20659
859.662	20590
859.795	20625
859.928	20727
860.061	20830
860.194	20960
860.327	20739
860.46	20773
860.592	20735
860.725	20864
860.858	20769
860.99	20777
861.123	20579
861.256	20682
861.388	20697
861.521	21408
861.653	20583
861.786	20583
861.918	20484
862.05	20522
862.183	20632
862.315	20632
862.447	20746
862.58	20587
862.712	20507
862.844	20419
862.976	20457
863.108	20503
863.24	21017
863.372	20381
863.504	20438
863.636	20389
863.768	20518
863.9	20473
864.032	20328
864.164	20404
864.296	20522
864.428	20560
864.559	20450
864.691	20526
864.823	20339
864.954	20423
865.086	20339
865.217	20298
865.349	20202
865.48	20301
865.612	20347
865.743	20518
865.875	20473
866.006	20347
866.137	20366
866.269	20301
866.4	20320
866.531	20377
866.662	20206
866.793	20282
866.924	20294
867.055	20271
867.186	20320
867.317	20252
867.448	20065
867.579	20336
867.71	20191
867.841	20164
867.972	20339
868.103	20282
868.233	20294
868.364	20248
868.495	20434
868.625	20514
868.756	20602
868.886	20530
869.017	20488
869.147	20655
869.278	20644
869.408	20621
869.539	20590
869.669	20594
869.799	20579
869.929	20682
870.06	20678
870.19	20815
870.32	20739
870.45	20899
870.58	20941
870.71	20918
870.84	21062
870.97	20960
871.1	20876
871.23	21119
871.36	21161
871.489	20994
871.619	21009
871.749	21047
871.879	21085
872.008	21241
872.138	21195
872.267	21165
872.397	20948
872.526	20956
872.656	20944
872.785	20986
872.915	21165
873.044	21218
873.173	21131
873.303	21108
873.432	21154
873.561	21165
873.69	21135
873.819	21192
873.948	21317
874.077	21184
874.206	21051
874.335	21237
874.464	21154
874.593	21428
874.722	21439
874.851	21294
874.979	21507
875.108	21416
875.237	21408
875.365	21336
875.494	21317
875.623	21462
875.751	21344
875.88	21466
876.008	21473
876.136	21485
876.265	21876
876.393	21831
876.521	21869
876.65	21937
876.778	21766
876.906	21918
877.034	21671
877.162	21888
877.29	21652
877.418	21816
877.546	21728
877.674	21606
877.802	21743
877.93	21831
878.058	21572
878.185	21549
878.313	21785
878.441	21675
878.568	21663
878.696	21686
878.824	21804
878.951	21812
879.079	21907
879.206	22010
879.333	21835
879.461	21759
879.588	21907
879.715	21922
879.842	22006
879.97	21842
880.097	21450
880.224	21580
880.351	21496
880.478	21660
880.605	21564
880.732	21545
880.859	21812
880.986	21648
881.112	21405
881.239	21378
881.366	21226
881.493	21245
881.619	21161
881.746	21043
881.872	21233
881.999	21096
882.125	20975
882.252	21214
882.378	21131
882.505	21211
882.631	21001
882.757	20937
882.883	21005
883.01	20952
883.136	20876
883.262	20781
883.388	20617
883.514	20864
883.64	20811
883.766	20800
883.892	20648
884.018	20590
884.143	20861
884.269	20906
884.395	20480
884.52	20507
884.646	20412
884.772	20366
884.897	20320
885.023	20461
885.148	20556
885.274	20537
885.399	20571
885.524	20575
885.65	20522
885.775	20541
885.9	20488
886.025	20571
886.15	20632
886.275	20461
886.4	20499
886.525	20427
886.65	20393
886.775	20336
886.9	20640
887.025	20667
887.149	20526
887.274	20309
887.399	20320
887.523	20282
887.648	20240
887.773	20218
887.897	20317
888.021	20343
888.146	20248
888.27	20324
888.395	20461
888.519	20389
888.643	20339
888.767	20339
888.891	20130
889.015	20096
889.139	20043
889.263	20092
889.387	20225
889.511	20294
889.635	20275
889.759	20096
889.883	20130
890.006	20111
890.13	20126
890.254	20084
890.377	19982
890.501	19845
890.624	19849
890.748	19932
890.871	19833
890.995	19655
891.118	19544
891.241	19655
891.364	19746
891.488	19814
891.611	19693
891.734	19795
891.857	19750
891.98	19727
892.103	19830
892.226	19704
892.349	19662
892.471	19480
892.594	19464
892.717	19662
892.839	19457
892.962	19635
893.085	19487
893.207	19556
893.33	19453
893.452	19518
893.575	19670
893.697	19537
893.819	19750
893.941	19784
894.064	19761
894.186	19510
894.308	19529
894.43	19616
894.552	19795
894.674	19715
894.796	19506
894.918	19506
895.04	19540
895.161	19552
895.283	19666
895.405	19563
895.526	19658
895.648	19529
895.769	19601
895.891	19632
896.012	19689
896.134	19616
896.255	19651
896.376	19449
896.498	19639
896.619	19685
896.74	19529
896.861	19708
896.982	19909
897.103	20016
897.224	19860
897.345	19818
897.466	19864
897.587	19791
897.708	19928
897.828	19883
897.949	19647
898.07	19689
898.19	19761
898.311	19883
898.431	19814
898.552	19769
898.672	19951
898.792	19940
898.913	19921
899.033	19670
899.153	19540
899.273	19620
899.393	19597
899.513	19510
899.633	19514
899.753	19533
899.873	19419
899.993	19658
900.113	19544
900.232	19601
900.352	19434
900.472	19274
900.591	19285
900.711	19392
900.83	19244
900.95	19434
901.069	19525
901.189	19213
901.308	18996
901.427	18928
901.546	18928
901.665	18924
901.784	19027
901.904	18795
902.023	18658
902.141	18467
902.26	18486
902.379	18551
902.498	18391
902.617	18479
902.735	18544
902.854	18559
902.973	18395
903.091	18167
903.21	18144
903.328	18136
903.446	18057
903.565	18026
903.683	17977
903.801	17832
903.919	17870
904.038	17916
904.156	17737
904.274	17813
904.392	17668
904.51	17726
904.627	17748
904.745	17866
904.863	17699
904.981	17532
905.098	17410
905.216	17425
905.334	17493
905.451	17383
905.569	17353
905.686	17410
905.803	17360
905.921	17136
906.038	17318
906.155	17227
906.272	17037
906.389	17098
906.506	16816
906.623	16923
906.74	16873
906.857	16839
906.974	16835
907.091	17018
907.208	17014
907.324	16949
907.441	16839
907.557	16656
907.674	16653
907.79	16592
907.907	16596
908.023	16668
908.139	16672
908.256	16523
908.372	16550
908.488	16538
908.604	16421
908.72	16413
908.836	16432
908.952	16325
909.068	16352
909.184	16481
909.3	16348
909.415	16382
909.531	16390
909.647	16093
909.762	16147
909.878	16150
909.993	16124
910.108	16055
910.224	16082
910.339	16139
910.454	15983
910.57	15930
910.685	15857
910.8	16169
910.915	15983
911.03	15922
911.145	15732
911.259	15564
911.374	15778
911.489	15656
911.604	15610
911.718	15542
911.833	15389
911.947	15367
912.062	15336
912.176	15469
912.291	15462
912.405	15458
912.519	15637
912.633	15564
912.748	15519
912.862	15515
912.976	15321
913.09	15112
913.204	15230
913.318	15279
913.431	15488
913.545	15351
913.659	15306
913.772	15226
913.886	15108
914	15081
914.113	15252
914.226	15317
914.34	15192
914.453	14960
914.566	15081
914.68	14952
914.793	15020
914.906	14746
915.019	14686
915.132	14606
915.245	14670
915.358	14746
915.47	14701
915.583	14716
915.696	14701
915.809	14849
915.921	14891
916.034	14602
916.146	14651
916.259	14575
916.371	14708
916.483	14648
916.595	14511
916.708	14590
916.82	14412
916.932	14503
917.044	14564
917.156	14495
917.268	14400
917.38	14385
917.491	14317
917.603	14385
917.715	14377
917.826	14412
917.938	14305
918.049	14195
918.161	14309
918.272	14465
918.384	14389
918.495	14358
918.606	14161
918.717	14027
918.828	14138
918.939	14130
919.05	14077
919.161	14153
919.272	13909
919.383	13928
919.494	14157
919.604	14317
919.715	14138
919.826	14054
919.936	14100
920.047	14210
920.157	14107
920.267	14320
920.378	14138
920.488	14164
920.598	14298
920.708	14396
920.818	14259
920.928	14252
921.038	14431
921.148	14339
921.258	14077
921.368	13974
921.477	13909
921.587	13826
921.697	13681
921.806	13830
921.916	13708
922.025	13537
922.134	13476
922.244	13464
922.353	13487
922.462	13457
922.571	13324
922.68	13251
922.789	13183
922.898	13122
923.007	13076
923.116	13225
923.224	13126
923.333	13137
923.442	13061
923.55	12962
923.659	12993
923.767	13012
923.876	12958
923.984	13069
924.092	12802
924.201	12966
924.309	12867
924.417	12890
924.525	12886
924.633	12760
924.741	13571
924.849	12604
924.956	12715
925.064	12525
925.172	12578
925.279	12566
925.387	12597
925.494	12517
925.602	12783
925.709	12654
925.816	12475
925.924	12601
926.031	12616
926.138	12525
926.245	12593
926.352	12426
926.459	12536
926.566	12528
926.673	12464
926.779	12353
926.886	12308
926.993	12281
927.099	12232
927.206	12129
927.312	12106
927.419	12194
927.525	12209
927.631	12243
927.737	12011
927.843	12038
927.95	11893
928.056	12045
928.162	11999
928.267	12011
928.373	12494
928.479	12114
928.585	11863
928.69	11950
928.796	11904
928.901	11840
929.007	11691
929.112	11855
929.218	11828
929.323	11722
929.428	11741
929.533	11904
929.638	11562
929.743	11630
929.848	11760
929.953	11604
930.058	11505
930.163	11452
930.267	11463
930.372	11570
930.477	11391
930.581	11680
930.685	11474
930.79	11292
930.894	11417
930.998	11296
931.103	11429
931.207	11117
931.311	10957
931.415	10877
931.519	10805
931.623	10679
