Data from test_V78500241_3264.txt Node
Date: Fri Mar 25 15:32:35 CST 2022
User: usil
Spectrometer: V785-0024
Trigger mode: 0
Integration Time (sec): 4.000000E-1
Scans to average: 1
Nonlinearity correction enabled: false
Boxcar width: 0
Storing dark spectrum: false
XAxis mode: Wavelengths
Number of Pixels in Spectrum: 1024
>>>>>Begin Spectral Data<<<<<
801.071	27310
801.214	27195
801.356	27043
801.499	26929
801.641	26887
801.783	26883
801.926	26948
802.068	26918
802.211	26845
802.353	26796
802.496	26667
802.638	26575
802.78	26530
802.923	26518
803.065	26275
803.208	26358
803.35	26499
803.492	26727
803.635	26514
803.777	26609
803.919	26678
804.061	26990
804.204	26697
804.346	26537
804.488	26598
804.63	26686
804.773	26583
804.915	26697
805.057	26746
805.199	26583
805.341	26659
805.483	26739
805.626	26545
805.768	26686
805.91	26830
806.052	26819
806.194	26549
806.336	26956
806.478	26739
806.62	26701
806.762	26910
806.904	26796
807.046	27241
807.188	27192
807.33	27283
807.472	27165
807.614	27096
807.756	27138
807.898	27001
808.04	27024
808.182	26963
808.324	27020
808.465	27074
808.607	27252
808.749	27378
808.891	27549
809.033	27587
809.174	27473
809.316	27351
809.458	27374
809.6	27393
809.741	27370
809.883	27485
810.025	27572
810.166	27591
810.308	27675
810.45	27504
810.591	27564
810.733	27458
810.875	27279
811.016	27272
811.158	27237
811.299	27481
811.441	27496
811.582	27534
811.724	27408
811.865	27321
812.007	27203
812.148	27325
812.29	27393
812.431	27481
812.573	27732
812.714	27705
812.855	27823
812.997	27956
813.138	28059
813.279	28074
813.421	27797
813.562	27869
813.703	27587
813.845	27629
813.986	27142
814.127	27093
814.268	27119
814.41	27165
814.551	27024
814.692	27093
814.833	27028
814.974	27096
815.115	27005
815.256	27028
815.397	26918
815.539	26921
815.68	26845
815.821	26651
815.962	26883
816.103	26849
816.244	26823
816.385	26636
816.526	26484
816.666	26396
816.807	26267
816.948	26389
817.089	26332
817.23	26320
817.371	26282
817.512	26244
817.653	26157
817.793	26256
817.934	26355
818.075	26442
818.216	26309
818.356	26278
818.497	26237
818.638	26062
818.778	26012
818.919	26065
819.06	26214
819.2	26195
819.341	26161
819.481	26172
819.622	26431
819.762	26587
819.903	26556
820.043	26465
820.184	26271
820.324	26393
820.465	26431
820.605	26298
820.746	26389
820.886	26252
821.026	26355
821.167	26469
821.307	26400
821.447	26415
821.588	26191
821.728	26107
821.868	26031
822.008	25822
822.149	25693
822.289	25708
822.429	25502
822.569	25510
822.709	25426
822.849	25331
822.99	25251
823.13	25240
823.27	25285
823.41	25145
823.55	25050
823.69	25137
823.83	25209
823.97	25069
824.11	24905
824.25	24973
824.389	24996
824.529	24882
824.669	25027
824.809	25065
824.949	25061
825.089	24947
825.228	25057
825.368	24757
825.508	24920
825.648	24913
825.787	24821
825.927	24989
826.067	24905
826.206	24871
826.346	24783
826.485	24840
826.625	24814
826.765	24867
826.904	24814
827.044	24505
827.183	24673
827.323	24582
827.462	24635
827.601	24452
827.741	24544
827.88	24589
828.02	24334
828.159	24429
828.298	24445
828.437	24505
828.577	24483
828.716	24528
828.855	24471
828.994	24239
829.134	24224
829.273	24155
829.412	24304
829.551	24152
829.69	24190
829.829	24251
829.968	24323
830.107	24190
830.246	24350
830.385	24224
830.524	24174
830.663	24125
830.802	24049
830.941	23889
831.08	23897
831.219	24053
831.357	23828
831.496	24144
831.635	23813
831.774	23840
831.913	23585
832.051	23737
832.19	23570
832.329	23653
832.467	23520
832.606	23497
832.744	23493
832.883	23570
833.022	23341
833.16	23421
833.299	23577
833.437	23600
833.576	23501
833.714	23596
833.852	23695
833.991	23687
834.129	23771
834.267	23748
834.406	23726
834.544	23722
834.682	23600
834.821	23543
834.959	23756
835.097	23520
835.235	23733
835.373	23581
835.511	23558
835.65	23452
835.788	23505
835.926	23364
836.064	23360
836.202	23261
836.34	23406
836.478	23433
836.615	23436
836.753	23345
836.891	23547
837.029	23459
837.167	23493
837.305	23372
837.443	23269
837.58	23292
837.718	23349
837.856	23379
837.993	23277
838.131	23277
838.269	23151
838.406	23334
838.544	23174
838.681	23181
838.819	22824
838.956	22904
839.094	22713
839.231	22831
839.369	23022
839.506	23296
839.643	23094
839.781	22774
839.918	22721
840.055	22816
840.193	22843
840.33	22664
840.467	22729
840.604	22782
840.742	23010
840.879	22569
841.016	22710
841.153	22664
841.29	22812
841.427	22744
841.564	22801
841.701	22660
841.838	22793
841.975	22596
842.112	22577
842.249	22592
842.385	22356
842.522	22778
842.659	22573
842.796	22466
842.933	22554
843.069	22402
843.206	22485
843.343	22580
843.479	22519
843.616	22516
843.752	22265
843.889	22272
844.025	22394
844.162	22234
844.298	22417
844.435	22200
844.571	22341
844.708	22348
844.844	22440
844.98	22436
845.117	22253
845.253	22158
845.389	22120
845.525	22074
845.661	22063
845.798	21903
845.934	22101
846.07	21915
846.206	22059
846.342	22082
846.478	22010
846.614	21926
846.75	21705
846.886	21770
847.022	21793
847.158	21873
847.294	21724
847.429	21701
847.565	21766
847.701	21968
847.837	21466
847.972	21416
848.108	21504
848.244	21587
848.379	21279
848.515	21313
848.65	21249
848.786	21378
848.921	21192
849.057	21405
849.192	21477
849.328	21374
849.463	21344
849.598	21188
849.734	21176
849.869	21249
850.004	21058
850.14	21214
850.275	21142
850.41	21058
850.545	20986
850.68	21062
850.815	21222
850.95	21085
851.085	21329
851.22	21157
851.355	21154
851.49	21112
851.625	20994
851.76	20925
851.895	20948
852.03	20960
852.165	21096
852.299	21104
852.434	21207
852.569	21161
852.703	21085
852.838	21131
852.973	21279
853.107	21218
853.242	20902
853.376	20868
853.511	20746
853.645	20883
853.78	20941
853.914	20876
854.048	20788
854.183	20948
854.317	20910
854.451	21085
854.585	20929
854.72	20857
854.854	21085
854.988	20861
855.122	20933
855.256	20743
855.39	20933
855.524	20952
855.658	20967
855.792	20849
855.926	20902
856.06	20876
856.194	21013
856.327	20883
856.461	20906
856.595	20830
856.729	20960
856.862	21024
856.996	21020
857.13	21020
857.263	21020
857.397	20967
857.53	20921
857.664	20868
857.797	20937
857.931	21077
858.064	20921
858.197	20994
858.331	20819
858.464	20842
858.597	20826
858.731	20937
858.864	20998
858.997	20876
859.13	20906
859.263	20887
859.396	20963
859.529	20967
859.662	20807
859.795	20857
859.928	20861
860.061	21096
860.194	21123
860.327	20906
860.46	20804
860.592	21081
860.725	21112
860.858	21047
860.99	20979
861.123	20807
861.256	20921
861.388	21036
861.521	21439
861.653	20819
861.786	20583
861.918	20743
862.05	20785
862.183	20765
862.315	20925
862.447	20830
862.58	20906
862.712	20640
862.844	20617
862.976	20644
863.108	20731
863.24	21245
863.372	20564
863.504	20617
863.636	20522
863.768	20678
863.9	20788
864.032	20541
864.164	20594
864.296	20583
864.428	20819
864.559	20712
864.691	20735
864.823	20648
864.954	20598
865.086	20678
865.217	20488
865.349	20537
865.48	20556
865.612	20640
865.743	20613
865.875	20625
866.006	20480
866.137	20621
866.269	20492
866.4	20511
866.531	20514
866.662	20309
866.793	20476
866.924	20488
867.055	20427
867.186	20450
867.317	20526
867.448	20362
867.579	20412
867.71	20374
867.841	20434
867.972	20537
868.103	20473
868.233	20518
868.364	20389
868.495	20640
868.625	20682
868.756	20712
868.886	20731
869.017	20674
869.147	20861
869.278	20796
869.408	20716
869.539	20697
869.669	20804
869.799	20724
869.929	20754
870.06	20811
870.19	21009
870.32	21001
870.45	21032
870.58	21062
870.71	21241
870.84	21161
870.97	21207
871.1	21211
871.23	21302
871.36	21325
871.489	21154
871.619	21287
871.749	21279
871.879	21408
872.008	21370
872.138	21313
872.267	21370
872.397	21222
872.526	21199
872.656	21077
872.785	21249
872.915	21412
873.044	21458
873.173	21321
873.303	21408
873.432	21359
873.561	21454
873.69	21317
873.819	21283
873.948	21389
874.077	21378
874.206	21211
874.335	21389
874.464	21416
874.593	21496
874.722	21549
874.851	21660
874.979	21542
875.108	21663
875.237	21545
875.365	21393
875.494	21675
875.623	21660
875.751	21534
875.88	21652
876.008	21682
876.136	21759
876.265	21945
876.393	22017
876.521	21972
876.65	22105
876.778	21983
876.906	21789
877.034	21812
877.162	21983
877.29	21816
877.418	21937
877.546	22051
877.674	21903
877.802	22010
877.93	21994
878.058	21850
878.185	21812
878.313	21930
878.441	21941
878.568	21720
878.696	21846
878.824	21934
878.951	21994
879.079	22063
879.206	22173
879.333	22059
879.461	22067
879.588	22006
879.715	22044
879.842	22230
879.97	21987
880.097	21880
880.224	21728
880.351	21800
880.478	21728
880.605	21679
880.732	21823
880.859	21975
880.986	21755
881.112	21709
881.239	21568
881.366	21564
881.493	21412
881.619	21283
881.746	21344
881.872	21279
881.999	21329
882.125	21260
882.252	21359
882.378	21351
882.505	21382
882.631	21230
882.757	21119
882.883	20941
883.01	21039
883.136	20925
883.262	20952
883.388	20899
883.514	20906
883.64	20994
883.766	20887
883.892	20826
884.018	20765
884.143	20963
884.269	21062
884.395	20724
884.52	20697
884.646	20678
884.772	20682
884.897	20530
885.023	20750
885.148	20689
885.274	20823
885.399	20758
885.524	20678
885.65	20609
885.775	20739
885.9	20682
886.025	20663
886.15	20834
886.275	20541
886.4	20541
886.525	20629
886.65	20549
886.775	20640
886.9	20625
887.025	20967
887.149	20621
887.274	20393
887.399	20431
887.523	20355
887.648	20393
887.773	20317
887.897	20533
888.021	20442
888.146	20320
888.27	20552
888.395	20545
888.519	20560
888.643	20473
888.767	20457
888.891	20404
889.015	20180
889.139	20282
889.263	20240
889.387	20309
889.511	20457
889.635	20320
889.759	20286
889.883	20206
890.006	20301
890.13	20324
890.254	20199
890.377	20103
890.501	20020
890.624	19909
890.748	20084
890.871	19845
890.995	19776
891.118	19791
891.241	19852
891.364	19871
891.488	19868
891.611	19765
891.734	19849
891.857	19871
891.98	19704
892.103	19928
892.226	19871
892.349	19746
892.471	19578
892.594	19658
892.717	19750
892.839	19822
892.962	19746
893.085	19868
893.207	19681
893.33	19693
893.452	19635
893.575	19791
893.697	19849
893.819	19925
893.941	20020
894.064	19906
894.186	19712
894.308	19605
894.43	19814
894.552	19860
894.674	19784
894.796	19620
894.918	19742
895.04	19723
895.161	19860
895.283	19776
895.405	19628
895.526	19670
895.648	19753
895.769	19750
895.891	19795
896.012	19746
896.134	19746
896.255	19734
896.376	19643
896.498	19776
896.619	19769
896.74	19704
896.861	19753
896.982	20111
897.103	20259
897.224	20001
897.345	20088
897.466	19753
897.587	19974
897.708	20016
897.828	19997
897.949	19921
898.07	19795
898.19	19879
898.311	19986
898.431	19940
898.552	19894
898.672	20027
898.792	19951
898.913	19936
899.033	19837
899.153	19791
899.273	19655
899.393	19830
899.513	19765
899.633	19746
899.753	19776
899.873	19700
899.993	19609
900.113	19723
900.232	19700
900.352	19575
900.472	19480
900.591	19441
900.711	19590
900.83	19460
900.95	19518
901.069	19495
901.189	19438
901.308	19324
901.427	19126
901.546	19129
901.665	19095
901.784	19072
901.904	18932
902.023	18753
902.141	18665
902.26	18684
902.379	18578
902.498	18585
902.617	18532
902.735	18578
902.854	18559
902.973	18441
903.091	18258
903.21	18224
903.328	18281
903.446	18194
903.565	18152
903.683	18022
903.801	18003
903.919	18087
904.038	17999
904.156	17893
904.274	17988
904.392	17790
904.51	17870
904.627	17764
904.745	17874
904.863	17950
904.981	17657
905.098	17455
905.216	17562
905.334	17649
905.451	17539
905.569	17478
905.686	17512
905.803	17429
905.921	17383
906.038	17318
906.155	17341
906.272	17227
906.389	17273
906.506	17014
906.623	17094
906.74	17098
906.857	17003
906.974	16961
907.091	17162
907.208	17166
907.324	17117
907.441	17033
907.557	16801
907.674	16713
907.79	16820
907.907	16668
908.023	16805
908.139	16847
908.256	16729
908.372	16793
908.488	16805
908.604	16554
908.72	16485
908.836	16550
908.952	16500
909.068	16523
909.184	16615
909.3	16584
909.415	16535
909.531	16481
909.647	16314
909.762	16185
909.878	16230
909.993	16329
910.108	16234
910.224	16196
910.339	16169
910.454	16048
910.57	16040
910.685	16032
910.8	16188
910.915	16116
911.03	15953
911.145	15835
911.259	15846
911.374	15698
911.489	15781
911.604	15690
911.718	15568
911.833	15584
911.947	15515
912.062	15500
912.176	15526
912.291	15606
912.405	15526
912.519	15766
912.633	15781
912.748	15660
912.862	15481
912.976	15363
913.09	15237
913.204	15313
913.318	15340
913.431	15485
913.545	15439
913.659	15401
913.772	15447
913.886	15233
914	15176
914.113	15313
914.226	15405
914.34	15211
914.453	15154
914.566	15313
914.68	15051
914.793	14990
914.906	14872
915.019	14811
915.132	14735
915.245	14857
915.358	14811
915.47	14804
915.583	14861
915.696	14796
915.809	14933
915.921	14921
916.034	14804
916.146	14708
916.259	14754
916.371	14838
916.483	14773
916.595	14659
916.708	14613
916.82	14667
916.932	14598
917.044	14648
917.156	14590
917.268	14526
917.38	14530
917.491	14400
917.603	14438
917.715	14655
917.826	14610
917.938	14442
918.049	14381
918.161	14488
918.272	14526
918.384	14541
918.495	14404
918.606	14301
918.717	14252
918.828	14275
918.939	14229
919.05	14191
919.161	14218
919.272	13978
919.383	14058
919.494	14214
919.604	14537
919.715	14202
919.826	14096
919.936	14237
920.047	14317
920.157	14237
920.267	14419
920.378	14221
920.488	14225
920.598	14385
920.708	14541
920.818	14328
920.928	14233
921.038	14454
921.148	14427
921.258	14183
921.368	14027
921.477	13978
921.587	13963
921.697	13917
921.806	13917
921.916	13780
922.025	13639
922.134	13624
922.244	13529
922.353	13552
922.462	13487
922.571	13464
922.68	13331
922.789	13221
922.898	13285
923.007	13206
923.116	13320
923.224	13202
923.333	13206
923.442	13103
923.55	13107
923.659	13046
923.767	13133
923.876	13008
923.984	13053
924.092	12943
924.201	13031
924.309	13019
924.417	13031
924.525	12894
924.633	12844
924.741	13868
924.849	12665
924.956	12802
925.064	12703
925.172	12673
925.279	12719
925.387	12642
925.494	12604
925.602	12749
925.709	12719
925.816	12627
925.924	12688
926.031	12795
926.138	12696
926.245	12631
926.352	12582
926.459	12658
926.566	12662
926.673	12574
926.779	12433
926.886	12525
926.993	12254
927.099	12388
927.206	12159
927.312	12152
927.419	12350
927.525	12213
927.631	12346
927.737	12220
927.843	12121
927.95	12064
928.056	12091
928.162	12102
928.267	12148
928.373	12741
928.479	12125
928.585	11961
928.69	11999
928.796	12072
928.901	11878
929.007	11771
929.112	11897
929.218	11863
929.323	11805
929.428	11847
929.533	11916
929.638	11748
929.743	11843
929.848	11771
929.953	11798
930.058	11596
930.163	11543
930.267	11592
930.372	11611
930.477	11493
930.581	11684
930.685	11444
930.79	11398
930.894	11360
930.998	11383
931.103	11493
931.207	11143
931.311	11014
931.415	11033
931.519	10801
931.623	10790
