Data from test_V78500241_2316.txt Node
Date: Fri Mar 25 15:25:59 CST 2022
User: usil
Spectrometer: V785-0024
Trigger mode: 0
Integration Time (sec): 4.000000E-1
Scans to average: 1
Nonlinearity correction enabled: false
Boxcar width: 0
Storing dark spectrum: false
XAxis mode: Wavelengths
Number of Pixels in Spectrum: 1024
>>>>>Begin Spectral Data<<<<<
801.071	27252
801.214	27211
801.356	26952
801.499	26994
801.641	26823
801.783	26845
801.926	26743
802.068	26758
802.211	26998
802.353	26712
802.496	26450
802.638	26434
802.78	26560
802.923	26343
803.065	26358
803.208	26347
803.35	26579
803.492	26556
803.635	26518
803.777	26507
803.919	26644
804.061	26895
804.204	26724
804.346	26560
804.488	26590
804.63	26629
804.773	26530
804.915	26541
805.057	26750
805.199	26682
805.341	26609
805.483	26861
805.626	26727
805.768	26507
805.91	26655
806.052	26693
806.194	26590
806.336	26948
806.478	26735
806.62	26617
806.762	26781
806.904	26967
807.046	27264
807.188	26982
807.33	27298
807.472	27283
807.614	27165
807.756	27047
807.898	27077
808.04	26979
808.182	27062
808.324	27005
808.465	27032
808.607	27150
808.749	27389
808.891	27378
809.033	27572
809.174	27469
809.316	27291
809.458	27287
809.6	27370
809.741	27340
809.883	27488
810.025	27644
810.166	27629
810.308	27500
810.45	27530
810.591	27568
810.733	27359
810.875	27188
811.016	27226
811.158	27154
811.299	27405
811.441	27454
811.582	27447
811.724	27386
811.865	27256
812.007	27359
812.148	27260
812.29	27252
812.431	27427
812.573	27701
812.714	27728
812.855	27759
812.997	27972
813.138	28074
813.279	27876
813.421	27979
813.562	27831
813.703	27625
813.845	27572
813.986	27100
814.127	27112
814.268	27096
814.41	27039
814.551	26960
814.692	27043
814.833	26998
814.974	26887
815.115	27066
815.256	26811
815.397	26785
815.539	26963
815.68	26880
815.821	26743
815.962	26872
816.103	26883
816.244	26640
816.385	26434
816.526	26541
816.666	26317
816.807	26206
816.948	26355
817.089	26301
817.23	26343
817.371	26221
817.512	26313
817.653	26210
817.793	26294
817.934	26377
818.075	26229
818.216	26313
818.356	26355
818.497	26161
818.638	26073
818.778	25822
818.919	26001
819.06	26065
819.2	26046
819.341	26218
819.481	26187
819.622	26499
819.762	26564
819.903	26431
820.043	26442
820.184	26381
820.324	26343
820.465	26469
820.605	26339
820.746	26374
820.886	26199
821.026	26218
821.167	26305
821.307	26518
821.447	26248
821.588	26164
821.728	26122
821.868	25883
822.008	25746
822.149	25727
822.289	25681
822.429	25624
822.569	25415
822.709	25343
822.849	25091
822.99	25156
823.13	25308
823.27	25080
823.41	25232
823.55	24897
823.69	25038
823.83	24992
823.97	25050
824.11	24821
824.25	24745
824.389	24833
824.529	24920
824.669	24776
824.809	25133
824.949	24935
825.089	25012
825.228	24909
825.368	24684
825.508	24734
825.648	24658
825.787	24764
825.927	24810
826.067	24673
826.206	24757
826.346	24810
826.485	24730
826.625	24665
826.765	24920
826.904	24688
827.044	24559
827.183	24445
827.323	24540
827.462	24460
827.601	24346
827.741	24456
827.88	24388
828.02	24262
828.159	24369
828.298	24410
828.437	24467
828.577	24300
828.716	24509
828.855	24452
828.994	24182
829.134	24136
829.273	24182
829.412	24163
829.551	24102
829.69	24133
829.829	24015
829.968	24308
830.107	24266
830.246	24114
830.385	23958
830.524	23988
830.663	23977
830.802	23969
830.941	23695
831.08	23676
831.219	23710
831.357	23813
831.496	23893
831.635	23676
831.774	23558
831.913	23539
832.051	23512
832.19	23619
832.329	23486
832.467	23501
832.606	23356
832.744	23414
832.883	23471
833.022	23349
833.16	23383
833.299	23528
833.437	23406
833.576	23440
833.714	23493
833.852	23531
833.991	23505
834.129	23558
834.267	23501
834.406	23372
834.544	23551
834.682	23463
834.821	23372
834.959	23657
835.097	23433
835.235	23501
835.373	23482
835.511	23433
835.65	23372
835.788	23387
835.926	23181
836.064	23166
836.202	23159
836.34	23372
836.478	23398
836.615	23315
836.753	23356
836.891	23387
837.029	23315
837.167	23280
837.305	23223
837.443	23178
837.58	23200
837.718	23261
837.856	23121
837.993	23041
838.131	23166
838.269	22999
838.406	23083
838.544	22972
838.681	22774
838.819	22660
838.956	22519
839.094	22683
839.231	22569
839.369	22869
839.506	23185
839.643	22828
839.781	22656
839.918	22596
840.055	22626
840.193	22584
840.33	22538
840.467	22531
840.604	22664
840.742	22721
840.879	22424
841.016	22485
841.153	22447
841.29	22588
841.427	22569
841.564	22603
841.701	22603
841.838	22459
841.975	22481
842.112	22390
842.249	22402
842.385	22306
842.522	22599
842.659	22440
842.796	22181
842.933	22226
843.069	22272
843.206	22261
843.343	22405
843.479	22337
843.616	22493
843.752	22063
843.889	22097
844.025	22318
844.162	22048
844.298	22215
844.435	22086
844.571	22032
844.708	22044
844.844	22291
844.98	22177
845.117	22162
845.253	22059
845.389	21915
845.525	21998
845.661	21934
845.798	21819
845.934	21899
846.07	21808
846.206	21903
846.342	21857
846.478	21759
846.614	21622
846.75	21515
846.886	21553
847.022	21778
847.158	21633
847.294	21568
847.429	21644
847.565	21515
847.701	21800
847.837	21294
847.972	21306
848.108	21344
848.244	21401
848.379	21199
848.515	21062
848.65	21001
848.786	21154
848.921	21112
849.057	21241
849.192	21211
849.328	21176
849.463	21123
849.598	20994
849.734	21036
849.869	21047
850.004	20941
850.14	20963
850.275	20921
850.41	20838
850.545	20880
850.68	20735
850.815	20918
850.95	20845
851.085	21062
851.22	20956
851.355	20990
851.49	20906
851.625	20910
851.76	20861
851.895	20796
852.03	20868
852.165	20941
852.299	20975
852.434	20914
852.569	20937
852.703	20944
852.838	21009
852.973	21081
853.107	20967
853.242	20823
853.376	20788
853.511	20492
853.645	20617
853.78	20914
853.914	20826
854.048	20788
854.183	20716
854.317	20701
854.451	20933
854.585	20659
854.72	20708
854.854	20807
854.988	20716
855.122	20727
855.256	20564
855.39	20750
855.524	20849
855.658	20819
855.792	20815
855.926	20716
856.06	20720
856.194	20895
856.327	20796
856.461	20746
856.595	20644
856.729	20804
856.862	20807
856.996	20720
857.13	20785
857.263	20838
857.397	20670
857.53	20724
857.664	20807
857.797	20807
857.931	20769
858.064	20758
858.197	20758
858.331	20697
858.464	20674
858.597	20598
858.731	20712
858.864	20667
858.997	20583
859.13	20724
859.263	20762
859.396	20876
859.529	20746
859.662	20731
859.795	20682
859.928	20686
860.061	20842
860.194	20975
860.327	20602
860.46	20785
860.592	20804
860.725	20925
860.858	20811
860.99	20708
861.123	20705
861.256	20689
861.388	20663
861.521	21389
861.653	20636
861.786	20454
861.918	20514
862.05	20518
862.183	20655
862.315	20788
862.447	20632
862.58	20640
862.712	20579
862.844	20461
862.976	20552
863.108	20533
863.24	20876
863.372	20575
863.504	20537
863.636	20484
863.768	20351
863.9	20434
864.032	20393
864.164	20370
864.296	20522
864.428	20492
864.559	20541
864.691	20450
864.823	20530
864.954	20393
865.086	20473
865.217	20286
865.349	20347
865.48	20294
865.612	20290
865.743	20412
865.875	20271
866.006	20294
866.137	20351
866.269	20267
866.4	20229
866.531	20358
866.662	20347
866.793	20370
866.924	20221
867.055	20393
867.186	20278
867.317	20309
867.448	20172
867.579	20218
867.71	20149
867.841	20202
867.972	20385
868.103	20366
868.233	20301
868.364	20202
868.495	20427
868.625	20438
868.756	20689
868.886	20396
869.017	20560
869.147	20492
869.278	20590
869.408	20533
869.539	20492
869.669	20644
869.799	20556
869.929	20602
870.06	20648
870.19	20845
870.32	20777
870.45	20880
870.58	20929
870.71	21047
870.84	20929
870.97	20918
871.1	20967
871.23	21093
871.36	21150
871.489	21036
871.619	21150
871.749	21146
871.879	21218
872.008	21344
872.138	21108
872.267	21173
872.397	20986
872.526	20986
872.656	21020
872.785	20986
872.915	20963
873.044	21252
873.173	21131
873.303	21112
873.432	21218
873.561	21287
873.69	21165
873.819	21146
873.948	21146
874.077	21085
874.206	21112
874.335	21085
874.464	21294
874.593	21397
874.722	21298
874.851	21481
874.979	21359
875.108	21473
875.237	21420
875.365	21389
875.494	21321
875.623	21473
875.751	21363
875.88	21325
876.008	21591
876.136	21488
876.265	21857
876.393	21850
876.521	21895
876.65	21865
876.778	21823
876.906	21682
877.034	21686
877.162	21785
877.29	21663
877.418	21686
877.546	21835
877.674	21701
877.802	21804
877.93	21781
878.058	21633
878.185	21549
878.313	21812
878.441	21698
878.568	21625
878.696	21713
878.824	21778
878.951	21713
879.079	21842
879.206	21964
879.333	21941
879.461	21808
879.588	21884
879.715	21892
879.842	21941
879.97	21838
880.097	21629
880.224	21595
880.351	21526
880.478	21701
880.605	21507
880.732	21641
880.859	21865
880.986	21511
881.112	21622
881.239	21428
881.366	21218
881.493	21310
881.619	21150
881.746	21256
881.872	21176
881.999	21245
882.125	21043
882.252	21184
882.378	21169
882.505	21154
882.631	20975
882.757	20830
882.883	20902
883.01	20864
883.136	20845
883.262	20743
883.388	20651
883.514	20845
883.64	20899
883.766	20750
883.892	20708
884.018	20629
884.143	20830
884.269	20830
884.395	20473
884.52	20324
884.646	20545
884.772	20488
884.897	20393
885.023	20488
885.148	20667
885.274	20640
885.399	20689
885.524	20503
885.65	20564
885.775	20648
885.9	20507
886.025	20503
886.15	20511
886.275	20495
886.4	20358
886.525	20438
886.65	20480
886.775	20465
886.9	20678
887.025	20689
887.149	20495
887.274	20286
887.399	20339
887.523	20252
887.648	20168
887.773	20214
887.897	20328
888.021	20275
888.146	20294
888.27	20343
888.395	20415
888.519	20282
888.643	20370
888.767	20320
888.891	20248
889.015	20005
889.139	20225
889.263	20069
889.387	20259
889.511	20339
889.635	20218
889.759	20142
889.883	20122
890.006	20054
890.13	20065
890.254	20088
890.377	20020
890.501	19849
890.624	19811
890.748	19818
890.871	19826
890.995	19624
891.118	19533
891.241	19674
891.364	19666
891.488	19845
891.611	19693
891.734	19700
891.857	19655
891.98	19757
892.103	19712
892.226	19635
892.349	19655
892.471	19369
892.594	19571
892.717	19605
892.839	19472
892.962	19616
893.085	19780
893.207	19521
893.33	19457
893.452	19575
893.575	19605
893.697	19521
893.819	19674
893.941	19814
894.064	19685
894.186	19529
894.308	19453
894.43	19609
894.552	19712
894.674	19643
894.796	19403
894.918	19563
895.04	19552
895.161	19662
895.283	19655
895.405	19670
895.526	19582
895.648	19548
895.769	19616
895.891	19590
896.012	19609
896.134	19651
896.255	19499
896.376	19472
896.498	19559
896.619	19635
896.74	19594
896.861	19666
896.982	19936
897.103	20008
897.224	19826
897.345	19776
897.466	19632
897.587	19696
897.708	19894
897.828	19837
897.949	19795
898.07	19540
898.19	19719
898.311	19841
898.431	19715
898.552	19666
898.672	19932
898.792	19849
898.913	19833
899.033	19666
899.153	19605
899.273	19441
899.393	19499
899.513	19658
899.633	19476
899.753	19590
899.873	19548
899.993	19677
900.113	19415
900.232	19571
900.352	19525
900.472	19384
900.591	19472
900.711	19381
900.83	19274
900.95	19495
901.069	19453
901.189	19247
901.308	19042
901.427	18981
901.546	18985
901.665	19023
901.784	18993
901.904	18821
902.023	18665
902.141	18547
902.26	18429
902.379	18620
902.498	18471
902.617	18323
902.735	18494
902.854	18369
902.973	18479
903.091	18110
903.21	18136
903.328	18155
903.446	18144
903.565	18041
903.683	17977
903.801	17866
903.919	17904
904.038	17889
904.156	17657
904.274	17783
904.392	17676
904.51	17630
904.627	17771
904.745	17813
904.863	17821
904.981	17524
905.098	17337
905.216	17429
905.334	17421
905.451	17410
905.569	17391
905.686	17551
905.803	17486
905.921	17155
906.038	17200
906.155	17174
906.272	17113
906.389	17136
906.506	16919
906.623	16934
906.74	16984
906.857	16866
906.974	16854
907.091	16968
907.208	17094
907.324	16889
907.441	16850
907.557	16717
907.674	16679
907.79	16592
907.907	16630
908.023	16694
908.139	16645
908.256	16592
908.372	16497
908.488	16455
908.604	16462
908.72	16356
908.836	16356
908.952	16329
909.068	16474
909.184	16428
909.3	16333
909.415	16352
909.531	16379
909.647	16143
909.762	16067
909.878	16025
909.993	16154
910.108	16055
910.224	16188
910.339	16078
910.454	15991
910.57	15949
910.685	15861
910.8	16135
910.915	16097
911.03	15854
911.145	15713
911.259	15637
911.374	15641
911.489	15622
911.604	15538
911.718	15378
911.833	15530
911.947	15310
912.062	15321
912.176	15386
912.291	15416
912.405	15401
912.519	15542
912.633	15709
912.748	15450
912.862	15329
912.976	15291
913.09	15241
913.204	15218
913.318	15233
913.431	15291
913.545	15313
913.659	15374
913.772	15226
913.886	15131
914	15017
914.113	15142
914.226	15123
914.34	15100
914.453	14937
914.566	15150
914.68	14967
914.793	14914
914.906	14773
915.019	14731
915.132	14651
915.245	14667
915.358	14746
915.47	14686
915.583	14724
915.696	14727
915.809	14712
915.921	14743
916.034	14686
916.146	14560
916.259	14564
916.371	14610
916.483	14659
916.595	14564
916.708	14457
916.82	14446
916.932	14480
917.044	14419
917.156	14419
917.268	14400
917.38	14442
917.491	14328
917.603	14339
917.715	14488
917.826	14518
917.938	14271
918.049	14229
918.161	14309
918.272	14404
918.384	14377
918.495	14259
918.606	14229
918.717	14084
918.828	14176
918.939	14183
919.05	14020
919.161	14126
919.272	14054
919.383	13921
919.494	14157
919.604	14347
919.715	14145
919.826	14046
919.936	14035
920.047	14191
920.157	14096
920.267	14301
920.378	14035
920.488	14145
920.598	14229
920.708	14381
920.818	14244
920.928	14244
921.038	14377
921.148	14324
921.258	13978
921.368	13978
921.477	13959
921.587	13788
921.697	13620
921.806	13731
921.916	13613
922.025	13480
922.134	13518
922.244	13422
922.353	13571
922.462	13293
922.571	13350
922.68	13175
922.789	13171
922.898	13137
923.007	13072
923.116	13160
923.224	13247
923.333	13080
923.442	13012
923.55	12943
923.659	12996
923.767	13095
923.876	12901
923.984	13038
924.092	12825
924.201	12951
924.309	12890
924.417	12958
924.525	12821
924.633	12856
924.741	13757
924.849	12677
924.956	12711
925.064	12551
925.172	12551
925.279	12513
925.387	12623
925.494	12544
925.602	12779
925.709	12646
925.816	12494
925.924	12517
926.031	12551
926.138	12506
926.245	12620
926.352	12388
926.459	12551
926.566	12623
926.673	12498
926.779	12296
926.886	12437
926.993	12155
927.099	12190
927.206	12144
927.312	12136
927.419	12114
927.525	12163
927.631	12186
927.737	12053
927.843	12053
927.95	11885
928.056	12049
928.162	11984
928.267	11973
928.373	12589
928.479	12045
928.585	11790
928.69	11916
928.796	11927
928.901	11855
929.007	11771
929.112	11885
929.218	11809
929.323	11741
929.428	11680
929.533	11859
929.638	11665
929.743	11680
929.848	11851
929.953	11752
930.058	11600
930.163	11410
930.267	11455
930.372	11623
930.477	11391
930.581	11604
930.685	11566
930.79	11330
930.894	11311
930.998	11216
931.103	11436
931.207	11094
931.311	11045
931.415	10949
931.519	10714
931.623	10740
