Data from test_V78500241_1808.txt Node
Date: Fri Mar 25 15:22:26 CST 2022
User: usil
Spectrometer: V785-0024
Trigger mode: 0
Integration Time (sec): 4.000000E-1
Scans to average: 1
Nonlinearity correction enabled: false
Boxcar width: 0
Storing dark spectrum: false
XAxis mode: Wavelengths
Number of Pixels in Spectrum: 1024
>>>>>Begin Spectral Data<<<<<
801.071	27869
801.214	27979
801.356	27564
801.499	27401
801.641	27439
801.783	27260
801.926	27504
802.068	27408
802.211	27473
802.353	27275
802.496	27119
802.638	27157
802.78	27028
802.923	27032
803.065	27085
803.208	27047
803.35	27051
803.492	27313
803.635	27230
803.777	27051
803.919	27252
804.061	27667
804.204	27336
804.346	27302
804.488	27135
804.63	27340
804.773	27154
804.915	27462
805.057	27386
805.199	27203
805.341	27264
805.483	27545
805.626	27458
805.768	27325
805.91	27291
806.052	27408
806.194	27401
806.336	27564
806.478	27351
806.62	27325
806.762	27523
806.904	27679
807.046	27918
807.188	27819
807.33	27770
807.472	27945
807.614	27747
807.756	27873
807.898	27656
808.04	27644
808.182	27682
808.324	27728
808.465	27698
808.607	27911
808.749	28074
808.891	28188
809.033	28196
809.174	27903
809.316	27895
809.458	27972
809.6	28002
809.741	28086
809.883	28131
810.025	28421
810.166	28371
810.308	28348
810.45	28265
810.591	28219
810.733	27949
810.875	27968
811.016	27922
811.158	27975
811.299	28143
811.441	28154
811.582	28150
811.724	28147
811.865	27937
812.007	27956
812.148	27975
812.29	28097
812.431	28257
812.573	28318
812.714	28413
812.855	28630
812.997	28634
813.138	28828
813.279	28740
813.421	28493
813.562	28447
813.703	28455
813.845	28207
813.986	27953
814.127	27751
814.268	27778
814.41	27759
814.551	27724
814.692	27880
814.833	27736
814.974	27671
815.115	27648
815.256	27641
815.397	27629
815.539	27641
815.68	27682
815.821	27424
815.962	27587
816.103	27500
816.244	27568
816.385	27370
816.526	27287
816.666	27096
816.807	27005
816.948	27085
817.089	27127
817.23	27100
817.371	26823
817.512	26921
817.653	27070
817.793	27058
817.934	27051
818.075	27055
818.216	27108
818.356	27001
818.497	26929
818.638	26788
818.778	26788
818.919	26834
819.06	26792
819.2	27039
819.341	27036
819.481	27089
819.622	27237
819.762	27329
819.903	27226
820.043	27245
820.184	27252
820.324	27093
820.465	27203
820.605	27142
820.746	26948
820.886	26948
821.026	27100
821.167	27096
821.307	27279
821.447	27184
821.588	26857
821.728	26807
821.868	26670
822.008	26575
822.149	26598
822.289	26556
822.429	26126
822.569	26115
822.709	26084
822.849	25978
822.99	26119
823.13	26065
823.27	26054
823.41	25746
823.55	25833
823.69	25887
823.83	25811
823.97	25704
824.11	25582
824.25	25639
824.389	25632
824.529	25658
824.669	25609
824.809	25795
824.949	25746
825.089	25795
825.228	25708
825.368	25388
825.508	25613
825.648	25708
825.787	25518
825.927	25712
826.067	25479
826.206	25441
826.346	25533
826.485	25571
826.625	25514
826.765	25571
826.904	25655
827.044	25278
827.183	25434
827.323	25346
827.462	25358
827.601	25381
827.741	25308
827.88	25293
828.02	25190
828.159	25293
828.298	25308
828.437	25396
828.577	25118
828.716	25304
828.855	25145
828.994	25015
829.134	25034
829.273	25171
829.412	24882
829.551	25000
829.69	25004
829.829	24970
829.968	24992
830.107	25103
830.246	24985
830.385	24875
830.524	24844
830.663	24871
830.802	24802
830.941	24536
831.08	24578
831.219	24650
831.357	24631
831.496	24810
831.635	24772
831.774	24555
831.913	24498
832.051	24391
832.19	24399
832.329	24369
832.467	24338
832.606	24247
832.744	24174
832.883	24254
833.022	24319
833.16	24292
833.299	24365
833.437	24380
833.576	24289
833.714	24315
833.852	24525
833.991	24380
834.129	24353
834.267	24403
834.406	24334
834.544	24395
834.682	24315
834.821	24323
834.959	24544
835.097	24311
835.235	24304
835.373	24311
835.511	24319
835.65	24072
835.788	24178
835.926	24018
836.064	23942
836.202	24129
836.34	24201
836.478	24270
836.615	24205
836.753	24117
836.891	24270
837.029	24163
837.167	24167
837.305	23916
837.443	23992
837.58	23988
837.718	24003
837.856	23996
837.993	23973
838.131	24038
838.269	23893
838.406	23965
838.544	23802
838.681	23699
838.819	23623
838.956	23501
839.094	23406
839.231	23570
839.369	23722
839.506	23954
839.643	23638
839.781	23528
839.918	23520
840.055	23421
840.193	23547
840.33	23436
840.467	23425
840.604	23402
840.742	23726
840.879	23254
841.016	23284
841.153	23307
841.29	23589
841.427	23299
841.564	23585
841.701	23364
841.838	23391
841.975	23303
842.112	23235
842.249	23185
842.385	23109
842.522	23421
842.659	23250
842.796	23060
842.933	23151
843.069	23136
843.206	23136
843.343	23288
843.479	23162
843.616	23197
843.752	23010
843.889	23018
844.025	23048
844.162	22930
844.298	22843
844.435	22934
844.571	22949
844.708	22984
844.844	23090
844.98	23147
845.117	22980
845.253	22869
845.389	22748
845.525	22919
845.661	22873
845.798	22660
845.934	22706
846.07	22706
846.206	22672
846.342	22721
846.478	22645
846.614	22447
846.75	22375
846.886	22394
847.022	22443
847.158	22440
847.294	22485
847.429	22519
847.565	22424
847.701	22717
847.837	22177
847.972	21941
848.108	22310
848.244	22265
848.379	21922
848.515	22013
848.65	22017
848.786	22078
848.921	22093
849.057	21964
849.192	22112
849.328	21941
849.463	22021
849.598	21774
849.734	21945
849.869	21880
850.004	21869
850.14	21827
850.275	21823
850.41	21606
850.545	21873
850.68	21717
850.815	21876
850.95	21823
851.085	21899
851.22	21895
851.355	21732
851.49	21774
851.625	21603
851.76	21739
851.895	21591
852.03	21694
852.165	21698
852.299	21717
852.434	21800
852.569	21888
852.703	21648
852.838	21953
852.973	21945
853.107	21888
853.242	21656
853.376	21557
853.511	21481
853.645	21534
853.78	21637
853.914	21507
854.048	21652
854.183	21542
854.317	21698
854.451	21717
854.585	21564
854.72	21488
854.854	21724
854.988	21401
855.122	21637
855.256	21405
855.39	21580
855.524	21686
855.658	21576
855.792	21644
855.926	21568
856.06	21743
856.194	21660
856.327	21485
856.461	21488
856.595	21500
856.729	21500
856.862	21671
856.996	21549
857.13	21603
857.263	21762
857.397	21690
857.53	21511
857.664	21705
857.797	21572
857.931	21488
858.064	21580
858.197	21557
858.331	21545
858.464	21568
858.597	21488
858.731	21530
858.864	21477
858.997	21435
859.13	21656
859.263	21469
859.396	21610
859.529	21572
859.662	21538
859.795	21431
859.928	21496
860.061	21667
860.194	21789
860.327	21587
860.46	21637
860.592	21770
860.725	21644
860.858	21713
860.99	21526
861.123	21576
861.256	21648
861.388	21549
861.521	22112
861.653	21435
861.786	21249
861.918	21382
862.05	21496
862.183	21538
862.315	21542
862.447	21622
862.58	21542
862.712	21264
862.844	21298
862.976	21313
863.108	21431
863.24	21648
863.372	21245
863.504	21336
863.636	21222
863.768	21439
863.9	21195
864.032	21279
864.164	21218
864.296	21313
864.428	21443
864.559	21386
864.691	21291
864.823	21211
864.954	21233
865.086	21226
865.217	21260
865.349	21032
865.48	21211
865.612	21074
865.743	21245
865.875	21275
866.006	21112
866.137	21195
866.269	21142
866.4	21222
866.531	21104
866.662	21096
866.793	20967
866.924	21157
867.055	21020
867.186	21188
867.317	21001
867.448	21009
867.579	21055
867.71	21001
867.841	20899
867.972	21024
868.103	21093
868.233	21218
868.364	21074
868.495	21214
868.625	21268
868.756	21416
868.886	21302
869.017	21405
869.147	21477
869.278	21443
869.408	21173
869.539	21363
869.669	21340
869.799	21374
869.929	21515
870.06	21450
870.19	21641
870.32	21583
870.45	21720
870.58	21770
870.71	21812
870.84	21827
870.97	21698
871.1	21812
871.23	22010
871.36	21876
871.489	21899
871.619	21918
871.749	21930
871.879	21907
872.008	22013
872.138	22006
872.267	21911
872.397	21736
872.526	21804
872.656	21808
872.785	21797
872.915	21949
873.044	22074
873.173	21953
873.303	22017
873.432	21975
873.561	22074
873.69	22051
873.819	21899
873.948	22143
874.077	22044
874.206	21895
874.335	21960
874.464	21994
874.593	22166
874.722	22249
874.851	22177
874.979	22154
875.108	22322
875.237	22192
875.365	22185
875.494	22181
875.623	22238
875.751	22158
875.88	22219
876.008	22325
876.136	22432
876.265	22611
876.393	22828
876.521	22706
876.65	22740
876.778	22554
876.906	22527
877.034	22436
877.162	22489
877.29	22432
877.418	22584
877.546	22618
877.674	22485
877.802	22500
877.93	22508
878.058	22531
878.185	22344
878.313	22474
878.441	22535
878.568	22443
878.696	22459
878.824	22577
878.951	22584
879.079	22778
879.206	22938
879.333	22752
879.461	22542
879.588	22740
879.715	22736
879.842	22824
879.97	22577
880.097	22299
880.224	22421
880.351	22443
880.478	22428
880.605	22356
880.732	22299
880.859	22470
880.986	22394
881.112	22211
881.239	22268
881.366	22128
881.493	22029
881.619	22025
881.746	22021
881.872	21888
881.999	21899
882.125	21865
882.252	21892
882.378	22013
882.505	21998
882.631	21865
882.757	21682
882.883	21739
883.01	21671
883.136	21576
883.262	21523
883.388	21424
883.514	21713
883.64	21583
883.766	21530
883.892	21378
884.018	21408
884.143	21428
884.269	21679
884.395	21393
884.52	21211
884.646	21184
884.772	21154
884.897	21192
885.023	21302
885.148	21401
885.274	21363
885.399	21469
885.524	21241
885.65	21325
885.775	21340
885.9	21188
886.025	21348
886.15	21393
886.275	21211
886.4	21123
886.525	21218
886.65	20956
886.775	21116
886.9	21336
887.025	21397
887.149	21275
887.274	21096
887.399	21131
887.523	21154
887.648	21116
887.773	20967
887.897	21028
888.021	21032
888.146	20998
888.27	21123
888.395	21123
888.519	21066
888.643	21074
888.767	21112
888.891	20979
889.015	20811
889.139	20990
889.263	20769
889.387	21001
889.511	21096
889.635	20979
889.759	20823
889.883	20823
890.006	20754
890.13	20826
890.254	20697
890.377	20659
890.501	20689
890.624	20533
890.748	20602
890.871	20503
890.995	20385
891.118	20286
891.241	20320
891.364	20400
891.488	20575
891.611	20533
891.734	20324
891.857	20423
891.98	20370
892.103	20457
892.226	20370
892.349	20290
892.471	20229
892.594	20362
892.717	20248
892.839	20267
892.962	20351
893.085	20377
893.207	20248
893.33	20142
893.452	20199
893.575	20286
893.697	20225
893.819	20457
893.941	20495
894.064	20385
894.186	20259
894.308	20278
894.43	20450
894.552	20461
894.674	20370
894.796	20130
894.918	20221
895.04	20374
895.161	20347
895.283	20389
895.405	20176
895.526	20294
895.648	20206
895.769	20294
895.891	20324
896.012	20309
896.134	20199
896.255	20248
896.376	20282
896.498	20366
896.619	20358
896.74	20271
896.861	20377
896.982	20663
897.103	20804
897.224	20545
897.345	20438
897.466	20446
897.587	20526
897.708	20670
897.828	20514
897.949	20370
898.07	20362
898.19	20362
898.311	20556
898.431	20473
898.552	20473
898.672	20636
898.792	20552
898.913	20499
899.033	20362
899.153	20358
899.273	20210
899.393	20309
899.513	20278
899.633	20320
899.753	20324
899.873	20138
899.993	20126
900.113	20176
900.232	20202
900.352	20100
900.472	20046
900.591	19947
900.711	20084
900.83	20031
900.95	20149
901.069	20073
901.189	19822
901.308	19620
901.427	19601
901.546	19533
901.665	19666
901.784	19674
901.904	19449
902.023	19327
902.141	19114
902.26	19080
902.379	19206
902.498	19069
902.617	19038
902.735	19023
902.854	19057
902.973	19027
903.091	18795
903.21	18776
903.328	18738
903.446	18677
903.565	18582
903.683	18661
903.801	18513
903.919	18544
904.038	18570
904.156	18281
904.274	18448
904.392	18323
904.51	18380
904.627	18407
904.745	18346
904.863	18426
904.981	18106
905.098	17950
905.216	17999
905.334	18026
905.451	18064
905.569	18083
905.686	18129
905.803	17999
905.921	17798
906.038	17897
906.155	17767
906.272	17756
906.389	17756
906.506	17562
906.623	17562
906.74	17463
906.857	17391
906.974	17528
907.091	17577
907.208	17642
907.324	17615
907.441	17395
907.557	17326
907.674	17368
907.79	17273
907.907	17250
908.023	17258
908.139	17212
908.256	17189
908.372	17136
908.488	17102
908.604	17048
908.72	16843
908.836	17045
908.952	16923
909.068	17014
909.184	16999
909.3	16877
909.415	16938
909.531	16930
909.647	16801
909.762	16592
909.878	16565
909.993	16820
910.108	16664
910.224	16588
910.339	16736
910.454	16584
910.57	16478
910.685	16329
910.8	16721
910.915	16599
911.03	16481
911.145	16291
911.259	16265
911.374	16234
911.489	16310
911.604	16131
911.718	16078
911.833	15998
911.947	15945
912.062	15827
912.176	16029
912.291	15983
912.405	15983
912.519	16101
912.633	16211
912.748	16059
912.862	15922
912.976	15804
913.09	15705
913.204	15819
913.318	15865
913.431	15975
913.545	15857
913.659	15915
913.772	15869
913.886	15667
914	15633
914.113	15629
914.226	15789
914.34	15572
914.453	15538
914.566	15549
914.68	15534
914.793	15481
914.906	15332
915.019	15226
915.132	15222
915.245	15195
915.358	15169
915.47	15222
915.583	15211
915.696	15237
915.809	15336
915.921	15340
916.034	15287
916.146	15001
916.259	15173
916.371	15173
916.483	15165
916.595	15097
916.708	14986
916.82	15112
916.932	15020
917.044	15024
917.156	14952
917.268	14929
917.38	14902
917.491	14864
917.603	14876
917.715	14944
917.826	15066
917.938	14796
918.049	14701
918.161	14773
918.272	14944
918.384	14872
918.495	14883
918.606	14606
918.717	14629
918.828	14610
918.939	14712
919.05	14613
919.161	14667
919.272	14454
919.383	14434
919.494	14610
919.604	14765
919.715	14629
919.826	14590
919.936	14556
920.047	14606
920.157	14587
920.267	14868
920.378	14651
920.488	14606
920.598	14777
920.708	14914
920.818	14716
920.928	14731
921.038	14864
921.148	14838
921.258	14537
921.368	14423
921.477	14229
921.587	14301
921.697	14259
921.806	14328
921.916	14142
922.025	14012
922.134	13902
922.244	13898
922.353	13993
922.462	13909
922.571	13811
922.68	13681
922.789	13636
922.898	13693
923.007	13453
923.116	13563
923.224	13639
923.333	13651
923.442	13438
923.55	13388
923.659	13445
923.767	13491
923.876	13388
923.984	13495
924.092	13362
924.201	13346
924.309	13384
924.417	13381
924.525	13331
924.633	13274
924.741	14183
924.849	13183
924.956	13282
925.064	13008
925.172	12939
925.279	13050
925.387	13057
925.494	13015
925.602	13065
925.709	13023
925.816	12947
925.924	13012
926.031	13034
926.138	12958
926.245	12989
926.352	12844
926.459	12943
926.566	13069
926.673	12894
926.779	12791
926.886	12795
926.993	12582
927.099	12639
927.206	12517
927.312	12551
927.419	12597
927.525	12509
927.631	12574
927.737	12448
927.843	12388
927.95	12304
928.056	12330
928.162	12296
928.267	12483
928.373	13004
928.479	12410
928.585	12277
928.69	12361
928.796	12350
928.901	12270
929.007	12171
929.112	12319
929.218	12258
929.323	12216
929.428	12125
929.533	12251
929.638	12079
929.743	12072
929.848	12098
929.953	12083
930.058	11836
930.163	11851
930.267	11866
930.372	11988
930.477	11783
930.581	12007
930.685	11866
930.79	11722
930.894	11653
930.998	11756
931.103	11745
931.207	11482
931.311	11376
931.415	11341
931.519	11136
931.623	11079
