Data from test_V78500241_762.txt Node
Date: Fri Mar 25 15:15:09 CST 2022
User: usil
Spectrometer: V785-0024
Trigger mode: 0
Integration Time (sec): 4.000000E-1
Scans to average: 1
Nonlinearity correction enabled: false
Boxcar width: 0
Storing dark spectrum: false
XAxis mode: Wavelengths
Number of Pixels in Spectrum: 1024
>>>>>Begin Spectral Data<<<<<
801.071	27903
801.214	27720
801.356	27603
801.499	27618
801.641	27481
801.783	27306
801.926	27599
802.068	27447
802.211	27469
802.353	27401
802.496	27089
802.638	27081
802.78	27089
802.923	27036
803.065	27036
803.208	27070
803.35	27169
803.492	27180
803.635	27173
803.777	27256
803.919	27260
804.061	27583
804.204	27287
804.346	27085
804.488	27188
804.63	27355
804.773	27203
804.915	27332
805.057	27317
805.199	27279
805.341	27412
805.483	27519
805.626	27359
805.768	27260
805.91	27370
806.052	27370
806.194	27473
806.336	27549
806.478	27568
806.62	27515
806.762	27618
806.904	27800
807.046	27884
807.188	27781
807.33	27838
807.472	27914
807.614	27831
807.756	27934
807.898	27701
808.04	27614
808.182	27808
808.324	27709
808.465	27762
808.607	27941
808.749	28124
808.891	28116
809.033	28367
809.174	28120
809.316	28044
809.458	28082
809.6	28063
809.741	28352
809.883	28173
810.025	28440
810.166	28440
810.308	28401
810.45	28417
810.591	28226
810.733	28105
810.875	27979
811.016	28006
811.158	27979
811.299	28166
811.441	28192
811.582	28074
811.724	28128
811.865	28048
812.007	28131
812.148	28147
812.29	28166
812.431	28318
812.573	28303
812.714	28478
812.855	28656
812.997	28782
813.138	28805
813.279	28809
813.421	28622
813.562	28489
813.703	28478
813.845	28337
813.986	28185
814.127	27876
814.268	27797
814.41	27728
814.551	27759
814.692	27808
814.833	27736
814.974	27785
815.115	27808
815.256	27747
815.397	27743
815.539	27732
815.68	27462
815.821	27591
815.962	27682
816.103	27595
816.244	27500
816.385	27534
816.526	27351
816.666	27188
816.807	27169
816.948	27074
817.089	27199
817.23	27154
817.371	27085
817.512	27096
817.653	27096
817.793	27066
817.934	26948
818.075	27142
818.216	27020
818.356	27032
818.497	26929
818.638	26845
818.778	26804
818.919	26857
819.06	26971
819.2	27150
819.341	27051
819.481	26979
819.622	27252
819.762	27401
819.903	27408
820.043	27245
820.184	27256
820.324	27119
820.465	27260
820.605	27272
820.746	27180
820.886	27131
821.026	27275
821.167	27203
821.307	27260
821.447	27066
821.588	26990
821.728	26807
821.868	26777
822.008	26731
822.149	26450
822.289	26370
822.429	26366
822.569	26240
822.709	26237
822.849	26100
822.99	26100
823.13	25963
823.27	25917
823.41	25852
823.55	25807
823.69	25841
823.83	25723
823.97	25788
824.11	25651
824.25	25677
824.389	25708
824.529	25746
824.669	25738
824.809	25852
824.949	25875
825.089	25753
825.228	25639
825.368	25525
825.508	25628
825.648	25533
825.787	25639
825.927	25635
826.067	25559
826.206	25510
826.346	25826
826.485	25514
826.625	25666
826.765	25750
826.904	25605
827.044	25453
827.183	25373
827.323	25335
827.462	25521
827.601	25453
827.741	25270
827.88	25392
828.02	25263
828.159	25247
828.298	25187
828.437	25308
828.577	25251
828.716	25362
828.855	25179
828.994	25004
829.134	25038
829.273	25065
829.412	25015
829.551	24863
829.69	25038
829.829	25133
829.968	25095
830.107	25183
830.246	25015
830.385	24932
830.524	24844
830.663	24935
830.802	24547
830.941	24711
831.08	24654
831.219	24684
831.357	24703
831.496	24810
831.635	24623
831.774	24505
831.913	24566
832.051	24513
832.19	24433
832.329	24498
832.467	24300
832.606	24159
832.744	24338
832.883	24201
833.022	24330
833.16	24323
833.299	24365
833.437	24391
833.576	24395
833.714	24399
833.852	24414
833.991	24300
834.129	24475
834.267	24437
834.406	24403
834.544	24426
834.682	24502
834.821	24353
834.959	24365
835.097	24334
835.235	24338
835.373	24350
835.511	24300
835.65	24194
835.788	24228
835.926	24018
836.064	23946
836.202	24030
836.34	24102
836.478	24197
836.615	24117
836.753	24270
836.891	24296
837.029	24060
837.167	24159
837.305	24144
837.443	23927
837.58	24098
837.718	24182
837.856	23897
837.993	23961
838.131	23923
838.269	23847
838.406	23927
838.544	23897
838.681	23623
838.819	23668
838.956	23440
839.094	23440
839.231	23585
839.369	23604
839.506	23901
839.643	23855
839.781	23444
839.918	23410
840.055	23452
840.193	23452
840.33	23334
840.467	23455
840.604	23395
840.742	23611
840.879	23155
841.016	23269
841.153	23246
841.29	23395
841.427	23406
841.564	23379
841.701	23478
841.838	23269
841.975	23292
842.112	23254
842.249	23208
842.385	23094
842.522	23406
842.659	23227
842.796	23083
842.933	23090
843.069	22984
843.206	23147
843.343	23193
843.479	23178
843.616	23098
843.752	22953
843.889	22904
844.025	23147
844.162	22934
844.298	23018
844.435	22904
844.571	22942
844.708	22957
844.844	22949
844.98	23041
845.117	23075
845.253	22885
845.389	22812
845.525	22759
845.661	22710
845.798	22641
845.934	22706
846.07	22599
846.206	22653
846.342	22782
846.478	22599
846.614	22421
846.75	22341
846.886	22432
847.022	22413
847.158	22432
847.294	22375
847.429	22413
847.565	22360
847.701	22694
847.837	22128
847.972	22090
848.108	22261
848.244	22192
848.379	22166
848.515	22169
848.65	21941
848.786	22002
848.921	22051
849.057	22048
849.192	22063
849.328	22002
849.463	21975
849.598	21934
849.734	21960
849.869	21918
850.004	21793
850.14	21876
850.275	21827
850.41	21656
850.545	21705
850.68	21648
850.815	21709
850.95	21751
851.085	21937
851.22	21869
851.355	21770
851.49	21778
851.625	21671
851.76	21603
851.895	21709
852.03	21709
852.165	21682
852.299	21648
852.434	21774
852.569	21785
852.703	21701
852.838	21892
852.973	21869
853.107	21895
853.242	21686
853.376	21595
853.511	21450
853.645	21545
853.78	21728
853.914	21625
854.048	21572
854.183	21561
854.317	21599
854.451	21869
854.585	21545
854.72	21473
854.854	21618
854.988	21561
855.122	21580
855.256	21408
855.39	21564
855.524	21568
855.658	21679
855.792	21603
855.926	21492
856.06	21561
856.194	21656
856.327	21542
856.461	21507
856.595	21523
856.729	21412
856.862	21717
856.996	21519
857.13	21595
857.263	21580
857.397	21648
857.53	21507
857.664	21557
857.797	21667
857.931	21595
858.064	21686
858.197	21652
858.331	21545
858.464	21481
858.597	21526
858.731	21481
858.864	21523
858.997	21477
859.13	21553
859.263	21526
859.396	21656
859.529	21625
859.662	21435
859.795	21564
859.928	21526
860.061	21720
860.194	21797
860.327	21709
860.46	21595
860.592	21682
860.725	21739
860.858	21694
860.99	21576
861.123	21450
861.256	21545
861.388	21648
861.521	22223
861.653	21488
861.786	21249
861.918	21386
862.05	21466
862.183	21523
862.315	21530
862.447	21500
862.58	21492
862.712	21424
862.844	21294
862.976	21294
863.108	21351
863.24	21739
863.372	21252
863.504	21325
863.636	21283
863.768	21192
863.9	21241
864.032	21085
864.164	21123
864.296	21332
864.428	21287
864.559	21439
864.691	21294
864.823	21355
864.954	21291
865.086	21272
865.217	21096
865.349	21051
865.48	21142
865.612	21085
865.743	21245
865.875	21287
866.006	21249
866.137	21195
866.269	21089
866.4	21096
866.531	21165
866.662	21077
866.793	21081
866.924	21047
867.055	21116
867.186	21169
867.317	20982
867.448	20963
867.579	21146
867.71	20994
867.841	20971
867.972	21100
868.103	21062
868.233	21058
868.364	20994
868.495	21230
868.625	21348
868.756	21317
868.886	21264
869.017	21260
869.147	21485
869.278	21363
869.408	21313
869.539	21310
869.669	21332
869.799	21367
869.929	21477
870.06	21504
870.19	21656
870.32	21614
870.45	21679
870.58	21743
870.71	21949
870.84	21759
870.97	21751
871.1	21705
871.23	21812
871.36	21983
871.489	21915
871.619	21956
871.749	21857
871.879	21994
872.008	21975
872.138	21842
872.267	21918
872.397	21759
872.526	21774
872.656	21785
872.785	21736
872.915	21869
873.044	22090
873.173	21941
873.303	21903
873.432	21949
873.561	22078
873.69	22055
873.819	22086
873.948	22017
874.077	22059
874.206	21937
874.335	21922
874.464	21975
874.593	22147
874.722	22211
874.851	22181
874.979	22154
875.108	22223
875.237	22128
875.365	22074
875.494	22147
875.623	22280
875.751	22181
875.88	22230
876.008	22234
876.136	22428
876.265	22535
876.393	22634
876.521	22710
876.65	22599
876.778	22630
876.906	22557
877.034	22538
877.162	22645
877.29	22508
877.418	22512
877.546	22645
877.674	22649
877.802	22493
877.93	22508
878.058	22557
878.185	22436
878.313	22672
878.441	22561
878.568	22306
878.696	22409
878.824	22538
878.951	22611
879.079	22683
879.206	22911
879.333	22778
879.461	22683
879.588	22706
879.715	22675
879.842	22778
879.97	22721
880.097	22314
880.224	22363
880.351	22497
880.478	22474
880.605	22295
880.732	22276
880.859	22580
880.986	22367
881.112	22344
881.239	22253
881.366	22048
881.493	22029
881.619	21895
881.746	21960
881.872	22097
881.999	21800
882.125	21941
882.252	22029
882.378	21930
882.505	22147
882.631	21854
882.757	21633
882.883	21838
883.01	21671
883.136	21599
883.262	21439
883.388	21382
883.514	21671
883.64	21633
883.766	21545
883.892	21424
884.018	21351
884.143	21629
884.269	21622
884.395	21325
884.52	21275
884.646	21222
884.772	21199
884.897	21013
885.023	21340
885.148	21473
885.274	21408
885.399	21298
885.524	21325
885.65	21397
885.775	21169
885.9	21176
886.025	21367
886.15	21264
886.275	21302
886.4	21184
886.525	21199
886.65	21154
886.775	21348
886.9	21367
887.025	21431
887.149	21245
887.274	21028
887.399	21142
887.523	21001
887.648	21070
887.773	21001
887.897	21074
888.021	20994
888.146	21009
888.27	21039
888.395	21074
888.519	21096
888.643	20952
888.767	21085
888.891	20960
889.015	20819
889.139	20861
889.263	20689
889.387	20872
889.511	20994
889.635	20941
889.759	20788
889.883	20880
890.006	20777
890.13	20952
890.254	20655
890.377	20727
890.501	20549
890.624	20552
890.748	20598
890.871	20526
890.995	20419
891.118	20370
891.241	20431
891.364	20461
891.488	20461
891.611	20415
891.734	20507
891.857	20339
891.98	20465
892.103	20495
892.226	20355
892.349	20385
892.471	20195
892.594	20259
892.717	20358
892.839	20336
892.962	20324
893.085	20396
893.207	20282
893.33	20161
893.452	20214
893.575	20332
893.697	20191
893.819	20385
893.941	20526
894.064	20446
894.186	20278
894.308	20377
894.43	20317
894.552	20412
894.674	20324
894.796	20199
894.918	20233
895.04	20252
895.161	20393
895.283	20252
895.405	20183
895.526	20339
895.648	20256
895.769	20358
895.891	20294
896.012	20362
896.134	20377
896.255	20324
896.376	20229
896.498	20202
896.619	20317
896.74	20317
896.861	20309
896.982	20511
897.103	20670
897.224	20564
897.345	20427
897.466	20431
897.587	20568
897.708	20594
897.828	20583
897.949	20408
898.07	20374
898.19	20518
898.311	20632
898.431	20465
898.552	20492
898.672	20533
898.792	20705
898.913	20476
899.033	20415
899.153	20252
899.273	20271
899.393	20263
899.513	20233
899.633	20263
899.753	20206
899.873	20130
899.993	20225
900.113	20263
900.232	20305
900.352	20199
900.472	20267
900.591	19997
900.711	20016
900.83	19925
900.95	20191
901.069	20096
901.189	19890
901.308	19662
901.427	19635
901.546	19674
901.665	19525
901.784	19601
901.904	19578
902.023	19282
902.141	19168
902.26	19164
902.379	19232
902.498	19129
902.617	19133
902.735	19247
902.854	19129
902.973	19110
903.091	18844
903.21	18810
903.328	18730
903.446	18711
903.565	18688
903.683	18661
903.801	18365
903.919	18555
904.038	18521
904.156	18384
904.274	18479
904.392	18277
904.51	18338
904.627	18334
904.745	18429
904.863	18251
904.981	18197
905.098	18049
905.216	17912
905.334	18095
905.451	17897
905.569	17973
905.686	18045
905.803	17965
905.921	17790
906.038	17885
906.155	17809
906.272	17824
906.389	17786
906.506	17592
906.623	17589
906.74	17551
906.857	17455
906.974	17474
907.091	17665
907.208	17532
907.324	17573
907.441	17471
907.557	17288
907.674	17273
907.79	17288
907.907	17341
908.023	17231
908.139	17258
908.256	17197
908.372	17189
908.488	17124
908.604	17033
908.72	17022
908.836	16889
908.952	17048
909.068	17010
909.184	17052
909.3	17048
909.415	17014
909.531	17006
909.647	16702
909.762	16797
909.878	16679
909.993	16744
910.108	16710
910.224	16653
910.339	16759
910.454	16577
910.57	16607
910.685	16375
910.8	16660
910.915	16710
911.03	16470
911.145	16402
911.259	16219
911.374	16352
911.489	16310
911.604	16249
911.718	16036
911.833	16082
911.947	15911
912.062	15751
912.176	16006
912.291	15968
912.405	15979
912.519	16166
912.633	16181
912.748	16059
912.862	15968
912.976	15880
913.09	15766
913.204	15770
913.318	15808
913.431	15907
913.545	15903
913.659	15949
913.772	15762
913.886	15652
914	15663
914.113	15800
914.226	15705
914.34	15698
914.453	15488
914.566	15724
914.68	15466
914.793	15485
914.906	15363
915.019	15294
915.132	15245
915.245	15256
915.358	15245
915.47	15310
915.583	15188
915.696	15157
915.809	15321
915.921	15302
916.034	15138
916.146	15180
916.259	15180
916.371	15283
916.483	15146
916.595	15108
916.708	15093
916.82	15051
916.932	15100
917.044	14979
917.156	15043
917.268	14887
917.38	14967
917.491	14826
917.603	14986
917.715	14967
917.826	14910
917.938	14853
918.049	14777
918.161	14800
918.272	14948
918.384	14975
918.495	14811
918.606	14610
918.717	14655
918.828	14686
918.939	14571
919.05	14587
919.161	14549
919.272	14469
919.383	14434
919.494	14507
919.604	14796
919.715	14667
919.826	14507
919.936	14545
920.047	14644
920.157	14564
920.267	14781
920.378	14552
920.488	14552
920.598	14781
920.708	14872
920.818	14743
920.928	14739
921.038	14902
921.148	14902
921.258	14617
921.368	14476
921.477	14339
921.587	14366
921.697	14237
921.806	14408
921.916	14191
922.025	14081
922.134	14065
922.244	13875
922.353	14016
922.462	13811
922.571	13837
922.68	13651
922.789	13601
922.898	13624
923.007	13556
923.116	13784
923.224	13594
923.333	13620
923.442	13502
923.55	13411
923.659	13495
923.767	13453
923.876	13422
923.984	13514
924.092	13415
924.201	13403
924.309	13312
924.417	13426
924.525	13381
924.633	13331
924.741	14096
924.849	13179
924.956	13168
925.064	13084
925.172	13065
925.279	13023
925.387	13080
925.494	13034
925.602	13118
925.709	13000
925.816	12954
925.924	13057
926.031	13107
926.138	13000
926.245	13038
926.352	12867
926.459	12958
926.566	13160
926.673	12951
926.779	12814
926.886	12798
926.993	12627
927.099	12620
927.206	12506
927.312	12506
927.419	12673
927.525	12612
927.631	12597
927.737	12563
927.843	12471
927.95	12429
928.056	12395
928.162	12388
928.267	12464
928.373	13088
928.479	12536
928.585	12216
928.69	12414
928.796	12467
928.901	12232
929.007	12159
929.112	12273
929.218	12205
929.323	12205
929.428	12148
929.533	12266
929.638	12098
929.743	12072
929.848	12133
929.953	12117
930.058	11920
930.163	11760
930.267	11882
930.372	11950
930.477	11840
930.581	11992
930.685	11882
930.79	11745
930.894	11756
930.998	11695
931.103	11809
931.207	11417
931.311	11383
931.415	11330
931.519	11109
931.623	11121
