Data from test_V78500241_561.txt Node
Date: Fri Mar 25 15:13:45 CST 2022
User: usil
Spectrometer: V785-0024
Trigger mode: 0
Integration Time (sec): 4.000000E-1
Scans to average: 1
Nonlinearity correction enabled: false
Boxcar width: 0
Storing dark spectrum: false
XAxis mode: Wavelengths
Number of Pixels in Spectrum: 1024
>>>>>Begin Spectral Data<<<<<
801.071	26712
801.214	26640
801.356	26450
801.499	26412
801.641	26450
801.783	26324
801.926	26362
802.068	26153
802.211	25982
802.353	26039
802.496	25951
802.638	25849
802.78	25852
802.923	25830
803.065	25769
803.208	25795
803.35	26005
803.492	26024
803.635	25944
803.777	25887
803.919	26043
804.061	26294
804.204	25871
804.346	25883
804.488	25750
804.63	25932
804.773	25921
804.915	25963
805.057	26020
805.199	25822
805.341	25970
805.483	26084
805.626	26054
805.768	26043
805.91	25883
806.052	26092
806.194	25951
806.336	26218
806.478	26103
806.62	26008
806.762	26157
806.904	26358
807.046	26549
807.188	26537
807.33	26480
807.472	26560
807.614	26248
807.756	26415
807.898	26370
808.04	26320
808.182	26229
808.324	26240
808.465	26263
808.607	26476
808.749	26663
808.891	26632
809.033	26773
809.174	26682
809.316	26632
809.458	26648
809.6	26621
809.741	26727
809.883	26777
810.025	26933
810.166	26933
810.308	27043
810.45	26925
810.591	26883
810.733	26708
810.875	26716
811.016	26495
811.158	26499
811.299	26712
811.441	26735
811.582	26724
811.724	26541
811.865	26594
812.007	26609
812.148	26629
812.29	26602
812.431	26758
812.573	26834
812.714	26937
812.855	27165
812.997	27272
813.138	27420
813.279	27173
813.421	27272
813.562	27089
813.703	27013
813.845	26880
813.986	26533
814.127	26385
814.268	26187
814.41	26244
814.551	26164
814.692	26431
814.833	26256
814.974	26088
815.115	26252
815.256	26214
815.397	26210
815.539	26103
815.68	26092
815.821	26062
815.962	26142
816.103	26145
816.244	25947
816.385	25917
816.526	25723
816.666	25658
816.807	25479
816.948	25643
817.089	25639
817.23	25643
817.371	25537
817.512	25624
817.653	25453
817.793	25415
817.934	25544
818.075	25495
818.216	25533
818.356	25540
818.497	25518
818.638	25114
818.778	25392
818.919	25354
819.06	25312
819.2	25381
819.341	25434
819.481	25620
819.622	25704
819.762	25761
819.903	25731
820.043	25791
820.184	25666
820.324	25674
820.465	25757
820.605	25529
820.746	25635
820.886	25468
821.026	25685
821.167	25491
821.307	25628
821.447	25521
821.588	25411
821.728	25339
821.868	25236
822.008	25034
822.149	25004
822.289	24875
822.429	24787
822.569	24707
822.709	24719
822.849	24464
822.99	24517
823.13	24399
823.27	24429
823.41	24266
823.55	24304
823.69	24285
823.83	24311
823.97	24258
824.11	24076
824.25	24057
824.389	24136
824.529	24197
824.669	24136
824.809	24174
824.949	24327
825.089	24232
825.228	24091
825.368	24038
825.508	24015
825.648	23980
825.787	23965
825.927	24053
826.067	23946
826.206	24026
826.346	23798
826.485	24121
826.625	24018
826.765	24053
826.904	23950
827.044	23668
827.183	23710
827.323	23562
827.462	23832
827.601	23771
827.741	23741
827.88	23714
828.02	23668
828.159	23680
828.298	23638
828.437	23809
828.577	23608
828.716	23748
828.855	23585
828.994	23520
829.134	23356
829.273	23395
829.412	23512
829.551	23410
829.69	23520
829.829	23455
829.968	23410
830.107	23414
830.246	23547
830.385	23322
830.524	23261
830.663	23239
830.802	23166
830.941	22942
831.08	23029
831.219	23124
831.357	23155
831.496	23235
831.635	23067
831.774	22987
831.913	22896
832.051	22858
832.19	22793
832.329	22847
832.467	22801
832.606	22656
832.744	22679
832.883	22691
833.022	22759
833.16	22607
833.299	22698
833.437	22725
833.576	22839
833.714	22820
833.852	22843
833.991	22774
834.129	22847
834.267	22805
834.406	22831
834.544	22835
834.682	22812
834.821	22782
834.959	22930
835.097	22687
835.235	22790
835.373	22759
835.511	22713
835.65	22569
835.788	22622
835.926	22538
836.064	22314
836.202	22470
836.34	22622
836.478	22694
836.615	22599
836.753	22607
836.891	22763
837.029	22748
837.167	22607
837.305	22577
837.443	22546
837.58	22489
837.718	22447
837.856	22527
837.993	22424
838.131	22481
838.269	22360
838.406	22428
838.544	22215
838.681	22147
838.819	21987
838.956	21956
839.094	21880
839.231	22048
839.369	22055
839.506	22413
839.643	22173
839.781	21926
839.918	21850
840.055	22002
840.193	21937
840.33	21880
840.467	21850
840.604	21937
840.742	22181
840.879	21804
841.016	21827
841.153	21781
841.29	22067
841.427	21800
841.564	21991
841.701	21827
841.838	21800
841.975	21694
842.112	21679
842.249	21823
842.385	21583
842.522	21861
842.659	21644
842.796	21637
842.933	21511
843.069	21610
843.206	21641
843.343	21599
843.479	21572
843.616	21694
843.752	21397
843.889	21382
844.025	21496
844.162	21458
844.298	21504
844.435	21420
844.571	21469
844.708	21424
844.844	21610
844.98	21523
845.117	21538
845.253	21378
845.389	21359
845.525	21367
845.661	21233
845.798	21291
845.934	21233
846.07	21062
846.206	21260
846.342	21268
846.478	21036
846.614	21039
846.75	20998
846.886	20826
847.022	20842
847.158	20975
847.294	20941
847.429	21032
847.565	20902
847.701	21173
847.837	20648
847.972	20609
848.108	20693
848.244	20667
848.379	20431
848.515	20560
848.65	20476
848.786	20545
848.921	20530
849.057	20503
849.192	20667
849.328	20514
849.463	20476
849.598	20511
849.734	20351
849.869	20381
850.004	20366
850.14	20389
850.275	20362
850.41	20286
850.545	20191
850.68	20176
850.815	20233
850.95	20328
851.085	20332
851.22	20461
851.355	20339
851.49	20149
851.625	20195
851.76	20233
851.895	20164
852.03	20153
852.165	20164
852.299	20309
852.434	20374
852.569	20278
852.703	20240
852.838	20362
852.973	20473
853.107	20271
853.242	20221
853.376	20012
853.511	19982
853.645	19989
853.78	20122
853.914	20157
854.048	20161
854.183	20024
854.317	20138
854.451	20134
854.585	20126
854.72	20221
854.854	20180
854.988	20096
855.122	20107
855.256	20001
855.39	20016
855.524	20145
855.658	20081
855.792	20096
855.926	20088
856.06	20202
856.194	20119
856.327	20012
856.461	20062
856.595	20031
856.729	19974
856.862	20161
856.996	20119
857.13	20168
857.263	20206
857.397	20195
857.53	20111
857.664	20145
857.797	20092
857.931	20263
858.064	20081
858.197	20130
858.331	20039
858.464	20130
858.597	20126
858.731	20115
858.864	20069
858.997	19993
859.13	20111
859.263	20142
859.396	20225
859.529	20126
859.662	20157
859.795	20088
859.928	20027
860.061	20271
860.194	20309
860.327	20145
860.46	20111
860.592	20218
860.725	20244
860.858	20145
860.99	20134
861.123	19978
861.256	20126
861.388	20077
861.521	20880
861.653	19944
861.786	19959
861.918	19887
862.05	19879
862.183	20001
862.315	20073
862.447	20100
862.58	19978
862.712	19784
862.844	19753
862.976	19951
863.108	19871
863.24	20096
863.372	19822
863.504	19776
863.636	19852
863.768	19887
863.9	19822
864.032	19791
864.164	19803
864.296	19913
864.428	19894
864.559	19898
864.691	19906
864.823	19772
864.954	19883
865.086	19765
865.217	19811
865.349	19693
865.48	19814
865.612	19674
865.743	19936
865.875	19700
866.006	19814
866.137	19788
866.269	19632
866.4	19723
866.531	19719
866.662	19601
866.793	19677
866.924	19639
867.055	19662
867.186	19578
867.317	19582
867.448	19586
867.579	19533
867.71	19556
867.841	19639
867.972	19635
868.103	19609
868.233	19655
868.364	19681
868.495	19784
868.625	19765
868.756	20069
868.886	19890
869.017	19913
869.147	20043
869.278	20043
869.408	19963
869.539	19841
869.669	20043
869.799	19959
869.929	20031
870.06	19967
870.19	20187
870.32	20183
870.45	20271
870.58	20358
870.71	20434
870.84	20434
870.97	20389
871.1	20301
871.23	20617
871.36	20343
871.489	20446
871.619	20526
871.749	20530
871.879	20545
872.008	20613
872.138	20514
872.267	20450
872.397	20484
872.526	20347
872.656	20412
872.785	20339
872.915	20575
873.044	20636
873.173	20716
873.303	20598
873.432	20659
873.561	20659
873.69	20625
873.819	20579
873.948	20629
874.077	20431
874.206	20522
874.335	20488
874.464	20518
874.593	20853
874.722	20712
874.851	20758
874.979	20902
875.108	20769
875.237	20781
875.365	20811
875.494	20697
875.623	20868
875.751	20716
875.88	20712
876.008	20975
876.136	20876
876.265	21116
876.393	21336
876.521	21310
876.65	21112
876.778	21249
876.906	21154
877.034	21138
877.162	21112
877.29	21005
877.418	21207
877.546	21275
877.674	21150
877.802	21096
877.93	21203
878.058	21249
878.185	21001
878.313	21096
878.441	21165
878.568	20960
878.696	21077
878.824	21203
878.951	21214
879.079	21329
879.206	21344
879.333	21439
879.461	21161
879.588	21367
879.715	21306
879.842	21443
879.97	21192
880.097	21013
880.224	21005
880.351	20929
880.478	20982
880.605	20937
880.732	20963
880.859	21233
880.986	20967
881.112	21089
881.239	20902
881.366	20686
881.493	20705
881.619	20545
881.746	20564
881.872	20659
881.999	20530
882.125	20568
882.252	20564
882.378	20488
882.505	20693
882.631	20454
882.757	20290
882.883	20343
883.01	20229
883.136	20252
883.262	20130
883.388	20153
883.514	20370
883.64	20355
883.766	20218
883.892	20149
884.018	20111
884.143	20282
884.269	20332
884.395	20016
884.52	19883
884.646	20069
884.772	20024
884.897	19753
885.023	19906
885.148	20069
885.274	20077
885.399	20088
885.524	19944
885.65	20016
885.775	20027
885.9	19906
886.025	20054
886.15	20084
886.275	19932
886.4	19906
886.525	19928
886.65	19833
886.775	19887
886.9	20103
887.025	20134
887.149	19967
887.274	19856
887.399	19795
887.523	19712
887.648	19750
887.773	19632
887.897	19750
888.021	19788
888.146	19651
888.27	19868
888.395	19951
888.519	19811
888.643	19712
888.767	19932
888.891	19616
889.015	19548
889.139	19620
889.263	19487
889.387	19696
889.511	19670
889.635	19753
889.759	19674
889.883	19533
890.006	19544
890.13	19689
890.254	19552
890.377	19422
890.501	19327
890.624	19297
890.748	19396
890.871	19381
890.995	19152
891.118	19065
891.241	19148
891.364	19259
891.488	19308
891.611	19225
891.734	19194
891.857	19209
891.98	19069
892.103	19289
892.226	19274
892.349	19034
892.471	18947
892.594	19034
892.717	19164
892.839	19076
892.962	19027
893.085	19183
893.207	19126
893.33	18977
893.452	18993
893.575	19088
893.697	19110
893.819	19209
893.941	19263
894.064	19247
894.186	19000
894.308	18947
894.43	19244
894.552	19190
894.674	19152
894.796	19065
894.918	19034
895.04	19198
895.161	19244
895.283	19065
895.405	18985
895.526	19095
895.648	19137
895.769	19118
895.891	19118
896.012	19171
896.134	19050
896.255	19145
896.376	19038
896.498	19095
896.619	19168
896.74	19042
896.861	19164
896.982	19403
897.103	19514
897.224	19350
897.345	19293
897.466	19320
897.587	19377
897.708	19422
897.828	19282
897.949	19225
898.07	19183
898.19	19236
898.311	19343
898.431	19194
898.552	19327
898.672	19510
898.792	19384
898.913	19225
899.033	19240
899.153	19217
899.273	19012
899.393	19168
899.513	19160
899.633	19133
899.753	19050
899.873	18970
899.993	19042
900.113	19042
900.232	19000
900.352	18977
900.472	18882
900.591	18840
900.711	18958
900.83	18913
900.95	18878
901.069	18882
901.189	18878
901.308	18623
901.427	18528
901.546	18506
901.665	18467
901.784	18479
901.904	18372
902.023	18205
902.141	18076
902.26	18003
902.379	18201
902.498	18095
902.617	17927
902.735	17950
902.854	17984
902.973	17939
903.091	17699
903.21	17646
903.328	17665
903.446	17714
903.565	17505
903.683	17554
903.801	17364
903.919	17455
904.038	17383
904.156	17246
904.274	17353
904.392	17254
904.51	17337
904.627	17269
904.745	17303
904.863	17383
904.981	17212
905.098	17029
905.216	16942
905.334	17022
905.451	17025
905.569	17003
905.686	17041
905.803	16965
905.921	16774
906.038	16946
906.155	16824
906.272	16660
906.389	16687
906.506	16504
906.623	16599
906.74	16447
906.857	16322
906.974	16443
907.091	16523
907.208	16527
907.324	16546
907.441	16386
907.557	16242
907.674	16295
907.79	16154
907.907	16306
908.023	16211
908.139	16215
908.256	16169
908.372	16135
908.488	16131
908.604	15968
908.72	16040
908.836	15960
908.952	15937
909.068	15979
909.184	16040
909.3	15922
909.415	15911
909.531	15979
909.647	15762
909.762	15686
909.878	15720
909.993	15713
910.108	15690
910.224	15660
910.339	15610
910.454	15473
910.57	15557
910.685	15481
910.8	15675
910.915	15625
911.03	15488
911.145	15340
911.259	15252
911.374	15325
911.489	15165
911.604	15214
911.718	15047
911.833	15127
911.947	15020
912.062	14838
912.176	14933
912.291	15074
912.405	15009
912.519	15142
912.633	15192
912.748	15150
912.862	15039
912.976	14937
913.09	14762
913.204	14804
913.318	14883
913.431	14975
913.545	14914
913.659	14956
913.772	14823
913.886	14674
914	14750
914.113	14746
914.226	14785
914.34	14792
914.453	14541
914.566	14636
914.68	14571
914.793	14473
914.906	14347
915.019	14313
915.132	14240
915.245	14400
915.358	14305
915.47	14339
915.583	14305
915.696	14290
915.809	14434
915.921	14450
916.034	14244
916.146	14218
916.259	14206
916.371	14370
916.483	14294
916.595	14138
916.708	14218
916.82	14164
916.932	14168
917.044	13997
917.156	14149
917.268	14069
917.38	13955
917.491	14058
917.603	13986
917.715	14062
917.826	14153
917.938	13940
918.049	13826
918.161	13955
918.272	14043
918.384	14058
918.495	13978
918.606	13776
918.717	13620
918.828	13875
918.939	13734
919.05	13750
919.161	13746
919.272	13620
919.383	13674
919.494	13814
919.604	13932
919.715	13719
919.826	13655
919.936	13784
920.047	13837
920.157	13715
920.267	13951
920.378	13841
920.488	13738
920.598	13951
920.708	14062
920.818	13944
920.928	13791
921.038	14107
921.148	13959
921.258	13746
921.368	13666
921.477	13540
921.587	13449
921.697	13293
921.806	13506
921.916	13415
922.025	13274
922.134	13019
922.244	13091
922.353	13137
922.462	13023
922.571	12973
922.68	12844
922.789	12768
922.898	12867
923.007	12707
923.116	12833
923.224	12753
923.333	12776
923.442	12677
923.55	12707
923.659	12616
923.767	12707
923.876	12601
923.984	12734
924.092	12407
924.201	12620
924.309	12540
924.417	12635
924.525	12544
924.633	12563
924.741	13270
924.849	12308
924.956	12429
925.064	12346
925.172	12171
925.279	12205
925.387	12209
925.494	12273
925.602	12426
925.709	12323
925.816	12171
925.924	12235
926.031	12315
926.138	12167
926.245	12330
926.352	12095
926.459	12273
926.566	12323
926.673	12140
926.779	12030
926.886	12076
926.993	11843
927.099	11874
927.206	11798
927.312	11840
927.419	11939
927.525	11843
927.631	11855
927.737	11786
927.843	11661
927.95	11691
928.056	11691
928.162	11646
928.267	11623
928.373	12311
928.479	11779
928.585	11509
928.69	11729
928.796	11688
928.901	11661
929.007	11490
929.112	11596
929.218	11459
929.323	11547
929.428	11349
929.533	11551
929.638	11353
929.743	11368
929.848	11391
929.953	11417
930.058	11334
930.163	11132
930.267	11174
930.372	11326
930.477	11025
930.581	11277
930.685	11193
930.79	11052
930.894	11041
930.998	10972
931.103	11136
931.207	10748
931.311	10755
931.415	10630
931.519	10405
931.623	10424
