Data from test_V78500241_1583.txt Node
Date: Fri Mar 25 15:20:52 CST 2022
User: usil
Spectrometer: V785-0024
Trigger mode: 0
Integration Time (sec): 4.000000E-1
Scans to average: 1
Nonlinearity correction enabled: false
Boxcar width: 0
Storing dark spectrum: false
XAxis mode: Wavelengths
Number of Pixels in Spectrum: 1024
>>>>>Begin Spectral Data<<<<<
801.071	27926
801.214	27759
801.356	27572
801.499	27534
801.641	27545
801.783	27386
801.926	27424
802.068	27397
802.211	27275
802.353	27310
802.496	27230
802.638	27138
802.78	27085
802.923	27013
803.065	26910
803.208	26960
803.35	27055
803.492	27218
803.635	27336
803.777	27165
803.919	27256
804.061	27564
804.204	27294
804.346	27233
804.488	27131
804.63	27252
804.773	27070
804.915	27245
805.057	27310
805.199	27233
805.341	27252
805.483	27450
805.626	27355
805.768	27233
805.91	27515
806.052	27473
806.194	27340
806.336	27580
806.478	27538
806.62	27500
806.762	27462
806.904	27648
807.046	27960
807.188	27800
807.33	27854
807.472	27926
807.614	27751
807.756	27819
807.898	27648
808.04	27625
808.182	27523
808.324	27736
808.465	27705
808.607	27899
808.749	27975
808.891	28166
809.033	28188
809.174	28051
809.316	28017
809.458	27979
809.6	27899
809.741	28169
809.883	28219
810.025	28367
810.166	28234
810.308	28219
810.45	28367
810.591	28166
810.733	28120
810.875	28093
811.016	27827
811.158	27941
811.299	28002
811.441	28131
811.582	28166
811.724	28101
811.865	28025
812.007	28101
812.148	28055
812.29	27918
812.431	28299
812.573	28390
812.714	28360
812.855	28557
812.997	28611
813.138	28824
813.279	28656
813.421	28649
813.562	28607
813.703	28531
813.845	28303
813.986	27960
814.127	27876
814.268	27857
814.41	27808
814.551	27732
814.692	27709
814.833	27656
814.974	27656
815.115	27652
815.256	27625
815.397	27660
815.539	27530
815.68	27603
815.821	27401
815.962	27450
816.103	27401
816.244	27538
816.385	27203
816.526	27317
816.666	27138
816.807	26940
816.948	27180
817.089	27104
817.23	27066
817.371	27119
817.512	26986
817.653	27055
817.793	27009
817.934	27096
818.075	27032
818.216	27001
818.356	26960
818.497	26906
818.638	26773
818.778	26796
818.919	26811
819.06	26948
819.2	26899
819.341	27020
819.481	27032
819.622	27135
819.762	27230
819.903	27291
820.043	27184
820.184	27184
820.324	27104
820.465	27051
820.605	27207
820.746	27108
820.886	27017
821.026	26902
821.167	26994
821.307	27096
821.447	27017
821.588	27089
821.728	26830
821.868	26636
822.008	26453
822.149	26492
822.289	26473
822.429	26187
822.569	26168
822.709	26229
822.849	25993
822.99	25921
823.13	25871
823.27	25955
823.41	25818
823.55	25712
823.69	25776
823.83	25780
823.97	25852
824.11	25639
824.25	25624
824.389	25685
824.529	25780
824.669	25563
824.809	25734
824.949	25753
825.089	25635
825.228	25666
825.368	25445
825.508	25472
825.648	25464
825.787	25499
825.927	25620
826.067	25518
826.206	25464
826.346	25525
826.485	25578
826.625	25407
826.765	25518
826.904	25556
827.044	25301
827.183	25232
827.323	25103
827.462	25297
827.601	25244
827.741	25228
827.88	25202
828.02	25285
828.159	25206
828.298	25213
828.437	25225
828.577	25019
828.716	25320
828.855	25080
828.994	24905
829.134	24825
829.273	24916
829.412	24783
829.551	24913
829.69	24962
829.829	24958
829.968	24977
830.107	25023
830.246	24951
830.385	24878
830.524	24863
830.663	24798
830.802	24559
830.941	24593
831.08	24566
831.219	24631
831.357	24635
831.496	24753
831.635	24536
831.774	24540
831.913	24471
832.051	24376
832.19	24403
832.329	24228
832.467	24342
832.606	24034
832.744	24091
832.883	24213
833.022	24121
833.16	24251
833.299	24308
833.437	24178
833.576	24220
833.714	24194
833.852	24213
833.991	24239
834.129	24194
834.267	24323
834.406	24136
834.544	24308
834.682	24235
834.821	24224
834.959	24350
835.097	24148
835.235	24254
835.373	24110
835.511	24133
835.65	24034
835.788	24182
835.926	23984
836.064	23828
836.202	23885
836.34	24140
836.478	24129
836.615	24079
836.753	24041
836.891	24068
837.029	24057
837.167	23999
837.305	23870
837.443	23927
837.58	23954
837.718	23996
837.856	23931
837.993	23920
838.131	23794
838.269	23878
838.406	23703
838.544	23828
838.681	23665
838.819	23608
838.956	23391
839.094	23269
839.231	23406
839.369	23516
839.506	23840
839.643	23665
839.781	23387
839.918	23490
840.055	23307
840.193	23410
840.33	23216
840.467	23273
840.604	23387
840.742	23501
840.879	23124
841.016	23254
841.153	23109
841.29	23284
841.427	23356
841.564	23292
841.701	23189
841.838	23227
841.975	23185
842.112	23303
842.249	23079
842.385	22980
842.522	23273
842.659	23083
842.796	22934
842.933	23079
843.069	22949
843.206	23010
843.343	23216
843.479	23083
843.616	22934
843.752	22835
843.889	22824
844.025	23071
844.162	22885
844.298	22892
844.435	22771
844.571	22816
844.708	22911
844.844	22980
844.98	22991
845.117	22919
845.253	22809
845.389	22679
845.525	22668
845.661	22607
845.798	22538
845.934	22687
846.07	22561
846.206	22599
846.342	22645
846.478	22527
846.614	22356
846.75	22204
846.886	22261
847.022	22379
847.158	22333
847.294	22386
847.429	22291
847.565	22238
847.701	22481
847.837	21968
847.972	21987
848.108	22082
848.244	22017
848.379	21975
848.515	21865
848.65	21838
848.786	21899
848.921	21922
849.057	22070
849.192	22051
849.328	21835
849.463	21808
849.598	21907
849.734	21876
849.869	21720
850.004	21660
850.14	21656
850.275	21682
850.41	21690
850.545	21564
850.68	21523
850.815	21698
850.95	21656
851.085	21945
851.22	21701
851.355	21587
851.49	21583
851.625	21625
851.76	21663
851.895	21591
852.03	21473
852.165	21663
852.299	21720
852.434	21720
852.569	21614
852.703	21625
852.838	21675
852.973	21846
853.107	21618
853.242	21477
853.376	21568
853.511	21416
853.645	21469
853.78	21717
853.914	21454
854.048	21431
854.183	21542
854.317	21576
854.451	21576
854.585	21454
854.72	21447
854.854	21526
854.988	21336
855.122	21591
855.256	21405
855.39	21545
855.524	21507
855.658	21625
855.792	21599
855.926	21485
856.06	21545
856.194	21496
856.327	21344
856.461	21519
856.595	21378
856.729	21367
856.862	21492
856.996	21439
857.13	21568
857.263	21637
857.397	21469
857.53	21435
857.664	21526
857.797	21526
857.931	21648
858.064	21477
858.197	21591
858.331	21477
858.464	21298
858.597	21241
858.731	21435
858.864	21428
858.997	21367
859.13	21405
859.263	21523
859.396	21587
859.529	21458
859.662	21313
859.795	21462
859.928	21393
860.061	21701
860.194	21622
860.327	21435
860.46	21599
860.592	21679
860.725	21747
860.858	21614
860.99	21496
861.123	21420
861.256	21302
861.388	21530
861.521	22067
861.653	21332
861.786	21298
861.918	21329
862.05	21397
862.183	21431
862.315	21515
862.447	21412
862.58	21397
862.712	21313
862.844	21096
862.976	21230
863.108	21173
863.24	21473
863.372	21214
863.504	21161
863.636	21195
863.768	21230
863.9	21218
864.032	21104
864.164	21062
864.296	21195
864.428	21237
864.559	21252
864.691	21237
864.823	21184
864.954	21142
865.086	21093
865.217	21207
865.349	21066
865.48	21142
865.612	20967
865.743	21195
865.875	21051
866.006	21062
866.137	21100
866.269	21043
866.4	21058
866.531	20975
866.662	20914
866.793	20971
866.924	21051
867.055	21070
867.186	20975
867.317	21001
867.448	20952
867.579	20975
867.71	20895
867.841	20933
867.972	21039
868.103	20834
868.233	20944
868.364	21005
868.495	20998
868.625	21161
868.756	21370
868.886	21184
869.017	21211
869.147	21340
869.278	21321
869.408	21119
869.539	21241
869.669	21306
869.799	21241
869.929	21260
870.06	21405
870.19	21523
870.32	21481
870.45	21610
870.58	21564
870.71	21751
870.84	21770
870.97	21610
871.1	21629
871.23	21705
871.36	21869
871.489	21717
871.619	21717
871.749	21922
871.879	21865
872.008	21869
872.138	21808
872.267	21838
872.397	21835
872.526	21568
872.656	21717
872.785	21652
872.915	21789
873.044	21964
873.173	21812
873.303	21968
873.432	21953
873.561	21876
873.69	21937
873.819	21827
873.948	21930
874.077	21880
874.206	21819
874.335	21736
874.464	21838
874.593	22051
874.722	22177
874.851	22128
874.979	22185
875.108	22006
875.237	22097
875.365	21941
875.494	22078
875.623	22135
875.751	22040
875.88	22090
876.008	22238
876.136	22287
876.265	22352
876.393	22550
876.521	22531
876.65	22630
876.778	22432
876.906	22276
877.034	22409
877.162	22432
877.29	22348
877.418	22409
877.546	22428
877.674	22531
877.802	22500
877.93	22428
878.058	22352
878.185	22242
878.313	22341
878.441	22329
878.568	22409
878.696	22413
878.824	22523
878.951	22580
879.079	22474
879.206	22744
879.333	22592
879.461	22329
879.588	22535
879.715	22580
879.842	22565
879.97	22440
880.097	22246
880.224	22379
880.351	22257
880.478	22116
880.605	22223
880.732	22246
880.859	22436
880.986	22379
881.112	22249
881.239	22143
881.366	21983
881.493	21934
881.619	21785
881.746	21842
881.872	21785
881.999	21698
882.125	21812
882.252	21819
882.378	21793
882.505	21850
882.631	21682
882.757	21610
882.883	21595
883.01	21500
883.136	21420
883.262	21450
883.388	21279
883.514	21538
883.64	21534
883.766	21443
883.892	21348
884.018	21340
884.143	21447
884.269	21443
884.395	21226
884.52	21142
884.646	21131
884.772	21199
884.897	21066
885.023	21039
885.148	21214
885.274	21249
885.399	21302
885.524	21154
885.65	21131
885.775	21119
885.9	21195
886.025	21184
886.15	21211
886.275	21085
886.4	21085
886.525	21085
886.65	20963
886.775	21070
886.9	21226
887.025	21351
887.149	21081
887.274	21005
887.399	20876
887.523	20883
887.648	20883
887.773	20815
887.897	21043
888.021	20990
888.146	20925
888.27	20941
888.395	21051
888.519	20849
888.643	20861
888.767	20979
888.891	20826
889.015	20701
889.139	20731
889.263	20746
889.387	20842
889.511	20963
889.635	20792
889.759	20701
889.883	20606
890.006	20769
890.13	20781
890.254	20686
890.377	20644
890.501	20511
890.624	20461
890.748	20492
890.871	20301
890.995	20275
891.118	20267
891.241	20366
891.364	20355
891.488	20454
891.611	20358
891.734	20309
891.857	20256
891.98	20278
892.103	20324
892.226	20202
892.349	20149
892.471	20122
892.594	20233
892.717	20149
892.839	20225
892.962	20161
893.085	20221
893.207	20286
893.33	20202
893.452	20126
893.575	20358
893.697	20096
893.819	20347
893.941	20317
894.064	20351
894.186	20149
894.308	20157
894.43	20195
894.552	20370
894.674	20313
894.796	20054
894.918	20035
895.04	20195
895.161	20145
895.283	20191
895.405	20168
895.526	20180
895.648	20119
895.769	20183
895.891	20240
896.012	20301
896.134	20290
896.255	20301
896.376	20092
896.498	20218
896.619	20176
896.74	20077
896.861	20225
896.982	20454
897.103	20552
897.224	20362
897.345	20393
897.466	20355
897.587	20404
897.708	20590
897.828	20381
897.949	20233
898.07	20096
898.19	20358
898.311	20400
898.431	20256
898.552	20374
898.672	20442
898.792	20423
898.913	20465
899.033	20282
899.153	20248
899.273	20138
899.393	20164
899.513	20191
899.633	20145
899.753	20180
899.873	20062
899.993	20100
900.113	20096
900.232	20119
900.352	20065
900.472	20008
900.591	19909
900.711	19986
900.83	19921
900.95	19932
901.069	19883
901.189	19883
901.308	19651
901.427	19487
901.546	19514
901.665	19533
901.784	19468
901.904	19396
902.023	19247
902.141	19069
902.26	19000
902.379	19084
902.498	19088
902.617	18977
902.735	19027
902.854	18932
902.973	18996
903.091	18753
903.21	18757
903.328	18566
903.446	18608
903.565	18467
903.683	18570
903.801	18372
903.919	18399
904.038	18426
904.156	18315
904.274	18395
904.392	18228
904.51	18174
904.627	18213
904.745	18292
904.863	18289
904.981	18057
905.098	17946
905.216	17885
905.334	17920
905.451	17946
905.569	17851
905.686	17977
905.803	17950
905.921	17714
906.038	17783
906.155	17714
906.272	17547
906.389	17661
906.506	17532
906.623	17570
906.74	17448
906.857	17277
906.974	17448
907.091	17512
907.208	17634
907.324	17589
907.441	17376
907.557	17288
907.674	17246
907.79	17105
907.907	17193
908.023	17185
908.139	17193
908.256	17143
908.372	17159
908.488	16949
908.604	16881
908.72	16866
908.836	16919
908.952	16835
909.068	17037
909.184	16919
909.3	16995
909.415	16995
909.531	16889
909.647	16656
909.762	16592
909.878	16508
909.993	16584
910.108	16634
910.224	16554
910.339	16577
910.454	16577
910.57	16474
910.685	16356
910.8	16675
910.915	16500
911.03	16447
911.145	16265
911.259	16090
911.374	16196
911.489	16109
911.604	16166
911.718	15987
911.833	15930
911.947	15930
912.062	15831
912.176	15884
912.291	15857
912.405	15884
912.519	16021
912.633	16090
912.748	16063
912.862	15945
912.976	15778
913.09	15667
913.204	15701
913.318	15781
913.431	15903
913.545	15701
913.659	15903
913.772	15663
913.886	15629
914	15542
914.113	15690
914.226	15686
914.34	15599
914.453	15397
914.566	15599
914.68	15454
914.793	15313
914.906	15192
915.019	15104
915.132	15127
915.245	15241
915.358	15184
915.47	15161
915.583	15116
915.696	15119
915.809	15249
915.921	15325
916.034	15154
916.146	15154
916.259	15077
916.371	15077
916.483	15127
916.595	15055
916.708	15062
916.82	14986
916.932	14956
917.044	14933
917.156	14880
917.268	14857
917.38	14811
917.491	14811
917.603	14902
917.715	14880
917.826	14982
917.938	14670
918.049	14705
918.161	14746
918.272	14887
918.384	14872
918.495	14781
918.606	14682
918.717	14533
918.828	14598
918.939	14625
919.05	14571
919.161	14590
919.272	14446
919.383	14347
919.494	14560
919.604	14785
919.715	14583
919.826	14370
919.936	14488
920.047	14522
920.157	14499
920.267	14735
920.378	14545
920.488	14514
920.598	14644
920.708	14811
920.818	14629
920.928	14678
921.038	14811
921.148	14773
921.258	14511
921.368	14415
921.477	14389
921.587	14298
921.697	14214
921.806	14278
921.916	14161
922.025	13879
922.134	13875
922.244	13811
922.353	13928
922.462	13799
922.571	13719
922.68	13609
922.789	13502
922.898	13567
923.007	13396
923.116	13609
923.224	13578
923.333	13502
923.442	13502
923.55	13422
923.659	13464
923.767	13422
923.876	13373
923.984	13472
924.092	13377
924.201	13354
924.309	13274
924.417	13335
924.525	13213
924.633	13316
924.741	14176
924.849	13084
924.956	13198
925.064	13034
925.172	12932
925.279	12951
925.387	13057
925.494	12920
925.602	13050
925.709	13023
925.816	12806
925.924	12806
926.031	12981
926.138	12837
926.245	12947
926.352	12894
926.459	12833
926.566	13053
926.673	12928
926.779	12806
926.886	12642
926.993	12528
927.099	12566
927.206	12570
927.312	12506
927.419	12521
927.525	12566
927.631	12608
927.737	12403
927.843	12429
927.95	12201
928.056	12296
928.162	12300
928.267	12418
928.373	12951
928.479	12414
928.585	12197
928.69	12334
928.796	12330
928.901	12220
929.007	12057
929.112	12197
929.218	12163
929.323	12167
929.428	12034
929.533	12254
929.638	11954
929.743	12011
929.848	12045
929.953	12019
930.058	11912
930.163	11760
930.267	11699
930.372	11889
930.477	11756
930.581	11999
930.685	11836
930.79	11672
930.894	11764
930.998	11668
931.103	11714
931.207	11440
931.311	11284
931.415	11258
931.519	11045
931.623	11003
