Data from test_V78500241_3037.txt Node
Date: Fri Mar 25 15:31:00 CST 2022
User: usil
Spectrometer: V785-0024
Trigger mode: 0
Integration Time (sec): 4.000000E-1
Scans to average: 1
Nonlinearity correction enabled: false
Boxcar width: 0
Storing dark spectrum: false
XAxis mode: Wavelengths
Number of Pixels in Spectrum: 1024
>>>>>Begin Spectral Data<<<<<
801.071	27264
801.214	27252
801.356	26990
801.499	26956
801.641	26750
801.783	26819
801.926	26781
802.068	26872
802.211	26716
802.353	26632
802.496	26473
802.638	26381
802.78	26518
802.923	26366
803.065	26244
803.208	26484
803.35	26419
803.492	26442
803.635	26636
803.777	26480
803.919	26697
804.061	26948
804.204	26587
804.346	26507
804.488	26446
804.63	26590
804.773	26461
804.915	26522
805.057	26644
805.199	26564
805.341	26621
805.483	26705
805.626	26655
805.768	26724
805.91	26743
806.052	26773
806.194	26492
806.336	26838
806.478	26648
806.62	26602
806.762	26948
806.904	26971
807.046	27195
807.188	27173
807.33	27051
807.472	27176
807.614	27047
807.756	27001
807.898	26925
808.04	26781
808.182	26826
808.324	26902
808.465	26952
808.607	27154
808.749	27287
808.891	27310
809.033	27431
809.174	27218
809.316	27203
809.458	27287
809.6	27237
809.741	27386
809.883	27302
810.025	27340
810.166	27511
810.308	27690
810.45	27454
810.591	27431
810.733	27393
810.875	27272
811.016	27237
811.158	27108
811.299	27427
811.441	27481
811.582	27458
811.724	27313
811.865	27207
812.007	27222
812.148	27230
812.29	27226
812.431	27389
812.573	27511
812.714	27724
812.855	27747
812.997	27945
813.138	28082
813.279	27835
813.421	27743
813.562	27652
813.703	27652
813.845	27530
813.986	27047
814.127	27089
814.268	27032
814.41	27017
814.551	26804
814.692	27001
814.833	26792
814.974	26906
815.115	26990
815.256	26788
815.397	26838
815.539	26807
815.68	26598
815.821	26644
815.962	26724
816.103	26674
816.244	26514
816.385	26469
816.526	26374
816.666	26298
816.807	26069
816.948	26229
817.089	26317
817.23	26168
817.371	26119
817.512	26111
817.653	26240
817.793	26157
817.934	26252
818.075	26164
818.216	26100
818.356	26138
818.497	25989
818.638	25852
818.778	25875
818.919	26024
819.06	26134
819.2	26157
819.341	26195
819.481	26176
819.622	26290
819.762	26526
819.903	26469
820.043	26309
820.184	26313
820.324	26366
820.465	26294
820.605	26244
820.746	26157
820.886	26183
821.026	26180
821.167	26157
821.307	26233
821.447	26263
821.588	26062
821.728	26100
821.868	25712
822.008	25799
822.149	25552
822.289	25696
822.429	25339
822.569	25270
822.709	25259
822.849	25270
822.99	24947
823.13	25209
823.27	24943
823.41	25110
823.55	24791
823.69	24973
823.83	24890
823.97	24920
824.11	24852
824.25	24749
824.389	24760
824.529	24802
824.669	24703
824.809	24802
824.949	24833
825.089	24757
825.228	24856
825.368	24612
825.508	24593
825.648	24623
825.787	24703
825.927	24738
826.067	24547
826.206	24700
826.346	24738
826.485	24730
826.625	24700
826.765	24814
826.904	24604
827.044	24490
827.183	24361
827.323	24319
827.462	24448
827.601	24296
827.741	24235
827.88	24467
828.02	24216
828.159	24292
828.298	24361
828.437	24380
828.577	24251
828.716	24407
828.855	24258
828.994	24072
829.134	24159
829.273	23946
829.412	24011
829.551	24011
829.69	24015
829.829	24098
829.968	24110
830.107	24144
830.246	24072
830.385	23999
830.524	23832
830.663	23897
830.802	23722
830.941	23668
831.08	23714
831.219	23714
831.357	23668
831.496	23855
831.635	23570
831.774	23649
831.913	23474
832.051	23433
832.19	23417
832.329	23490
832.467	23311
832.606	23341
832.744	23330
832.883	23349
833.022	23345
833.16	23360
833.299	23337
833.437	23486
833.576	23391
833.714	23364
833.852	23535
833.991	23520
834.129	23376
834.267	23440
834.406	23531
834.544	23482
834.682	23360
834.821	23318
834.959	23562
835.097	23258
835.235	23459
835.373	23387
835.511	23239
835.65	23178
835.788	23250
835.926	23052
836.064	23014
836.202	23121
836.34	23311
836.478	23246
836.615	23181
836.753	23277
836.891	23307
837.029	23235
837.167	23197
837.305	23136
837.443	23143
837.58	23117
837.718	23083
837.856	23086
837.993	22953
838.131	23071
838.269	22930
838.406	23094
838.544	22816
838.681	22790
838.819	22736
838.956	22679
839.094	22584
839.231	22656
839.369	22786
839.506	22866
839.643	22778
839.781	22584
839.918	22497
840.055	22584
840.193	22451
840.33	22459
840.467	22497
840.604	22413
840.742	22850
840.879	22287
841.016	22455
841.153	22348
841.29	22436
841.427	22382
841.564	22508
841.701	22504
841.838	22474
841.975	22284
842.112	22379
842.249	22238
842.385	22325
842.522	22470
842.659	22276
842.796	22246
842.933	22242
843.069	22238
843.206	22219
843.343	22413
843.479	22268
843.616	22246
843.752	21987
843.889	21926
844.025	22131
844.162	22025
844.298	22070
844.435	22048
844.571	21922
844.708	22101
844.844	22177
844.98	22101
845.117	22097
845.253	21953
845.389	21956
845.525	21861
845.661	21766
845.798	21797
845.934	21812
846.07	21675
846.206	21713
846.342	21751
846.478	21808
846.614	21469
846.75	21511
846.886	21443
847.022	21538
847.158	21538
847.294	21504
847.429	21568
847.565	21523
847.701	21797
847.837	21119
847.972	21070
848.108	21336
848.244	21329
848.379	21142
848.515	21077
848.65	21157
848.786	21024
848.921	21043
849.057	21214
849.192	21264
849.328	21176
849.463	21047
849.598	21074
849.734	21055
849.869	20986
850.004	20811
850.14	20952
850.275	20785
850.41	20796
850.545	20804
850.68	20845
850.815	20861
850.95	20872
851.085	20990
851.22	20948
851.355	20864
851.49	20937
851.625	20773
851.76	20921
851.895	20674
852.03	20765
852.165	20792
852.299	20754
852.434	20868
852.569	20902
852.703	20823
852.838	20880
852.973	20982
853.107	20994
853.242	20689
853.376	20541
853.511	20560
853.645	20495
853.78	20796
853.914	20705
854.048	20716
854.183	20785
854.317	20644
854.451	20937
854.585	20678
854.72	20701
854.854	20815
854.988	20537
855.122	20613
855.256	20663
855.39	20651
855.524	20804
855.658	20777
855.792	20613
855.926	20708
856.06	20735
856.194	20724
856.327	20689
856.461	20636
856.595	20590
856.729	20644
856.862	20804
856.996	20651
857.13	20648
857.263	20781
857.397	20720
857.53	20674
857.664	20609
857.797	20617
857.931	20765
858.064	20667
858.197	20838
858.331	20560
858.464	20712
858.597	20682
858.731	20613
858.864	20663
858.997	20651
859.13	20651
859.263	20651
859.396	20807
859.529	20640
859.662	20518
859.795	20594
859.928	20686
860.061	20811
860.194	20792
860.327	20708
860.46	20773
860.592	20777
860.725	20758
860.858	20689
860.99	20655
861.123	20594
861.256	20587
861.388	20571
861.521	21260
861.653	20575
861.786	20400
861.918	20454
862.05	20533
862.183	20636
862.315	20682
862.447	20689
862.58	20606
862.712	20400
862.844	20256
862.976	20518
863.108	20374
863.24	20811
863.372	20275
863.504	20381
863.636	20320
863.768	20282
863.9	20385
864.032	20237
864.164	20259
864.296	20366
864.428	20507
864.559	20476
864.691	20393
864.823	20351
864.954	20427
865.086	20434
865.217	20244
865.349	20176
865.48	20332
865.612	20225
865.743	20324
865.875	20309
866.006	20343
866.137	20309
866.269	20218
866.4	20122
866.531	20263
866.662	20237
866.793	20126
866.924	20240
867.055	20305
867.186	20256
867.317	20263
867.448	20084
867.579	20202
867.71	20130
867.841	20153
867.972	20282
868.103	20172
868.233	20199
868.364	20282
868.495	20237
868.625	20389
868.756	20507
868.886	20328
869.017	20438
869.147	20530
869.278	20450
869.408	20492
869.539	20492
869.669	20480
869.799	20495
869.929	20594
870.06	20480
870.19	20819
870.32	20746
870.45	20834
870.58	20876
870.71	20910
870.84	20914
870.97	20853
871.1	20963
871.23	21104
871.36	21096
871.489	20963
871.619	21062
871.749	21169
871.879	21032
872.008	21135
872.138	21077
872.267	21062
872.397	20925
872.526	20826
872.656	20800
872.785	20937
872.915	21017
873.044	21131
873.173	21127
873.303	21203
873.432	21039
873.561	21211
873.69	21032
873.819	21070
873.948	21218
874.077	20948
874.206	21096
874.335	21195
874.464	21279
874.593	21310
874.722	21123
874.851	21363
874.979	21279
875.108	21488
875.237	21321
875.365	21104
875.494	21245
875.623	21477
875.751	21321
875.88	21397
876.008	21412
876.136	21481
876.265	21709
876.393	21854
876.521	21778
876.65	21827
876.778	21694
876.906	21701
877.034	21698
877.162	21713
877.29	21641
877.418	21781
877.546	21614
877.674	21523
877.802	21755
877.93	21682
878.058	21671
878.185	21485
878.313	21656
878.441	21473
878.568	21454
878.696	21625
878.824	21637
878.951	21728
879.079	21762
879.206	22036
879.333	21812
879.461	21633
879.588	21800
879.715	21854
879.842	21895
879.97	21663
880.097	21443
880.224	21435
880.351	21553
880.478	21564
880.605	21386
880.732	21359
880.859	21701
880.986	21603
881.112	21591
881.239	21359
881.366	21268
881.493	21157
881.619	21108
881.746	21104
881.872	21017
881.999	21058
882.125	20899
882.252	21123
882.378	21108
882.505	21081
882.631	20994
882.757	20823
882.883	20872
883.01	20686
883.136	20815
883.262	20613
883.388	20648
883.514	20781
883.64	20895
883.766	20655
883.892	20514
884.018	20674
884.143	20720
884.269	20720
884.395	20533
884.52	20465
884.646	20419
884.772	20244
884.897	20275
885.023	20431
885.148	20480
885.274	20575
885.399	20530
885.524	20412
885.65	20465
885.775	20389
885.9	20370
886.025	20473
886.15	20518
886.275	20351
886.4	20290
886.525	20290
886.65	20431
886.775	20351
886.9	20537
887.025	20594
887.149	20465
887.274	20290
887.399	20259
887.523	20229
887.648	20130
887.773	20054
887.897	20290
888.021	20339
888.146	20142
888.27	20202
888.395	20347
888.519	20084
888.643	20183
888.767	20343
888.891	20065
889.015	20020
889.139	20050
889.263	19963
889.387	20054
889.511	20176
889.635	20229
889.759	19993
889.883	20035
890.006	20092
890.13	19978
890.254	19917
890.377	20027
890.501	19715
890.624	19753
890.748	19753
890.871	19544
890.995	19586
891.118	19449
891.241	19548
891.364	19620
891.488	19559
891.611	19533
891.734	19559
891.857	19651
891.98	19537
892.103	19674
892.226	19502
892.349	19506
892.471	19434
892.594	19563
892.717	19525
892.839	19468
892.962	19620
893.085	19533
893.207	19510
893.33	19331
893.452	19540
893.575	19666
893.697	19468
893.819	19639
893.941	19708
894.064	19696
894.186	19537
894.308	19476
894.43	19597
894.552	19689
894.674	19620
894.796	19464
894.918	19483
895.04	19415
895.161	19628
895.283	19480
895.405	19472
895.526	19453
895.648	19510
895.769	19495
895.891	19586
896.012	19693
896.134	19590
896.255	19445
896.376	19540
896.498	19491
896.619	19480
896.74	19529
896.861	19537
896.982	19951
897.103	19845
897.224	19765
897.345	19765
897.466	19670
897.587	19742
897.708	19925
897.828	19769
897.949	19712
898.07	19582
898.19	19655
898.311	19830
898.431	19731
898.552	19731
898.672	19913
898.792	19742
898.913	19727
899.033	19704
899.153	19609
899.273	19438
899.393	19441
899.513	19624
899.633	19544
899.753	19506
899.873	19476
899.993	19518
900.113	19502
900.232	19487
900.352	19506
900.472	19365
900.591	19285
900.711	19392
900.83	19282
900.95	19331
901.069	19419
901.189	19244
901.308	18951
901.427	19034
901.546	18878
901.665	18939
901.784	18859
901.904	18760
902.023	18559
902.141	18494
902.26	18399
902.379	18623
902.498	18464
902.617	18365
902.735	18365
902.854	18414
902.973	18380
903.091	18114
903.21	18057
903.328	18057
903.446	18068
903.565	17977
903.683	18015
903.801	17882
903.919	17878
904.038	17783
904.156	17767
904.274	17699
904.392	17676
904.51	17604
904.627	17623
904.745	17726
904.863	17611
904.981	17463
905.098	17311
905.216	17368
905.334	17368
905.451	17280
905.569	17337
905.686	17368
905.803	17322
905.921	17094
906.038	17181
906.155	17220
906.272	17079
906.389	16965
906.506	16869
906.623	16904
906.74	16854
906.857	16805
906.974	16778
907.091	16938
907.208	16991
907.324	16820
907.441	16790
907.557	16683
907.674	16713
907.79	16546
907.907	16645
908.023	16637
908.139	16687
908.256	16489
908.372	16516
908.488	16523
908.604	16253
908.72	16325
908.836	16432
908.952	16306
909.068	16341
909.184	16402
909.3	16173
909.415	16367
909.531	16360
909.647	15994
909.762	16021
909.878	15949
909.993	16040
910.108	15975
910.224	15941
910.339	15972
910.454	15865
910.57	15816
910.685	15743
910.8	16055
910.915	15987
911.03	15831
911.145	15526
911.259	15675
911.374	15690
911.489	15599
911.604	15591
911.718	15428
911.833	15447
911.947	15450
912.062	15249
912.176	15416
912.291	15530
912.405	15462
912.519	15641
912.633	15595
912.748	15511
912.862	15359
912.976	15207
913.09	15138
913.204	15165
913.318	15294
913.431	15298
913.545	15378
913.659	15340
913.772	15097
913.886	14990
914	15070
914.113	15051
914.226	15116
914.34	15157
914.453	14963
914.566	15058
914.68	14811
914.793	14952
914.906	14720
915.019	14667
915.132	14560
915.245	14651
915.358	14640
915.47	14629
915.583	14640
915.696	14655
915.809	14720
915.921	14765
916.034	14518
916.146	14552
916.259	14511
916.371	14716
916.483	14545
916.595	14522
916.708	14454
916.82	14499
916.932	14431
917.044	14423
917.156	14431
917.268	14301
917.38	14381
917.491	14244
917.603	14286
917.715	14385
917.826	14381
917.938	14252
918.049	14180
918.161	14294
918.272	14404
918.384	14400
918.495	14214
918.606	14149
918.717	14039
918.828	14172
918.939	14073
919.05	14046
919.161	14035
919.272	13868
919.383	13993
919.494	14107
919.604	14324
919.715	14077
919.826	14027
919.936	14005
920.047	14073
920.157	14073
920.267	14206
920.378	14069
920.488	14092
920.598	14218
920.708	14446
920.818	14218
920.928	14134
921.038	14267
921.148	14237
921.258	14062
921.368	13909
921.477	13890
921.587	13784
921.697	13693
921.806	13734
921.916	13681
922.025	13544
922.134	13537
922.244	13460
922.353	13620
922.462	13422
922.571	13278
922.68	13209
922.789	13118
922.898	13069
923.007	13034
923.116	13091
923.224	13046
923.333	13072
923.442	13000
923.55	12958
923.659	12954
923.767	13057
923.876	12810
923.984	12973
924.092	12768
924.201	12817
924.309	12867
924.417	12814
924.525	12738
924.633	12764
924.741	13647
924.849	12616
924.956	12654
925.064	12639
925.172	12452
925.279	12620
925.387	12582
925.494	12498
925.602	12684
925.709	12616
925.816	12365
925.924	12563
926.031	12559
926.138	12460
926.245	12547
926.352	12426
926.459	12467
926.566	12555
926.673	12448
926.779	12372
926.886	12323
926.993	12190
927.099	12007
927.206	12136
927.312	12083
927.419	12091
927.525	12106
927.631	12091
927.737	11946
927.843	12049
927.95	11931
928.056	11931
928.162	11912
928.267	11988
928.373	12604
928.479	11984
928.585	11809
928.69	11893
928.796	11916
928.901	11882
929.007	11627
929.112	11855
929.218	11802
929.323	11695
929.428	11653
929.533	11729
929.638	11600
929.743	11733
929.848	11699
929.953	11611
930.058	11509
930.163	11387
930.267	11322
930.372	11471
930.477	11391
930.581	11562
930.685	11414
930.79	11254
930.894	11258
930.998	11181
931.103	11387
931.207	11052
931.311	11014
931.415	10889
931.519	10702
931.623	10679
