Data from test_V78500241_2649.txt Node
Date: Fri Mar 25 15:28:18 CST 2022
User: usil
Spectrometer: V785-0024
Trigger mode: 0
Integration Time (sec): 4.000000E-1
Scans to average: 1
Nonlinearity correction enabled: false
Boxcar width: 0
Storing dark spectrum: false
XAxis mode: Wavelengths
Number of Pixels in Spectrum: 1024
>>>>>Begin Spectral Data<<<<<
801.071	27058
801.214	26956
801.356	26743
801.499	26693
801.641	26655
801.783	26629
801.926	26636
802.068	26492
802.211	26587
802.353	26484
802.496	26339
802.638	26183
802.78	26225
802.923	26119
803.065	26115
803.208	26012
803.35	26240
803.492	26339
803.635	26294
803.777	26195
803.919	26286
804.061	26739
804.204	26492
804.346	26404
804.488	26301
804.63	26271
804.773	26267
804.915	26427
805.057	26366
805.199	26320
805.341	26374
805.483	26579
805.626	26442
805.768	26248
805.91	26465
806.052	26453
806.194	26339
806.336	26670
806.478	26598
806.62	26450
806.762	26492
806.904	26754
807.046	27127
807.188	26906
807.33	26868
807.472	26967
807.614	26842
807.756	26746
807.898	26674
808.04	26724
808.182	26663
808.324	26758
808.465	26746
808.607	26891
808.749	27036
808.891	26944
809.033	27138
809.174	27207
809.316	27005
809.458	27135
809.6	27013
809.741	27116
809.883	27199
810.025	27294
810.166	27317
810.308	27374
810.45	27237
810.591	27207
810.733	27116
810.875	26921
811.016	26872
811.158	26925
811.299	27104
811.441	27272
811.582	27252
811.724	27001
811.865	27013
812.007	26979
812.148	26982
812.29	27093
812.431	27169
812.573	27370
812.714	27412
812.855	27435
812.997	27587
813.138	27603
813.279	27606
813.421	27386
813.562	27485
813.703	27348
813.845	27264
813.986	27043
814.127	26887
814.268	26663
814.41	26769
814.551	26731
814.692	26788
814.833	26568
814.974	26758
815.115	26625
815.256	26594
815.397	26598
815.539	26571
815.68	26370
815.821	26294
815.962	26499
816.103	26480
816.244	26404
816.385	26202
816.526	26229
816.666	26012
816.807	25909
816.948	26005
817.089	26077
817.23	26035
817.371	25917
817.512	25906
817.653	25951
817.793	25887
817.934	25883
818.075	25932
818.216	25879
818.356	25970
818.497	25837
818.638	25662
818.778	25655
818.919	25677
819.06	25814
819.2	25845
819.341	25925
819.481	25856
819.622	25982
819.762	26278
819.903	26210
820.043	26035
820.184	26157
820.324	25940
820.465	26122
820.605	26020
820.746	26027
820.886	25765
821.026	25997
821.167	25974
821.307	26024
821.447	26058
821.588	25940
821.728	25746
821.868	25453
822.008	25396
822.149	25415
822.289	25324
822.429	25202
822.569	25171
822.709	25053
822.849	25000
822.99	24932
823.13	24947
823.27	24932
823.41	24745
823.55	24639
823.69	24734
823.83	24802
823.97	24616
824.11	24570
824.25	24486
824.389	24589
824.529	24589
824.669	24582
824.809	24673
824.949	24559
825.089	24544
825.228	24574
825.368	24391
825.508	24365
825.648	24441
825.787	24551
825.927	24486
826.067	24498
826.206	24433
826.346	24490
826.485	24395
826.625	24513
826.765	24517
826.904	24509
827.044	24148
827.183	24152
827.323	24114
827.462	24251
827.601	24057
827.741	24178
827.88	23984
828.02	24034
828.159	24098
828.298	24022
828.437	24228
828.577	24045
828.716	24190
828.855	24022
828.994	23794
829.134	23824
829.273	23866
829.412	23931
829.551	23798
829.69	23863
829.829	23859
829.968	23999
830.107	23920
830.246	24018
830.385	23817
830.524	23703
830.663	23748
830.802	23562
830.941	23452
831.08	23398
831.219	23558
831.357	23467
831.496	23665
831.635	23433
831.774	23322
831.913	23204
832.051	23311
832.19	23166
832.329	23235
832.467	23090
832.606	23113
832.744	23140
832.883	23086
833.022	23090
833.16	23128
833.299	23155
833.437	23143
833.576	23121
833.714	23121
833.852	23147
833.991	23197
834.129	23178
834.267	23303
834.406	23151
834.544	23216
834.682	23216
834.821	23132
834.959	23345
835.097	23174
835.235	23227
835.373	23185
835.511	23132
835.65	23022
835.788	23018
835.926	22965
836.064	22869
836.202	22835
836.34	23006
836.478	23204
836.615	22991
836.753	22991
836.891	23155
837.029	23071
837.167	23044
837.305	22904
837.443	22835
837.58	22816
837.718	22911
837.856	22911
837.993	22843
838.131	22820
838.269	22850
838.406	22786
838.544	22774
838.681	22611
838.819	22538
838.956	22371
839.094	22329
839.231	22443
839.369	22622
839.506	22782
839.643	22615
839.781	22436
839.918	22242
840.055	22363
840.193	22261
840.33	22211
840.467	22356
840.604	22310
840.742	22546
840.879	22303
841.016	22230
841.153	22200
841.29	22348
841.427	22276
841.564	22447
841.701	22363
841.838	22333
841.975	22185
842.112	22169
842.249	22223
842.385	22086
842.522	22402
842.659	22124
842.796	22051
842.933	21949
843.069	21876
843.206	21915
843.343	22112
843.479	22055
843.616	22051
843.752	21774
843.889	21831
844.025	22048
844.162	21835
844.298	21907
844.435	21789
844.571	21774
844.708	21850
844.844	21903
844.98	21930
845.117	21949
845.253	21671
845.389	21690
845.525	21907
845.661	21690
845.798	21587
845.934	21667
846.07	21614
846.206	21530
846.342	21781
846.478	21564
846.614	21367
846.75	21169
846.886	21332
847.022	21321
847.158	21447
847.294	21397
847.429	21389
847.565	21283
847.701	21542
847.837	21036
847.972	21047
848.108	21146
848.244	21085
848.379	20925
848.515	20857
848.65	20830
848.786	20986
848.921	20887
849.057	20914
849.192	21032
849.328	20921
849.463	20842
849.598	20838
849.734	20819
849.869	20902
850.004	20606
850.14	20720
850.275	20537
850.41	20640
850.545	20564
850.68	20735
850.815	20609
850.95	20545
851.085	20876
851.22	20834
851.355	20613
851.49	20667
851.625	20621
851.76	20640
851.895	20629
852.03	20632
852.165	20834
852.299	20701
852.434	20765
852.569	20762
852.703	20785
852.838	20701
852.973	20804
853.107	20705
853.242	20400
853.376	20514
853.511	20377
853.645	20423
853.78	20682
853.914	20533
854.048	20412
854.183	20480
854.317	20438
854.451	20701
854.585	20541
854.72	20450
854.854	20602
854.988	20396
855.122	20564
855.256	20343
855.39	20427
855.524	20518
855.658	20575
855.792	20655
855.926	20511
856.06	20564
856.194	20636
856.327	20389
856.461	20423
856.595	20450
856.729	20450
856.862	20602
856.996	20457
857.13	20518
857.263	20560
857.397	20598
857.53	20495
857.664	20522
857.797	20556
857.931	20701
858.064	20560
858.197	20499
858.331	20571
858.464	20480
858.597	20374
858.731	20434
858.864	20518
858.997	20366
859.13	20389
859.263	20457
859.396	20560
859.529	20480
859.662	20545
859.795	20351
859.928	20522
860.061	20632
860.194	20716
860.327	20613
860.46	20541
860.592	20533
860.725	20598
860.858	20659
860.99	20541
861.123	20438
861.256	20450
861.388	20434
861.521	21161
861.653	20370
861.786	20267
861.918	20336
862.05	20377
862.183	20408
862.315	20431
862.447	20511
862.58	20393
862.712	20229
862.844	20263
862.976	20218
863.108	20324
863.24	20693
863.372	20126
863.504	20278
863.636	20248
863.768	20221
863.9	20161
864.032	20134
864.164	20202
864.296	20408
864.428	20244
864.559	20248
864.691	20259
864.823	20115
864.954	20149
865.086	20062
865.217	20081
865.349	20081
865.48	20176
865.612	20088
865.743	20126
865.875	20103
866.006	20107
866.137	20202
866.269	20062
866.4	20100
866.531	20077
866.662	20100
866.793	20039
866.924	20001
867.055	20031
867.186	20149
867.317	20054
867.448	19913
867.579	20084
867.71	19955
867.841	19940
867.972	20073
868.103	19993
868.233	20126
868.364	20073
868.495	20172
868.625	20358
868.756	20427
868.886	20267
869.017	20248
869.147	20358
869.278	20465
869.408	20240
869.539	20164
869.669	20438
869.799	20377
869.929	20415
870.06	20393
870.19	20689
870.32	20613
870.45	20731
870.58	20632
870.71	20830
870.84	20800
870.97	20701
871.1	20743
871.23	20918
871.36	20872
871.489	20811
871.619	20872
871.749	20925
871.879	20929
872.008	21020
872.138	20963
872.267	20925
872.397	20773
872.526	20724
872.656	20697
872.785	20849
872.915	20842
873.044	20982
873.173	20906
873.303	20872
873.432	20906
873.561	21036
873.69	20887
873.819	20906
873.948	21089
874.077	20990
874.206	20834
874.335	20929
874.464	21013
874.593	21150
874.722	21096
874.851	21237
874.979	21100
875.108	21207
875.237	21176
875.365	21055
875.494	21146
875.623	21207
875.751	21211
875.88	21272
876.008	21207
876.136	21500
876.265	21591
876.393	21656
876.521	21644
876.65	21583
876.778	21595
876.906	21618
877.034	21523
877.162	21542
877.29	21428
877.418	21553
877.546	21530
877.674	21557
877.802	21507
877.93	21450
878.058	21458
878.185	21424
878.313	21405
878.441	21435
878.568	21424
878.696	21485
878.824	21580
878.951	21538
879.079	21819
879.206	21781
879.333	21762
879.461	21538
879.588	21572
879.715	21698
879.842	21800
879.97	21606
880.097	21386
880.224	21367
880.351	21420
880.478	21378
880.605	21302
880.732	21332
880.859	21618
880.986	21386
881.112	21325
881.239	21287
881.366	21085
881.493	21081
881.619	20876
881.746	20982
881.872	20941
881.999	20857
882.125	20899
882.252	20979
882.378	21043
882.505	20952
882.631	20819
882.757	20697
882.883	20838
883.01	20724
883.136	20636
883.262	20564
883.388	20594
883.514	20667
883.64	20678
883.766	20518
883.892	20366
884.018	20446
884.143	20617
884.269	20758
884.395	20290
884.52	20278
884.646	20324
884.772	20317
884.897	20176
885.023	20336
885.148	20412
885.274	20461
885.399	20389
885.524	20328
885.65	20362
885.775	20275
885.9	20248
886.025	20446
886.15	20355
886.275	20419
886.4	20259
886.525	20183
886.65	20187
886.775	20259
886.9	20385
887.025	20465
887.149	20286
887.274	20164
887.399	20115
887.523	19989
887.648	20065
887.773	20016
887.897	20092
888.021	20149
888.146	20008
888.27	20119
888.395	20206
888.519	20149
888.643	20187
888.767	20130
888.891	19986
889.015	19947
889.139	19936
889.263	19849
889.387	19997
889.511	20073
889.635	19909
889.759	19932
889.883	19860
890.006	19902
890.13	19913
890.254	19868
890.377	19704
890.501	19677
890.624	19666
890.748	19723
890.871	19518
890.995	19506
891.118	19449
891.241	19605
891.364	19533
891.488	19616
891.611	19441
891.734	19544
891.857	19491
891.98	19403
892.103	19548
892.226	19529
892.349	19468
892.471	19145
892.594	19411
892.717	19392
892.839	19430
892.962	19362
893.085	19468
893.207	19331
893.33	19270
893.452	19362
893.575	19400
893.697	19403
893.819	19449
893.941	19563
894.064	19491
894.186	19377
894.308	19251
894.43	19529
894.552	19480
894.674	19407
894.796	19327
894.918	19365
895.04	19354
895.161	19502
895.283	19381
895.405	19343
895.526	19377
895.648	19422
895.769	19365
895.891	19495
896.012	19499
896.134	19506
896.255	19365
896.376	19304
896.498	19381
896.619	19384
896.74	19289
896.861	19411
896.982	19681
897.103	19940
897.224	19704
897.345	19613
897.466	19601
897.587	19655
897.708	19731
897.828	19567
897.949	19556
898.07	19449
898.19	19438
898.311	19757
898.431	19567
898.552	19571
898.672	19780
898.792	19597
898.913	19624
899.033	19590
899.153	19396
899.273	19434
899.393	19369
899.513	19495
899.633	19312
899.753	19415
899.873	19331
899.993	19324
900.113	19331
900.232	19392
900.352	19270
900.472	19129
900.591	19179
900.711	19221
900.83	19126
900.95	19324
901.069	19263
901.189	19107
901.308	18916
901.427	18760
901.546	18833
901.665	18677
901.784	18719
901.904	18585
902.023	18467
902.141	18407
902.26	18235
902.379	18433
902.498	18365
902.617	18296
902.735	18376
902.854	18243
902.973	18190
903.091	17927
903.21	17904
903.328	17874
903.446	17843
903.565	17847
903.683	17764
903.801	17771
903.919	17767
904.038	17855
904.156	17630
904.274	17543
904.392	17478
904.51	17493
904.627	17497
904.745	17573
904.863	17509
904.981	17402
905.098	17235
905.216	17227
905.334	17204
905.451	17216
905.569	17197
905.686	17227
905.803	17258
905.921	16953
906.038	17124
906.155	16957
906.272	16927
906.389	16927
906.506	16763
906.623	16767
906.74	16759
906.857	16611
906.974	16702
907.091	16820
907.208	16866
907.324	16908
907.441	16611
907.557	16596
907.674	16436
907.79	16390
907.907	16481
908.023	16512
908.139	16588
908.256	16459
908.372	16371
908.488	16405
908.604	16166
908.72	16253
908.836	16291
908.952	16154
909.068	16246
909.184	16455
909.3	16207
909.415	16356
909.531	16158
909.647	15994
909.762	15983
909.878	15876
909.993	15968
910.108	15979
910.224	15930
910.339	15975
910.454	15739
910.57	15739
910.685	15713
910.8	15953
910.915	15770
911.03	15728
911.145	15618
911.259	15576
911.374	15519
911.489	15545
911.604	15447
911.718	15233
911.833	15310
911.947	15283
912.062	15138
912.176	15298
912.291	15378
912.405	15275
912.519	15504
912.633	15454
912.748	15325
912.862	15233
912.976	15161
913.09	15051
913.204	15074
913.318	15150
913.431	15150
913.545	15161
913.659	15176
913.772	15055
913.886	14975
914	14975
914.113	15047
914.226	14902
914.34	15116
914.453	14842
914.566	14895
914.68	14895
914.793	14762
914.906	14743
915.019	14560
915.132	14552
915.245	14552
915.358	14598
915.47	14549
915.583	14552
915.696	14579
915.809	14526
915.921	14682
916.034	14530
916.146	14457
916.259	14423
916.371	14644
916.483	14552
916.595	14317
916.708	14457
916.82	14298
916.932	14339
917.044	14309
917.156	14286
917.268	14168
917.38	14271
917.491	14282
917.603	14191
917.715	14301
917.826	14317
917.938	14153
918.049	13993
918.161	14191
918.272	14351
918.384	14347
918.495	14195
918.606	14027
918.717	13921
918.828	14043
918.939	13967
919.05	13871
919.161	14062
919.272	13799
919.383	13833
919.494	13890
919.604	14172
919.715	13932
919.826	13830
919.936	13856
920.047	13967
920.157	13928
920.267	14202
920.378	13921
920.488	13887
920.598	14210
920.708	14164
920.818	14069
920.928	14084
921.038	14218
921.148	14206
921.258	13883
921.368	13833
921.477	13746
921.587	13666
921.697	13639
921.806	13693
921.916	13521
922.025	13362
922.134	13403
922.244	13346
922.353	13403
922.462	13278
922.571	13145
922.68	13126
922.789	12928
922.898	13084
923.007	12973
923.116	13168
923.224	13057
923.333	12996
923.442	12890
923.55	12795
923.659	12837
923.767	12939
923.876	12829
923.984	12905
924.092	12730
924.201	12806
924.309	12726
924.417	12707
924.525	12684
924.633	12681
924.741	13639
924.849	12467
924.956	12608
925.064	12521
925.172	12426
925.279	12441
925.387	12532
925.494	12452
925.602	12566
925.709	12475
925.816	12471
925.924	12384
926.031	12532
926.138	12388
926.245	12441
926.352	12346
926.459	12429
926.566	12525
926.673	12300
926.779	12190
926.886	12201
926.993	12144
927.099	12022
927.206	12019
927.312	12038
927.419	12003
927.525	12102
927.631	12083
927.737	11920
927.843	12011
927.95	11809
928.056	11859
928.162	11840
928.267	11920
928.373	12422
928.479	11935
928.585	11729
928.69	11798
928.796	11946
928.901	11733
929.007	11619
929.112	11790
929.218	11649
929.323	11695
929.428	11524
929.533	11737
929.638	11543
929.743	11505
929.848	11615
929.953	11592
930.058	11547
930.163	11254
930.267	11353
930.372	11459
930.477	11360
930.581	11562
930.685	11368
930.79	11181
930.894	11311
930.998	11216
931.103	11250
931.207	10980
931.311	10866
931.415	10847
931.519	10592
931.623	10626
