Data from test_V78500241_3073.txt Node
Date: Fri Mar 25 15:31:15 CST 2022
User: usil
Spectrometer: V785-0024
Trigger mode: 0
Integration Time (sec): 4.000000E-1
Scans to average: 1
Nonlinearity correction enabled: false
Boxcar width: 0
Storing dark spectrum: false
XAxis mode: Wavelengths
Number of Pixels in Spectrum: 1024
>>>>>Begin Spectral Data<<<<<
801.071	27317
801.214	27264
801.356	26937
801.499	26929
801.641	26807
801.783	26845
801.926	26887
802.068	26811
802.211	26716
802.353	26651
802.496	26552
802.638	26522
802.78	26381
802.923	26347
803.065	26336
803.208	26434
803.35	26469
803.492	26533
803.635	26724
803.777	26541
803.919	26552
804.061	26891
804.204	26625
804.346	26636
804.488	26419
804.63	26651
804.773	26613
804.915	26655
805.057	26720
805.199	26655
805.341	26705
805.483	26815
805.626	26632
805.768	26617
805.91	26815
806.052	26708
806.194	26819
806.336	26956
806.478	26708
806.62	26670
806.762	26826
806.904	26994
807.046	27291
807.188	27150
807.33	27089
807.472	27184
807.614	27070
807.756	27100
807.898	27001
808.04	26918
808.182	26921
808.324	26967
808.465	27127
808.607	27233
808.749	27283
808.891	27332
809.033	27515
809.174	27492
809.316	27348
809.458	27298
809.6	27332
809.741	27439
809.883	27363
810.025	27751
810.166	27637
810.308	27576
810.45	27542
810.591	27656
810.733	27348
810.875	27256
811.016	27188
811.158	27245
811.299	27572
811.441	27576
811.582	27538
811.724	27336
811.865	27332
812.007	27294
812.148	27108
812.29	27340
812.431	27572
812.573	27545
812.714	27682
812.855	27838
812.997	27899
813.138	27926
813.279	28029
813.421	27781
813.562	27823
813.703	27641
813.845	27542
813.986	27325
814.127	27150
814.268	27047
814.41	27028
814.551	27081
814.692	27051
814.833	26853
814.974	27009
815.115	26975
815.256	26857
815.397	26914
815.539	26868
815.68	26765
815.821	26743
815.962	26731
816.103	26823
816.244	26659
816.385	26518
816.526	26560
816.666	26290
816.807	26172
816.948	26370
817.089	26355
817.23	26221
817.371	26301
817.512	26157
817.653	26180
817.793	26107
817.934	26221
818.075	26157
818.216	26199
818.356	26130
818.497	26100
818.638	25909
818.778	26088
818.919	25986
819.06	26103
819.2	26240
819.341	26202
819.481	26233
819.622	26419
819.762	26541
819.903	26415
820.043	26419
820.184	26415
820.324	26233
820.465	26355
820.605	26336
820.746	26442
820.886	26259
821.026	26336
821.167	26267
821.307	26442
821.447	26320
821.588	26103
821.728	26073
821.868	25822
822.008	25765
822.149	25639
822.289	25734
822.429	25438
822.569	25392
822.709	25320
822.849	25362
822.99	25278
823.13	25171
823.27	25346
823.41	24981
823.55	25000
823.69	24954
823.83	24977
823.97	24939
824.11	24703
824.25	24867
824.389	24973
824.529	24871
824.669	24776
824.809	24973
824.949	24859
825.089	24924
825.228	24920
825.368	24715
825.508	24642
825.648	24886
825.787	24661
825.927	24776
826.067	24582
826.206	24608
826.346	24837
826.485	24726
826.625	24734
826.765	24973
826.904	24673
827.044	24456
827.183	24544
827.323	24433
827.462	24498
827.601	24414
827.741	24403
827.88	24544
828.02	24224
828.159	24346
828.298	24559
828.437	24467
828.577	24338
828.716	24479
828.855	24407
828.994	24182
829.134	24117
829.273	24171
829.412	24038
829.551	24068
829.69	24087
829.829	24064
829.968	24174
830.107	24213
830.246	24106
830.385	24178
830.524	24072
830.663	23946
830.802	23893
830.941	23691
831.08	23684
831.219	23863
831.357	23748
831.496	24007
831.635	23680
831.774	23729
831.913	23566
832.051	23414
832.19	23577
832.329	23642
832.467	23417
832.606	23360
832.744	23292
832.883	23296
833.022	23326
833.16	23273
833.299	23406
833.437	23414
833.576	23425
833.714	23501
833.852	23630
833.991	23516
834.129	23474
834.267	23611
834.406	23467
834.544	23429
834.682	23512
834.821	23417
834.959	23691
835.097	23364
835.235	23547
835.373	23341
835.511	23543
835.65	23258
835.788	23303
835.926	23265
836.064	23105
836.202	23060
836.34	23322
836.478	23376
836.615	23322
836.753	23170
836.891	23296
837.029	23235
837.167	23284
837.305	23280
837.443	23208
837.58	23105
837.718	23277
837.856	23239
837.993	23033
838.131	23124
838.269	22987
838.406	22999
838.544	22908
838.681	22824
838.819	22805
838.956	22793
839.094	22565
839.231	22588
839.369	22793
839.506	22968
839.643	22828
839.781	22691
839.918	22577
840.055	22497
840.193	22626
840.33	22546
840.467	22493
840.604	22596
840.742	22869
840.879	22489
841.016	22462
841.153	22634
841.29	22698
841.427	22531
841.564	22523
841.701	22554
841.838	22504
841.975	22497
842.112	22459
842.249	22424
842.385	22344
842.522	22557
842.659	22352
842.796	22261
842.933	22280
843.069	22314
843.206	22291
843.343	22344
843.479	22261
843.616	22394
843.752	22173
843.889	22101
844.025	22105
844.162	22086
844.298	22173
844.435	22147
844.571	21975
844.708	22177
844.844	22272
844.98	22177
845.117	22169
845.253	22051
845.389	21934
845.525	21876
845.661	21994
845.798	21812
845.934	21888
846.07	21743
846.206	21846
846.342	21850
846.478	21785
846.614	21625
846.75	21504
846.886	21633
847.022	21557
847.158	21679
847.294	21583
847.429	21633
847.565	21454
847.701	21941
847.837	21462
847.972	21287
848.108	21431
848.244	21435
848.379	21222
848.515	21108
848.65	20990
848.786	21127
848.921	21249
849.057	21131
849.192	21138
849.328	21214
849.463	21096
849.598	21157
849.734	21123
849.869	21112
850.004	20986
850.14	20960
850.275	20963
850.41	20853
850.545	20861
850.68	20727
850.815	20918
850.95	20998
851.085	21142
851.22	20979
851.355	20952
851.49	20872
851.625	20994
851.76	20807
851.895	20842
852.03	20796
852.165	20895
852.299	20899
852.434	21039
852.569	20906
852.703	20876
852.838	21066
852.973	21070
853.107	20979
853.242	20785
853.376	20754
853.511	20625
853.645	20678
853.78	20883
853.914	20887
854.048	20693
854.183	20663
854.317	20689
854.451	20880
854.585	20746
854.72	20750
854.854	20659
854.988	20670
855.122	20826
855.256	20609
855.39	20773
855.524	20800
855.658	20769
855.792	20758
855.926	20804
856.06	20811
856.194	20933
856.327	20708
856.461	20678
856.595	20724
856.729	20769
856.862	20785
856.996	20785
857.13	20864
857.263	20868
857.397	20686
857.53	20743
857.664	20887
857.797	20819
857.931	20731
858.064	20807
858.197	20883
858.331	20667
858.464	20655
858.597	20651
858.731	20678
858.864	20739
858.997	20648
859.13	20777
859.263	20693
859.396	20842
859.529	20682
859.662	20708
859.795	20590
859.928	20796
860.061	20769
860.194	20918
860.327	20727
860.46	20743
860.592	20800
860.725	20944
860.858	20883
860.99	20727
861.123	20667
861.256	20758
861.388	20716
861.521	21279
861.653	20522
861.786	20431
861.918	20720
862.05	20667
862.183	20560
862.315	20716
862.447	20887
862.58	20697
862.712	20541
862.844	20533
862.976	20530
863.108	20511
863.24	20914
863.372	20377
863.504	20389
863.636	20492
863.768	20541
863.9	20461
864.032	20374
864.164	20366
864.296	20427
864.428	20613
864.559	20469
864.691	20533
864.823	20492
864.954	20393
865.086	20374
865.217	20385
865.349	20149
865.48	20438
865.612	20298
865.743	20465
865.875	20450
866.006	20423
866.137	20320
866.269	20252
866.4	20317
866.531	20305
866.662	20248
866.793	20248
866.924	20317
867.055	20419
867.186	20400
867.317	20187
867.448	20210
867.579	20233
867.71	20317
867.841	20202
867.972	20377
868.103	20404
868.233	20282
868.364	20377
868.495	20450
868.625	20602
868.756	20724
868.886	20431
869.017	20568
869.147	20686
869.278	20571
869.408	20636
869.539	20492
869.669	20659
869.799	20606
869.929	20682
870.06	20697
870.19	20899
870.32	20830
870.45	20899
870.58	20842
870.71	21119
870.84	21039
870.97	20914
871.1	20971
871.23	21074
871.36	21169
871.489	21017
871.619	21005
871.749	21192
871.879	21100
872.008	21237
872.138	21237
872.267	21112
872.397	20979
872.526	20918
872.656	20982
872.785	20990
872.915	21192
873.044	21207
873.173	21195
873.303	21214
873.432	21207
873.561	21237
873.69	21161
873.819	21237
873.948	21321
874.077	21093
874.206	21249
874.335	21108
874.464	21325
874.593	21481
874.722	21306
874.851	21428
874.979	21534
875.108	21416
875.237	21359
875.365	21256
875.494	21329
875.623	21500
875.751	21458
875.88	21348
876.008	21500
876.136	21667
876.265	21762
876.393	21953
876.521	21861
876.65	21861
876.778	21876
876.906	21747
877.034	21804
877.162	21793
877.29	21736
877.418	21838
877.546	21797
877.674	21759
877.802	21823
877.93	21732
878.058	21789
878.185	21652
878.313	21705
878.441	21717
878.568	21526
878.696	21599
878.824	21812
878.951	21762
879.079	21884
879.206	21987
879.333	21941
879.461	21732
879.588	21812
879.715	21972
879.842	21949
879.97	21899
880.097	21580
880.224	21568
880.351	21648
880.478	21622
880.605	21682
880.732	21583
880.859	21713
880.986	21606
881.112	21526
881.239	21431
881.366	21408
881.493	21203
881.619	21226
881.746	21195
881.872	21127
881.999	21180
882.125	21173
882.252	21222
882.378	21176
882.505	21214
882.631	21066
882.757	20956
882.883	20929
883.01	20910
883.136	20906
883.262	20815
883.388	20785
883.514	21005
883.64	20804
883.766	20842
883.892	20800
884.018	20838
884.143	20883
884.269	21020
884.395	20579
884.52	20549
884.646	20648
884.772	20533
884.897	20522
885.023	20526
885.148	20613
885.274	20731
885.399	20648
885.524	20465
885.65	20617
885.775	20556
885.9	20457
886.025	20758
886.15	20598
886.275	20522
886.4	20362
886.525	20590
886.65	20537
886.775	20431
886.9	20526
887.025	20743
887.149	20587
887.274	20362
887.399	20358
887.523	20294
887.648	20370
887.773	20225
887.897	20484
888.021	20286
888.146	20351
888.27	20427
888.395	20484
888.519	20336
888.643	20358
888.767	20290
888.891	20233
889.015	20126
889.139	20240
889.263	20157
889.387	20210
889.511	20259
889.635	20229
889.759	20035
889.883	20092
890.006	20244
890.13	20275
890.254	20065
890.377	20122
890.501	19822
890.624	19784
890.748	19856
890.871	19788
890.995	19575
891.118	19738
891.241	19791
891.364	19807
891.488	19693
891.611	19769
891.734	19674
891.857	19712
891.98	19738
892.103	19765
892.226	19689
892.349	19502
892.471	19445
892.594	19616
892.717	19594
892.839	19658
892.962	19639
893.085	19791
893.207	19559
893.33	19499
893.452	19518
893.575	19708
893.697	19674
893.819	19742
893.941	19742
894.064	19826
894.186	19559
894.308	19518
894.43	19719
894.552	19738
894.674	19765
894.796	19567
894.918	19544
895.04	19658
895.161	19776
895.283	19639
895.405	19559
895.526	19655
895.648	19643
895.769	19533
895.891	19616
896.012	19704
896.134	19658
896.255	19647
896.376	19578
896.498	19704
896.619	19651
896.74	19750
896.861	19784
896.982	19974
897.103	19997
897.224	19879
897.345	19757
897.466	19799
897.587	19856
897.708	20031
897.828	19913
897.949	19826
898.07	19791
898.19	19738
898.311	19879
898.431	19799
898.552	19875
898.672	19860
898.792	19951
898.913	19830
899.033	19677
899.153	19719
899.273	19647
899.393	19575
899.513	19776
899.633	19548
899.753	19670
899.873	19506
899.993	19514
900.113	19460
900.232	19537
900.352	19495
900.472	19350
900.591	19365
900.711	19422
900.83	19339
900.95	19480
901.069	19468
901.189	19247
901.308	19126
901.427	18981
901.546	19099
901.665	19038
901.784	19065
901.904	18787
902.023	18768
902.141	18570
902.26	18616
902.379	18532
902.498	18582
902.617	18479
902.735	18517
902.854	18448
902.973	18391
903.091	18163
903.21	18182
903.328	18197
903.446	18110
903.565	18053
903.683	18019
903.801	17901
903.919	17969
904.038	17969
904.156	17802
904.274	17866
904.392	17802
904.51	17828
904.627	17798
904.745	17802
904.863	17832
904.981	17589
905.098	17372
905.216	17398
905.334	17474
905.451	17337
905.569	17421
905.686	17493
905.803	17341
905.921	17212
906.038	17334
906.155	17364
906.272	17124
906.389	17109
906.506	16980
906.623	17045
906.74	16999
906.857	16763
906.974	16866
907.091	16984
907.208	16999
907.324	16995
907.441	16904
907.557	16812
907.674	16645
907.79	16615
907.907	16641
908.023	16767
908.139	16702
908.256	16664
908.372	16573
908.488	16637
908.604	16417
908.72	16363
908.836	16276
908.952	16413
909.068	16432
909.184	16489
909.3	16527
909.415	16360
909.531	16394
909.647	16284
909.762	16112
909.878	16158
909.993	16139
910.108	16082
910.224	16036
910.339	16074
910.454	16101
910.57	15865
910.685	15823
910.8	16105
910.915	15983
911.03	15857
911.145	15682
911.259	15690
911.374	15686
911.489	15637
911.604	15557
911.718	15492
911.833	15477
911.947	15424
912.062	15310
912.176	15473
912.291	15500
912.405	15564
912.519	15705
912.633	15701
912.748	15469
912.862	15359
912.976	15317
913.09	15108
913.204	15310
913.318	15344
913.431	15393
913.545	15405
913.659	15424
913.772	15275
913.886	15184
914	15051
914.113	15291
914.226	15195
914.34	15165
914.453	15036
914.566	15131
914.68	14994
914.793	15005
914.906	14731
915.019	14697
915.132	14602
915.245	14602
915.358	14819
915.47	14716
915.583	14739
915.696	14777
915.809	14731
915.921	14819
916.034	14575
916.146	14663
916.259	14655
916.371	14708
916.483	14720
916.595	14629
916.708	14621
916.82	14571
916.932	14541
917.044	14499
917.156	14442
917.268	14415
917.38	14385
917.491	14370
917.603	14408
917.715	14454
917.826	14507
917.938	14336
918.049	14191
918.161	14351
918.272	14473
918.384	14374
918.495	14370
918.606	14183
918.717	14050
918.828	14164
918.939	14168
919.05	14054
919.161	14149
919.272	13898
919.383	14081
919.494	14202
919.604	14320
919.715	14199
919.826	14046
919.936	14142
920.047	14275
920.157	14134
920.267	14210
920.378	14138
920.488	14153
920.598	14275
920.708	14408
920.818	14328
920.928	14218
921.038	14495
921.148	14324
921.258	14012
921.368	14039
921.477	13864
921.587	13947
921.697	13757
921.806	13902
921.916	13689
922.025	13548
922.134	13502
922.244	13563
922.353	13575
922.462	13407
922.571	13354
922.68	13213
922.789	13126
922.898	13198
923.007	13126
923.116	13076
923.224	13141
923.333	13122
923.442	13110
923.55	12943
923.659	13000
923.767	13031
923.876	12973
923.984	13019
924.092	12947
924.201	12916
924.309	12867
924.417	12958
924.525	12856
924.633	12920
924.741	13734
924.849	12684
924.956	12738
925.064	12814
925.172	12555
925.279	12601
925.387	12585
925.494	12597
925.602	12711
925.709	12658
925.816	12517
925.924	12604
926.031	12627
926.138	12544
926.245	12616
926.352	12441
926.459	12589
926.566	12608
926.673	12475
926.779	12330
926.886	12426
926.993	12254
927.099	12178
927.206	12049
927.312	12205
927.419	12182
927.525	12167
927.631	12190
927.737	12053
927.843	12068
927.95	11950
928.056	12007
928.162	12045
928.267	12026
928.373	12719
928.479	12068
928.585	11824
928.69	11958
928.796	12022
928.901	11790
929.007	11691
929.112	11843
929.218	11798
929.323	11733
929.428	11672
929.533	11866
929.638	11547
929.743	11688
929.848	11752
929.953	11703
930.058	11532
930.163	11414
930.267	11436
930.372	11570
930.477	11429
930.581	11623
930.685	11524
930.79	11353
930.894	11330
930.998	11273
931.103	11410
931.207	11060
931.311	11052
931.415	11048
931.519	10744
931.623	10691
