Data from test_V78500241_584.txt Node
Date: Fri Mar 25 15:13:55 CST 2022
User: usil
Spectrometer: V785-0024
Trigger mode: 0
Integration Time (sec): 4.000000E-1
Scans to average: 1
Nonlinearity correction enabled: false
Boxcar width: 0
Storing dark spectrum: false
XAxis mode: Wavelengths
Number of Pixels in Spectrum: 1024
>>>>>Begin Spectral Data<<<<<
801.071	27131
801.214	27222
801.356	27028
801.499	26861
801.641	26811
801.783	26701
801.926	26727
802.068	26640
802.211	26556
802.353	26499
802.496	26385
802.638	26393
802.78	26191
802.923	26427
803.065	26385
803.208	26294
803.35	26233
803.492	26419
803.635	26495
803.777	26298
803.919	26450
804.061	26754
804.204	26457
804.346	26423
804.488	26351
804.63	26545
804.773	26339
804.915	26412
805.057	26587
805.199	26419
805.341	26564
805.483	26644
805.626	26533
805.768	26587
805.91	26636
806.052	26670
806.194	26568
806.336	26636
806.478	26541
806.62	26549
806.762	26792
806.904	26937
807.046	27020
807.188	27058
807.33	26994
807.472	27070
807.614	26940
807.756	27081
807.898	26804
808.04	26720
808.182	26937
808.324	26982
808.465	26826
808.607	26990
808.749	27108
808.891	27256
809.033	27386
809.174	27218
809.316	27127
809.458	27260
809.6	27260
809.741	27386
809.883	27389
810.025	27545
810.166	27435
810.308	27355
810.45	27370
810.591	27485
810.733	27367
810.875	27203
811.016	27100
811.158	27096
811.299	27370
811.441	27310
811.582	27351
811.724	27195
811.865	27104
812.007	27039
812.148	27214
812.29	27169
812.431	27226
812.573	27488
812.714	27614
812.855	27743
812.997	27766
813.138	27926
813.279	27846
813.421	27736
813.562	27629
813.703	27507
813.845	27488
813.986	27055
814.127	27104
814.268	26895
814.41	26925
814.551	26754
814.692	26872
814.833	26750
814.974	26925
815.115	26845
815.256	26731
815.397	26785
815.539	26823
815.68	26644
815.821	26552
815.962	26590
816.103	26655
816.244	26590
816.385	26476
816.526	26457
816.666	26267
816.807	26100
816.948	26058
817.089	26134
817.23	26161
817.371	26164
817.512	26111
817.653	26126
817.793	26149
817.934	26218
818.075	26210
818.216	26164
818.356	26096
818.497	25959
818.638	25761
818.778	25871
818.919	25925
819.06	25963
819.2	26058
819.341	26183
819.481	26195
819.622	26271
819.762	26495
819.903	26374
820.043	26374
820.184	26263
820.324	26351
820.465	26237
820.605	26294
820.746	26324
820.886	26161
821.026	26267
821.167	26142
821.307	26157
821.447	26153
821.588	26020
821.728	25951
821.868	25871
822.008	25594
822.149	25540
822.289	25411
822.429	25411
822.569	25388
822.709	25240
822.849	25137
822.99	25057
823.13	25103
823.27	24996
823.41	24981
823.55	24779
823.69	24977
823.83	24859
823.97	24837
824.11	24806
824.25	24601
824.389	24604
824.529	24875
824.669	24867
824.809	24844
824.949	24882
825.089	24867
825.228	24722
825.368	24608
825.508	24658
825.648	24642
825.787	24589
825.927	24642
826.067	24635
826.206	24608
826.346	24593
826.485	24669
826.625	24654
826.765	24650
826.904	24608
827.044	24407
827.183	24365
827.323	24304
827.462	24426
827.601	24209
827.741	24418
827.88	24346
828.02	24232
828.159	24338
828.298	24338
828.437	24422
828.577	24159
828.716	24334
828.855	24289
828.994	24224
829.134	24133
829.273	24018
829.412	24076
829.551	23897
829.69	24072
829.829	24022
829.968	24026
830.107	24190
830.246	23996
830.385	23958
830.524	23866
830.663	23710
830.802	23707
830.941	23653
831.08	23661
831.219	23703
831.357	23733
831.496	23889
831.635	23627
831.774	23619
831.913	23539
832.051	23562
832.19	23410
832.329	23562
832.467	23349
832.606	23178
832.744	23296
832.883	23345
833.022	23330
833.16	23421
833.299	23341
833.437	23307
833.576	23383
833.714	23455
833.852	23429
833.991	23417
834.129	23512
834.267	23566
834.406	23280
834.544	23406
834.682	23414
834.821	23379
834.959	23486
835.097	23410
835.235	23531
835.373	23379
835.511	23406
835.65	23193
835.788	23265
835.926	23113
836.064	22873
836.202	23151
836.34	23288
836.478	23433
836.615	23254
836.753	23216
836.891	23360
837.029	23307
837.167	23223
837.305	23143
837.443	23189
837.58	23067
837.718	23212
837.856	23124
837.993	23105
838.131	22976
838.269	23022
838.406	22942
838.544	22900
838.681	22656
838.819	22721
838.956	22656
839.094	22611
839.231	22481
839.369	22752
839.506	22972
839.643	22881
839.781	22493
839.918	22470
840.055	22565
840.193	22645
840.33	22428
840.467	22546
840.604	22428
840.742	22683
840.879	22402
841.016	22527
841.153	22443
841.29	22656
841.427	22440
841.564	22592
841.701	22341
841.838	22466
841.975	22371
842.112	22508
842.249	22261
842.385	22166
842.522	22409
842.659	22291
842.796	22246
842.933	22143
843.069	22284
843.206	22291
843.343	22299
843.479	22394
843.616	22204
843.752	22109
843.889	22109
844.025	22200
844.162	21941
844.298	22181
844.435	22120
844.571	21937
844.708	21968
844.844	22272
844.98	22169
845.117	22150
845.253	21945
845.389	21884
845.525	21945
845.661	21827
845.798	21690
845.934	21869
846.07	21770
846.206	21823
846.342	21918
846.478	21675
846.614	21542
846.75	21580
846.886	21420
847.022	21549
847.158	21561
847.294	21519
847.429	21526
847.565	21504
847.701	21690
847.837	21268
847.972	21272
848.108	21355
848.244	21230
848.379	21123
848.515	21077
848.65	21062
848.786	21142
848.921	21058
849.057	21173
849.192	21340
849.328	21108
849.463	21100
849.598	21066
849.734	21081
849.869	20918
850.004	20891
850.14	20960
850.275	20872
850.41	20777
850.545	20902
850.68	20849
850.815	20815
850.95	20956
851.085	21074
851.22	21039
851.355	20857
851.49	20883
851.625	20769
851.76	20754
851.895	20800
852.03	20689
852.165	20853
852.299	20880
852.434	20830
852.569	20941
852.703	20880
852.838	20948
852.973	20994
853.107	21077
853.242	20861
853.376	20629
853.511	20549
853.645	20667
853.78	20838
853.914	20670
854.048	20712
854.183	20769
854.317	20674
854.451	20781
854.585	20743
854.72	20511
854.854	20781
854.988	20606
855.122	20746
855.256	20522
855.39	20689
855.524	20838
855.658	20674
855.792	20781
855.926	20777
856.06	20674
856.194	20720
856.327	20682
856.461	20613
856.595	20575
856.729	20670
856.862	20788
856.996	20731
857.13	20804
857.263	20811
857.397	20697
857.53	20689
857.664	20651
857.797	20552
857.931	20849
858.064	20811
858.197	20845
858.331	20701
858.464	20693
858.597	20495
858.731	20564
858.864	20708
858.997	20594
859.13	20667
859.263	20800
859.396	20788
859.529	20587
859.662	20746
859.795	20670
859.928	20674
860.061	20880
860.194	20765
860.327	20849
860.46	20777
860.592	20724
860.725	20948
860.858	20849
860.99	20678
861.123	20587
861.256	20632
861.388	20731
861.521	21603
861.653	20571
861.786	20473
861.918	20621
862.05	20465
862.183	20522
862.315	20617
862.447	20667
862.58	20507
862.712	20427
862.844	20286
862.976	20522
863.108	20442
863.24	20830
863.372	20267
863.504	20256
863.636	20438
863.768	20282
863.9	20336
864.032	20408
864.164	20317
864.296	20583
864.428	20545
864.559	20400
864.691	20476
864.823	20438
864.954	20381
865.086	20476
865.217	20267
865.349	20256
865.48	20404
865.612	20370
865.743	20442
865.875	20347
866.006	20301
866.137	20263
866.269	20240
866.4	20313
866.531	20381
866.662	20202
866.793	20237
866.924	20259
867.055	20298
867.186	20290
867.317	20202
867.448	20153
867.579	20271
867.71	20161
867.841	20088
867.972	20248
868.103	20187
868.233	20180
868.364	20332
868.495	20358
868.625	20473
868.756	20541
868.886	20336
869.017	20530
869.147	20587
869.278	20682
869.408	20522
869.539	20484
869.669	20568
869.799	20564
869.929	20511
870.06	20629
870.19	20659
870.32	20743
870.45	20853
870.58	20807
870.71	21096
870.84	20967
870.97	20849
871.1	20937
871.23	21138
871.36	21119
871.489	20944
871.619	20937
871.749	20994
871.879	21096
872.008	21150
872.138	21013
872.267	20925
872.397	21017
872.526	20815
872.656	20880
872.785	20933
872.915	21089
873.044	21165
873.173	21192
873.303	21036
873.432	21218
873.561	21165
873.69	21142
873.819	21131
873.948	21070
874.077	21142
874.206	21039
874.335	21116
874.464	21207
874.593	21260
874.722	21473
874.851	21382
874.979	21428
875.108	21310
875.237	21199
875.365	21348
875.494	21450
875.623	21488
875.751	21306
875.88	21313
876.008	21412
876.136	21625
876.265	21778
876.393	21846
876.521	21899
876.65	21778
876.778	21709
876.906	21717
877.034	21549
877.162	21690
877.29	21542
877.418	21759
877.546	21770
877.674	21724
877.802	21755
877.93	21679
878.058	21641
878.185	21625
878.313	21629
878.441	21720
878.568	21466
878.696	21606
878.824	21793
878.951	21679
879.079	21922
879.206	21964
879.333	21854
879.461	21762
879.588	21766
879.715	21831
879.842	21956
879.97	21835
880.097	21549
880.224	21595
880.351	21603
880.478	21447
880.605	21378
880.732	21572
880.859	21800
880.986	21386
881.112	21515
881.239	21439
881.366	21298
881.493	21176
881.619	21241
881.746	21096
881.872	21142
881.999	21108
882.125	21055
882.252	21017
882.378	20975
882.505	21188
882.631	20944
882.757	20910
882.883	20918
883.01	20849
883.136	20758
883.262	20861
883.388	20564
883.514	20807
883.64	20792
883.766	20746
883.892	20545
884.018	20644
884.143	20720
884.269	20838
884.395	20537
884.52	20492
884.646	20419
884.772	20446
884.897	20381
885.023	20473
885.148	20492
885.274	20602
885.399	20625
885.524	20431
885.65	20560
885.775	20446
885.9	20339
886.025	20575
886.15	20522
886.275	20533
886.4	20415
886.525	20442
886.65	20446
886.775	20374
886.9	20617
887.025	20598
887.149	20377
887.274	20244
887.399	20290
887.523	20149
887.648	20081
887.773	20168
887.897	20366
888.021	20263
888.146	20103
888.27	20305
888.395	20324
888.519	20218
888.643	20290
888.767	20301
888.891	20210
889.015	20088
889.139	20084
889.263	20012
889.387	20225
889.511	20282
889.635	20073
889.759	20043
889.883	19928
890.006	19978
890.13	20039
890.254	19913
890.377	19944
890.501	19837
890.624	19753
890.748	19814
890.871	19635
890.995	19647
891.118	19601
891.241	19655
891.364	19518
891.488	19674
891.611	19742
891.734	19563
891.857	19700
891.98	19578
892.103	19681
892.226	19662
892.349	19601
892.471	19297
892.594	19537
892.717	19460
892.839	19540
892.962	19552
893.085	19601
893.207	19514
893.33	19464
893.452	19483
893.575	19571
893.697	19525
893.819	19772
893.941	19666
894.064	19708
894.186	19438
894.308	19381
894.43	19613
894.552	19609
894.674	19628
894.796	19540
894.918	19540
895.04	19537
895.161	19548
895.283	19533
895.405	19426
895.526	19529
895.648	19472
895.769	19601
895.891	19567
896.012	19594
896.134	19540
896.255	19605
896.376	19578
896.498	19624
896.619	19556
896.74	19582
896.861	19609
896.982	19925
897.103	20008
897.224	19849
897.345	19746
897.466	19753
897.587	19780
897.708	19803
897.828	19811
897.949	19731
898.07	19613
898.19	19769
898.311	19928
898.431	19746
898.552	19765
898.672	19841
898.792	19856
898.913	19780
899.033	19738
899.153	19582
899.273	19506
899.393	19548
899.513	19529
899.633	19620
899.753	19575
899.873	19514
899.993	19483
900.113	19426
900.232	19518
900.352	19392
900.472	19362
900.591	19217
900.711	19441
900.83	19213
900.95	19441
901.069	19282
901.189	19179
901.308	18878
901.427	19031
901.546	18962
901.665	18909
901.784	18943
901.904	18730
902.023	18681
902.141	18528
902.26	18429
902.379	18399
902.498	18429
902.617	18418
902.735	18471
902.854	18403
902.973	18342
903.091	18038
903.21	18205
903.328	18041
903.446	18091
903.565	17931
903.683	17992
903.801	17752
903.919	17923
904.038	17931
904.156	17657
904.274	17756
904.392	17600
904.51	17672
904.627	17661
904.745	17699
904.863	17646
904.981	17486
905.098	17463
905.216	17356
905.334	17414
905.451	17410
905.569	17307
905.686	17421
905.803	17414
905.921	17166
906.038	17258
906.155	17159
906.272	16987
906.389	17045
906.506	16885
906.623	16930
906.74	16793
906.857	16729
906.974	16790
907.091	16866
907.208	17098
907.324	16900
907.441	16782
907.557	16656
907.674	16653
907.79	16649
907.907	16641
908.023	16656
908.139	16558
908.256	16596
908.372	16500
908.488	16478
908.604	16299
908.72	16287
908.836	16474
908.952	16303
909.068	16318
909.184	16386
909.3	16348
909.415	16394
909.531	16314
909.647	16093
909.762	16101
909.878	16051
909.993	15991
910.108	16082
910.224	16029
910.339	16017
910.454	15941
910.57	15808
910.685	15812
910.8	16040
910.915	15937
911.03	15903
911.145	15618
911.259	15690
911.374	15629
911.489	15629
911.604	15568
911.718	15405
911.833	15393
911.947	15405
912.062	15256
912.176	15332
912.291	15332
912.405	15336
912.519	15576
912.633	15622
912.748	15424
912.862	15317
912.976	15173
913.09	15039
913.204	15138
913.318	15161
913.431	15230
913.545	15298
913.659	15397
913.772	15237
913.886	15119
914	15036
914.113	15074
914.226	15119
914.34	15104
914.453	14838
914.566	15051
914.68	14906
914.793	14838
914.906	14792
915.019	14693
915.132	14644
915.245	14632
915.358	14670
915.47	14636
915.583	14758
915.696	14648
915.809	14838
915.921	14769
916.034	14621
916.146	14541
916.259	14571
916.371	14629
916.483	14552
916.595	14499
916.708	14526
916.82	14530
916.932	14454
917.044	14294
917.156	14408
917.268	14362
917.38	14366
917.491	14317
917.603	14381
917.715	14495
917.826	14347
917.938	14298
918.049	14252
918.161	14259
918.272	14450
918.384	14389
918.495	14180
918.606	14088
918.717	13997
918.828	14202
918.939	14065
919.05	14088
919.161	14084
919.272	13841
919.383	13913
919.494	14149
919.604	14286
919.715	14088
919.826	14016
919.936	14039
920.047	14123
920.157	14043
920.267	14202
920.378	14123
920.488	14035
920.598	14191
920.708	14385
920.818	14256
920.928	14183
921.038	14336
921.148	14267
921.258	14103
921.368	13849
921.477	13830
921.587	13818
921.697	13655
921.806	13746
921.916	13616
922.025	13491
922.134	13468
922.244	13346
922.353	13487
922.462	13400
922.571	13236
922.68	13099
922.789	13069
922.898	13160
923.007	12939
923.116	13149
923.224	13110
923.333	13076
923.442	13042
923.55	12943
923.659	12943
923.767	13000
923.876	12966
923.984	13008
924.092	12776
924.201	12871
924.309	12844
924.417	12897
924.525	12776
924.633	12795
924.741	13632
924.849	12544
924.956	12768
925.064	12532
925.172	12422
925.279	12570
925.387	12551
925.494	12509
925.602	12681
925.709	12570
925.816	12513
925.924	12452
926.031	12513
926.138	12521
926.245	12483
926.352	12289
926.459	12597
926.566	12464
926.673	12403
926.779	12372
926.886	12292
926.993	12121
927.099	12098
927.206	12106
927.312	12117
927.419	12072
927.525	12148
927.631	12114
927.737	12053
927.843	11999
927.95	11889
928.056	11961
928.162	12019
928.267	11992
928.373	12646
928.479	12007
928.585	11828
928.69	11889
928.796	12003
928.901	11859
929.007	11684
929.112	11859
929.218	11760
929.323	11760
929.428	11714
929.533	11824
929.638	11604
929.743	11752
929.848	11729
929.953	11657
930.058	11516
930.163	11440
930.267	11444
930.372	11528
930.477	11360
930.581	11528
930.685	11421
930.79	11299
930.894	11341
930.998	11330
931.103	11387
931.207	11045
931.311	10965
931.415	10892
931.519	10683
931.623	10672
