Data from test_V78500241_334.txt Node
Date: Fri Mar 25 15:12:11 CST 2022
User: usil
Spectrometer: V785-0024
Trigger mode: 0
Integration Time (sec): 4.000000E-1
Scans to average: 1
Nonlinearity correction enabled: false
Boxcar width: 0
Storing dark spectrum: false
XAxis mode: Wavelengths
Number of Pixels in Spectrum: 1024
>>>>>Begin Spectral Data<<<<<
801.071	27203
801.214	27005
801.356	26842
801.499	26804
801.641	26632
801.783	26560
801.926	26785
802.068	26579
802.211	26636
802.353	26465
802.496	26294
802.638	26225
802.78	26278
802.923	26229
803.065	26107
803.208	26199
803.35	26263
803.492	26438
803.635	26533
803.777	26313
803.919	26377
804.061	26697
804.204	26457
804.346	26381
804.488	26259
804.63	26290
804.773	26240
804.915	26446
805.057	26503
805.199	26427
805.341	26453
805.483	26545
805.626	26473
805.768	26526
805.91	26575
806.052	26408
806.194	26442
806.336	26571
806.478	26389
806.62	26423
806.762	26613
806.904	26777
807.046	27020
807.188	26914
807.33	26933
807.472	27058
807.614	26769
807.756	26933
807.898	26758
808.04	26686
808.182	26724
808.324	26773
808.465	26674
808.607	26830
808.749	27104
808.891	27195
809.033	27431
809.174	27184
809.316	27062
809.458	27089
809.6	27081
809.741	27127
809.883	27222
810.025	27401
810.166	27279
810.308	27298
810.45	27275
810.591	27203
810.733	27005
810.875	27058
811.016	27051
811.158	27001
811.299	27142
811.441	27127
811.582	27249
811.724	27070
811.865	27020
812.007	26895
812.148	27096
812.29	27127
812.431	27218
812.573	27344
812.714	27454
812.855	27450
812.997	27686
813.138	27781
813.279	27808
813.421	27713
813.562	27561
813.703	27412
813.845	27500
813.986	26940
814.127	26750
814.268	26712
814.41	26689
814.551	26663
814.692	26670
814.833	26598
814.974	26864
815.115	26762
815.256	26644
815.397	26670
815.539	26587
815.68	26568
815.821	26587
815.962	26427
816.103	26495
816.244	26450
816.385	26202
816.526	26229
816.666	26027
816.807	26050
816.948	26058
817.089	25982
817.23	25970
817.371	26073
817.512	26008
817.653	25997
817.793	25913
817.934	26027
818.075	25925
818.216	25917
818.356	25932
818.497	25757
818.638	25780
818.778	25814
818.919	25674
819.06	25696
819.2	25784
819.341	26081
819.481	25947
819.622	26024
819.762	26290
819.903	26389
820.043	26027
820.184	26119
820.324	26062
820.465	26043
820.605	26081
820.746	26077
820.886	25947
821.026	26054
821.167	26142
821.307	26100
821.447	25959
821.588	25875
821.728	25723
821.868	25620
822.008	25403
822.149	25479
822.289	25499
822.429	25190
822.569	25187
822.709	25126
822.849	24992
822.99	25000
823.13	24939
823.27	24863
823.41	24738
823.55	24631
823.69	24802
823.83	24741
823.97	24700
824.11	24661
824.25	24555
824.389	24612
824.529	24642
824.669	24669
824.809	24776
824.949	24738
825.089	24547
825.228	24620
825.368	24399
825.508	24441
825.648	24456
825.787	24437
825.927	24612
826.067	24525
826.206	24460
826.346	24365
826.485	24620
826.625	24388
826.765	24422
826.904	24460
827.044	24273
827.183	24087
827.323	24064
827.462	24197
827.601	24220
827.741	24106
827.88	24102
828.02	24049
828.159	24186
828.298	24182
828.437	24163
828.577	24247
828.716	24159
828.855	24034
828.994	23977
829.134	23847
829.273	23836
829.412	23870
829.551	23813
829.69	23813
829.829	23950
829.968	24053
830.107	24022
830.246	24003
830.385	23813
830.524	23786
830.663	23714
830.802	23577
830.941	23543
831.08	23478
831.219	23512
831.357	23592
831.496	23707
831.635	23467
831.774	23516
831.913	23204
832.051	23345
832.19	23303
832.329	23330
832.467	23254
832.606	23033
832.744	23124
832.883	23128
833.022	23261
833.16	23216
833.299	23220
833.437	23189
833.576	23242
833.714	23258
833.852	23277
833.991	23379
834.129	23307
834.267	23239
834.406	23166
834.544	23220
834.682	23273
834.821	23254
834.959	23505
835.097	23128
835.235	23258
835.373	23299
835.511	23227
835.65	23083
835.788	23083
835.926	22885
836.064	22919
836.202	22991
836.34	23166
836.478	23227
836.615	23098
836.753	23083
836.891	23208
837.029	23094
837.167	23056
837.305	23086
837.443	22957
837.58	22877
837.718	23143
837.856	22793
837.993	22923
838.131	23064
838.269	22957
838.406	22812
838.544	22858
838.681	22630
838.819	22599
838.956	22424
839.094	22405
839.231	22440
839.369	22656
839.506	22854
839.643	22653
839.781	22443
839.918	22478
840.055	22455
840.193	22516
840.33	22363
840.467	22325
840.604	22337
840.742	22603
840.879	22200
841.016	22246
841.153	22276
841.29	22432
841.427	22306
841.564	22386
841.701	22337
841.838	22398
841.975	22215
842.112	22325
842.249	22150
842.385	22177
842.522	22226
842.659	22158
842.796	22169
842.933	22070
843.069	22131
843.206	22124
843.343	22246
843.479	22109
843.616	22128
843.752	21854
843.889	21736
844.025	22154
844.162	21964
844.298	21979
844.435	21911
844.571	21865
844.708	21949
844.844	22048
844.98	22116
845.117	22029
845.253	21835
845.389	21690
845.525	21823
845.661	21800
845.798	21671
845.934	21679
846.07	21629
846.206	21667
846.342	21816
846.478	21519
846.614	21329
846.75	21355
846.886	21374
847.022	21466
847.158	21332
847.294	21412
847.429	21351
847.565	21287
847.701	21587
847.837	21131
847.972	21096
848.108	21150
848.244	21245
848.379	20956
848.515	20925
848.65	21017
848.786	20929
848.921	21039
849.057	21013
849.192	21017
849.328	21013
849.463	20975
849.598	20979
849.734	20853
849.869	20925
850.004	20712
850.14	20750
850.275	20781
850.41	20746
850.545	20739
850.68	20640
850.815	20769
850.95	20746
851.085	21013
851.22	20754
851.355	20819
851.49	20724
851.625	20697
851.76	20579
851.895	20674
852.03	20579
852.165	20708
852.299	20686
852.434	20743
852.569	20769
852.703	20754
852.838	20819
852.973	20857
853.107	20701
853.242	20659
853.376	20579
853.511	20499
853.645	20682
853.78	20708
853.914	20659
854.048	20476
854.183	20351
854.317	20552
854.451	20796
854.585	20613
854.72	20613
854.854	20777
854.988	20587
855.122	20492
855.256	20473
855.39	20431
855.524	20659
855.658	20530
855.792	20575
855.926	20579
856.06	20651
856.194	20629
856.327	20579
856.461	20465
856.595	20522
856.729	20461
856.862	20602
856.996	20602
857.13	20609
857.263	20663
857.397	20613
857.53	20552
857.664	20678
857.797	20632
857.931	20537
858.064	20640
858.197	20644
858.331	20514
858.464	20454
858.597	20442
858.731	20530
858.864	20598
858.997	20484
859.13	20590
859.263	20476
859.396	20552
859.529	20552
859.662	20446
859.795	20499
859.928	20522
860.061	20606
860.194	20762
860.327	20541
860.46	20640
860.592	20682
860.725	20739
860.858	20609
860.99	20594
861.123	20446
861.256	20438
861.388	20571
861.521	21161
861.653	20370
861.786	20332
861.918	20366
862.05	20503
862.183	20495
862.315	20480
862.447	20594
862.58	20469
862.712	20339
862.844	20191
862.976	20393
863.108	20294
863.24	20758
863.372	20122
863.504	20298
863.636	20248
863.768	20218
863.9	20214
864.032	20301
864.164	20183
864.296	20267
864.428	20446
864.559	20415
864.691	20355
864.823	20259
864.954	20145
865.086	20328
865.217	20172
865.349	20119
865.48	20164
865.612	20301
865.743	20328
865.875	20134
866.006	20134
866.137	20206
866.269	20088
866.4	20180
866.531	20191
866.662	20134
866.793	20176
866.924	20020
867.055	20180
867.186	20077
867.317	20107
867.448	20024
867.579	20035
867.71	20077
867.841	20119
867.972	20107
868.103	20092
868.233	20149
868.364	20107
868.495	20195
868.625	20294
868.756	20404
868.886	20244
869.017	20286
869.147	20560
869.278	20362
869.408	20347
869.539	20233
869.669	20450
869.799	20320
869.929	20499
870.06	20339
870.19	20644
870.32	20651
870.45	20746
870.58	20796
870.71	20937
870.84	20880
870.97	20792
871.1	20906
871.23	21017
871.36	20914
871.489	20914
871.619	20990
871.749	20857
871.879	21005
872.008	21085
872.138	20944
872.267	20883
872.397	20804
872.526	20724
872.656	20895
872.785	20842
872.915	21039
873.044	21058
873.173	21036
873.303	20944
873.432	21096
873.561	21089
873.69	20967
873.819	20941
873.948	20967
874.077	20960
874.206	20895
874.335	20975
874.464	21055
874.593	21203
874.722	21207
874.851	21184
874.979	21173
875.108	21287
875.237	21123
875.365	21104
875.494	21195
875.623	21275
875.751	21150
875.88	21252
876.008	21416
876.136	21454
876.265	21629
876.393	21694
876.521	21618
876.65	21614
876.778	21709
876.906	21485
877.034	21485
877.162	21549
877.29	21443
877.418	21488
877.546	21504
877.674	21606
877.802	21549
877.93	21549
878.058	21526
878.185	21458
878.313	21557
878.441	21504
878.568	21374
878.696	21454
878.824	21759
878.951	21694
879.079	21789
879.206	21812
879.333	21793
879.461	21572
879.588	21679
879.715	21671
879.842	21743
879.97	21781
880.097	21538
880.224	21405
880.351	21477
880.478	21412
880.605	21408
880.732	21553
880.859	21572
880.986	21351
881.112	21389
881.239	21245
881.366	21127
881.493	21108
881.619	21020
881.746	20941
881.872	20944
881.999	20952
882.125	20845
882.252	20880
882.378	20960
882.505	21096
882.631	20868
882.757	20636
882.883	20777
883.01	20830
883.136	20708
883.262	20556
883.388	20511
883.514	20746
883.64	20811
883.766	20568
883.892	20408
884.018	20503
884.143	20598
884.269	20842
884.395	20408
884.52	20374
884.646	20324
884.772	20366
884.897	20122
885.023	20423
885.148	20385
885.274	20522
885.399	20415
885.524	20355
885.65	20450
885.775	20381
885.9	20237
886.025	20377
886.15	20366
886.275	20358
886.4	20233
886.525	20256
886.65	20347
886.775	20244
886.9	20389
887.025	20495
887.149	20225
887.274	20210
887.399	20107
887.523	20191
887.648	19963
887.773	19993
887.897	20119
888.021	20210
888.146	19978
888.27	20278
888.395	20210
888.519	20107
888.643	20168
888.767	20081
888.891	19921
889.015	19967
889.139	19951
889.263	19955
889.387	20008
889.511	20172
889.635	20096
889.759	19925
889.883	19963
890.006	19913
890.13	20035
890.254	19772
890.377	19951
890.501	19639
890.624	19575
890.748	19662
890.871	19575
890.995	19415
891.118	19506
891.241	19499
891.364	19525
891.488	19647
891.611	19407
891.734	19483
891.857	19540
891.98	19499
892.103	19559
892.226	19674
892.349	19480
892.471	19308
892.594	19453
892.717	19362
892.839	19320
892.962	19316
893.085	19472
893.207	19483
893.33	19278
893.452	19434
893.575	19449
893.697	19354
893.819	19510
893.941	19696
894.064	19514
894.186	19316
894.308	19282
894.43	19464
894.552	19480
894.674	19415
894.796	19343
894.918	19476
895.04	19411
895.161	19537
895.283	19529
895.405	19403
895.526	19441
895.648	19476
895.769	19491
895.891	19502
896.012	19403
896.134	19499
896.255	19472
896.376	19472
896.498	19438
896.619	19308
896.74	19426
896.861	19438
896.982	19712
897.103	19974
897.224	19769
897.345	19594
897.466	19601
897.587	19681
897.708	19738
897.828	19700
897.949	19540
898.07	19491
898.19	19597
898.311	19651
898.431	19639
898.552	19544
898.672	19658
898.792	19784
898.913	19696
899.033	19628
899.153	19499
899.273	19449
899.393	19381
899.513	19392
899.633	19384
899.753	19449
899.873	19282
899.993	19407
900.113	19259
900.232	19434
900.352	19324
900.472	19266
900.591	19118
900.711	19316
900.83	19065
900.95	19198
901.069	19392
901.189	19042
901.308	18787
901.427	18730
901.546	18738
901.665	18810
901.784	18802
901.904	18589
902.023	18566
902.141	18407
902.26	18346
902.379	18437
902.498	18311
902.617	18220
902.735	18239
902.854	18194
902.973	18140
903.091	17954
903.21	18015
903.328	17973
903.446	17920
903.565	17760
903.683	17726
903.801	17699
903.919	17832
904.038	17665
904.156	17653
904.274	17691
904.392	17520
904.51	17463
904.627	17596
904.745	17638
904.863	17623
904.981	17292
905.098	17273
905.216	17258
905.334	17269
905.451	17265
905.569	17220
905.686	17258
905.803	17235
905.921	17045
906.038	17155
906.155	17060
906.272	16927
906.389	16927
906.506	16790
906.623	16778
906.74	16930
906.857	16588
906.974	16694
907.091	16801
907.208	16904
907.324	16778
907.441	16706
907.557	16584
907.674	16379
907.79	16424
907.907	16481
908.023	16592
908.139	16527
908.256	16459
908.372	16413
908.488	16356
908.604	16219
908.72	16223
908.836	16135
908.952	16280
909.068	16299
909.184	16417
909.3	16257
909.415	16181
909.531	16303
909.647	15899
909.762	15918
909.878	15937
909.993	15930
910.108	15903
910.224	15873
910.339	15842
910.454	15804
910.57	15835
910.685	15724
910.8	15903
910.915	15964
911.03	15880
911.145	15561
911.259	15660
911.374	15504
911.489	15462
911.604	15367
911.718	15268
911.833	15214
911.947	15332
912.062	15135
912.176	15226
912.291	15275
912.405	15275
912.519	15466
912.633	15424
912.748	15275
912.862	15283
912.976	15207
913.09	14975
913.204	15081
913.318	15066
913.431	15150
913.545	15165
913.659	15195
913.772	14990
913.886	15009
914	14876
914.113	14963
914.226	15024
914.34	14986
914.453	14792
914.566	14990
914.68	14746
914.793	14804
914.906	14682
915.019	14636
915.132	14522
915.245	14488
915.358	14651
915.47	14476
915.583	14575
915.696	14541
915.809	14670
915.921	14636
916.034	14526
916.146	14461
916.259	14495
916.371	14530
916.483	14499
916.595	14423
916.708	14362
916.82	14320
916.932	14431
917.044	14366
917.156	14256
917.268	14126
917.38	14301
917.491	14123
917.603	14320
917.715	14313
917.826	14351
917.938	14130
918.049	14050
918.161	14138
918.272	14328
918.384	14252
918.495	14221
918.606	14016
918.717	13925
918.828	14065
918.939	14077
919.05	13925
919.161	14001
919.272	13761
919.383	13898
919.494	14016
919.604	14126
919.715	14001
919.826	13913
919.936	14027
920.047	14103
920.157	13982
920.267	14123
920.378	13982
920.488	14012
920.598	14088
920.708	14305
920.818	14225
920.928	14050
921.038	14366
921.148	14248
921.258	13875
921.368	13784
921.477	13731
921.587	13681
921.697	13601
921.806	13731
921.916	13575
922.025	13411
922.134	13304
922.244	13350
922.353	13430
922.462	13297
922.571	13168
922.68	13019
922.789	13023
922.898	12909
923.007	12943
923.116	13133
923.224	13038
923.333	12894
923.442	12825
923.55	12806
923.659	12821
923.767	12882
923.876	12798
923.984	12878
924.092	12783
924.201	12856
924.309	12806
924.417	12829
924.525	12696
924.633	12734
924.741	13460
924.849	12506
924.956	12783
925.064	12566
925.172	12380
925.279	12471
925.387	12490
925.494	12437
925.602	12620
925.709	12570
925.816	12239
925.924	12418
926.031	12441
926.138	12441
926.245	12490
926.352	12315
926.459	12490
926.566	12547
926.673	12323
926.779	12247
926.886	12205
926.993	12148
927.099	12041
927.206	12003
927.312	12053
927.419	12045
927.525	11973
927.631	12117
927.737	11832
927.843	11920
927.95	11764
928.056	11805
928.162	11916
928.267	11931
928.373	12475
928.479	11931
928.585	11741
928.69	11863
928.796	11942
928.901	11779
929.007	11589
929.112	11733
929.218	11592
929.323	11668
929.428	11600
929.533	11752
929.638	11581
929.743	11604
929.848	11611
929.953	11581
930.058	11440
930.163	11227
930.267	11269
930.372	11532
930.477	11296
930.581	11520
930.685	11356
930.79	11261
930.894	11273
930.998	11181
931.103	11360
931.207	10968
931.311	10934
931.415	10847
931.519	10634
931.623	10459
