Data from test_V78500241_1032.txt Node
Date: Fri Mar 25 15:17:02 CST 2022
User: usil
Spectrometer: V785-0024
Trigger mode: 0
Integration Time (sec): 4.000000E-1
Scans to average: 1
Nonlinearity correction enabled: false
Boxcar width: 0
Storing dark spectrum: false
XAxis mode: Wavelengths
Number of Pixels in Spectrum: 1024
>>>>>Begin Spectral Data<<<<<
801.071	27850
801.214	27926
801.356	27576
801.499	27618
801.641	27507
801.783	27504
801.926	27523
802.068	27534
802.211	27496
802.353	27401
802.496	27131
802.638	27020
802.78	27150
802.923	27051
803.065	27039
803.208	26986
803.35	27093
803.492	27214
803.635	27363
803.777	27146
803.919	27393
804.061	27671
804.204	27370
804.346	27214
804.488	27249
804.63	27317
804.773	27298
804.915	27401
805.057	27545
805.199	27329
805.341	27370
805.483	27572
805.626	27511
805.768	27378
805.91	27485
806.052	27538
806.194	27443
806.336	27542
806.478	27523
806.62	27458
806.762	27625
806.904	27808
807.046	27926
807.188	27945
807.33	27987
807.472	27781
807.614	27861
807.756	27869
807.898	27804
808.04	27747
808.182	27759
808.324	27762
808.465	27785
808.607	27918
808.749	28032
808.891	28257
809.033	28166
809.174	28059
809.316	28128
809.458	28162
809.6	28040
809.741	28204
809.883	28188
810.025	28371
810.166	28569
810.308	28394
810.45	28253
810.591	28329
810.733	28253
810.875	28086
811.016	28055
811.158	28067
811.299	28204
811.441	28246
811.582	28196
811.724	28135
811.865	28181
812.007	28173
812.148	28010
812.29	28093
812.431	28352
812.573	28527
812.714	28546
812.855	28729
812.997	28710
813.138	28755
813.279	28820
813.421	28713
813.562	28599
813.703	28497
813.845	28379
813.986	27987
814.127	27907
814.268	27907
814.41	27945
814.551	27846
814.692	28002
814.833	27770
814.974	27819
815.115	27793
815.256	27766
815.397	27724
815.539	27743
815.68	27667
815.821	27682
815.962	27629
816.103	27587
816.244	27534
816.385	27351
816.526	27492
816.666	27192
816.807	27123
816.948	27226
817.089	27325
817.23	27123
817.371	27108
817.512	27230
817.653	27180
817.793	27104
817.934	27211
818.075	27180
818.216	27230
818.356	27245
818.497	27009
818.638	26937
818.778	26929
818.919	26883
819.06	26861
819.2	27047
819.341	27096
819.481	27123
819.622	27249
819.762	27450
819.903	27450
820.043	27275
820.184	27279
820.324	27249
820.465	27363
820.605	27192
820.746	27252
820.886	27176
821.026	27256
821.167	27313
821.307	27245
821.447	27043
821.588	26960
821.728	26861
821.868	26815
822.008	26533
822.149	26606
822.289	26609
822.429	26358
822.569	26484
822.709	26187
822.849	26229
822.99	26240
823.13	26183
823.27	25959
823.41	25860
823.55	25795
823.69	25864
823.83	25963
823.97	25864
824.11	25708
824.25	25719
824.389	25658
824.529	25883
824.669	25757
824.809	25982
824.949	25841
825.089	25807
825.228	25780
825.368	25601
825.508	25506
825.648	25757
825.787	25582
825.927	25799
826.067	25544
826.206	25712
826.346	25582
826.485	25750
826.625	25575
826.765	25822
826.904	25712
827.044	25426
827.183	25377
827.323	25316
827.462	25327
827.601	25388
827.741	25255
827.88	25304
828.02	25308
828.159	25282
828.298	25411
828.437	25403
828.577	25373
828.716	25396
828.855	25179
828.994	25168
829.134	25152
829.273	25053
829.412	25023
829.551	24981
829.69	25171
829.829	25084
829.968	25221
830.107	25160
830.246	25099
830.385	25065
830.524	25053
830.663	24920
830.802	24924
830.941	24673
831.08	24642
831.219	24764
831.357	24791
831.496	24932
831.635	24833
831.774	24544
831.913	24608
832.051	24528
832.19	24551
832.329	24593
832.467	24365
832.606	24486
832.744	24369
832.883	24471
833.022	24350
833.16	24498
833.299	24513
833.437	24418
833.576	24532
833.714	24467
833.852	24563
833.991	24517
834.129	24517
834.267	24654
834.406	24513
834.544	24517
834.682	24437
834.821	24490
834.959	24574
835.097	24410
835.235	24517
835.373	24403
835.511	24486
835.65	24365
835.788	24338
835.926	24281
836.064	24216
836.202	24133
836.34	24266
836.478	24498
836.615	24338
836.753	24479
836.891	24433
837.029	24384
837.167	24174
837.305	24235
837.443	24152
837.58	24129
837.718	24311
837.856	24155
837.993	24072
838.131	24159
838.269	24114
838.406	24034
838.544	23984
838.681	23870
838.819	23817
838.956	23573
839.094	23676
839.231	23649
839.369	23882
839.506	24072
839.643	23813
839.781	23695
839.918	23604
840.055	23672
840.193	23524
840.33	23474
840.467	23726
840.604	23589
840.742	23847
840.879	23455
841.016	23573
841.153	23353
841.29	23672
841.427	23592
841.564	23573
841.701	23501
841.838	23520
841.975	23379
842.112	23345
842.249	23376
842.385	23216
842.522	23478
842.659	23269
842.796	23368
842.933	23269
843.069	23250
843.206	23261
843.343	23372
843.479	23284
843.616	23288
843.752	23094
843.889	23246
844.025	23322
844.162	23094
844.298	23189
844.435	23079
844.571	23014
844.708	23124
844.844	23242
844.98	23250
845.117	23098
845.253	23136
845.389	22968
845.525	22923
845.661	22927
845.798	22843
845.934	22892
846.07	22843
846.206	22896
846.342	22873
846.478	22653
846.614	22588
846.75	22470
846.886	22493
847.022	22599
847.158	22447
847.294	22637
847.429	22550
847.565	22561
847.701	22831
847.837	22192
847.972	22150
848.108	22333
848.244	22268
848.379	22257
848.515	22207
848.65	22215
848.786	22135
848.921	22207
849.057	22246
849.192	22226
849.328	22139
849.463	22196
849.598	22090
849.734	22029
849.869	21937
850.004	21903
850.14	21915
850.275	21915
850.41	21785
850.545	21934
850.68	21838
850.815	21953
850.95	22036
851.085	22013
851.22	21960
851.355	21876
851.49	21823
851.625	21861
851.76	21892
851.895	21793
852.03	21785
852.165	21876
852.299	21869
852.434	21979
852.569	21884
852.703	21930
852.838	21892
852.973	21968
853.107	22036
853.242	21854
853.376	21701
853.511	21507
853.645	21667
853.78	21846
853.914	21629
854.048	21625
854.183	21656
854.317	21781
854.451	21911
854.585	21667
854.72	21739
854.854	21873
854.988	21519
855.122	21686
855.256	21568
855.39	21766
855.524	21736
855.658	21774
855.792	21751
855.926	21823
856.06	21694
856.194	21804
856.327	21709
856.461	21625
856.595	21690
856.729	21713
856.862	21892
856.996	21823
857.13	21827
857.263	21865
857.397	21857
857.53	21633
857.664	21743
857.797	21755
857.931	21869
858.064	21732
858.197	21736
858.331	21622
858.464	21618
858.597	21629
858.731	21679
858.864	21576
858.997	21633
859.13	21743
859.263	21694
859.396	21743
859.529	21717
859.662	21675
859.795	21595
859.928	21606
860.061	21922
860.194	21850
860.327	21778
860.46	21755
860.592	21812
860.725	21812
860.858	21823
860.99	21698
861.123	21606
861.256	21515
861.388	21538
861.521	22333
861.653	21519
861.786	21561
861.918	21587
862.05	21496
862.183	21625
862.315	21530
862.447	21652
862.58	21549
862.712	21511
862.844	21313
862.976	21526
863.108	21435
863.24	21846
863.372	21336
863.504	21428
863.636	21473
863.768	21367
863.9	21386
864.032	21226
864.164	21416
864.296	21587
864.428	21485
864.559	21355
864.691	21553
864.823	21450
864.954	21336
865.086	21431
865.217	21382
865.349	21169
865.48	21386
865.612	21298
865.743	21435
865.875	21283
866.006	21264
866.137	21405
866.269	21291
866.4	21332
866.531	21233
866.662	21154
866.793	21237
866.924	21348
867.055	21256
867.186	21310
867.317	21313
867.448	21176
867.579	21214
867.71	21131
867.841	21241
867.972	21294
868.103	21245
868.233	21386
868.364	21249
868.495	21408
868.625	21545
868.756	21538
868.886	21420
869.017	21561
869.147	21568
869.278	21625
869.408	21515
869.539	21496
869.669	21511
869.799	21595
869.929	21720
870.06	21580
870.19	21728
870.32	21732
870.45	21835
870.58	21751
870.71	21972
870.84	22021
870.97	21789
871.1	21907
871.23	21949
871.36	22048
871.489	21934
871.619	21934
871.749	21956
871.879	22097
872.008	22082
872.138	22044
872.267	22090
872.397	22010
872.526	21926
872.656	21930
872.785	21876
872.915	22078
873.044	22226
873.173	22013
873.303	22093
873.432	22112
873.561	22188
873.69	22101
873.819	22048
873.948	22131
874.077	22036
874.206	21964
874.335	22093
874.464	22162
874.593	22417
874.722	22261
874.851	22284
874.979	22177
875.108	22462
875.237	22314
875.365	22074
875.494	22276
875.623	22405
875.751	22242
875.88	22276
876.008	22462
876.136	22531
876.265	22782
876.393	22816
876.521	22729
876.65	22774
876.778	22774
876.906	22538
877.034	22573
877.162	22687
877.29	22615
877.418	22622
877.546	22577
877.674	22668
877.802	22721
877.93	22546
878.058	22584
878.185	22493
878.313	22611
878.441	22687
878.568	22402
878.696	22489
878.824	22607
878.951	22866
879.079	22835
879.206	22968
879.333	22763
879.461	22687
879.588	22694
879.715	22649
879.842	22930
879.97	22736
880.097	22489
880.224	22478
880.351	22569
880.478	22634
880.605	22481
880.732	22455
880.859	22584
880.986	22459
881.112	22508
881.239	22413
881.366	22204
881.493	22223
881.619	22029
881.746	22063
881.872	22074
881.999	22002
882.125	22124
882.252	22029
882.378	22010
882.505	22150
882.631	21876
882.757	21720
882.883	21816
883.01	21835
883.136	21717
883.262	21568
883.388	21591
883.514	21732
883.64	21762
883.766	21572
883.892	21428
884.018	21587
884.143	21576
884.269	21698
884.395	21473
884.52	21283
884.646	21431
884.772	21374
884.897	21260
885.023	21332
885.148	21473
885.274	21492
885.399	21450
885.524	21351
885.65	21351
885.775	21462
885.9	21283
886.025	21496
886.15	21488
886.275	21264
886.4	21291
886.525	21370
886.65	21268
886.775	21313
886.9	21488
887.025	21473
887.149	21275
887.274	21218
887.399	21173
887.523	21112
887.648	21055
887.773	21013
887.897	21249
888.021	21104
888.146	20929
888.27	21203
888.395	21203
888.519	21123
888.643	21123
888.767	21108
888.891	21055
889.015	20902
889.139	21043
889.263	20880
889.387	20994
889.511	21039
889.635	20887
889.759	20918
889.883	20937
890.006	20857
890.13	20990
890.254	20765
890.377	20880
890.501	20743
890.624	20739
890.748	20769
890.871	20583
890.995	20537
891.118	20575
891.241	20514
891.364	20404
891.488	20686
891.611	20427
891.734	20419
891.857	20541
891.98	20358
892.103	20499
892.226	20446
892.349	20427
892.471	20263
892.594	20339
892.717	20438
892.839	20400
892.962	20484
893.085	20389
893.207	20328
893.33	20377
893.452	20385
893.575	20469
893.697	20278
893.819	20583
893.941	20545
894.064	20492
894.186	20347
894.308	20187
894.43	20415
894.552	20568
894.674	20461
894.796	20278
894.918	20282
895.04	20309
895.161	20454
895.283	20374
895.405	20351
895.526	20366
895.648	20317
895.769	20408
895.891	20328
896.012	20537
896.134	20434
896.255	20412
896.376	20347
896.498	20336
896.619	20377
896.74	20351
896.861	20438
896.982	20659
897.103	20758
897.224	20632
897.345	20571
897.466	20461
897.587	20686
897.708	20693
897.828	20564
897.949	20514
898.07	20408
898.19	20587
898.311	20678
898.431	20454
898.552	20587
898.672	20579
898.792	20636
898.913	20507
899.033	20541
899.153	20408
899.273	20286
899.393	20355
899.513	20237
899.633	20225
899.753	20351
899.873	20286
899.993	20301
900.113	20332
900.232	20282
900.352	20214
900.472	20214
900.591	20130
900.711	20119
900.83	20100
900.95	20259
901.069	20122
901.189	19959
901.308	19769
901.427	19700
901.546	19696
901.665	19639
901.784	19647
901.904	19537
902.023	19521
902.141	19289
902.26	19228
902.379	19228
902.498	19137
902.617	19091
902.735	19217
902.854	19148
902.973	19129
903.091	18795
903.21	18878
903.328	18905
903.446	18806
903.565	18798
903.683	18741
903.801	18555
903.919	18578
904.038	18528
904.156	18407
904.274	18464
904.392	18456
904.51	18395
904.627	18403
904.745	18414
904.863	18456
904.981	18319
905.098	18129
905.216	18133
905.334	18209
905.451	18098
905.569	18163
905.686	18121
905.803	18053
905.921	17969
906.038	17969
906.155	17980
906.272	17836
906.389	17764
906.506	17737
906.623	17657
906.74	17737
906.857	17490
906.974	17562
907.091	17691
907.208	17741
907.324	17661
907.441	17627
907.557	17303
907.674	17448
907.79	17235
907.907	17398
908.023	17417
908.139	17353
908.256	17277
908.372	17242
908.488	17166
908.604	17151
908.72	17052
908.836	17155
908.952	17098
909.068	17117
909.184	17296
909.3	17071
909.415	17060
909.531	17094
909.647	16790
909.762	16847
909.878	16649
909.993	16752
910.108	16786
910.224	16755
910.339	16793
910.454	16641
910.57	16596
910.685	16485
910.8	16805
910.915	16759
911.03	16641
911.145	16428
911.259	16257
911.374	16390
911.489	16333
911.604	16249
911.718	16090
911.833	16128
911.947	16029
912.062	15972
912.176	16097
912.291	16116
912.405	16109
912.519	16299
912.633	16360
912.748	16124
912.862	16044
912.976	15915
913.09	15667
913.204	15953
913.318	15930
913.431	16093
913.545	16067
913.659	16135
913.772	15861
913.886	15690
914	15736
914.113	15785
914.226	15808
914.34	15732
914.453	15568
914.566	15663
914.68	15568
914.793	15473
914.906	15412
915.019	15344
915.132	15199
915.245	15329
915.358	15374
915.47	15268
915.583	15321
915.696	15298
915.809	15363
915.921	15397
916.034	15275
916.146	15260
916.259	15123
916.371	15249
916.483	15252
916.595	15165
916.708	15135
916.82	15211
916.932	15024
917.044	15043
917.156	15100
917.268	15036
917.38	14902
917.491	14948
917.603	14883
917.715	15005
917.826	15066
917.938	14883
918.049	14796
918.161	14982
918.272	14979
918.384	14925
918.495	14933
918.606	14701
918.717	14678
918.828	14621
918.939	14667
919.05	14632
919.161	14674
919.272	14503
919.383	14522
919.494	14682
919.604	14929
919.715	14686
919.826	14651
919.936	14610
920.047	14777
920.157	14693
920.267	14876
920.378	14674
920.488	14636
920.598	14842
920.708	14941
920.818	14788
920.928	14773
921.038	14929
921.148	14845
921.258	14659
921.368	14568
921.477	14450
921.587	14408
921.697	14233
921.806	14438
921.916	14393
922.025	14046
922.134	14054
922.244	13967
922.353	14046
922.462	13883
922.571	13849
922.68	13757
922.789	13708
922.898	13769
923.007	13537
923.116	13738
923.224	13693
923.333	13556
923.442	13620
923.55	13392
923.659	13525
923.767	13487
923.876	13449
923.984	13476
924.092	13415
924.201	13426
924.309	13422
924.417	13457
924.525	13316
924.633	13293
924.741	14256
924.849	13152
924.956	13354
925.064	13149
925.172	13080
925.279	13103
925.387	13057
925.494	13107
925.602	13194
925.709	13046
925.816	13019
925.924	13015
926.031	13099
926.138	13042
926.245	13095
926.352	12989
926.459	12985
926.566	13149
926.673	13031
926.779	12817
926.886	12734
926.993	12673
927.099	12707
927.206	12642
927.312	12650
927.419	12677
927.525	12646
927.631	12684
927.737	12578
927.843	12471
927.95	12410
928.056	12452
928.162	12494
928.267	12582
928.373	13065
928.479	12578
928.585	12243
928.69	12445
928.796	12460
928.901	12342
929.007	12197
929.112	12441
929.218	12228
929.323	12289
929.428	12178
929.533	12323
929.638	12121
929.743	12140
929.848	12171
929.953	12003
930.058	12114
930.163	11920
930.267	11824
930.372	12045
930.477	11882
930.581	12068
930.685	11969
930.79	11741
930.894	11745
930.998	11699
931.103	11882
931.207	11486
931.311	11414
931.415	11322
931.519	11109
931.623	11136
