Data from test_V78500241_1514.txt Node
Date: Fri Mar 25 15:20:23 CST 2022
User: usil
Spectrometer: V785-0024
Trigger mode: 0
Integration Time (sec): 4.000000E-1
Scans to average: 1
Nonlinearity correction enabled: false
Boxcar width: 0
Storing dark spectrum: false
XAxis mode: Wavelengths
Number of Pixels in Spectrum: 1024
>>>>>Begin Spectral Data<<<<<
801.071	27892
801.214	27831
801.356	27709
801.499	27561
801.641	27405
801.783	27325
801.926	27492
802.068	27603
802.211	27389
802.353	27336
802.496	27150
802.638	27317
802.78	27036
802.923	27017
803.065	27005
803.208	26986
803.35	27131
803.492	27199
803.635	27386
803.777	27306
803.919	27298
804.061	27504
804.204	27344
804.346	27256
804.488	27268
804.63	27363
804.773	27363
804.915	27302
805.057	27610
805.199	27424
805.341	27401
805.483	27424
805.626	27488
805.768	27367
805.91	27294
806.052	27477
806.194	27370
806.336	27564
806.478	27519
806.62	27538
806.762	27629
806.904	27694
807.046	27838
807.188	27835
807.33	27831
807.472	27884
807.614	27823
807.756	27869
807.898	27652
808.04	27747
808.182	27656
808.324	27800
808.465	27770
808.607	27937
808.749	28169
808.891	28223
809.033	28230
809.174	28185
809.316	28078
809.458	28162
809.6	28059
809.741	28162
809.883	28306
810.025	28318
810.166	28333
810.308	28329
810.45	28394
810.591	28348
810.733	28158
810.875	28078
811.016	28120
811.158	27884
811.299	28120
811.441	28246
811.582	28185
811.724	28025
811.865	28109
812.007	28082
812.148	28010
812.29	28173
812.431	28375
812.573	28497
812.714	28550
812.855	28611
812.997	28755
813.138	28774
813.279	28839
813.421	28588
813.562	28523
813.703	28466
813.845	28394
813.986	28131
814.127	27880
814.268	27941
814.41	27831
814.551	27819
814.692	27823
814.833	27583
814.974	27682
815.115	27827
815.256	27564
815.397	27728
815.539	27606
815.68	27492
815.821	27336
815.962	27732
816.103	27694
816.244	27625
816.385	27405
816.526	27348
816.666	27184
816.807	26944
816.948	27233
817.089	27214
817.23	27062
817.371	27058
817.512	27055
817.653	27032
817.793	27009
817.934	27112
818.075	27093
818.216	27047
818.356	26937
818.497	26834
818.638	26838
818.778	26678
818.919	26815
819.06	26868
819.2	27142
819.341	27085
819.481	27005
819.622	27348
819.762	27481
819.903	27275
820.043	27348
820.184	27332
820.324	27218
820.465	27199
820.605	27192
820.746	27104
820.886	27062
821.026	27123
821.167	27089
821.307	27199
821.447	27074
821.588	27020
821.728	26785
821.868	26762
822.008	26568
822.149	26480
822.289	26533
822.429	26225
822.569	26256
822.709	26138
822.849	26065
822.99	26077
823.13	26081
823.27	26039
823.41	25845
823.55	25780
823.69	25845
823.83	25993
823.97	25875
824.11	25715
824.25	25635
824.389	25655
824.529	25814
824.669	25674
824.809	25852
824.949	25769
825.089	25795
825.228	25685
825.368	25616
825.508	25537
825.648	25700
825.787	25651
825.927	25712
826.067	25495
826.206	25449
826.346	25518
826.485	25586
826.625	25624
826.765	25776
826.904	25559
827.044	25354
827.183	25396
827.323	25263
827.462	25365
827.601	25343
827.741	25266
827.88	25289
828.02	25015
828.159	25255
828.298	25148
828.437	25206
828.577	25050
828.716	25358
828.855	25198
828.994	25027
829.134	25080
829.273	25118
829.412	24928
829.551	24886
829.69	24962
829.829	25023
829.968	25046
830.107	25034
830.246	25027
830.385	24890
830.524	24878
830.663	24871
830.802	24646
830.941	24563
831.08	24597
831.219	24559
831.357	24661
831.496	24787
831.635	24532
831.774	24399
831.913	24369
832.051	24426
832.19	24319
832.329	24441
832.467	24342
832.606	24190
832.744	24140
832.883	24270
833.022	24205
833.16	24095
833.299	24353
833.437	24334
833.576	24247
833.714	24365
833.852	24437
833.991	24327
834.129	24353
834.267	24441
834.406	24228
834.544	24277
834.682	24285
834.821	24311
834.959	24395
835.097	24194
835.235	24448
835.373	24235
835.511	24376
835.65	24235
835.788	24106
835.926	23942
836.064	23916
836.202	24018
836.34	24342
836.478	24136
836.615	24152
836.753	24163
836.891	24129
837.029	24045
837.167	24106
837.305	23988
837.443	24190
837.58	23927
837.718	23923
837.856	24034
837.993	23870
838.131	23958
838.269	23824
838.406	23836
838.544	23836
838.681	23592
838.819	23634
838.956	23539
839.094	23486
839.231	23505
839.369	23531
839.506	23745
839.643	23707
839.781	23452
839.918	23448
840.055	23448
840.193	23337
840.33	23307
840.467	23261
840.604	23292
840.742	23634
840.879	23235
841.016	23414
841.153	23296
841.29	23322
841.427	23204
841.564	23353
841.701	23303
841.838	23280
841.975	23296
842.112	23322
842.249	23060
842.385	23136
842.522	23353
842.659	23162
842.796	23140
842.933	22968
843.069	23094
843.206	23048
843.343	23197
843.479	23109
843.616	23143
843.752	22824
843.889	23052
844.025	23102
844.162	22790
844.298	22999
844.435	22801
844.571	22805
844.708	22896
844.844	22881
844.98	22892
845.117	22980
845.253	22896
845.389	22615
845.525	22744
845.661	22664
845.798	22523
845.934	22618
846.07	22561
846.206	22538
846.342	22596
846.478	22675
846.614	22375
846.75	22337
846.886	22447
847.022	22299
847.158	22356
847.294	22322
847.429	22379
847.565	22382
847.701	22584
847.837	22074
847.972	22120
848.108	22135
848.244	22120
848.379	21937
848.515	21842
848.65	21945
848.786	21895
848.921	22097
849.057	22101
849.192	22029
849.328	21979
849.463	21876
849.598	21953
849.734	21816
849.869	21766
850.004	21709
850.14	21736
850.275	21667
850.41	21583
850.545	21663
850.68	21762
850.815	21641
850.95	21797
851.085	21804
851.22	21785
851.355	21762
851.49	21622
851.625	21652
851.76	21652
851.895	21523
852.03	21576
852.165	21599
852.299	21622
852.434	21759
852.569	21675
852.703	21629
852.838	21808
852.973	21762
853.107	21865
853.242	21568
853.376	21542
853.511	21370
853.645	21538
853.78	21587
853.914	21526
854.048	21481
854.183	21481
854.317	21603
854.451	21637
854.585	21561
854.72	21515
854.854	21595
854.988	21507
855.122	21389
855.256	21408
855.39	21447
855.524	21603
855.658	21580
855.792	21580
855.926	21515
856.06	21507
856.194	21488
856.327	21496
856.461	21458
856.595	21618
856.729	21473
856.862	21530
856.996	21618
857.13	21568
857.263	21682
857.397	21648
857.53	21420
857.664	21534
857.797	21553
857.931	21656
858.064	21511
858.197	21530
858.331	21553
858.464	21386
858.597	21420
858.731	21549
858.864	21386
858.997	21526
859.13	21405
859.263	21511
859.396	21606
859.529	21416
859.662	21485
859.795	21466
859.928	21408
860.061	21660
860.194	21698
860.327	21564
860.46	21622
860.592	21526
860.725	21743
860.858	21542
860.99	21542
861.123	21439
861.256	21397
861.388	21526
861.521	22139
861.653	21492
861.786	21374
861.918	21313
862.05	21351
862.183	21469
862.315	21443
862.447	21469
862.58	21469
862.712	21214
862.844	21142
862.976	21291
863.108	21241
863.24	21618
863.372	21135
863.504	21146
863.636	21188
863.768	21325
863.9	21245
864.032	21036
864.164	21123
864.296	21275
864.428	21401
864.559	21302
864.691	21237
864.823	21173
864.954	21131
865.086	21116
865.217	21199
865.349	20960
865.48	21009
865.612	21096
865.743	21161
865.875	21112
866.006	21135
866.137	21157
866.269	20971
866.4	20971
866.531	21047
866.662	21017
866.793	20960
866.924	21001
867.055	21070
867.186	21032
867.317	20960
867.448	20963
867.579	20967
867.71	20906
867.841	20880
867.972	21066
868.103	20971
868.233	21112
868.364	20906
868.495	21142
868.625	21245
868.756	21397
868.886	21298
869.017	21249
869.147	21420
869.278	21351
869.408	21241
869.539	21306
869.669	21291
869.799	21378
869.929	21332
870.06	21412
870.19	21454
870.32	21538
870.45	21561
870.58	21682
870.71	21835
870.84	21720
870.97	21591
871.1	21762
871.23	21827
871.36	21903
871.489	21876
871.619	21850
871.749	21854
871.879	21743
872.008	21892
872.138	21998
872.267	21766
872.397	21720
872.526	21675
872.656	21701
872.785	21682
872.915	21922
873.044	22032
873.173	21831
873.303	21842
873.432	22025
873.561	22017
873.69	21842
873.819	21884
873.948	21880
874.077	21880
874.206	21838
874.335	21873
874.464	21911
874.593	22097
874.722	21983
874.851	22048
874.979	22086
875.108	22226
875.237	22082
875.365	22048
875.494	22059
875.623	22112
875.751	22036
875.88	22055
876.008	22116
876.136	22226
876.265	22561
876.393	22713
876.521	22584
876.65	22569
876.778	22470
876.906	22417
877.034	22500
877.162	22451
877.29	22470
877.418	22424
877.546	22413
877.674	22481
877.802	22440
877.93	22367
878.058	22318
878.185	22367
878.313	22363
878.441	22554
878.568	22341
878.696	22394
878.824	22531
878.951	22542
879.079	22573
879.206	22561
879.333	22596
879.461	22489
879.588	22523
879.715	22550
879.842	22736
879.97	22424
880.097	22284
880.224	22257
880.351	22192
880.478	22299
880.605	22348
880.732	22230
880.859	22588
880.986	22291
881.112	22314
881.239	22090
881.366	22006
881.493	21922
881.619	21926
881.746	21956
881.872	21880
881.999	21835
882.125	21698
882.252	21793
882.378	21770
882.505	21869
882.631	21774
882.757	21564
882.883	21595
883.01	21587
883.136	21454
883.262	21488
883.388	21370
883.514	21633
883.64	21667
883.766	21420
883.892	21226
884.018	21439
884.143	21397
884.269	21568
884.395	21321
884.52	21237
884.646	21260
884.772	21142
884.897	21222
885.023	21173
885.148	21291
885.274	21397
885.399	21260
885.524	21192
885.65	21119
885.775	21279
885.9	21036
886.025	21355
886.15	21252
886.275	21252
886.4	21123
886.525	21085
886.65	21058
886.775	21123
886.9	21176
887.025	21382
887.149	21230
887.274	20960
887.399	20982
887.523	20880
887.648	20967
887.773	20857
887.897	21047
888.021	21009
888.146	20979
888.27	20902
888.395	21043
888.519	20941
888.643	21001
888.767	20960
888.891	20986
889.015	20655
889.139	20899
889.263	20788
889.387	20902
889.511	20842
889.635	20868
889.759	20735
889.883	20735
890.006	20724
890.13	20804
890.254	20621
890.377	20648
890.501	20442
890.624	20549
890.748	20598
890.871	20400
890.995	20278
891.118	20237
891.241	20317
891.364	20282
891.488	20427
891.611	20301
891.734	20309
891.857	20427
891.98	20267
892.103	20404
892.226	20358
892.349	20240
892.471	20024
892.594	20244
892.717	20317
892.839	20191
892.962	20275
893.085	20244
893.207	20290
893.33	20161
893.452	20145
893.575	20324
893.697	20248
893.819	20370
893.941	20370
894.064	20309
894.186	20164
894.308	20073
894.43	20313
894.552	20434
894.674	20377
894.796	20183
894.918	20244
895.04	20237
895.161	20176
895.283	20237
895.405	20172
895.526	20252
895.648	20149
895.769	20225
895.891	20298
896.012	20305
896.134	20252
896.255	20218
896.376	20298
896.498	20199
896.619	20153
896.74	20069
896.861	20374
896.982	20541
897.103	20659
897.224	20442
897.345	20366
897.466	20358
897.587	20400
897.708	20499
897.828	20393
897.949	20324
898.07	20221
898.19	20343
898.311	20473
898.431	20461
898.552	20461
898.672	20431
898.792	20480
898.913	20427
899.033	20278
899.153	20180
899.273	20100
899.393	20176
899.513	20206
899.633	20237
899.753	20024
899.873	20058
899.993	20183
900.113	20134
900.232	20248
900.352	20092
900.472	19982
900.591	19856
900.711	19845
900.83	19868
900.95	20058
901.069	20043
901.189	19925
901.308	19635
901.427	19499
901.546	19616
901.665	19506
901.784	19464
901.904	19438
902.023	19415
902.141	19023
902.26	19038
902.379	19175
902.498	19103
902.617	19091
902.735	19126
902.854	18920
902.973	18993
903.091	18650
903.21	18635
903.328	18700
903.446	18604
903.565	18513
903.683	18566
903.801	18399
903.919	18464
904.038	18464
904.156	18300
904.274	18410
904.392	18311
904.51	18235
904.627	18311
904.745	18315
904.863	18327
904.981	18057
905.098	17980
905.216	17916
905.334	18098
905.451	17954
905.569	17878
905.686	17912
905.803	17977
905.921	17805
906.038	17942
906.155	17874
906.272	17741
906.389	17653
906.506	17478
906.623	17532
906.74	17391
906.857	17273
906.974	17387
907.091	17547
907.208	17604
907.324	17452
907.441	17345
907.557	17307
907.674	17227
907.79	17083
907.907	17193
908.023	17299
908.139	17140
908.256	17098
908.372	17155
908.488	17083
908.604	16904
908.72	16908
908.836	16889
908.952	16820
909.068	17003
909.184	17075
909.3	16930
909.415	16949
909.531	16908
909.647	16527
909.762	16554
909.878	16793
909.993	16653
910.108	16641
910.224	16649
910.339	16546
910.454	16546
910.57	16371
910.685	16322
910.8	16698
910.915	16615
911.03	16402
911.145	16192
911.259	16238
911.374	16249
911.489	16101
911.604	15998
911.718	16059
911.833	15953
911.947	15774
912.062	15781
912.176	15865
912.291	15918
912.405	15979
912.519	16116
912.633	16078
912.748	15941
912.862	16078
912.976	15808
913.09	15656
913.204	15747
913.318	15808
913.431	15869
913.545	15960
913.659	15949
913.772	15728
913.886	15549
914	15568
914.113	15759
914.226	15755
914.34	15717
914.453	15431
914.566	15652
914.68	15523
914.793	15443
914.906	15340
915.019	15157
915.132	15138
915.245	15058
915.358	15256
915.47	15211
915.583	15233
915.696	15192
915.809	15325
915.921	15329
916.034	15116
916.146	15062
916.259	15154
916.371	15089
916.483	15169
916.595	15070
916.708	14948
916.82	14956
916.932	14937
917.044	14899
917.156	14880
917.268	14807
917.38	14925
917.491	14819
917.603	14781
917.715	14921
917.826	14918
917.938	14826
918.049	14575
918.161	14834
918.272	14838
918.384	14834
918.495	14705
918.606	14613
918.717	14503
918.828	14686
918.939	14602
919.05	14530
919.161	14568
919.272	14427
919.383	14415
919.494	14617
919.604	14750
919.715	14560
919.826	14438
919.936	14594
920.047	14632
920.157	14629
920.267	14750
920.378	14522
920.488	14549
920.598	14708
920.708	14834
920.818	14720
920.928	14693
921.038	14849
921.148	14838
921.258	14537
921.368	14442
921.477	14202
921.587	14275
921.697	14199
921.806	14301
921.916	14142
922.025	13993
922.134	13902
922.244	13868
922.353	13963
922.462	13761
922.571	13750
922.68	13674
922.789	13548
922.898	13559
923.007	13480
923.116	13499
923.224	13521
923.333	13548
923.442	13426
923.55	13384
923.659	13480
923.767	13495
923.876	13324
923.984	13365
924.092	13293
924.201	13407
924.309	13308
924.417	13403
924.525	13198
924.633	13339
924.741	14100
924.849	13057
924.956	13149
925.064	13069
925.172	12989
925.279	13023
925.387	12993
925.494	12962
925.602	13031
925.709	13034
925.816	12871
925.924	12981
926.031	13084
926.138	12935
926.245	12935
926.352	12817
926.459	12932
926.566	13042
926.673	12833
926.779	12806
926.886	12696
926.993	12616
927.099	12601
927.206	12566
927.312	12422
927.419	12585
927.525	12486
927.631	12536
927.737	12395
927.843	12304
927.95	12277
928.056	12414
928.162	12410
928.267	12380
928.373	13004
928.479	12467
928.585	12175
928.69	12327
928.796	12357
928.901	12220
929.007	12038
929.112	12076
929.218	12163
929.323	12163
929.428	12064
929.533	12235
929.638	12068
929.743	11969
929.848	12110
929.953	12091
930.058	11889
930.163	11703
930.267	11824
930.372	11901
930.477	11710
930.581	11961
930.685	11851
930.79	11649
930.894	11703
930.998	11653
931.103	11748
931.207	11402
931.311	11379
931.415	11227
931.519	11094
931.623	11025
