Data from test_V78500241_1501.txt Node
Date: Fri Mar 25 15:20:18 CST 2022
User: usil
Spectrometer: V785-0024
Trigger mode: 0
Integration Time (sec): 4.000000E-1
Scans to average: 1
Nonlinearity correction enabled: false
Boxcar width: 0
Storing dark spectrum: false
XAxis mode: Wavelengths
Number of Pixels in Spectrum: 1024
>>>>>Begin Spectral Data<<<<<
801.071	28006
801.214	27899
801.356	27736
801.499	27538
801.641	27507
801.783	27496
801.926	27622
802.068	27606
802.211	27477
802.353	27393
802.496	27252
802.638	27233
802.78	27188
802.923	27119
803.065	27119
803.208	27017
803.35	27135
803.492	27279
803.635	27439
803.777	27329
803.919	27313
804.061	27800
804.204	27458
804.346	27424
804.488	27287
804.63	27378
804.773	27264
804.915	27378
805.057	27462
805.199	27298
805.341	27496
805.483	27572
805.626	27488
805.768	27332
805.91	27515
806.052	27496
806.194	27416
806.336	27637
806.478	27454
806.62	27644
806.762	27561
806.904	27679
807.046	28051
807.188	27934
807.33	28063
807.472	27823
807.614	27778
807.756	27991
807.898	27884
808.04	27800
808.182	27751
808.324	27903
808.465	27975
808.607	28017
808.749	28238
808.891	28242
809.033	28428
809.174	28226
809.316	28181
809.458	28116
809.6	28036
809.741	28246
809.883	28257
810.025	28538
810.166	28584
810.308	28401
810.45	28398
810.591	28428
810.733	28303
810.875	28230
811.016	28097
811.158	27934
811.299	28390
811.441	28226
811.582	28310
811.724	28166
811.865	28215
812.007	28379
812.148	28200
812.29	28147
812.431	28413
812.573	28451
812.714	28729
812.855	28774
812.997	28858
813.138	29022
813.279	28965
813.421	28748
813.562	28748
813.703	28588
813.845	28409
813.986	28124
814.127	28002
814.268	27835
814.41	27835
814.551	27854
814.692	27979
814.833	27880
814.974	27956
815.115	28010
815.256	27816
815.397	27793
815.539	27835
815.68	27713
815.821	27671
815.962	27751
816.103	27797
816.244	27500
816.385	27408
816.526	27439
816.666	27351
816.807	27154
816.948	27195
817.089	27344
817.23	27252
817.371	27218
817.512	27207
817.653	27237
817.793	27157
817.934	27058
818.075	27291
818.216	27211
818.356	27195
818.497	27039
818.638	26948
818.778	26994
818.919	26963
819.06	27055
819.2	27017
819.341	27218
819.481	27176
819.622	27241
819.762	27637
819.903	27641
820.043	27416
820.184	27272
820.324	27298
820.465	27389
820.605	27302
820.746	27252
820.886	27116
821.026	27188
821.167	27211
821.307	27329
821.447	27192
821.588	27146
821.728	27032
821.868	26815
822.008	26632
822.149	26575
822.289	26564
822.429	26366
822.569	26366
822.709	26271
822.849	26183
822.99	26142
823.13	26149
823.27	26050
823.41	25898
823.55	25795
823.69	26008
823.83	26054
823.97	25974
824.11	25830
824.25	25746
824.389	25795
824.529	25928
824.669	25734
824.809	25906
824.949	25997
825.089	25909
825.228	25807
825.368	25757
825.508	25571
825.648	25757
825.787	25849
825.927	25734
826.067	25670
826.206	25761
826.346	25715
826.485	25639
826.625	25746
826.765	25784
826.904	25609
827.044	25430
827.183	25514
827.323	25403
827.462	25491
827.601	25434
827.741	25335
827.88	25392
828.02	25362
828.159	25270
828.298	25324
828.437	25407
828.577	25263
828.716	25472
828.855	25259
828.994	24962
829.134	25008
829.273	25061
829.412	25084
829.551	25004
829.69	25015
829.829	25091
829.968	25209
830.107	25183
830.246	25171
830.385	25072
830.524	24951
830.663	24814
830.802	24745
830.941	24642
831.08	24665
831.219	24817
831.357	24905
831.496	25000
831.635	24787
831.774	24604
831.913	24559
832.051	24471
832.19	24540
832.329	24437
832.467	24456
832.606	24369
832.744	24281
832.883	24445
833.022	24483
833.16	24391
833.299	24384
833.437	24403
833.576	24536
833.714	24437
833.852	24452
833.991	24380
834.129	24445
834.267	24490
834.406	24376
834.544	24528
834.682	24616
834.821	24315
834.959	24593
835.097	24296
835.235	24490
835.373	24475
835.511	24391
835.65	24174
835.788	24372
835.926	24072
836.064	24057
836.202	24117
836.34	24350
836.478	24376
836.615	24049
836.753	24194
836.891	24277
837.029	24300
837.167	24300
837.305	24133
837.443	24076
837.58	24060
837.718	24232
837.856	24190
837.993	24003
838.131	24041
838.269	23954
838.406	24022
838.544	23878
838.681	23737
838.819	23745
838.956	23516
839.094	23531
839.231	23585
839.369	23687
839.506	23996
839.643	23817
839.781	23482
839.918	23570
840.055	23539
840.193	23539
840.33	23444
840.467	23440
840.604	23539
840.742	23809
840.879	23284
841.016	23383
841.153	23433
841.29	23539
841.427	23372
841.564	23395
841.701	23455
841.838	23520
841.975	23372
842.112	23307
842.249	23185
842.385	23303
842.522	23444
842.659	23223
842.796	23185
842.933	23216
843.069	23254
843.206	23090
843.343	23345
843.479	23220
843.616	23166
843.752	23033
843.889	23033
844.025	23041
844.162	23006
844.298	23056
844.435	22961
844.571	22911
844.708	22949
844.844	23014
844.98	22927
845.117	23018
845.253	22980
845.389	22858
845.525	23018
845.661	22736
845.798	22698
845.934	22698
846.07	22679
846.206	22672
846.342	22812
846.478	22599
846.614	22508
846.75	22443
846.886	22470
847.022	22664
847.158	22497
847.294	22447
847.429	22584
847.565	22436
847.701	22725
847.837	22112
847.972	22044
848.108	22318
848.244	22337
848.379	22128
848.515	21949
848.65	22078
848.786	22040
848.921	22116
849.057	22150
849.192	22063
849.328	22097
849.463	22040
849.598	22010
849.734	21922
849.869	22032
850.004	21656
850.14	21717
850.275	21808
850.41	21641
850.545	21709
850.68	21812
850.815	21953
850.95	21869
851.085	22032
851.22	21907
851.355	21789
851.49	21713
851.625	21869
851.76	21816
851.895	21663
852.03	21637
852.165	21804
852.299	21873
852.434	21819
852.569	21846
852.703	21755
852.838	21812
852.973	21983
853.107	21865
853.242	21778
853.376	21660
853.511	21583
853.645	21545
853.78	21732
853.914	21568
854.048	21599
854.183	21652
854.317	21717
854.451	21831
854.585	21637
854.72	21496
854.854	21572
854.988	21580
855.122	21599
855.256	21557
855.39	21667
855.524	21759
855.658	21591
855.792	21637
855.926	21690
856.06	21690
856.194	21778
856.327	21530
856.461	21599
856.595	21534
856.729	21576
856.862	21739
856.996	21736
857.13	21694
857.263	21671
857.397	21663
857.53	21538
857.664	21663
857.797	21534
857.931	21610
858.064	21755
858.197	21648
858.331	21610
858.464	21416
858.597	21576
858.731	21587
858.864	21526
858.997	21580
859.13	21732
859.263	21523
859.396	21652
859.529	21739
859.662	21557
859.795	21500
859.928	21686
860.061	21732
860.194	21732
860.327	21595
860.46	21625
860.592	21774
860.725	21800
860.858	21690
860.99	21595
861.123	21568
861.256	21564
861.388	21595
861.521	22086
861.653	21507
861.786	21237
861.918	21469
862.05	21424
862.183	21660
862.315	21496
862.447	21595
862.58	21538
862.712	21386
862.844	21195
862.976	21408
863.108	21332
863.24	21804
863.372	21389
863.504	21412
863.636	21283
863.768	21264
863.9	21214
864.032	21138
864.164	21218
864.296	21218
864.428	21401
864.559	21264
864.691	21264
864.823	21283
864.954	21298
865.086	21226
865.217	21218
865.349	21192
865.48	21184
865.612	21195
865.743	21389
865.875	21310
866.006	21169
866.137	21199
866.269	21173
866.4	21233
866.531	21306
866.662	21146
866.793	21161
866.924	21165
867.055	21157
867.186	21169
867.317	21100
867.448	21058
867.579	21047
867.71	21104
867.841	21051
867.972	21226
868.103	21195
868.233	21226
868.364	21165
868.495	21169
868.625	21466
868.756	21443
868.886	21218
869.017	21443
869.147	21564
869.278	21458
869.408	21431
869.539	21313
869.669	21435
869.799	21469
869.929	21485
870.06	21488
870.19	21705
870.32	21709
870.45	21778
870.58	21625
870.71	21838
870.84	21854
870.97	21755
871.1	21865
871.23	21823
871.36	21903
871.489	21873
871.619	21945
871.749	21937
871.879	21926
872.008	21998
872.138	21991
872.267	21934
872.397	21911
872.526	21899
872.656	21800
872.785	21781
872.915	21945
873.044	21983
873.173	22070
873.303	21876
873.432	22070
873.561	22051
873.69	21907
873.819	21968
873.948	21930
874.077	22059
874.206	21865
874.335	21911
874.464	22082
874.593	22234
874.722	22169
874.851	22291
874.979	22257
875.108	22314
875.237	22181
875.365	22253
875.494	22204
875.623	22268
875.751	22097
875.88	22284
876.008	22348
876.136	22382
876.265	22611
876.393	22729
876.521	22763
876.65	22649
876.778	22611
876.906	22538
877.034	22622
877.162	22580
877.29	22508
877.418	22649
877.546	22656
877.674	22577
877.802	22424
877.93	22550
878.058	22424
878.185	22455
878.313	22527
878.441	22580
878.568	22417
878.696	22561
878.824	22538
878.951	22679
879.079	22721
879.206	22831
879.333	22774
879.461	22641
879.588	22611
879.715	22774
879.842	22828
879.97	22630
880.097	22341
880.224	22352
880.351	22470
880.478	22390
880.605	22390
880.732	22413
880.859	22538
880.986	22531
881.112	22424
881.239	22150
881.366	22078
881.493	22063
881.619	21987
881.746	21949
881.872	21998
881.999	21888
882.125	21873
882.252	22040
882.378	21987
882.505	22044
882.631	21823
882.757	21580
882.883	21804
883.01	21747
883.136	21633
883.262	21485
883.388	21504
883.514	21633
883.64	21679
883.766	21568
883.892	21462
884.018	21507
884.143	21500
884.269	21682
884.395	21382
884.52	21249
884.646	21378
884.772	21287
884.897	21256
885.023	21310
885.148	21405
885.274	21545
885.399	21393
885.524	21332
885.65	21249
885.775	21329
885.9	21325
886.025	21310
886.15	21393
886.275	21310
886.4	21180
886.525	21302
886.65	21184
886.775	21180
886.9	21382
887.025	21389
887.149	21329
887.274	21066
887.399	21024
887.523	21062
887.648	20929
887.773	20994
887.897	21104
888.021	21058
888.146	21017
888.27	21142
888.395	21123
888.519	21184
888.643	21123
888.767	21230
888.891	20948
889.015	20785
889.139	20929
889.263	20838
889.387	20982
889.511	21005
889.635	21013
889.759	20765
889.883	20815
890.006	21009
890.13	20906
890.254	20868
890.377	20773
890.501	20739
890.624	20552
890.748	20689
890.871	20476
890.995	20427
891.118	20358
891.241	20415
891.364	20358
891.488	20450
891.611	20362
891.734	20473
891.857	20446
891.98	20381
892.103	20450
892.226	20332
892.349	20366
892.471	20233
892.594	20229
892.717	20381
892.839	20336
892.962	20423
893.085	20400
893.207	20298
893.33	20191
893.452	20233
893.575	20377
893.697	20358
893.819	20317
893.941	20564
894.064	20404
894.186	20195
894.308	20195
894.43	20492
894.552	20446
894.674	20450
894.796	20187
894.918	20286
895.04	20271
895.161	20389
895.283	20362
895.405	20324
895.526	20434
895.648	20294
895.769	20336
895.891	20317
896.012	20389
896.134	20408
896.255	20370
896.376	20298
896.498	20408
896.619	20374
896.74	20271
896.861	20408
896.982	20689
897.103	20739
897.224	20511
897.345	20476
897.466	20473
897.587	20556
897.708	20670
897.828	20476
897.949	20358
898.07	20275
898.19	20438
898.311	20659
898.431	20503
898.552	20507
898.672	20514
898.792	20533
898.913	20533
899.033	20389
899.153	20336
899.273	20214
899.393	20240
899.513	20362
899.633	20267
899.753	20415
899.873	20195
899.993	20278
900.113	20298
900.232	20221
900.352	20248
900.472	20134
900.591	20027
900.711	20119
900.83	19993
900.95	20153
901.069	20164
901.189	19841
901.308	19761
901.427	19696
901.546	19670
901.665	19635
901.784	19655
901.904	19616
902.023	19350
902.141	19266
902.26	19221
902.379	19278
902.498	19137
902.617	19114
902.735	19156
902.854	19133
902.973	19164
903.091	18924
903.21	18814
903.328	18829
903.446	18700
903.565	18642
903.683	18677
903.801	18464
903.919	18604
904.038	18578
904.156	18388
904.274	18407
904.392	18437
904.51	18426
904.627	18323
904.745	18410
904.863	18429
904.981	18129
905.098	18015
905.216	18041
905.334	18011
905.451	18057
905.569	18072
905.686	18060
905.803	17984
905.921	17805
906.038	17901
906.155	17847
906.272	17748
906.389	17771
906.506	17558
906.623	17570
906.74	17570
906.857	17387
906.974	17501
907.091	17554
907.208	17741
907.324	17707
907.441	17509
907.557	17341
907.674	17318
907.79	17368
907.907	17280
908.023	17250
908.139	17193
908.256	17254
908.372	17143
908.488	17189
908.604	16995
908.72	16987
908.836	16999
908.952	17083
909.068	17102
909.184	17090
909.3	16915
909.415	16957
909.531	16965
909.647	16748
909.762	16706
909.878	16725
909.993	16675
910.108	16675
910.224	16584
910.339	16668
910.454	16535
910.57	16508
910.685	16535
910.8	16763
910.915	16691
911.03	16603
911.145	16356
911.259	16261
911.374	16162
911.489	16268
911.604	16147
911.718	16055
911.833	16040
911.947	16002
912.062	15846
912.176	15964
912.291	16059
912.405	15991
912.519	16219
912.633	16238
912.748	16131
912.862	16040
912.976	15979
913.09	15766
913.204	15812
913.318	15915
913.431	15968
913.545	15937
913.659	15991
913.772	15797
913.886	15625
914	15606
914.113	15755
914.226	15720
914.34	15720
914.453	15587
914.566	15732
914.68	15549
914.793	15481
914.906	15393
915.019	15264
915.132	15142
915.245	15279
915.358	15218
915.47	15340
915.583	15260
915.696	15355
915.809	15431
915.921	15370
916.034	15237
916.146	15184
916.259	15169
916.371	15291
916.483	15214
916.595	15173
916.708	15085
916.82	15154
916.932	15081
917.044	14998
917.156	14998
917.268	14796
917.38	14883
917.491	14872
917.603	14891
917.715	14929
917.826	14929
917.938	14849
918.049	14807
918.161	14834
918.272	14994
918.384	14990
918.495	14838
918.606	14712
918.717	14587
918.828	14716
918.939	14686
919.05	14575
919.161	14537
919.272	14507
919.383	14537
919.494	14735
919.604	14804
919.715	14625
919.826	14655
919.936	14587
920.047	14697
920.157	14632
920.267	14834
920.378	14549
920.488	14613
920.598	14849
920.708	14956
920.818	14804
920.928	14792
921.038	14883
921.148	14834
921.258	14583
921.368	14473
921.477	14336
921.587	14339
921.697	14218
921.806	14434
921.916	14259
922.025	13989
922.134	13993
922.244	13887
922.353	13986
922.462	13947
922.571	13849
922.68	13696
922.789	13594
922.898	13677
923.007	13582
923.116	13662
923.224	13685
923.333	13677
923.442	13552
923.55	13487
923.659	13502
923.767	13563
923.876	13502
923.984	13544
924.092	13335
924.201	13400
924.309	13388
924.417	13343
924.525	13331
924.633	13324
924.741	14172
924.849	13080
924.956	13251
925.064	13034
925.172	13034
925.279	13027
925.387	13091
925.494	13076
925.602	13149
925.709	13103
925.816	12996
925.924	12985
926.031	13171
926.138	13042
926.245	13046
926.352	12825
926.459	13065
926.566	13076
926.673	12985
926.779	12760
926.886	12753
926.993	12620
927.099	12616
927.206	12582
927.312	12563
927.419	12623
927.525	12593
927.631	12593
927.737	12528
927.843	12437
927.95	12372
928.056	12513
928.162	12486
928.267	12445
928.373	13118
928.479	12506
928.585	12270
928.69	12300
928.796	12407
928.901	12281
929.007	12110
929.112	12273
929.218	12338
929.323	12098
929.428	12155
929.533	12372
929.638	12121
929.743	12197
929.848	12213
929.953	12110
930.058	11969
930.163	11870
930.267	11889
930.372	11904
930.477	11786
930.581	11999
930.685	11916
930.79	11783
930.894	11729
930.998	11741
931.103	11885
931.207	11474
931.311	11372
931.415	11292
931.519	11132
931.623	11143
