Data from test_V78500241_76.txt Node
Date: Fri Mar 25 15:10:23 CST 2022
User: usil
Spectrometer: V785-0024
Trigger mode: 0
Integration Time (sec): 4.000000E-1
Scans to average: 1
Nonlinearity correction enabled: false
Boxcar width: 0
Storing dark spectrum: false
XAxis mode: Wavelengths
Number of Pixels in Spectrum: 1024
>>>>>Begin Spectral Data<<<<<
801.071	28485
801.214	28493
801.356	28200
801.499	28219
801.641	28196
801.783	28215
801.926	28070
802.068	28101
802.211	27846
802.353	27865
802.496	27663
802.638	27698
802.78	27705
802.923	27625
803.065	27564
803.208	27576
803.35	27682
803.492	27793
803.635	27903
803.777	27694
803.919	27869
804.061	28207
804.204	27823
804.346	27724
804.488	27641
804.63	27663
804.773	27576
804.915	27682
805.057	27998
805.199	27686
805.341	27755
805.483	27831
805.626	27705
805.768	27736
805.91	27793
806.052	27888
806.194	27694
806.336	27922
806.478	27907
806.62	27816
806.762	27797
806.904	28032
807.046	28295
807.188	28150
807.33	28204
807.472	28196
807.614	28173
807.756	28063
807.898	27934
808.04	27983
808.182	27949
808.324	27876
808.465	28010
808.607	28120
808.749	28219
808.891	28230
809.033	28535
809.174	28257
809.316	28333
809.458	28230
809.6	28268
809.741	28398
809.883	28432
810.025	28481
810.166	28497
810.308	28740
810.45	28478
810.591	28542
810.733	28200
810.875	28169
811.016	28063
811.158	28063
811.299	28261
811.441	28257
811.582	28371
811.724	28143
811.865	28166
812.007	28333
812.148	28211
812.29	28329
812.431	28424
812.573	28607
812.714	28691
812.855	28725
812.997	28778
813.138	28984
813.279	28919
813.421	28736
813.562	28607
813.703	28512
813.845	28314
813.986	28097
814.127	28101
814.268	27819
814.41	27888
814.551	27781
814.692	27937
814.833	27930
814.974	27831
815.115	27785
815.256	27770
815.397	27831
815.539	27694
815.68	27622
815.821	27523
815.962	27622
816.103	27447
816.244	27500
816.385	27348
816.526	27329
816.666	26986
816.807	26986
816.948	27001
817.089	27039
817.23	27043
817.371	26982
817.512	26963
817.653	26921
817.793	26914
817.934	27093
818.075	26960
818.216	26982
818.356	26902
818.497	26762
818.638	26697
818.778	26670
818.919	26762
819.06	26811
819.2	26872
819.341	26990
819.481	26864
819.622	26975
819.762	27279
819.903	27104
820.043	27051
820.184	27055
820.324	26998
820.465	27051
820.605	26994
820.746	26891
820.886	26670
821.026	26838
821.167	26857
821.307	27104
821.447	26956
821.588	26842
821.728	26739
821.868	26446
822.008	26298
822.149	26271
822.289	26176
822.429	26043
822.569	25963
822.709	25997
822.849	25852
822.99	25913
823.13	25662
823.27	25757
823.41	25556
823.55	25495
823.69	25563
823.83	25628
823.97	25521
824.11	25316
824.25	25354
824.389	25331
824.529	25419
824.669	25377
824.809	25476
824.949	25479
825.089	25495
825.228	25373
825.368	25091
825.508	25164
825.648	25080
825.787	25076
825.927	25118
826.067	25168
826.206	25099
826.346	25168
826.485	25202
826.625	25103
826.765	25327
826.904	25217
827.044	24856
827.183	24901
827.323	24791
827.462	24814
827.601	24738
827.741	24897
827.88	24840
828.02	24734
828.159	24867
828.298	24768
828.437	24791
828.577	24848
828.716	24749
828.855	24798
828.994	24627
829.134	24460
829.273	24479
829.412	24479
829.551	24410
829.69	24566
829.829	24456
829.968	24658
830.107	24597
830.246	24483
830.385	24429
830.524	24395
830.663	24254
830.802	24163
830.941	24003
831.08	24083
831.219	24064
831.357	24106
831.496	24338
831.635	24045
831.774	23908
831.913	23851
832.051	23893
832.19	23722
832.329	23889
832.467	23687
832.606	23596
832.744	23729
832.883	23684
833.022	23558
833.16	23543
833.299	23745
833.437	23634
833.576	23703
833.714	23596
833.852	23547
833.991	23684
834.129	23790
834.267	23786
834.406	23722
834.544	23710
834.682	23745
834.821	23707
834.959	23794
835.097	23585
835.235	23680
835.373	23619
835.511	23505
835.65	23417
835.788	23615
835.926	23303
836.064	23231
836.202	23292
836.34	23436
836.478	23596
836.615	23482
836.753	23627
836.891	23547
837.029	23642
837.167	23471
837.305	23410
837.443	23258
837.58	23292
837.718	23292
837.856	23265
837.993	23353
838.131	23273
838.269	23105
838.406	23223
838.544	23162
838.681	22835
838.819	22949
838.956	22771
839.094	22721
839.231	22828
839.369	22919
839.506	23117
839.643	22877
839.781	22797
839.918	22596
840.055	22653
840.193	22759
840.33	22592
840.467	22710
840.604	22782
840.742	22828
840.879	22504
841.016	22538
841.153	22546
841.29	22710
841.427	22611
841.564	22622
841.701	22634
841.838	22573
841.975	22497
842.112	22428
842.249	22474
842.385	22249
842.522	22634
842.659	22424
842.796	22261
842.933	22367
843.069	22215
843.206	22272
843.343	22322
843.479	22394
843.616	22344
843.752	22200
843.889	22177
844.025	22249
844.162	22051
844.298	22158
844.435	22017
844.571	22063
844.708	22029
844.844	22253
844.98	22101
845.117	22207
845.253	21987
845.389	21949
845.525	21937
845.661	21926
845.798	21663
845.934	21865
846.07	21762
846.206	21899
846.342	21907
846.478	21637
846.614	21435
846.75	21545
846.886	21599
847.022	21542
847.158	21667
847.294	21492
847.429	21450
847.565	21435
847.701	21713
847.837	21275
847.972	21302
848.108	21230
848.244	21420
848.379	21055
848.515	21001
848.65	20990
848.786	21192
848.921	21043
849.057	21135
849.192	21074
849.328	21108
849.463	21131
849.598	20902
849.734	20956
849.869	20937
850.004	20765
850.14	20849
850.275	20762
850.41	20651
850.545	20758
850.68	20743
850.815	20796
850.95	20807
851.085	20925
851.22	20792
851.355	20872
851.49	20609
851.625	20716
851.76	20724
851.895	20606
852.03	20697
852.165	20857
852.299	20845
852.434	20975
852.569	20746
852.703	20781
852.838	20861
852.973	20823
853.107	20937
853.242	20693
853.376	20606
853.511	20503
853.645	20625
853.78	20674
853.914	20545
854.048	20609
854.183	20609
854.317	20587
854.451	20613
854.585	20613
854.72	20541
854.854	20590
854.988	20438
855.122	20632
855.256	20454
855.39	20568
855.524	20686
855.658	20545
855.792	20727
855.926	20621
856.06	20480
856.194	20674
856.327	20457
856.461	20431
856.595	20564
856.729	20507
856.862	20697
856.996	20530
857.13	20598
857.263	20575
857.397	20667
857.53	20522
857.664	20621
857.797	20682
857.931	20720
858.064	20674
858.197	20606
858.331	20454
858.464	20450
858.597	20355
858.731	20587
858.864	20476
858.997	20454
859.13	20484
859.263	20564
859.396	20571
859.529	20423
859.662	20419
859.795	20423
859.928	20541
860.061	20575
860.194	20621
860.327	20358
860.46	20507
860.592	20560
860.725	20659
860.858	20454
860.99	20450
861.123	20545
861.256	20370
861.388	20454
861.521	21123
861.653	20358
861.786	20256
861.918	20358
862.05	20415
862.183	20431
862.315	20503
862.447	20556
862.58	20503
862.712	20240
862.844	20180
862.976	20343
863.108	20259
863.24	20720
863.372	20145
863.504	20210
863.636	20088
863.768	20248
863.9	20229
864.032	20218
864.164	20301
864.296	20252
864.428	20275
864.559	20138
864.691	20199
864.823	20248
864.954	20164
865.086	20172
865.217	20084
865.349	20016
865.48	20115
865.612	20069
865.743	20176
865.875	20157
866.006	20176
866.137	19997
866.269	19974
866.4	20145
866.531	20084
866.662	20062
866.793	20039
866.924	20065
867.055	20111
867.186	20016
867.317	20001
867.448	19906
867.579	19978
867.71	19868
867.841	19932
867.972	20062
868.103	19970
868.233	20020
868.364	20020
868.495	19974
868.625	20275
868.756	20328
868.886	20195
869.017	20221
869.147	20362
869.278	20324
869.408	20256
869.539	20195
869.669	20332
869.799	20328
869.929	20389
870.06	20358
870.19	20568
870.32	20644
870.45	20564
870.58	20625
870.71	20777
870.84	20644
870.97	20636
871.1	20693
871.23	20872
871.36	20765
871.489	20663
871.619	20815
871.749	20815
871.879	20891
872.008	20990
872.138	20796
872.267	20883
872.397	20689
872.526	20663
872.656	20663
872.785	20663
872.915	20834
873.044	20788
873.173	20891
873.303	20849
873.432	20952
873.561	20899
873.69	20845
873.819	20914
873.948	20929
874.077	20925
874.206	20937
874.335	20941
874.464	21013
874.593	21150
874.722	21055
874.851	21062
874.979	21070
875.108	21127
875.237	20994
875.365	20971
875.494	21135
875.623	21256
875.751	21089
875.88	21195
876.008	21184
876.136	21283
876.265	21458
876.393	21492
876.521	21576
876.65	21557
876.778	21572
876.906	21458
877.034	21428
877.162	21454
877.29	21370
877.418	21530
877.546	21450
877.674	21420
877.802	21530
877.93	21561
878.058	21564
878.185	21317
878.313	21447
878.441	21431
878.568	21264
878.696	21428
878.824	21469
878.951	21488
879.079	21595
879.206	21789
879.333	21682
879.461	21526
879.588	21530
879.715	21720
879.842	21915
879.97	21534
880.097	21275
880.224	21207
880.351	21473
880.478	21370
880.605	21272
880.732	21230
880.859	21477
880.986	21325
881.112	21268
881.239	21150
881.366	20891
881.493	21032
881.619	20948
881.746	20895
881.872	20971
881.999	20857
882.125	20891
882.252	20982
882.378	20906
882.505	21047
882.631	20754
882.757	20575
882.883	20716
883.01	20552
883.136	20590
883.262	20511
883.388	20446
883.514	20625
883.64	20655
883.766	20450
883.892	20347
884.018	20492
884.143	20613
884.269	20727
884.395	20381
884.52	20400
884.646	20278
884.772	20301
884.897	20138
885.023	20225
885.148	20465
885.274	20492
885.399	20469
885.524	20305
885.65	20286
885.775	20221
885.9	20259
886.025	20370
886.15	20271
886.275	20218
886.4	20248
886.525	20210
886.65	20027
886.775	20081
886.9	20412
887.025	20446
887.149	20240
887.274	20077
887.399	19955
887.523	20031
887.648	19974
887.773	19959
887.897	20130
888.021	19955
888.146	19917
888.27	20005
888.395	20195
888.519	20153
888.643	20100
888.767	19974
888.891	19963
889.015	19731
889.139	19852
889.263	19742
889.387	19902
889.511	20043
889.635	19936
889.759	19856
889.883	19845
890.006	19856
890.13	19788
890.254	19666
890.377	19715
890.501	19597
890.624	19616
890.748	19624
890.871	19285
890.995	19407
891.118	19270
891.241	19567
891.364	19422
891.488	19476
891.611	19434
891.734	19396
891.857	19422
891.98	19346
892.103	19430
892.226	19384
892.349	19403
892.471	19069
892.594	19331
892.717	19354
892.839	19308
892.962	19236
893.085	19449
893.207	19407
893.33	19171
893.452	19164
893.575	19457
893.697	19217
893.819	19441
893.941	19510
894.064	19255
894.186	19259
894.308	19217
894.43	19350
894.552	19483
894.674	19331
894.796	19171
894.918	19274
895.04	19225
895.161	19304
895.283	19308
895.405	19263
895.526	19263
895.648	19400
895.769	19263
895.891	19308
896.012	19396
896.134	19468
896.255	19301
896.376	19316
896.498	19392
896.619	19430
896.74	19438
896.861	19339
896.982	19734
897.103	19746
897.224	19670
897.345	19567
897.466	19449
897.587	19483
897.708	19677
897.828	19609
897.949	19563
898.07	19373
898.19	19453
898.311	19548
898.431	19468
898.552	19567
898.672	19571
898.792	19578
898.913	19609
899.033	19331
899.153	19297
899.273	19251
899.393	19244
899.513	19285
899.633	19293
899.753	19266
899.873	19103
899.993	19396
900.113	19217
900.232	19244
900.352	19183
900.472	19141
900.591	19046
900.711	18966
900.83	19000
900.95	19187
901.069	19171
901.189	18928
901.308	18932
901.427	18726
901.546	18696
901.665	18703
901.784	18639
901.904	18570
902.023	18391
902.141	18133
902.26	18216
902.379	18243
902.498	18243
902.617	18049
902.735	18220
902.854	18159
902.973	18079
903.091	17843
903.21	17824
903.328	17851
903.446	17676
903.565	17699
903.683	17604
903.801	17585
903.919	17551
904.038	17535
904.156	17395
904.274	17512
904.392	17402
904.51	17425
904.627	17391
904.745	17433
904.863	17539
904.981	17273
905.098	17200
905.216	17128
905.334	17140
905.451	17060
905.569	16968
905.686	17124
905.803	17178
905.921	16831
906.038	16965
906.155	16923
906.272	16755
906.389	16759
906.506	16641
906.623	16698
906.74	16615
906.857	16489
906.974	16519
907.091	16729
907.208	16771
907.324	16626
907.441	16451
907.557	16291
907.674	16344
907.79	16223
907.907	16268
908.023	16249
908.139	16325
908.256	16223
908.372	16105
908.488	16234
908.604	16021
908.72	16006
908.836	16040
908.952	16025
909.068	16021
909.184	16086
909.3	15949
909.415	16040
909.531	16040
909.647	15762
909.762	15675
909.878	15679
909.993	15743
910.108	15656
910.224	15747
910.339	15576
910.454	15542
910.57	15564
910.685	15481
910.8	15732
910.915	15576
911.03	15557
911.145	15344
911.259	15374
911.374	15256
911.489	15264
911.604	15154
911.718	15104
911.833	15058
911.947	14906
912.062	14868
912.176	14925
912.291	15074
912.405	15013
912.519	15207
912.633	15203
912.748	15036
912.862	15017
912.976	14853
913.09	14708
913.204	14739
913.318	14849
913.431	15009
913.545	14910
913.659	14963
913.772	14823
913.886	14705
914	14712
914.113	14716
914.226	14842
914.34	14800
914.453	14549
914.566	14705
914.68	14495
914.793	14564
914.906	14412
915.019	14332
915.132	14237
915.245	14305
915.358	14332
915.47	14381
915.583	14301
915.696	14370
915.809	14419
915.921	14442
916.034	14332
916.146	14233
916.259	14244
916.371	14324
916.483	14305
916.595	14145
916.708	14180
916.82	14199
916.932	14084
917.044	14058
917.156	13974
917.268	13928
917.38	14008
917.491	14001
917.603	14020
917.715	14069
917.826	14065
917.938	13921
918.049	13761
918.161	13890
918.272	14100
918.384	14153
918.495	13925
918.606	13849
918.717	13719
918.828	13814
918.939	13708
919.05	13609
919.161	13639
919.272	13540
919.383	13613
919.494	13700
919.604	13940
919.715	13788
919.826	13723
919.936	13681
920.047	13700
920.157	13757
920.267	13925
920.378	13715
920.488	13814
920.598	13826
920.708	13978
920.818	13887
920.928	13811
921.038	14001
921.148	13814
921.258	13658
921.368	13544
921.477	13445
921.587	13445
921.697	13388
921.806	13472
921.916	13221
922.025	13206
922.134	13103
922.244	13145
922.353	13160
922.462	12924
922.571	12958
922.68	12795
922.789	12730
922.898	12745
923.007	12684
923.116	12726
923.224	12677
923.333	12722
923.442	12608
923.55	12532
923.659	12544
923.767	12684
923.876	12490
923.984	12521
924.092	12509
924.201	12566
924.309	12460
924.417	12486
924.525	12433
924.633	12407
924.741	13149
924.849	12213
924.956	12437
925.064	12186
925.172	12152
925.279	12167
925.387	12235
925.494	12068
925.602	12334
925.709	12304
925.816	12152
925.924	12182
926.031	12262
926.138	12182
926.245	12228
926.352	12022
926.459	12201
926.566	12239
926.673	12038
926.779	11977
926.886	11996
926.993	11878
927.099	11828
927.206	11821
927.312	11775
927.419	11802
927.525	11699
927.631	11813
927.737	11634
927.843	11729
927.95	11520
928.056	11638
928.162	11623
928.267	11642
928.373	12235
928.479	11672
928.585	11421
928.69	11543
928.796	11680
928.901	11482
929.007	11326
929.112	11493
929.218	11448
929.323	11315
929.428	11353
929.533	11501
929.638	11315
929.743	11318
929.848	11444
929.953	11410
930.058	11166
930.163	11033
930.267	11041
930.372	11132
930.477	11029
930.581	11296
930.685	11048
930.79	10949
930.894	10976
930.998	10968
931.103	11022
931.207	10675
931.311	10588
931.415	10523
931.519	10314
931.623	10367
