Data from test_V78500241_3194.txt Node
Date: Fri Mar 25 15:32:06 CST 2022
User: usil
Spectrometer: V785-0024
Trigger mode: 0
Integration Time (sec): 4.000000E-1
Scans to average: 1
Nonlinearity correction enabled: false
Boxcar width: 0
Storing dark spectrum: false
XAxis mode: Wavelengths
Number of Pixels in Spectrum: 1024
>>>>>Begin Spectral Data<<<<<
801.071	27039
801.214	26853
801.356	26724
801.499	26735
801.641	26518
801.783	26522
801.926	26568
802.068	26453
802.211	26393
802.353	26240
802.496	26062
802.638	26199
802.78	26012
802.923	26035
803.065	26024
803.208	26001
803.35	26195
803.492	26305
803.635	26183
803.777	26149
803.919	26210
804.061	26533
804.204	26419
804.346	26214
804.488	26229
804.63	26244
804.773	26119
804.915	26259
805.057	26343
805.199	26092
805.341	26263
805.483	26332
805.626	26275
805.768	26343
805.91	26362
806.052	26381
806.194	26278
806.336	26640
806.478	26343
806.62	26355
806.762	26415
806.904	26560
807.046	26701
807.188	26785
807.33	26781
807.472	26800
807.614	26762
807.756	26735
807.898	26571
808.04	26518
808.182	26393
808.324	26659
808.465	26731
808.607	26800
808.749	26937
808.891	27058
809.033	27157
809.174	26899
809.316	26906
809.458	26830
809.6	26921
809.741	26967
809.883	27028
810.025	27184
810.166	27127
810.308	27199
810.45	27245
810.591	27066
810.733	27093
810.875	26853
811.016	26724
811.158	26853
811.299	27013
811.441	27112
811.582	27009
811.724	26868
811.865	26883
812.007	26925
812.148	26811
812.29	26781
812.431	26872
812.573	27154
812.714	27374
812.855	27397
812.997	27492
813.138	27629
813.279	27557
813.421	27496
813.562	27283
813.703	27348
813.845	26998
813.986	26845
814.127	26625
814.268	26545
814.41	26594
814.551	26571
814.692	26727
814.833	26457
814.974	26457
815.115	26556
815.256	26393
815.397	26396
815.539	26419
815.68	26286
815.821	26252
815.962	26404
816.103	26267
816.244	26122
816.385	26126
816.526	26145
816.666	25978
816.807	25746
816.948	25826
817.089	25822
817.23	25925
817.371	25776
817.512	25769
817.653	25791
817.793	25795
817.934	25906
818.075	25700
818.216	25803
818.356	25670
818.497	25635
818.638	25479
818.778	25457
818.919	25499
819.06	25658
819.2	25670
819.341	25917
819.481	25746
819.622	25925
819.762	26050
819.903	26081
820.043	25970
820.184	25966
820.324	25906
820.465	26073
820.605	25894
820.746	25845
820.886	25807
821.026	25940
821.167	25841
821.307	25955
821.447	25830
821.588	25772
821.728	25613
821.868	25415
822.008	25316
822.149	25225
822.289	25343
822.429	24966
822.569	24970
822.709	25057
822.849	24783
822.99	24844
823.13	24696
823.27	24783
823.41	24528
823.55	24509
823.69	24650
823.83	24532
823.97	24486
824.11	24338
824.25	24426
824.389	24407
824.529	24426
824.669	24460
824.809	24464
824.949	24460
825.089	24494
825.228	24479
825.368	24228
825.508	24216
825.648	24144
825.787	24300
825.927	24220
826.067	24194
826.206	24308
826.346	24319
826.485	24395
826.625	24254
826.765	24350
826.904	24300
827.044	24015
827.183	24030
827.323	23927
827.462	24106
827.601	23973
827.741	23863
827.88	24049
828.02	23863
828.159	23855
828.298	23977
828.437	24015
828.577	23973
828.716	24038
828.855	23813
828.994	23726
829.134	23615
829.273	23771
829.412	23566
829.551	23581
829.69	23665
829.829	23764
829.968	23821
830.107	23718
830.246	23634
830.385	23619
830.524	23653
830.663	23471
830.802	23391
830.941	23345
831.08	23349
831.219	23322
831.357	23395
831.496	23528
831.635	23288
831.774	23189
831.913	23102
832.051	23128
832.19	23029
832.329	23098
832.467	23064
832.606	22930
832.744	22957
832.883	23052
833.022	22968
833.16	23075
833.299	23044
833.437	23010
833.576	23041
833.714	23022
833.852	23094
833.991	23132
834.129	23128
834.267	23064
834.406	22961
834.544	23037
834.682	22919
834.821	23044
834.959	23151
835.097	22965
835.235	23117
835.373	23048
835.511	23079
835.65	22778
835.788	22915
835.926	22877
836.064	22668
836.202	22778
836.34	22919
836.478	22968
836.615	22854
836.753	22934
836.891	23018
837.029	22858
837.167	22881
837.305	22831
837.443	22782
837.58	22710
837.718	22820
837.856	22797
837.993	22717
838.131	22569
838.269	22649
838.406	22607
838.544	22630
838.681	22310
838.819	22443
838.956	22280
839.094	22257
839.231	22432
839.369	22402
839.506	22512
839.643	22489
839.781	22188
839.918	22188
840.055	22291
840.193	22169
840.33	22234
840.467	22188
840.604	22287
840.742	22363
840.879	21979
841.016	22185
841.153	22128
841.29	22341
841.427	22112
841.564	22177
841.701	22139
841.838	22116
841.975	22002
842.112	22105
842.249	22032
842.385	21895
842.522	22253
842.659	22002
842.796	21808
842.933	21956
843.069	21941
843.206	21865
843.343	21956
843.479	22048
843.616	22021
843.752	21778
843.889	21755
844.025	21808
844.162	21675
844.298	21739
844.435	21812
844.571	21743
844.708	21770
844.844	21816
844.98	21888
845.117	21789
845.253	21641
845.389	21591
845.525	21549
845.661	21644
845.798	21507
845.934	21511
846.07	21473
846.206	21492
846.342	21557
846.478	21355
846.614	21233
846.75	21138
846.886	21131
847.022	21279
847.158	21146
847.294	21218
847.429	21096
847.565	21207
847.701	21389
847.837	20925
847.972	20838
848.108	21116
848.244	20899
848.379	20807
848.515	20720
848.65	20777
848.786	20826
848.921	20815
849.057	20994
849.192	20861
849.328	20758
849.463	20823
849.598	20765
849.734	20644
849.869	20632
850.004	20556
850.14	20697
850.275	20575
850.41	20541
850.545	20438
850.68	20370
850.815	20598
850.95	20568
851.085	20743
851.22	20708
851.355	20499
851.49	20514
851.625	20560
851.76	20495
851.895	20362
852.03	20518
852.165	20526
852.299	20594
852.434	20602
852.569	20446
852.703	20499
852.838	20571
852.973	20613
853.107	20579
853.242	20461
853.376	20332
853.511	20267
853.645	20370
853.78	20480
853.914	20355
854.048	20442
854.183	20370
854.317	20438
854.451	20526
854.585	20324
854.72	20301
854.854	20469
854.988	20271
855.122	20339
855.256	20259
855.39	20248
855.524	20377
855.658	20404
855.792	20434
855.926	20492
856.06	20423
856.194	20549
856.327	20362
856.461	20301
856.595	20305
856.729	20309
856.862	20503
856.996	20408
857.13	20442
857.263	20507
857.397	20442
857.53	20358
857.664	20423
857.797	20480
857.931	20370
858.064	20438
858.197	20556
858.331	20339
858.464	20309
858.597	20317
858.731	20275
858.864	20275
858.997	20263
859.13	20385
859.263	20366
859.396	20556
859.529	20347
859.662	20244
859.795	20305
859.928	20358
860.061	20511
860.194	20625
860.327	20427
860.46	20431
860.592	20545
860.725	20495
860.858	20423
860.99	20374
861.123	20339
861.256	20381
861.388	20347
861.521	20895
861.653	20256
861.786	20214
861.918	20221
862.05	20256
862.183	20282
862.315	20362
862.447	20423
862.58	20263
862.712	20077
862.844	20142
862.976	20149
863.108	20153
863.24	20514
863.372	19989
863.504	19986
863.636	20096
863.768	20065
863.9	20168
864.032	20092
864.164	19978
864.296	20191
864.428	20275
864.559	20142
864.691	20107
864.823	20115
864.954	20005
865.086	19997
865.217	19940
865.349	19959
865.48	20054
865.612	19993
865.743	20248
865.875	20058
866.006	19932
866.137	20050
866.269	20020
866.4	20031
866.531	19963
866.662	19894
866.793	19860
866.924	19906
867.055	20027
867.186	20008
867.317	19807
867.448	19887
867.579	19944
867.71	19932
867.841	19616
867.972	19936
868.103	19913
868.233	19978
868.364	19982
868.495	20077
868.625	20145
868.756	20400
868.886	20054
869.017	20176
869.147	20153
869.278	20336
869.408	20263
869.539	20187
869.669	20298
869.799	20256
869.929	20309
870.06	20225
870.19	20454
870.32	20514
870.45	20545
870.58	20537
870.71	20571
870.84	20743
870.97	20484
871.1	20499
871.23	20606
871.36	20785
871.489	20724
871.619	20693
871.749	20731
871.879	20842
872.008	20899
872.138	20804
872.267	20777
872.397	20724
872.526	20648
872.656	20518
872.785	20651
872.915	20739
873.044	21020
873.173	20815
873.303	20845
873.432	20868
873.561	20868
873.69	20880
873.819	20815
873.948	20914
874.077	20815
874.206	20777
874.335	20857
874.464	20967
874.593	21100
874.722	21028
874.851	21051
874.979	21112
875.108	21077
875.237	20952
875.365	20921
875.494	21108
875.623	21135
875.751	21009
875.88	21294
876.008	21051
876.136	21249
876.265	21526
876.393	21485
876.521	21542
876.65	21519
876.778	21462
876.906	21363
877.034	21336
877.162	21469
877.29	21363
877.418	21523
877.546	21310
877.674	21332
877.802	21439
877.93	21439
878.058	21348
878.185	21294
878.313	21420
878.441	21386
878.568	21249
878.696	21367
878.824	21416
878.951	21363
879.079	21561
879.206	21724
879.333	21572
879.461	21504
879.588	21549
879.715	21572
879.842	21720
879.97	21477
880.097	21214
880.224	21279
880.351	21150
880.478	21283
880.605	21291
880.732	21306
880.859	21416
880.986	21264
881.112	21279
881.239	21074
881.366	20986
881.493	20902
881.619	20769
881.746	20872
881.872	20864
881.999	20921
882.125	20750
882.252	20830
882.378	20853
882.505	20990
882.631	20777
882.757	20659
882.883	20663
883.01	20556
883.136	20442
883.262	20362
883.388	20412
883.514	20381
883.64	20640
883.766	20537
883.892	20275
884.018	20332
884.143	20442
884.269	20667
884.395	20153
884.52	20180
884.646	20168
884.772	20168
884.897	19997
885.023	20115
885.148	20324
885.274	20290
885.399	20362
885.524	20218
885.65	20229
885.775	20244
885.9	20183
886.025	20366
886.15	20343
886.275	20115
886.4	20195
886.525	20142
886.65	20081
886.775	20164
886.9	20298
887.025	20351
887.149	20180
887.274	19967
887.399	19913
887.523	19883
887.648	19913
887.773	19856
887.897	19944
888.021	20001
888.146	19913
888.27	20046
888.395	19963
888.519	19986
888.643	19944
888.767	19955
888.891	19830
889.015	19742
889.139	19856
889.263	19575
889.387	20005
889.511	20050
889.635	19894
889.759	19742
889.883	19761
890.006	19685
890.13	19978
890.254	19772
890.377	19765
890.501	19537
890.624	19586
890.748	19601
890.871	19464
890.995	19392
891.118	19335
891.241	19384
891.364	19396
891.488	19468
891.611	19476
891.734	19506
891.857	19388
891.98	19422
892.103	19396
892.226	19339
892.349	19308
892.471	19095
892.594	19251
892.717	19289
892.839	19251
892.962	19320
893.085	19289
893.207	19297
893.33	19133
893.452	19175
893.575	19304
893.697	19228
893.819	19506
893.941	19457
894.064	19411
894.186	19289
894.308	19285
894.43	19289
894.552	19483
894.674	19350
894.796	19232
894.918	19240
895.04	19206
895.161	19236
895.283	19206
895.405	19179
895.526	19350
895.648	19384
895.769	19346
895.891	19339
896.012	19324
896.134	19400
896.255	19324
896.376	19114
896.498	19255
896.619	19438
896.74	19343
896.861	19373
896.982	19666
897.103	19753
897.224	19521
897.345	19582
897.466	19403
897.587	19480
897.708	19651
897.828	19422
897.949	19502
898.07	19388
898.19	19529
898.311	19597
898.431	19487
898.552	19464
898.672	19559
898.792	19613
898.913	19582
899.033	19350
899.153	19274
899.273	19247
899.393	19285
899.513	19282
899.633	19282
899.753	19308
899.873	19152
899.993	19396
900.113	19304
900.232	19270
900.352	19209
900.472	19194
900.591	19103
900.711	19053
900.83	19099
900.95	19183
901.069	19168
901.189	18958
901.308	18715
901.427	18696
901.546	18559
901.665	18783
901.784	18677
901.904	18494
902.023	18471
902.141	18213
902.26	18213
902.379	18216
902.498	18216
902.617	18205
902.735	18174
902.854	18201
902.973	18171
903.091	17870
903.21	17840
903.328	17931
903.446	17752
903.565	17745
903.683	17691
903.801	17577
903.919	17653
904.038	17638
904.156	17467
904.274	17482
904.392	17429
904.51	17520
904.627	17406
904.745	17417
904.863	17528
904.981	17204
905.098	17181
905.216	17239
905.334	17102
905.451	17197
905.569	17174
905.686	17136
905.803	17170
905.921	16934
906.038	16995
906.155	17025
906.272	16763
906.389	16850
906.506	16672
906.623	16725
906.74	16599
906.857	16577
906.974	16565
907.091	16713
907.208	16786
907.324	16694
907.441	16516
907.557	16455
907.674	16356
907.79	16337
907.907	16405
908.023	16440
908.139	16360
908.256	16363
908.372	16287
908.488	16417
908.604	16025
908.72	16112
908.836	16093
908.952	16128
909.068	16230
909.184	16207
909.3	16097
909.415	16223
909.531	16105
909.647	15842
909.762	15816
909.878	15934
909.993	15884
910.108	15808
910.224	15869
910.339	15823
910.454	15671
910.57	15717
910.685	15633
910.8	15918
910.915	15861
911.03	15614
911.145	15462
911.259	15435
911.374	15473
911.489	15450
911.604	15310
911.718	15176
911.833	15233
911.947	15108
912.062	15108
912.176	15370
912.291	15256
912.405	15169
912.519	15370
912.633	15348
912.748	15332
912.862	15188
912.976	14960
913.09	14925
913.204	14960
913.318	15062
913.431	15104
913.545	15108
913.659	15127
913.772	14895
913.886	14845
914	14830
914.113	14933
914.226	14963
914.34	14891
914.453	14689
914.566	14830
914.68	14697
914.793	14826
914.906	14522
915.019	14412
915.132	14404
915.245	14495
915.358	14537
915.47	14484
915.583	14511
915.696	14495
915.809	14518
915.921	14583
916.034	14385
916.146	14408
916.259	14385
916.371	14457
916.483	14396
916.595	14271
916.708	14294
916.82	14290
916.932	14218
917.044	14358
917.156	14168
917.268	14164
917.38	14134
917.491	14183
917.603	14142
917.715	14252
917.826	14313
917.938	14168
918.049	14039
918.161	14081
918.272	14218
918.384	14164
918.495	14081
918.606	13864
918.717	13913
918.828	13917
918.939	13967
919.05	13906
919.161	13894
919.272	13685
919.383	13689
919.494	13944
919.604	14100
919.715	13860
919.826	13887
919.936	13868
920.047	13959
920.157	13909
920.267	14024
920.378	13860
920.488	13898
920.598	14012
920.708	14111
920.818	14035
920.928	13997
921.038	14157
921.148	14149
921.258	13860
921.368	13803
921.477	13677
921.587	13586
921.697	13559
921.806	13613
921.916	13540
922.025	13392
922.134	13274
922.244	13274
922.353	13308
922.462	13156
922.571	13103
922.68	12970
922.789	12985
922.898	13019
923.007	12973
923.116	13012
923.224	12894
923.333	12867
923.442	12738
923.55	12719
923.659	12863
923.767	12871
923.876	12772
923.984	12882
924.092	12688
924.201	12791
924.309	12703
924.417	12654
924.525	12608
924.633	12627
924.741	13499
924.849	12464
924.956	12654
925.064	12399
925.172	12300
925.279	12399
925.387	12410
925.494	12422
925.602	12559
925.709	12410
925.816	12330
925.924	12350
926.031	12369
926.138	12319
926.245	12346
926.352	12243
926.459	12365
926.566	12437
926.673	12300
926.779	12163
926.886	12167
926.993	12045
927.099	11992
927.206	11889
927.312	11916
927.419	12026
927.525	11977
927.631	11920
927.737	11920
927.843	11885
927.95	11630
928.056	11771
928.162	11885
928.267	11855
928.373	12422
928.479	11893
928.585	11699
928.69	11775
928.796	11855
928.901	11680
929.007	11467
929.112	11657
929.218	11627
929.323	11649
929.428	11592
929.533	11729
929.638	11547
929.743	11455
929.848	11478
929.953	11516
930.058	11345
930.163	11269
930.267	11280
930.372	11406
930.477	11197
930.581	11410
930.685	11265
930.79	11094
930.894	11204
930.998	11181
931.103	11223
931.207	10911
931.311	10801
931.415	10828
931.519	10634
931.623	10493
