Data from test_V78500241_1062.txt Node
Date: Fri Mar 25 15:17:15 CST 2022
User: usil
Spectrometer: V785-0024
Trigger mode: 0
Integration Time (sec): 4.000000E-1
Scans to average: 1
Nonlinearity correction enabled: false
Boxcar width: 0
Storing dark spectrum: false
XAxis mode: Wavelengths
Number of Pixels in Spectrum: 1024
>>>>>Begin Spectral Data<<<<<
801.071	28082
801.214	28013
801.356	27816
801.499	27751
801.641	27553
801.783	27759
801.926	27762
802.068	27644
802.211	27545
802.353	27412
802.496	27344
802.638	27367
802.78	27256
802.923	27279
803.065	27272
803.208	27245
803.35	27321
803.492	27443
803.635	27500
803.777	27420
803.919	27507
804.061	27876
804.204	27450
804.346	27443
804.488	27492
804.63	27488
804.773	27477
804.915	27538
805.057	27717
805.199	27515
805.341	27595
805.483	27545
805.626	27625
805.768	27450
805.91	27652
806.052	27755
806.194	27534
806.336	27804
806.478	27774
806.62	27713
806.762	27835
806.904	28093
807.046	28078
807.188	28002
807.33	27998
807.472	28097
807.614	27861
807.756	28032
807.898	27937
808.04	27930
808.182	28036
808.324	27930
808.465	28006
808.607	28086
808.749	28329
808.891	28512
809.033	28527
809.174	28371
809.316	28230
809.458	28204
809.6	28310
809.741	28398
809.883	28580
810.025	28577
810.166	28535
810.308	28717
810.45	28489
810.591	28523
810.733	28348
810.875	28341
811.016	28234
811.158	28112
811.299	28424
811.441	28455
811.582	28390
811.724	28379
811.865	28360
812.007	28284
812.148	28291
812.29	28379
812.431	28497
812.573	28626
812.714	28786
812.855	28831
812.997	28896
813.138	29128
813.279	29006
813.421	28900
813.562	28797
813.703	28698
813.845	28550
813.986	28356
814.127	28139
814.268	28070
814.41	27865
814.551	27842
814.692	28097
814.833	27964
814.974	28093
815.115	28010
815.256	27934
815.397	27922
815.539	27956
815.68	27747
815.821	27743
815.962	27808
816.103	27823
816.244	27603
816.385	27515
816.526	27606
816.666	27405
816.807	27397
816.948	27481
817.089	27504
817.23	27401
817.371	27374
817.512	27397
817.653	27332
817.793	27302
817.934	27363
818.075	27443
818.216	27386
818.356	27275
818.497	27233
818.638	27039
818.778	27077
818.919	27199
819.06	27180
819.2	27233
819.341	27348
819.481	27279
819.622	27412
819.762	27667
819.903	27690
820.043	27447
820.184	27492
820.324	27329
820.465	27408
820.605	27439
820.746	27458
820.886	27302
821.026	27424
821.167	27481
821.307	27332
821.447	27321
821.588	27298
821.728	27157
821.868	26876
822.008	26861
822.149	26910
822.289	26758
822.429	26583
822.569	26533
822.709	26461
822.849	26210
822.99	26438
823.13	26389
823.27	26126
823.41	26081
823.55	26084
823.69	26176
823.83	26138
823.97	26206
824.11	25921
824.25	25966
824.389	25944
824.529	26122
824.669	25997
824.809	26134
824.949	26153
825.089	25966
825.228	26122
825.368	25811
825.508	25811
825.648	25871
825.787	25890
825.927	25875
826.067	25932
826.206	25807
826.346	25963
826.485	25940
826.625	25799
826.765	26031
826.904	25784
827.044	25635
827.183	25578
827.323	25651
827.462	25712
827.601	25597
827.741	25438
827.88	25655
828.02	25491
828.159	25635
828.298	25643
828.437	25575
828.577	25571
828.716	25563
828.855	25434
828.994	25316
829.134	25335
829.273	25343
829.412	25148
829.551	25141
829.69	25213
829.829	25377
829.968	25438
830.107	25377
830.246	25346
830.385	25198
830.524	25168
830.663	24951
830.802	25027
830.941	24779
831.08	24890
831.219	24981
831.357	24977
831.496	25042
831.635	24905
831.774	24749
831.913	24798
832.051	24589
832.19	24661
832.329	24734
832.467	24589
832.606	24532
832.744	24517
832.883	24559
833.022	24525
833.16	24597
833.299	24696
833.437	24509
833.576	24620
833.714	24677
833.852	24661
833.991	24627
834.129	24719
834.267	24700
834.406	24795
834.544	24806
834.682	24692
834.821	24635
834.959	24711
835.097	24597
835.235	24620
835.373	24688
835.511	24741
835.65	24456
835.788	24532
835.926	24304
836.064	24330
836.202	24258
836.34	24388
836.478	24585
836.615	24372
836.753	24528
836.891	24525
837.029	24456
837.167	24563
837.305	24388
837.443	24357
837.58	24266
837.718	24464
837.856	24334
837.993	24289
838.131	24342
838.269	24232
838.406	24232
838.544	24049
838.681	23996
838.819	23912
838.956	23878
839.094	23684
839.231	23901
839.369	23988
839.506	24201
839.643	24121
839.781	23764
839.918	23794
840.055	23699
840.193	23703
840.33	23714
840.467	23657
840.604	23775
840.742	23950
840.879	23608
841.016	23623
841.153	23699
841.29	23840
841.427	23657
841.564	23687
841.701	23604
841.838	23604
841.975	23520
842.112	23668
842.249	23551
842.385	23471
842.522	23646
842.659	23558
842.796	23467
842.933	23486
843.069	23512
843.206	23596
843.343	23512
843.479	23566
843.616	23474
843.752	23288
843.889	23326
844.025	23524
844.162	23174
844.298	23391
844.435	23322
844.571	23220
844.708	23273
844.844	23391
844.98	23265
845.117	23356
845.253	23216
845.389	23147
845.525	23223
845.661	23155
845.798	23006
845.934	22965
846.07	22957
846.206	22877
846.342	22991
846.478	22938
846.614	22885
846.75	22672
846.886	22748
847.022	22839
847.158	22740
847.294	22725
847.429	22847
847.565	22603
847.701	23064
847.837	22489
847.972	22409
848.108	22497
848.244	22542
848.379	22382
848.515	22375
848.65	22276
848.786	22249
848.921	22417
849.057	22367
849.192	22417
849.328	22284
849.463	22219
849.598	22192
849.734	22204
849.869	22131
850.004	22078
850.14	22128
850.275	22128
850.41	22010
850.545	21956
850.68	22128
850.815	22230
850.95	22124
851.085	22253
851.22	22207
851.355	21934
851.49	21994
851.625	22059
851.76	22021
851.895	21941
852.03	21960
852.165	22169
852.299	22128
852.434	22162
852.569	22063
852.703	22128
852.838	22154
852.973	22215
853.107	22101
853.242	21975
853.376	21869
853.511	21667
853.645	21934
853.78	22051
853.914	21854
854.048	21873
854.183	21823
854.317	21789
854.451	22051
854.585	21846
854.72	21888
854.854	21865
854.988	21713
855.122	21911
855.256	21701
855.39	21835
855.524	21911
855.658	21846
855.792	21808
855.926	21854
856.06	21945
856.194	21945
856.327	21899
856.461	21778
856.595	21880
856.729	21804
856.862	21865
856.996	21892
857.13	21975
857.263	22036
857.397	21941
857.53	21842
857.664	21918
857.797	21953
857.931	21934
858.064	21956
858.197	21915
858.331	21781
858.464	21835
858.597	21713
858.731	21857
858.864	21781
858.997	21797
859.13	21937
859.263	21873
859.396	22048
859.529	21705
859.662	21838
859.795	21819
859.928	21930
860.061	22067
860.194	22093
860.327	21895
860.46	21854
860.592	21911
860.725	21922
860.858	21964
860.99	21808
861.123	21835
861.256	21804
861.388	21880
861.521	22470
861.653	21679
861.786	21739
861.918	21705
862.05	21679
862.183	21778
862.315	21770
862.447	21899
862.58	21884
862.712	21606
862.844	21614
862.976	21762
863.108	21576
863.24	22059
863.372	21523
863.504	21572
863.636	21583
863.768	21629
863.9	21656
864.032	21488
864.164	21679
864.296	21526
864.428	21705
864.559	21713
864.691	21625
864.823	21580
864.954	21492
865.086	21618
865.217	21561
865.349	21370
865.48	21462
865.612	21603
865.743	21580
865.875	21458
866.006	21466
866.137	21504
866.269	21268
866.4	21450
866.531	21443
866.662	21374
866.793	21466
866.924	21302
867.055	21435
867.186	21329
867.317	21431
867.448	21268
867.579	21443
867.71	21351
867.841	21275
867.972	21408
868.103	21393
868.233	21386
868.364	21439
868.495	21382
868.625	21648
868.756	21819
868.886	21523
869.017	21671
869.147	21679
869.278	21778
869.408	21736
869.539	21660
869.669	21652
869.799	21682
869.929	21804
870.06	21747
870.19	21869
870.32	21804
870.45	21953
870.58	22082
870.71	22162
870.84	22128
870.97	21873
871.1	22025
871.23	22105
871.36	22276
871.489	22147
871.619	22185
871.749	22196
871.879	22268
872.008	22379
872.138	22219
872.267	22078
872.397	22063
872.526	22040
872.656	21945
872.785	22082
872.915	22337
873.044	22207
873.173	22223
873.303	22341
873.432	22299
873.561	22287
873.69	22230
873.819	22272
873.948	22249
874.077	22204
874.206	22177
874.335	22196
874.464	22375
874.593	22409
874.722	22436
874.851	22634
874.979	22535
875.108	22565
875.237	22394
875.365	22341
875.494	22386
875.623	22500
875.751	22363
875.88	22405
876.008	22561
876.136	22546
876.265	22942
876.393	22949
876.521	22976
876.65	22968
876.778	22812
876.906	22729
877.034	22706
877.162	22786
877.29	22793
877.418	22774
877.546	22835
877.674	22740
877.802	22847
877.93	22816
878.058	22797
878.185	22725
878.313	22847
878.441	22831
878.568	22630
878.696	22733
878.824	22850
878.951	22843
879.079	23083
879.206	23022
879.333	22999
879.461	22786
879.588	23018
879.715	23006
879.842	22987
879.97	22946
880.097	22694
880.224	22679
880.351	22668
880.478	22596
880.605	22637
880.732	22653
880.859	22896
880.986	22607
881.112	22683
881.239	22474
881.366	22432
881.493	22185
881.619	22268
881.746	22261
881.872	22158
881.999	22162
882.125	22124
882.252	22139
882.378	22109
882.505	22272
882.631	21979
882.757	22025
882.883	21972
883.01	21972
883.136	21869
883.262	21701
883.388	21675
883.514	21785
883.64	21873
883.766	21861
883.892	21637
884.018	21739
884.143	21880
884.269	21713
884.395	21568
884.52	21500
884.646	21504
884.772	21481
884.897	21519
885.023	21492
885.148	21591
885.274	21751
885.399	21644
885.524	21625
885.65	21599
885.775	21534
885.9	21397
886.025	21629
886.15	21534
886.275	21473
886.4	21492
886.525	21485
886.65	21526
886.775	21587
886.9	21671
887.025	21774
887.149	21515
887.274	21374
887.399	21283
887.523	21370
887.648	21359
887.773	21195
887.897	21439
888.021	21336
888.146	21233
888.27	21374
888.395	21488
888.519	21298
888.643	21275
888.767	21252
888.891	21245
889.015	21165
889.139	21214
889.263	21036
889.387	21154
889.511	21203
889.635	21283
889.759	21089
889.883	21058
890.006	21074
890.13	21283
890.254	21055
890.377	21043
890.501	20838
890.624	20880
890.748	20823
890.871	20811
890.995	20724
891.118	20522
891.241	20678
891.364	20769
891.488	20807
891.611	20705
891.734	20651
891.857	20693
891.98	20693
892.103	20667
892.226	20598
892.349	20465
892.471	20423
892.594	20507
892.717	20476
892.839	20564
892.962	20476
893.085	20541
893.207	20587
893.33	20484
893.452	20492
893.575	20526
893.697	20518
893.819	20739
893.941	20750
894.064	20552
894.186	20431
894.308	20488
894.43	20552
894.552	20716
894.674	20579
894.796	20484
894.918	20457
895.04	20366
895.161	20492
895.283	20609
895.405	20514
895.526	20511
895.648	20598
895.769	20587
895.891	20613
896.012	20602
896.134	20495
896.255	20594
896.376	20526
896.498	20412
896.619	20488
896.74	20465
896.861	20663
896.982	20861
897.103	20902
897.224	20781
897.345	20743
897.466	20617
897.587	20613
897.708	20864
897.828	20678
897.949	20617
898.07	20579
898.19	20686
898.311	20750
898.431	20613
898.552	20552
898.672	20712
898.792	20815
898.913	20773
899.033	20594
899.153	20469
899.273	20465
899.393	20427
899.513	20480
899.633	20415
899.753	20480
899.873	20484
899.993	20530
900.113	20461
900.232	20366
900.352	20339
900.472	20271
900.591	20149
900.711	20237
900.83	20119
900.95	20294
901.069	20240
901.189	20142
901.308	19875
901.427	19746
901.546	19868
901.665	19803
901.784	19860
901.904	19643
902.023	19655
902.141	19354
902.26	19339
902.379	19422
902.498	19339
902.617	19354
902.735	19453
902.854	19202
902.973	19198
903.091	19034
903.21	18909
903.328	18996
903.446	18844
903.565	18738
903.683	18814
903.801	18684
903.919	18692
904.038	18741
904.156	18593
904.274	18620
904.392	18635
904.51	18509
904.627	18544
904.745	18703
904.863	18597
904.981	18346
905.098	18197
905.216	18262
905.334	18201
905.451	18216
905.569	18330
905.686	18148
905.803	18239
905.921	18026
906.038	18049
906.155	18114
906.272	17965
906.389	17973
906.506	17775
906.623	17722
906.74	17790
906.857	17707
906.974	17592
907.091	17878
907.208	17931
907.324	17847
907.441	17741
907.557	17501
907.674	17516
907.79	17429
907.907	17467
908.023	17520
908.139	17463
908.256	17425
908.372	17334
908.488	17315
908.604	17246
908.72	17136
908.836	17265
908.952	17303
909.068	17174
909.184	17292
909.3	17204
909.415	17166
909.531	17067
909.647	17056
909.762	16839
909.878	16968
909.993	16991
910.108	16934
910.224	16793
910.339	16930
910.454	16816
910.57	16721
910.685	16679
910.8	16889
910.915	16873
911.03	16679
911.145	16592
911.259	16470
911.374	16497
911.489	16367
911.604	16428
911.718	16185
911.833	16242
911.947	16185
912.062	16055
912.176	16246
912.291	16242
912.405	16234
912.519	16360
912.633	16360
912.748	16223
912.862	16204
912.976	16029
913.09	15994
913.204	16059
913.318	16090
913.431	16101
913.545	16143
913.659	16078
913.772	15884
913.886	15781
914	15884
914.113	15945
914.226	15930
914.34	15831
914.453	15766
914.566	15888
914.68	15679
914.793	15762
914.906	15576
915.019	15367
915.132	15344
915.245	15408
915.358	15408
915.47	15401
915.583	15466
915.696	15477
915.809	15530
915.921	15454
916.034	15382
916.146	15241
916.259	15412
916.371	15469
916.483	15321
916.595	15397
916.708	15252
916.82	15275
916.932	15279
917.044	15226
917.156	15180
917.268	15058
917.38	15123
917.491	14971
917.603	15058
917.715	15195
917.826	15203
917.938	15070
918.049	14906
918.161	15077
918.272	15055
918.384	15127
918.495	15024
918.606	14960
918.717	14727
918.828	14857
918.939	14937
919.05	14697
919.161	14785
919.272	14648
919.383	14632
919.494	14796
919.604	14941
919.715	14781
919.826	14746
919.936	14746
920.047	14925
920.157	14807
920.267	14883
920.378	14735
920.488	14720
920.598	15047
920.708	15043
920.818	14975
920.928	14880
921.038	15116
921.148	15020
921.258	14682
921.368	14640
921.477	14560
921.587	14514
921.697	14438
921.806	14507
921.916	14358
922.025	14366
922.134	14206
922.244	14138
922.353	14214
922.462	14005
922.571	14035
922.68	13852
922.789	13738
922.898	13795
923.007	13742
923.116	13769
923.224	13757
923.333	13833
923.442	13601
923.55	13537
923.659	13624
923.767	13776
923.876	13636
923.984	13616
924.092	13472
924.201	13571
924.309	13559
924.417	13582
924.525	13434
924.633	13377
924.741	14423
924.849	13225
924.956	13384
925.064	13312
925.172	13126
925.279	13084
925.387	13297
925.494	13270
925.602	13324
925.709	13247
925.816	13050
925.924	13084
926.031	13247
926.138	13149
926.245	13190
926.352	13057
926.459	13179
926.566	13221
926.673	13080
926.779	12970
926.886	12890
926.993	12837
927.099	12837
927.206	12673
927.312	12768
927.419	12863
927.525	12768
927.631	12810
927.737	12642
927.843	12612
927.95	12563
928.056	12544
928.162	12627
928.267	12593
928.373	13145
928.479	12623
928.585	12342
928.69	12540
928.796	12521
928.901	12513
929.007	12247
929.112	12369
929.218	12327
929.323	12346
929.428	12247
929.533	12384
929.638	12201
929.743	12247
929.848	12243
929.953	12251
930.058	12167
930.163	11988
930.267	11969
930.372	12114
930.477	11969
930.581	12148
930.685	12038
930.79	11874
930.894	11866
930.998	11817
931.103	11965
931.207	11630
931.311	11490
931.415	11402
931.519	11318
931.623	11250
