Data from test_V78500241_2481.txt Node
Date: Fri Mar 25 15:27:08 CST 2022
User: usil
Spectrometer: V785-0024
Trigger mode: 0
Integration Time (sec): 4.000000E-1
Scans to average: 1
Nonlinearity correction enabled: false
Boxcar width: 0
Storing dark spectrum: false
XAxis mode: Wavelengths
Number of Pixels in Spectrum: 1024
>>>>>Begin Spectral Data<<<<<
801.071	27180
801.214	27154
801.356	27005
801.499	26883
801.641	26693
801.783	26640
801.926	26811
802.068	26754
802.211	26686
802.353	26625
802.496	26431
802.638	26393
802.78	26324
802.923	26225
803.065	26092
803.208	26210
803.35	26240
803.492	26499
803.635	26484
803.777	26442
803.919	26583
804.061	26819
804.204	26587
804.346	26400
804.488	26438
804.63	26286
804.773	26374
804.915	26613
805.057	26545
805.199	26393
805.341	26598
805.483	26667
805.626	26476
805.768	26583
805.91	26587
806.052	26640
806.194	26575
806.336	26712
806.478	26731
806.62	26659
806.762	26693
806.904	26826
807.046	27116
807.188	26823
807.33	26910
807.472	27081
807.614	26883
807.756	27001
807.898	26876
808.04	26659
808.182	26689
808.324	26857
808.465	26880
808.607	27157
808.749	27180
808.891	27245
809.033	27359
809.174	27275
809.316	27085
809.458	27241
809.6	27230
809.741	27142
809.883	27408
810.025	27492
810.166	27492
810.308	27523
810.45	27466
810.591	27298
810.733	27138
810.875	27233
811.016	27138
811.158	27180
811.299	27256
811.441	27523
811.582	27397
811.724	27291
811.865	27043
812.007	27051
812.148	27116
812.29	27260
812.431	27401
812.573	27424
812.714	27614
812.855	27679
812.997	27705
813.138	27941
813.279	27606
813.421	27724
813.562	27564
813.703	27515
813.845	27420
813.986	27184
814.127	26902
814.268	26899
814.41	26891
814.551	26876
814.692	26956
814.833	26785
814.974	26754
815.115	26842
815.256	26648
815.397	26678
815.539	26743
815.68	26762
815.821	26514
815.962	26682
816.103	26549
816.244	26545
816.385	26377
816.526	26480
816.666	26336
816.807	26157
816.948	26164
817.089	26164
817.23	26134
817.371	26218
817.512	26191
817.653	26073
817.793	26119
817.934	26221
818.075	26119
818.216	26081
818.356	26157
818.497	25963
818.638	25799
818.778	25791
818.919	25902
819.06	26062
819.2	25966
819.341	26077
819.481	26069
819.622	26278
819.762	26473
819.903	26366
820.043	26393
820.184	26336
820.324	26164
820.465	26336
820.605	26191
820.746	26142
820.886	26149
821.026	26263
821.167	26107
821.307	26195
821.447	26134
821.588	26065
821.728	26050
821.868	25765
822.008	25518
822.149	25670
822.289	25613
822.429	25392
822.569	25255
822.709	25304
822.849	25209
822.99	25236
823.13	25034
823.27	25012
823.41	25084
823.55	24916
823.69	24928
823.83	24909
823.97	24878
824.11	24646
824.25	24661
824.389	24719
824.529	24829
824.669	24749
824.809	24833
824.949	24669
825.089	24825
825.228	24939
825.368	24593
825.508	24517
825.648	24681
825.787	24623
825.927	24661
826.067	24585
826.206	24654
826.346	24681
826.485	24764
826.625	24555
826.765	24852
826.904	24635
827.044	24471
827.183	24330
827.323	24308
827.462	24399
827.601	24300
827.741	24327
827.88	24433
828.02	24209
828.159	24315
828.298	24285
828.437	24273
828.577	24270
828.716	24410
828.855	24277
828.994	24007
829.134	23950
829.273	24030
829.412	23946
829.551	24045
829.69	23992
829.829	24045
829.968	24190
830.107	24121
830.246	24076
830.385	23874
830.524	24026
830.663	23809
830.802	23733
830.941	23718
831.08	23665
831.219	23672
831.357	23771
831.496	23920
831.635	23649
831.774	23497
831.913	23482
832.051	23444
832.19	23387
832.329	23433
832.467	23368
832.606	23254
832.744	23334
832.883	23296
833.022	23402
833.16	23368
833.299	23368
833.437	23307
833.576	23334
833.714	23391
833.852	23417
833.991	23387
834.129	23421
834.267	23535
834.406	23524
834.544	23478
834.682	23398
834.821	23280
834.959	23570
835.097	23391
835.235	23383
835.373	23395
835.511	23288
835.65	23200
835.788	23193
835.926	23189
836.064	23056
836.202	23086
836.34	23337
836.478	23258
836.615	23242
836.753	23296
836.891	23315
837.029	23170
837.167	23086
837.305	23056
837.443	23025
837.58	23140
837.718	23086
837.856	23140
837.993	23090
838.131	23083
838.269	22961
838.406	22995
838.544	22957
838.681	22843
838.819	22698
838.956	22580
839.094	22615
839.231	22641
839.369	22774
839.506	22862
839.643	22835
839.781	22721
839.918	22523
840.055	22561
840.193	22577
840.33	22478
840.467	22557
840.604	22565
840.742	22877
840.879	22500
841.016	22618
841.153	22421
841.29	22634
841.427	22550
841.564	22592
841.701	22443
841.838	22512
841.975	22390
842.112	22500
842.249	22421
842.385	22344
842.522	22649
842.659	22440
842.796	22322
842.933	22265
843.069	22204
843.206	22215
843.343	22234
843.479	22162
843.616	22325
843.752	22101
843.889	22109
844.025	22135
844.162	22063
844.298	22078
844.435	21979
844.571	21987
844.708	22101
844.844	22230
844.98	22181
845.117	22116
845.253	21975
845.389	21873
845.525	22010
845.661	21949
845.798	21907
845.934	21953
846.07	21739
846.206	21705
846.342	21888
846.478	21797
846.614	21545
846.75	21515
846.886	21580
847.022	21576
847.158	21367
847.294	21618
847.429	21629
847.565	21462
847.701	21800
847.837	21245
847.972	21237
848.108	21340
848.244	21321
848.379	21230
848.515	21055
848.65	21055
848.786	21085
848.921	21112
849.057	21218
849.192	21169
849.328	21157
849.463	21043
849.598	21081
849.734	21013
849.869	20952
850.004	20861
850.14	20960
850.275	20910
850.41	20849
850.545	20796
850.68	20815
850.815	20853
850.95	20845
851.085	21077
851.22	20914
851.355	20910
851.49	20902
851.625	20921
851.76	20864
851.895	20914
852.03	20804
852.165	20952
852.299	20967
852.434	21009
852.569	21005
852.703	20842
852.838	20967
852.973	21032
853.107	20883
853.242	20842
853.376	20689
853.511	20712
853.645	20632
853.78	20724
853.914	20712
854.048	20648
854.183	20644
854.317	20659
854.451	20750
854.585	20663
854.72	20670
854.854	20785
854.988	20609
855.122	20670
855.256	20571
855.39	20613
855.524	20849
855.658	20834
855.792	20686
855.926	20754
856.06	20640
856.194	20861
856.327	20636
856.461	20648
856.595	20636
856.729	20701
856.862	20845
856.996	20853
857.13	20792
857.263	20883
857.397	20788
857.53	20689
857.664	20811
857.797	20705
857.931	20807
858.064	20632
858.197	20693
858.331	20792
858.464	20632
858.597	20541
858.731	20556
858.864	20682
858.997	20720
859.13	20667
859.263	20708
859.396	20800
859.529	20716
859.662	20629
859.795	20659
859.928	20724
860.061	20883
860.194	20941
860.327	20720
860.46	20788
860.592	20762
860.725	20895
860.858	20773
860.99	20750
861.123	20522
861.256	20648
861.388	20735
861.521	21294
861.653	20602
861.786	20499
861.918	20434
862.05	20518
862.183	20640
862.315	20682
862.447	20686
862.58	20686
862.712	20480
862.844	20473
862.976	20484
863.108	20389
863.24	20948
863.372	20362
863.504	20358
863.636	20469
863.768	20632
863.9	20511
864.032	20336
864.164	20454
864.296	20488
864.428	20629
864.559	20530
864.691	20518
864.823	20602
864.954	20556
865.086	20320
865.217	20317
865.349	20278
865.48	20355
865.612	20374
865.743	20400
865.875	20393
866.006	20317
866.137	20393
866.269	20328
866.4	20259
866.531	20263
866.662	20161
866.793	20244
866.924	20267
867.055	20240
867.186	20275
867.317	20396
867.448	20183
867.579	20145
867.71	20164
867.841	20206
867.972	20271
868.103	20381
868.233	20377
868.364	20336
868.495	20339
868.625	20568
868.756	20579
868.886	20427
869.017	20518
869.147	20632
869.278	20667
869.408	20621
869.539	20408
869.669	20659
869.799	20446
869.929	20613
870.06	20651
870.19	20842
870.32	20800
870.45	20899
870.58	20982
870.71	20986
870.84	21001
870.97	20781
871.1	20921
871.23	20990
871.36	21112
871.489	21005
871.619	21077
871.749	21039
871.879	21116
872.008	21192
872.138	21100
872.267	21066
872.397	20910
872.526	20883
872.656	20990
872.785	21032
872.915	21131
873.044	21188
873.173	21180
873.303	21116
873.432	21192
873.561	21207
873.69	21127
873.819	21188
873.948	21298
874.077	21058
874.206	21077
874.335	21188
874.464	21192
874.593	21435
874.722	21252
874.851	21424
874.979	21492
875.108	21439
875.237	21340
875.365	21249
875.494	21329
875.623	21344
875.751	21249
875.88	21477
876.008	21439
876.136	21622
876.265	21755
876.393	21823
876.521	21869
876.65	21816
876.778	21808
876.906	21625
877.034	21595
877.162	21644
877.29	21686
877.418	21690
877.546	21686
877.674	21682
877.802	21606
877.93	21682
878.058	21622
878.185	21606
878.313	21641
878.441	21641
878.568	21595
878.696	21587
878.824	21739
878.951	21751
879.079	21865
879.206	21953
879.333	21755
879.461	21869
879.588	21759
879.715	21857
879.842	21964
879.97	21850
880.097	21572
880.224	21507
880.351	21492
880.478	21542
880.605	21568
880.732	21500
880.859	21838
880.986	21591
881.112	21553
881.239	21420
881.366	21363
881.493	21214
881.619	21112
881.746	21100
881.872	21093
881.999	21043
882.125	21157
882.252	21180
882.378	21135
882.505	21165
882.631	20944
882.757	20937
882.883	20979
883.01	20864
883.136	20735
883.262	20727
883.388	20754
883.514	20743
883.64	20845
883.766	20777
883.892	20629
884.018	20640
884.143	20800
884.269	20906
884.395	20575
884.52	20412
884.646	20556
884.772	20431
884.897	20313
885.023	20492
885.148	20609
885.274	20613
885.399	20423
885.524	20499
885.65	20511
885.775	20609
885.9	20530
886.025	20583
886.15	20518
886.275	20457
886.4	20473
886.525	20396
886.65	20469
886.775	20366
886.9	20708
887.025	20727
887.149	20492
887.274	20172
887.399	20317
887.523	20172
887.648	20263
887.773	20206
887.897	20347
888.021	20252
888.146	20202
888.27	20446
888.395	20377
888.519	20218
888.643	20221
888.767	20294
888.891	20244
889.015	20073
889.139	20176
889.263	20088
889.387	20153
889.511	20195
889.635	20172
889.759	20096
889.883	19974
890.006	20027
890.13	20195
890.254	19868
890.377	19902
890.501	19849
890.624	19731
890.748	19837
890.871	19670
890.995	19689
891.118	19670
891.241	19571
891.364	19723
891.488	19795
891.611	19624
891.734	19666
891.857	19685
891.98	19502
892.103	19635
892.226	19666
892.349	19575
892.471	19434
892.594	19620
892.717	19700
892.839	19487
892.962	19605
893.085	19510
893.207	19491
893.33	19529
893.452	19525
893.575	19441
893.697	19491
893.819	19750
893.941	19845
894.064	19635
894.186	19548
894.308	19540
894.43	19670
894.552	19708
894.674	19647
894.796	19480
894.918	19540
895.04	19415
895.161	19590
895.283	19628
895.405	19502
895.526	19567
895.648	19559
895.769	19586
895.891	19537
896.012	19571
896.134	19563
896.255	19605
896.376	19506
896.498	19620
896.619	19651
896.74	19460
896.861	19811
896.982	19837
897.103	20065
897.224	19898
897.345	19696
897.466	19658
897.587	19875
897.708	19890
897.828	19951
897.949	19651
898.07	19635
898.19	19734
898.311	19772
898.431	19746
898.552	19799
898.672	19833
898.792	19719
898.913	19742
899.033	19746
899.153	19677
899.273	19559
899.393	19544
899.513	19582
899.633	19514
899.753	19487
899.873	19491
899.993	19441
900.113	19529
900.232	19419
900.352	19430
900.472	19308
900.591	19373
900.711	19343
900.83	19365
900.95	19403
901.069	19411
901.189	19324
901.308	19031
901.427	18913
901.546	18916
901.665	19000
901.784	18916
901.904	18783
902.023	18779
902.141	18593
902.26	18475
902.379	18513
902.498	18483
902.617	18418
902.735	18502
902.854	18334
902.973	18365
903.091	18091
903.21	17980
903.328	18041
903.446	18087
903.565	17863
903.683	18007
903.801	17855
903.919	17790
904.038	17942
904.156	17638
904.274	17775
904.392	17710
904.51	17764
904.627	17722
904.745	17668
904.863	17691
904.981	17539
905.098	17402
905.216	17410
905.334	17505
905.451	17360
905.569	17322
905.686	17433
905.803	17330
905.921	17197
906.038	17246
906.155	17071
906.272	17071
906.389	17124
906.506	16961
906.623	16987
906.74	16877
906.857	16774
906.974	16752
907.091	17083
907.208	17003
907.324	16934
907.441	16862
907.557	16679
907.674	16675
907.79	16535
907.907	16603
908.023	16630
908.139	16660
908.256	16713
908.372	16561
908.488	16421
908.604	16382
908.72	16306
908.836	16523
908.952	16306
909.068	16314
909.184	16424
909.3	16268
909.415	16432
909.531	16447
909.647	16124
909.762	16025
909.878	16105
909.993	16086
910.108	16013
910.224	15987
910.339	16029
910.454	15876
910.57	15835
910.685	15694
910.8	16055
910.915	16124
911.03	15793
911.145	15774
911.259	15713
911.374	15652
911.489	15511
911.604	15500
911.718	15382
911.833	15450
911.947	15332
912.062	15439
912.176	15564
912.291	15584
912.405	15462
912.519	15656
912.633	15690
912.748	15405
912.862	15473
912.976	15222
913.09	15154
913.204	15252
913.318	15264
913.431	15344
913.545	15222
913.659	15374
913.772	15218
913.886	15085
914	14990
914.113	15062
914.226	15116
914.34	15138
914.453	14944
914.566	15051
914.68	14952
914.793	14937
914.906	14758
915.019	14712
915.132	14594
915.245	14727
915.358	14667
915.47	14640
915.583	14796
915.696	14575
915.809	14708
915.921	14746
916.034	14667
916.146	14587
916.259	14492
916.371	14727
916.483	14610
916.595	14514
916.708	14522
916.82	14473
916.932	14431
917.044	14518
917.156	14370
917.268	14347
917.38	14495
917.491	14381
917.603	14355
917.715	14362
917.826	14469
917.938	14248
918.049	14199
918.161	14282
918.272	14457
918.384	14457
918.495	14282
918.606	14195
918.717	14187
918.828	14130
918.939	14134
919.05	14073
919.161	14077
919.272	13917
919.383	13894
919.494	14081
919.604	14290
919.715	14092
919.826	14012
919.936	14062
920.047	14100
920.157	14088
920.267	14320
920.378	14046
920.488	13928
920.598	14240
920.708	14358
920.818	14252
920.928	14282
921.038	14290
921.148	14362
921.258	13959
921.368	13944
921.477	13841
921.587	13742
921.697	13677
921.806	13868
921.916	13704
922.025	13514
922.134	13567
922.244	13453
922.353	13556
922.462	13373
922.571	13316
922.68	13175
922.789	13221
922.898	13133
923.007	13095
923.116	13160
923.224	13027
923.333	13164
923.442	12951
923.55	12935
923.659	13046
923.767	13012
923.876	12954
923.984	12909
924.092	12897
924.201	12947
924.309	12856
924.417	12867
924.525	12844
924.633	12810
924.741	13811
924.849	12601
924.956	12658
925.064	12711
925.172	12483
925.279	12486
925.387	12513
925.494	12521
925.602	12665
925.709	12658
925.816	12536
925.924	12563
926.031	12608
926.138	12513
926.245	12563
926.352	12467
926.459	12540
926.566	12513
926.673	12452
926.779	12292
926.886	12315
926.993	12129
927.099	12182
927.206	12114
927.312	11996
927.419	12178
927.525	12144
927.631	12182
927.737	12045
927.843	11973
927.95	11889
928.056	11855
928.162	12003
928.267	12057
928.373	12593
928.479	11992
928.585	11828
928.69	11927
928.796	11897
928.901	11824
929.007	11668
929.112	11851
929.218	11885
929.323	11729
929.428	11691
929.533	11863
929.638	11672
929.743	11665
929.848	11642
929.953	11577
930.058	11554
930.163	11395
930.267	11379
930.372	11573
930.477	11349
930.581	11585
930.685	11425
930.79	11303
930.894	11364
930.998	11261
931.103	11436
931.207	11071
931.311	10927
931.415	10885
931.519	10687
931.623	10687
