Data from test_V78500241_2466.txt Node
Date: Fri Mar 25 15:27:01 CST 2022
User: usil
Spectrometer: V785-0024
Trigger mode: 0
Integration Time (sec): 4.000000E-1
Scans to average: 1
Nonlinearity correction enabled: false
Boxcar width: 0
Storing dark spectrum: false
XAxis mode: Wavelengths
Number of Pixels in Spectrum: 1024
>>>>>Begin Spectral Data<<<<<
801.071	27028
801.214	27077
801.356	26743
801.499	26552
801.641	26488
801.783	26423
801.926	26609
802.068	26389
802.211	26450
802.353	26286
802.496	26244
802.638	26077
802.78	26126
802.923	26073
803.065	26092
803.208	26012
803.35	26126
803.492	26225
803.635	26225
803.777	26290
803.919	26244
804.061	26670
804.204	26252
804.346	26096
804.488	26084
804.63	26233
804.773	26134
804.915	26290
805.057	26263
805.199	26301
805.341	26286
805.483	26317
805.626	26355
805.768	26244
805.91	26385
806.052	26393
806.194	26317
806.336	26571
806.478	26366
806.62	26282
806.762	26526
806.904	26473
807.046	26899
807.188	26769
807.33	26811
807.472	26800
807.614	26659
807.756	26712
807.898	26617
808.04	26552
808.182	26659
808.324	26602
808.465	26522
808.607	26868
808.749	26823
808.891	26986
809.033	27017
809.174	27024
809.316	26979
809.458	26960
809.6	26815
809.741	27028
809.883	27116
810.025	27275
810.166	27252
810.308	27252
810.45	27024
810.591	27135
810.733	26998
810.875	26895
811.016	26868
811.158	26902
811.299	27119
811.441	27192
811.582	27233
811.724	26910
811.865	26914
812.007	26887
812.148	26918
812.29	26940
812.431	26982
812.573	27230
812.714	27279
812.855	27393
812.997	27481
813.138	27591
813.279	27511
813.421	27336
813.562	27313
813.703	27176
813.845	26963
813.986	26750
814.127	26739
814.268	26446
814.41	26492
814.551	26465
814.692	26526
814.833	26473
814.974	26629
815.115	26568
815.256	26374
815.397	26427
815.539	26366
815.68	26518
815.821	26225
815.962	26351
816.103	26355
816.244	26161
816.385	26035
816.526	26100
816.666	25944
816.807	25814
816.948	25928
817.089	25890
817.23	25947
817.371	25814
817.512	25906
817.653	25753
817.793	25655
817.934	25837
818.075	25864
818.216	25788
818.356	25757
818.497	25727
818.638	25483
818.778	25639
818.919	25693
819.06	25681
819.2	25681
819.341	25784
819.481	25894
819.622	25913
819.762	26046
819.903	26016
820.043	26054
820.184	26024
820.324	25833
820.465	25997
820.605	25940
820.746	25940
820.886	25913
821.026	25951
821.167	25883
821.307	25913
821.447	25852
821.588	25746
821.728	25590
821.868	25445
822.008	25232
822.149	25369
822.289	25213
822.429	24981
822.569	25000
822.709	24935
822.849	24749
822.99	24932
823.13	24863
823.27	24700
823.41	24757
823.55	24490
823.69	24608
823.83	24490
823.97	24620
824.11	24308
824.25	24330
824.389	24563
824.529	24525
824.669	24467
824.809	24505
824.949	24486
825.089	24498
825.228	24467
825.368	24300
825.508	24277
825.648	24311
825.787	24380
825.927	24342
826.067	24304
826.206	24372
826.346	24517
826.485	24388
826.625	24429
826.765	24399
826.904	24315
827.044	23923
827.183	24038
827.323	23977
827.462	24083
827.601	24041
827.741	24076
827.88	23931
828.02	23923
828.159	23973
828.298	24049
828.437	24121
828.577	23901
828.716	24091
828.855	23767
828.994	23665
829.134	23684
829.273	23771
829.412	23699
829.551	23573
829.69	23737
829.829	23741
829.968	23741
830.107	23691
830.246	23764
830.385	23573
830.524	23585
830.663	23501
830.802	23509
830.941	23463
831.08	23315
831.219	23341
831.357	23528
831.496	23539
831.635	23383
831.774	23303
831.913	23181
832.051	23113
832.19	23025
832.329	23094
832.467	23003
832.606	23018
832.744	22968
832.883	23083
833.022	22828
833.16	22991
833.299	23064
833.437	23090
833.576	23128
833.714	23075
833.852	23037
833.991	23174
834.129	23155
834.267	23227
834.406	22927
834.544	23056
834.682	23064
834.821	23159
834.959	23200
835.097	23056
835.235	23037
835.373	23067
835.511	22995
835.65	22965
835.788	22946
835.926	22824
836.064	22759
836.202	22873
836.34	22839
836.478	23098
836.615	22919
836.753	22908
836.891	22946
837.029	23075
837.167	22733
837.305	22767
837.443	22934
837.58	22717
837.718	23018
837.856	22729
837.993	22763
838.131	22790
838.269	22580
838.406	22755
838.544	22588
838.681	22481
838.819	22417
838.956	22177
839.094	22215
839.231	22219
839.369	22432
839.506	22683
839.643	22352
839.781	22310
839.918	22223
840.055	22318
840.193	22204
840.33	22257
840.467	22272
840.604	22310
840.742	22512
840.879	22051
841.016	22295
841.153	22036
841.29	22211
841.427	22112
841.564	22272
841.701	22093
841.838	22105
841.975	22101
842.112	22188
842.249	22116
842.385	22036
842.522	22318
842.659	22040
842.796	21918
842.933	22013
843.069	21960
843.206	21937
843.343	21968
843.479	21949
843.616	21930
843.752	21709
843.889	21739
844.025	22032
844.162	21660
844.298	21812
844.435	21679
844.571	21583
844.708	21694
844.844	21987
844.98	21838
845.117	21808
845.253	21542
845.389	21595
845.525	21679
845.661	21633
845.798	21511
845.934	21431
846.07	21561
846.206	21386
846.342	21660
846.478	21344
846.614	21363
846.75	21211
846.886	21184
847.022	21256
847.158	21199
847.294	21348
847.429	21302
847.565	21100
847.701	21363
847.837	20921
847.972	20899
848.108	20971
848.244	21001
848.379	20746
848.515	20735
848.65	20773
848.786	20785
848.921	20887
849.057	20823
849.192	20902
849.328	20872
849.463	20754
849.598	20640
849.734	20655
849.869	20632
850.004	20552
850.14	20564
850.275	20476
850.41	20518
850.545	20503
850.68	20503
850.815	20541
850.95	20575
851.085	20800
851.22	20670
851.355	20537
851.49	20533
851.625	20552
851.76	20678
851.895	20514
852.03	20434
852.165	20609
852.299	20541
852.434	20549
852.569	20541
852.703	20511
852.838	20640
852.973	20743
853.107	20621
853.242	20514
853.376	20336
853.511	20275
853.645	20328
853.78	20514
853.914	20377
854.048	20332
854.183	20343
854.317	20446
854.451	20556
854.585	20393
854.72	20290
854.854	20609
854.988	20320
855.122	20377
855.256	20286
855.39	20305
855.524	20507
855.658	20419
855.792	20507
855.926	20465
856.06	20355
856.194	20465
856.327	20294
856.461	20324
856.595	20237
856.729	20355
856.862	20503
856.996	20419
857.13	20465
857.263	20423
857.397	20431
857.53	20454
857.664	20450
857.797	20507
857.931	20499
858.064	20461
858.197	20476
858.331	20469
858.464	20294
858.597	20233
858.731	20396
858.864	20343
858.997	20199
859.13	20393
859.263	20358
859.396	20488
859.529	20400
859.662	20267
859.795	20240
859.928	20282
860.061	20476
860.194	20583
860.327	20495
860.46	20438
860.592	20530
860.725	20438
860.858	20484
860.99	20267
861.123	20438
861.256	20374
861.388	20309
861.521	20998
861.653	20218
861.786	20134
861.918	20275
862.05	20301
862.183	20267
862.315	20396
862.447	20278
862.58	20317
862.712	20077
862.844	19982
862.976	20180
863.108	20210
863.24	20541
863.372	19963
863.504	20016
863.636	20077
863.768	20119
863.9	20058
864.032	20012
864.164	20008
864.296	20206
864.428	20180
864.559	20168
864.691	20088
864.823	20229
864.954	20065
865.086	20134
865.217	20119
865.349	19852
865.48	19932
865.612	20008
865.743	20149
865.875	20096
866.006	19936
866.137	20012
866.269	20008
866.4	20020
866.531	19928
866.662	20024
866.793	20046
866.924	20073
867.055	19921
867.186	19978
867.317	19845
867.448	19887
867.579	19913
867.71	19868
867.841	19883
867.972	19993
868.103	19959
868.233	19970
868.364	19833
868.495	20005
868.625	20202
868.756	20256
868.886	20134
869.017	20142
869.147	20244
869.278	20206
869.408	20240
869.539	20214
869.669	20328
869.799	20237
869.929	20275
870.06	20298
870.19	20434
870.32	20590
870.45	20495
870.58	20606
870.71	20724
870.84	20853
870.97	20632
871.1	20556
871.23	20682
871.36	20826
871.489	20686
871.619	20686
871.749	20758
871.879	20826
872.008	20902
872.138	20769
872.267	20800
872.397	20708
872.526	20659
872.656	20579
872.785	20575
872.915	20807
873.044	20982
873.173	20800
873.303	20838
873.432	20819
873.561	20971
873.69	20933
873.819	20883
873.948	20826
874.077	20777
874.206	20796
874.335	20807
874.464	20994
874.593	21089
874.722	21093
874.851	21051
874.979	21077
875.108	21070
875.237	20967
875.365	20967
875.494	20899
875.623	21203
875.751	21017
875.88	21165
876.008	21218
876.136	21249
876.265	21382
876.393	21591
876.521	21515
876.65	21405
876.778	21424
876.906	21405
877.034	21443
877.162	21633
877.29	21450
877.418	21405
877.546	21481
877.674	21386
877.802	21374
877.93	21492
878.058	21306
878.185	21275
878.313	21424
878.441	21473
878.568	21180
878.696	21268
878.824	21405
878.951	21492
879.079	21610
879.206	21838
879.333	21568
879.461	21511
879.588	21595
879.715	21618
879.842	21774
879.97	21428
880.097	21329
880.224	21359
880.351	21367
880.478	21195
880.605	21207
880.732	21268
880.859	21523
880.986	21199
881.112	21226
881.239	21188
881.366	20910
881.493	20921
881.619	20667
881.746	20963
881.872	20830
881.999	20815
882.125	20727
882.252	20979
882.378	20746
882.505	20914
882.631	20609
882.757	20533
882.883	20530
883.01	20476
883.136	20473
883.262	20450
883.388	20393
883.514	20571
883.64	20602
883.766	20552
883.892	20294
884.018	20282
884.143	20499
884.269	20587
884.395	20313
884.52	20282
884.646	20267
884.772	20191
884.897	20084
885.023	20210
885.148	20339
885.274	20385
885.399	20286
885.524	20229
885.65	20138
885.775	20218
885.9	20172
886.025	20248
886.15	20202
886.275	20157
886.4	20134
886.525	20225
886.65	20092
886.775	19909
886.9	20294
887.025	20351
887.149	20157
887.274	19947
887.399	20031
887.523	19902
887.648	19940
887.773	19913
887.897	19993
888.021	20069
888.146	19921
888.27	20100
888.395	20050
888.519	20069
888.643	19955
888.767	20005
888.891	20012
889.015	19860
889.139	19772
889.263	19662
889.387	19818
889.511	20008
889.635	19856
889.759	19807
889.883	19776
890.006	19849
890.13	19864
890.254	19696
890.377	19674
890.501	19563
890.624	19521
890.748	19533
890.871	19468
890.995	19339
891.118	19312
891.241	19419
891.364	19388
891.488	19396
891.611	19346
891.734	19422
891.857	19346
891.98	19449
892.103	19293
892.226	19400
892.349	19202
892.471	19202
892.594	19335
892.717	19312
892.839	19148
892.962	19282
893.085	19217
893.207	19270
893.33	19175
893.452	19274
893.575	19251
893.697	19293
893.819	19419
893.941	19403
894.064	19453
894.186	19175
894.308	19213
894.43	19468
894.552	19495
894.674	19377
894.796	19080
894.918	19312
895.04	19187
895.161	19411
895.283	19297
895.405	19304
895.526	19255
895.648	19339
895.769	19430
895.891	19285
896.012	19449
896.134	19255
896.255	19316
896.376	19339
896.498	19304
896.619	19335
896.74	19244
896.861	19415
896.982	19647
897.103	19712
897.224	19594
897.345	19537
897.466	19472
897.587	19495
897.708	19624
897.828	19594
897.949	19445
898.07	19339
898.19	19426
898.311	19594
898.431	19540
898.552	19556
898.672	19495
898.792	19567
898.913	19464
899.033	19556
899.153	19343
899.273	19285
899.393	19278
899.513	19369
899.633	19289
899.753	19263
899.873	19259
899.993	19266
900.113	19240
900.232	19312
900.352	19202
900.472	19084
900.591	18935
900.711	19107
900.83	19015
900.95	19129
901.069	19152
901.189	18954
901.308	18688
901.427	18589
901.546	18646
901.665	18547
901.784	18688
901.904	18525
902.023	18403
902.141	18270
902.26	18273
902.379	18277
902.498	18186
902.617	18098
902.735	18300
902.854	18167
902.973	18136
903.091	17767
903.21	17874
903.328	17935
903.446	17729
903.565	17619
903.683	17638
903.801	17577
903.919	17608
904.038	17619
904.156	17512
904.274	17505
904.392	17459
904.51	17364
904.627	17356
904.745	17501
904.863	17554
904.981	17269
905.098	17090
905.216	17280
905.334	17239
905.451	17220
905.569	17208
905.686	17102
905.803	17193
905.921	17003
906.038	17147
906.155	16961
906.272	16790
906.389	16824
906.506	16694
906.623	16656
906.74	16618
906.857	16668
906.974	16618
907.091	16805
907.208	16797
907.324	16835
907.441	16622
907.557	16432
907.674	16352
907.79	16405
907.907	16436
908.023	16363
908.139	16432
908.256	16379
908.372	16314
908.488	16253
908.604	16219
908.72	16150
908.836	16177
908.952	16166
909.068	16048
909.184	16135
909.3	16154
909.415	16207
909.531	16120
909.647	15991
909.762	15766
909.878	15747
909.993	15781
910.108	15827
910.224	15797
910.339	15846
910.454	15667
910.57	15610
910.685	15755
910.8	15800
910.915	15873
911.03	15644
911.145	15557
911.259	15454
911.374	15439
911.489	15435
911.604	15298
911.718	15180
911.833	15218
911.947	15245
912.062	15165
912.176	15340
912.291	15435
912.405	15325
912.519	15542
912.633	15462
912.748	15291
912.862	15146
912.976	15066
913.09	14830
913.204	14952
913.318	15127
913.431	15157
913.545	14975
913.659	15123
913.772	14971
913.886	14876
914	14720
914.113	14944
914.226	14883
914.34	14899
914.453	14678
914.566	14876
914.68	14731
914.793	14708
914.906	14537
915.019	14598
915.132	14450
915.245	14503
915.358	14450
915.47	14355
915.583	14568
915.696	14511
915.809	14613
915.921	14575
916.034	14423
916.146	14389
916.259	14377
916.371	14400
916.483	14393
916.595	14278
916.708	14317
916.82	14343
916.932	14202
917.044	14396
917.156	14244
917.268	14065
917.38	14202
917.491	14195
917.603	14164
917.715	14210
917.826	14214
917.938	14016
918.049	13978
918.161	14138
918.272	14225
918.384	14195
918.495	13989
918.606	13951
918.717	13852
918.828	14035
918.939	13993
919.05	13894
919.161	13879
919.272	13674
919.383	13727
919.494	13955
919.604	14020
919.715	14024
919.826	13791
919.936	13947
920.047	13936
920.157	13921
920.267	14126
920.378	13940
920.488	13967
920.598	13947
920.708	14176
920.818	14039
920.928	14008
921.038	14210
921.148	14138
921.258	13814
921.368	13719
921.477	13719
921.587	13632
921.697	13578
921.806	13662
921.916	13487
922.025	13331
922.134	13228
922.244	13266
922.353	13327
922.462	13285
922.571	13008
922.68	12981
922.789	12882
922.898	12901
923.007	12966
923.116	12958
923.224	12909
923.333	12890
923.442	12840
923.55	12795
923.659	12825
923.767	12783
923.876	12646
923.984	12817
924.092	12585
924.201	12707
924.309	12749
924.417	12715
924.525	12658
924.633	12662
924.741	13655
924.849	12391
924.956	12604
925.064	12490
925.172	12346
925.279	12372
925.387	12380
925.494	12266
925.602	12570
925.709	12441
925.816	12342
925.924	12353
926.031	12426
926.138	12292
926.245	12372
926.352	12254
926.459	12372
926.566	12376
926.673	12300
926.779	12129
926.886	12140
926.993	12003
927.099	11958
927.206	11863
927.312	11977
927.419	11946
927.525	11992
927.631	12022
927.737	11923
927.843	11847
927.95	11786
928.056	11802
928.162	11809
928.267	11851
928.373	12429
928.479	11939
928.585	11634
928.69	11722
928.796	11783
928.901	11741
929.007	11589
929.112	11665
929.218	11642
929.323	11615
929.428	11573
929.533	11653
929.638	11486
929.743	11478
929.848	11604
929.953	11414
930.058	11478
930.163	11296
930.267	11231
930.372	11334
930.477	11242
930.581	11429
930.685	11288
930.79	11113
930.894	11208
930.998	11064
931.103	11296
931.207	10934
931.311	10877
931.415	10694
931.519	10527
931.623	10554
