Data from test_V78500241_123.txt Node
Date: Fri Mar 25 15:10:43 CST 2022
User: usil
Spectrometer: V785-0024
Trigger mode: 0
Integration Time (sec): 4.000000E-1
Scans to average: 1
Nonlinearity correction enabled: false
Boxcar width: 0
Storing dark spectrum: false
XAxis mode: Wavelengths
Number of Pixels in Spectrum: 1024
>>>>>Begin Spectral Data<<<<<
801.071	28169
801.214	28177
801.356	27808
801.499	27953
801.641	27603
801.783	27625
801.926	27739
802.068	27568
802.211	27633
802.353	27652
802.496	27329
802.638	27313
802.78	27344
802.923	27245
803.065	27226
803.208	27138
803.35	27233
803.492	27321
803.635	27500
803.777	27154
803.919	27351
804.061	27789
804.204	27447
804.346	27313
804.488	27302
804.63	27192
804.773	27169
804.915	27245
805.057	27340
805.199	27268
805.341	27447
805.483	27336
805.626	27466
805.768	27279
805.91	27367
806.052	27389
806.194	27355
806.336	27595
806.478	27469
806.62	27393
806.762	27416
806.904	27587
807.046	27911
807.188	27835
807.33	27857
807.472	27781
807.614	27603
807.756	27606
807.898	27568
808.04	27523
808.182	27652
808.324	27519
808.465	27614
808.607	27660
808.749	27922
808.891	28044
809.033	28013
809.174	27937
809.316	27800
809.458	27892
809.6	27914
809.741	27956
809.883	28002
810.025	28173
810.166	28158
810.308	28207
810.45	28017
810.591	28070
810.733	27831
810.875	27838
811.016	27770
811.158	27637
811.299	27838
811.441	27930
811.582	27888
811.724	27781
811.865	27884
812.007	27751
812.148	27759
812.29	27766
812.431	28002
812.573	28051
812.714	28204
812.855	28360
812.997	28550
813.138	28508
813.279	28405
813.421	28314
813.562	28306
813.703	28131
813.845	28082
813.986	27671
814.127	27618
814.268	27462
814.41	27469
814.551	27405
814.692	27587
814.833	27306
814.974	27458
815.115	27401
815.256	27332
815.397	27279
815.539	27306
815.68	27321
815.821	27123
815.962	27131
816.103	27283
816.244	27085
816.385	26906
816.526	26819
816.666	26765
816.807	26670
816.948	26689
817.089	26731
817.23	26686
817.371	26560
817.512	26488
817.653	26617
817.793	26632
817.934	26735
818.075	26575
818.216	26526
818.356	26682
818.497	26396
818.638	26225
818.778	26294
818.919	26305
819.06	26362
819.2	26320
819.341	26427
819.481	26484
819.622	26613
819.762	26834
819.903	26754
820.043	26746
820.184	26765
820.324	26526
820.465	26667
820.605	26552
820.746	26590
820.886	26453
821.026	26571
821.167	26465
821.307	26564
821.447	26469
821.588	26438
821.728	26275
821.868	26001
822.008	25959
822.149	26073
822.289	25974
822.429	25693
822.569	25666
822.709	25586
822.849	25483
822.99	25464
823.13	25316
823.27	25400
823.41	25369
823.55	25145
823.69	25312
823.83	25198
823.97	25126
824.11	24928
824.25	25072
824.389	24977
824.529	25057
824.669	25034
824.809	25065
824.949	25156
825.089	24996
825.228	25118
825.368	24916
825.508	24867
825.648	24817
825.787	24863
825.927	24897
826.067	24779
826.206	24821
826.346	24817
826.485	24871
826.625	24856
826.765	24973
826.904	24878
827.044	24547
827.183	24551
827.323	24475
827.462	24509
827.601	24513
827.741	24483
827.88	24559
828.02	24456
828.159	24574
828.298	24483
828.437	24635
828.577	24350
828.716	24593
828.855	24464
828.994	24357
829.134	24171
829.273	24407
829.412	24110
829.551	24121
829.69	24296
829.829	24171
829.968	24243
830.107	24121
830.246	24232
830.385	24091
830.524	24194
830.663	24015
830.802	23958
830.941	23767
831.08	23665
831.219	23783
831.357	23786
831.496	23916
831.635	23779
831.774	23703
831.913	23596
832.051	23520
832.19	23471
832.329	23493
832.467	23493
832.606	23296
832.744	23383
832.883	23383
833.022	23417
833.16	23387
833.299	23391
833.437	23448
833.576	23417
833.714	23558
833.852	23379
833.991	23463
834.129	23448
834.267	23414
834.406	23448
834.544	23398
834.682	23353
834.821	23315
834.959	23634
835.097	23292
835.235	23486
835.373	23356
835.511	23360
835.65	23258
835.788	23284
835.926	23124
836.064	22999
836.202	23105
836.34	23147
836.478	23364
836.615	23231
836.753	23292
836.891	23299
837.029	23299
837.167	23102
837.305	23090
837.443	23094
837.58	23075
837.718	23185
837.856	23003
837.993	22995
838.131	23037
838.269	22877
838.406	22987
838.544	22889
838.681	22771
838.819	22660
838.956	22504
839.094	22470
839.231	22577
839.369	22653
839.506	22942
839.643	22748
839.781	22478
839.918	22379
840.055	22432
840.193	22462
840.33	22462
840.467	22527
840.604	22405
840.742	22611
840.879	22382
841.016	22303
841.153	22200
841.29	22508
841.427	22417
841.564	22481
841.701	22268
841.838	22280
841.975	22280
842.112	22246
842.249	22109
842.385	22112
842.522	22344
842.659	22139
842.796	22177
842.933	22082
843.069	22192
843.206	22105
843.343	22070
843.479	22097
843.616	22048
843.752	21994
843.889	21972
844.025	22055
844.162	21808
844.298	21960
844.435	21827
844.571	21823
844.708	21755
844.844	21983
844.98	21956
845.117	21968
845.253	21880
845.389	21709
845.525	21838
845.661	21663
845.798	21667
845.934	21580
846.07	21511
846.206	21705
846.342	21755
846.478	21603
846.614	21294
846.75	21230
846.886	21344
847.022	21302
847.158	21310
847.294	21283
847.429	21302
847.565	21363
847.701	21412
847.837	21055
847.972	21066
848.108	21074
848.244	20956
848.379	20956
848.515	20834
848.65	20883
848.786	20971
848.921	20887
849.057	21077
849.192	21020
849.328	20876
849.463	20845
849.598	20823
849.734	20739
849.869	20758
850.004	20564
850.14	20545
850.275	20804
850.41	20522
850.545	20518
850.68	20583
850.815	20598
850.95	20587
851.085	20868
851.22	20705
851.355	20541
851.49	20613
851.625	20606
851.76	20499
851.895	20454
852.03	20434
852.165	20651
852.299	20617
852.434	20575
852.569	20560
852.703	20682
852.838	20617
852.973	20773
853.107	20712
853.242	20674
853.376	20465
853.511	20286
853.645	20381
853.78	20473
853.914	20465
854.048	20408
854.183	20298
854.317	20495
854.451	20545
854.585	20301
854.72	20370
854.854	20556
854.988	20221
855.122	20457
855.256	20252
855.39	20503
855.524	20434
855.658	20461
855.792	20370
855.926	20408
856.06	20400
856.194	20503
856.327	20374
856.461	20393
856.595	20442
856.729	20377
856.862	20415
856.996	20469
857.13	20518
857.263	20541
857.397	20511
857.53	20351
857.664	20465
857.797	20446
857.931	20473
858.064	20298
858.197	20552
858.331	20286
858.464	20336
858.597	20210
858.731	20431
858.864	20358
858.997	20301
859.13	20434
859.263	20419
859.396	20431
859.529	20358
859.662	20385
859.795	20385
859.928	20366
860.061	20461
860.194	20587
860.327	20465
860.46	20256
860.592	20450
860.725	20473
860.858	20370
860.99	20366
861.123	20168
861.256	20240
861.388	20423
861.521	21024
861.653	20233
861.786	20054
861.918	20275
862.05	20271
862.183	20229
862.315	20434
862.447	20324
862.58	20374
862.712	20088
862.844	20054
862.976	20119
863.108	20065
863.24	20575
863.372	19955
863.504	20084
863.636	20176
863.768	20062
863.9	20043
864.032	19940
864.164	19917
864.296	20073
864.428	20180
864.559	20183
864.691	20183
864.823	20088
864.954	20039
865.086	20012
865.217	19883
865.349	19868
865.48	19959
865.612	19814
865.743	20103
865.875	20016
866.006	19902
866.137	19974
866.269	20001
866.4	19932
866.531	19830
866.662	19757
866.793	19913
866.924	19940
867.055	19944
867.186	19883
867.317	19845
867.448	19791
867.579	19883
867.71	19788
867.841	19761
867.972	19894
868.103	19978
868.233	19875
868.364	19944
868.495	19989
868.625	20195
868.756	20206
868.886	20058
869.017	20054
869.147	20176
869.278	20084
869.408	20122
869.539	20069
869.669	20111
869.799	20172
869.929	20248
870.06	20248
870.19	20404
870.32	20408
870.45	20438
870.58	20530
870.71	20644
870.84	20644
870.97	20514
871.1	20514
871.23	20575
871.36	20674
871.489	20617
871.619	20678
871.749	20731
871.879	20804
872.008	20826
872.138	20682
872.267	20727
872.397	20530
872.526	20560
872.656	20522
872.785	20602
872.915	20667
873.044	20838
873.173	20651
873.303	20861
873.432	20769
873.561	20868
873.69	20655
873.819	20754
873.948	20769
874.077	20765
874.206	20834
874.335	20792
874.464	20830
874.593	21070
874.722	21001
874.851	20986
874.979	21009
875.108	20941
875.237	21028
875.365	20845
875.494	20914
875.623	21131
875.751	20895
875.88	20986
876.008	21138
876.136	21112
876.265	21428
876.393	21420
876.521	21485
876.65	21557
876.778	21492
876.906	21287
877.034	21363
877.162	21344
877.29	21355
877.418	21420
877.546	21393
877.674	21233
877.802	21230
877.93	21275
878.058	21340
878.185	21211
878.313	21393
878.441	21401
878.568	21180
878.696	21142
878.824	21340
878.951	21443
879.079	21443
879.206	21663
879.333	21496
879.461	21424
879.588	21302
879.715	21454
879.842	21717
879.97	21401
880.097	21108
880.224	21039
880.351	21169
880.478	21199
880.605	21077
880.732	21176
880.859	21393
880.986	21279
881.112	21154
881.239	21077
881.366	20960
881.493	20792
881.619	20861
881.746	20708
881.872	20819
881.999	20769
882.125	20682
882.252	20800
882.378	20727
882.505	20792
882.631	20670
882.757	20533
882.883	20511
883.01	20499
883.136	20427
883.262	20396
883.388	20412
883.514	20575
883.64	20514
883.766	20473
883.892	20256
884.018	20400
884.143	20499
884.269	20522
884.395	20278
884.52	20218
884.646	20039
884.772	20103
884.897	20092
885.023	20157
885.148	20271
885.274	20339
885.399	20206
885.524	20134
885.65	20134
885.775	20172
885.9	20008
886.025	20130
886.15	20081
886.275	20145
886.4	20069
886.525	20020
886.65	20050
886.775	20039
886.9	20187
887.025	20301
887.149	20058
887.274	19947
887.399	19765
887.523	19864
887.648	19807
887.773	19788
887.897	19982
888.021	19883
888.146	19875
888.27	19909
888.395	19974
888.519	19864
888.643	19906
888.767	19883
888.891	19776
889.015	19693
889.139	19700
889.263	19655
889.387	19860
889.511	19890
889.635	19742
889.759	19723
889.883	19708
890.006	19658
890.13	19708
890.254	19552
890.377	19590
890.501	19430
890.624	19419
890.748	19400
890.871	19419
890.995	19274
891.118	19255
891.241	19274
891.364	19285
891.488	19396
891.611	19236
891.734	19274
891.857	19225
891.98	19312
892.103	19324
892.226	19285
892.349	19213
892.471	19027
892.594	19270
892.717	19282
892.839	19145
892.962	19244
893.085	19266
893.207	19171
893.33	19160
893.452	19164
893.575	19301
893.697	19171
893.819	19392
893.941	19373
894.064	19358
894.186	19225
894.308	19221
894.43	19247
894.552	19365
894.674	19358
894.796	19145
894.918	19190
895.04	19061
895.161	19301
895.283	19187
895.405	19206
895.526	19179
895.648	19217
895.769	19069
895.891	19266
896.012	19164
896.134	19164
896.255	19236
896.376	19213
896.498	19118
896.619	19343
896.74	19225
896.861	19282
896.982	19674
897.103	19753
897.224	19506
897.345	19441
897.466	19384
897.587	19422
897.708	19647
897.828	19506
897.949	19384
898.07	19339
898.19	19369
898.311	19468
898.431	19464
898.552	19362
898.672	19510
898.792	19487
898.913	19384
899.033	19320
899.153	19148
899.273	19019
899.393	19206
899.513	19160
899.633	19141
899.753	19088
899.873	19171
899.993	19160
900.113	19095
900.232	19202
900.352	18989
900.472	19015
900.591	18837
900.711	18977
900.83	18863
900.95	19103
901.069	19244
901.189	18890
901.308	18665
901.427	18551
901.546	18536
901.665	18506
901.784	18601
901.904	18467
902.023	18357
902.141	18091
902.26	18155
902.379	18186
902.498	18068
902.617	17996
902.735	18186
902.854	18117
902.973	17961
903.091	17775
903.21	17790
903.328	17710
903.446	17619
903.565	17497
903.683	17554
903.801	17471
903.919	17524
904.038	17448
904.156	17273
904.274	17448
904.392	17315
904.51	17345
904.627	17227
904.745	17284
904.863	17277
904.981	17143
905.098	16953
905.216	17029
905.334	17041
905.451	16980
905.569	16961
905.686	17094
905.803	16850
905.921	16847
906.038	16919
906.155	16889
906.272	16831
906.389	16816
906.506	16565
906.623	16634
906.74	16607
906.857	16493
906.974	16493
907.091	16622
907.208	16626
907.324	16497
907.441	16512
907.557	16291
907.674	16177
907.79	16150
907.907	16223
908.023	16169
908.139	16139
908.256	16059
908.372	16040
908.488	16074
908.604	15956
908.72	15972
908.836	15998
908.952	15861
909.068	15899
909.184	16086
909.3	15918
909.415	15994
909.531	15892
909.647	15713
909.762	15690
909.878	15603
909.993	15656
910.108	15564
910.224	15652
910.339	15637
910.454	15526
910.57	15485
910.685	15367
910.8	15625
910.915	15633
911.03	15431
911.145	15329
911.259	15260
911.374	15272
911.489	15188
911.604	15097
911.718	15051
911.833	15112
911.947	14807
912.062	14716
912.176	14952
912.291	15066
912.405	14971
912.519	15154
912.633	15146
912.748	15039
912.862	14982
912.976	14773
913.09	14625
913.204	14807
913.318	14762
913.431	14956
913.545	14842
913.659	14899
913.772	14663
913.886	14667
914	14568
914.113	14674
914.226	14731
914.34	14674
914.453	14492
914.566	14670
914.68	14518
914.793	14465
914.906	14286
915.019	14317
915.132	14191
915.245	14282
915.358	14282
915.47	14202
915.583	14244
915.696	14271
915.809	14503
915.921	14412
916.034	14191
916.146	14183
916.259	14119
916.371	14206
916.483	14271
916.595	14111
916.708	14172
916.82	14039
916.932	14107
917.044	14081
917.156	14138
917.268	13944
917.38	13970
917.491	13947
917.603	14016
917.715	14027
917.826	14115
917.938	13856
918.049	13818
918.161	13852
918.272	13936
918.384	14062
918.495	13799
918.606	13685
918.717	13586
918.828	13662
918.939	13712
919.05	13616
919.161	13700
919.272	13582
919.383	13544
919.494	13818
919.604	13894
919.715	13693
919.826	13605
919.936	13537
920.047	13738
920.157	13624
920.267	13833
920.378	13651
920.488	13616
920.598	13818
920.708	14016
920.818	13753
920.928	13731
921.038	13959
921.148	13925
921.258	13681
921.368	13552
921.477	13540
921.587	13487
921.697	13225
921.806	13301
921.916	13232
922.025	13110
922.134	13023
922.244	13031
922.353	13149
922.462	12947
922.571	12814
922.68	12741
922.789	12696
922.898	12673
923.007	12654
923.116	12703
923.224	12688
923.333	12646
923.442	12536
923.55	12429
923.659	12509
923.767	12601
923.876	12479
923.984	12528
924.092	12395
924.201	12506
924.309	12513
924.417	12479
924.525	12407
924.633	12403
924.741	13213
924.849	12285
924.956	12270
925.064	12110
925.172	12076
925.279	12175
925.387	12121
925.494	12121
925.602	12258
925.709	12205
925.816	12057
925.924	12171
926.031	12243
926.138	12159
926.245	12155
926.352	12045
926.459	12194
926.566	12232
926.673	12148
926.779	11897
926.886	11946
926.993	11809
927.099	11748
927.206	11699
927.312	11577
927.419	11866
927.525	11756
927.631	11760
927.737	11695
927.843	11589
927.95	11512
928.056	11596
928.162	11501
928.267	11615
928.373	12251
928.479	11600
928.585	11402
928.69	11558
928.796	11509
928.901	11433
929.007	11318
929.112	11455
929.218	11341
929.323	11307
929.428	11303
929.533	11459
929.638	11280
929.743	11318
929.848	11376
929.953	11303
930.058	11143
930.163	11052
930.267	11010
930.372	11227
930.477	10995
930.581	11242
930.685	11052
930.79	10869
930.894	10877
930.998	10980
931.103	11056
931.207	10687
931.311	10626
931.415	10535
931.519	10299
931.623	10246
