Data from test_V78500241_1809.txt Node
Date: Fri Mar 25 15:22:27 CST 2022
User: usil
Spectrometer: V785-0024
Trigger mode: 0
Integration Time (sec): 4.000000E-1
Scans to average: 1
Nonlinearity correction enabled: false
Boxcar width: 0
Storing dark spectrum: false
XAxis mode: Wavelengths
Number of Pixels in Spectrum: 1024
>>>>>Begin Spectral Data<<<<<
801.071	27884
801.214	27793
801.356	27660
801.499	27530
801.641	27427
801.783	27363
801.926	27466
802.068	27408
802.211	27401
802.353	27302
802.496	27378
802.638	27169
802.78	27199
802.923	27032
803.065	27116
803.208	27135
803.35	27032
803.492	27241
803.635	27268
803.777	27199
803.919	27389
804.061	27477
804.204	27317
804.346	27150
804.488	27146
804.63	27260
804.773	27173
804.915	27283
805.057	27237
805.199	27298
805.341	27291
805.483	27553
805.626	27382
805.768	27355
805.91	27374
806.052	27420
806.194	27431
806.336	27747
806.478	27454
806.62	27268
806.762	27416
806.904	27694
807.046	27835
807.188	27835
807.33	27835
807.472	27907
807.614	27751
807.756	27819
807.898	27557
808.04	27709
808.182	27507
808.324	27690
808.465	27717
808.607	27960
808.749	28051
808.891	28158
809.033	28226
809.174	28109
809.316	28021
809.458	28139
809.6	28017
809.741	28101
809.883	28055
810.025	28337
810.166	28382
810.308	28253
810.45	28226
810.591	28230
810.733	27991
810.875	28139
811.016	27861
811.158	27892
811.299	28059
811.441	28097
811.582	28173
811.724	28078
811.865	28036
812.007	27998
812.148	28048
812.29	28101
812.431	28173
812.573	28337
812.714	28409
812.855	28546
812.997	28759
813.138	28881
813.279	28664
813.421	28462
813.562	28672
813.703	28394
813.845	28070
813.986	28017
814.127	27781
814.268	27698
814.41	27800
814.551	27690
814.692	27739
814.833	27686
814.974	27667
815.115	27720
815.256	27671
815.397	27603
815.539	27610
815.68	27545
815.821	27443
815.962	27580
816.103	27519
816.244	27294
816.385	27374
816.526	27351
816.666	27036
816.807	26998
816.948	27009
817.089	27112
817.23	26967
817.371	26910
817.512	27055
817.653	26933
817.793	26899
817.934	27051
818.075	26948
818.216	27009
818.356	26960
818.497	26948
818.638	26693
818.778	26636
818.919	26792
819.06	26823
819.2	26887
819.341	27001
819.481	27028
819.622	27146
819.762	27230
819.903	27214
820.043	27313
820.184	27233
820.324	27138
820.465	27173
820.605	27104
820.746	27119
820.886	26986
821.026	27150
821.167	26982
821.307	27237
821.447	26940
821.588	26853
821.728	26830
821.868	26617
822.008	26625
822.149	26465
822.289	26514
822.429	26275
822.569	26290
822.709	26122
822.849	25986
822.99	25890
823.13	25902
823.27	25959
823.41	25818
823.55	25757
823.69	25860
823.83	25868
823.97	25833
824.11	25548
824.25	25582
824.389	25666
824.529	25655
824.669	25616
824.809	25727
824.949	25635
825.089	25693
825.228	25616
825.368	25415
825.508	25514
825.648	25400
825.787	25499
825.927	25506
826.067	25434
826.206	25449
826.346	25590
826.485	25529
826.625	25457
826.765	25571
826.904	25567
827.044	25343
827.183	25285
827.323	25285
827.462	25331
827.601	25293
827.741	25289
827.88	25266
828.02	25137
828.159	25209
828.298	25244
828.437	25289
828.577	25175
828.716	25358
828.855	25053
828.994	25015
829.134	24886
829.273	24973
829.412	24932
829.551	24932
829.69	24905
829.829	24970
829.968	24970
830.107	24901
830.246	24916
830.385	24779
830.524	24810
830.663	24726
830.802	24574
830.941	24574
831.08	24692
831.219	24745
831.357	24753
831.496	24814
831.635	24574
831.774	24509
831.913	24551
832.051	24388
832.19	24483
832.329	24327
832.467	24285
832.606	24266
832.744	24125
832.883	24300
833.022	24213
833.16	24346
833.299	24376
833.437	24342
833.576	24414
833.714	24403
833.852	24399
833.991	24350
834.129	24433
834.267	24361
834.406	24182
834.544	24585
834.682	24346
834.821	24171
834.959	24437
835.097	24167
835.235	24346
835.373	24270
835.511	24300
835.65	24330
835.788	24106
835.926	23897
836.064	23935
836.202	24068
836.34	24148
836.478	24285
836.615	24053
836.753	24125
836.891	24270
837.029	24194
837.167	24053
837.305	24072
837.443	24015
837.58	23916
837.718	24125
837.856	23958
837.993	23958
838.131	23809
838.269	24015
838.406	23878
838.544	23802
838.681	23764
838.819	23554
838.956	23611
839.094	23554
839.231	23573
839.369	23558
839.506	23901
839.643	23665
839.781	23512
839.918	23398
840.055	23440
840.193	23482
840.33	23326
840.467	23391
840.604	23376
840.742	23657
840.879	23227
841.016	23303
841.153	23189
841.29	23421
841.427	23337
841.564	23421
841.701	23410
841.838	23353
841.975	23322
842.112	23239
842.249	23200
842.385	23246
842.522	23387
842.659	23124
842.796	23124
842.933	23136
843.069	23067
843.206	23143
843.343	23140
843.479	23204
843.616	23044
843.752	23003
843.889	22961
844.025	23041
844.162	22801
844.298	23010
844.435	22908
844.571	22946
844.708	23071
844.844	23071
844.98	23136
845.117	23022
845.253	22843
845.389	22805
845.525	22748
845.661	22831
845.798	22634
845.934	22744
846.07	22664
846.206	22733
846.342	22843
846.478	22584
846.614	22402
846.75	22303
846.886	22329
847.022	22462
847.158	22466
847.294	22424
847.429	22341
847.565	22344
847.701	22554
847.837	22139
847.972	21994
848.108	22021
848.244	22169
848.379	22082
848.515	22036
848.65	21979
848.786	22017
848.921	21972
849.057	22120
849.192	22040
849.328	21941
849.463	22044
849.598	21964
849.734	21747
849.869	21728
850.004	21743
850.14	21770
850.275	21823
850.41	21709
850.545	21614
850.68	21762
850.815	21854
850.95	21747
851.085	21778
851.22	21808
851.355	21850
851.49	21580
851.625	21736
851.76	21694
851.895	21728
852.03	21549
852.165	21770
852.299	21812
852.434	21842
852.569	21705
852.703	21709
852.838	21728
852.973	21846
853.107	21823
853.242	21743
853.376	21667
853.511	21428
853.645	21538
853.78	21675
853.914	21606
854.048	21511
854.183	21500
854.317	21568
854.451	21660
854.585	21572
854.72	21504
854.854	21625
854.988	21492
855.122	21625
855.256	21378
855.39	21553
855.524	21580
855.658	21641
855.792	21580
855.926	21610
856.06	21572
856.194	21481
856.327	21515
856.461	21523
856.595	21492
856.729	21561
856.862	21648
856.996	21656
857.13	21583
857.263	21709
857.397	21660
857.53	21580
857.664	21580
857.797	21679
857.931	21717
858.064	21663
858.197	21728
858.331	21538
858.464	21477
858.597	21496
858.731	21492
858.864	21557
858.997	21393
859.13	21656
859.263	21488
859.396	21675
859.529	21523
859.662	21466
859.795	21469
859.928	21561
860.061	21766
860.194	21823
860.327	21507
860.46	21580
860.592	21724
860.725	21720
860.858	21633
860.99	21606
861.123	21416
861.256	21424
861.388	21492
861.521	22070
861.653	21401
861.786	21363
861.918	21313
862.05	21492
862.183	21473
862.315	21572
862.447	21504
862.58	21492
862.712	21237
862.844	21336
862.976	21256
863.108	21397
863.24	21625
863.372	21268
863.504	21211
863.636	21233
863.768	21344
863.9	21241
864.032	21176
864.164	21310
864.296	21317
864.428	21416
864.559	21351
864.691	21249
864.823	21218
864.954	21165
865.086	21348
865.217	21123
865.349	21131
865.48	21146
865.612	21211
865.743	21370
865.875	21112
866.006	21169
866.137	21176
866.269	21085
866.4	21047
866.531	21024
866.662	20944
866.793	21100
866.924	21165
867.055	21089
867.186	20982
867.317	21017
867.448	21112
867.579	21233
867.71	21036
867.841	20883
867.972	21100
868.103	21055
868.233	21070
868.364	21287
868.495	21302
868.625	21283
868.756	21408
868.886	21306
869.017	21386
869.147	21515
869.278	21439
869.408	21359
869.539	21329
869.669	21492
869.799	21405
869.929	21416
870.06	21370
870.19	21618
870.32	21572
870.45	21819
870.58	21641
870.71	21785
870.84	21808
870.97	21724
871.1	21755
871.23	21827
871.36	21880
871.489	21785
871.619	21960
871.749	21911
871.879	21987
872.008	22051
872.138	21907
872.267	21892
872.397	21686
872.526	21686
872.656	21793
872.785	21800
872.915	21983
873.044	22105
873.173	21964
873.303	22124
873.432	21987
873.561	22124
873.69	21979
873.819	21876
873.948	22059
874.077	22029
874.206	21831
874.335	22017
874.464	22097
874.593	22105
874.722	22093
874.851	22215
874.979	22173
875.108	22200
875.237	22131
875.365	22143
875.494	22200
875.623	22318
875.751	22200
875.88	22173
876.008	22253
876.136	22344
876.265	22565
876.393	22744
876.521	22653
876.65	22668
876.778	22580
876.906	22577
877.034	22512
877.162	22626
877.29	22512
877.418	22481
877.546	22569
877.674	22550
877.802	22371
877.93	22554
878.058	22432
878.185	22451
878.313	22432
878.441	22413
878.568	22253
878.696	22512
878.824	22596
878.951	22542
879.079	22653
879.206	22824
879.333	22687
879.461	22592
879.588	22694
879.715	22656
879.842	22869
879.97	22538
880.097	22265
880.224	22348
880.351	22417
880.478	22390
880.605	22272
880.732	22440
880.859	22470
880.986	22230
881.112	22310
881.239	22150
881.366	21991
881.493	21979
881.619	21926
881.746	21895
881.872	21941
881.999	21869
882.125	21846
882.252	22078
882.378	21854
882.505	22029
882.631	21720
882.757	21545
882.883	21690
883.01	21743
883.136	21652
883.262	21386
883.388	21477
883.514	21606
883.64	21507
883.766	21389
883.892	21389
884.018	21420
884.143	21564
884.269	21618
884.395	21302
884.52	21230
884.646	21207
884.772	21252
884.897	21184
885.023	21180
885.148	21241
885.274	21363
885.399	21348
885.524	21252
885.65	21268
885.775	21100
885.9	21306
886.025	21466
886.15	21306
886.275	21195
886.4	21154
886.525	21302
886.65	21138
886.775	21146
886.9	21351
887.025	21572
887.149	21230
887.274	21077
887.399	21096
887.523	21081
887.648	20838
887.773	20933
887.897	21066
888.021	20975
888.146	20929
888.27	21096
888.395	21123
888.519	21009
888.643	21070
888.767	20956
888.891	20937
889.015	20804
889.139	20899
889.263	20701
889.387	20899
889.511	21001
889.635	20937
889.759	20804
889.883	20815
890.006	20773
890.13	20902
890.254	20693
890.377	20670
890.501	20640
890.624	20568
890.748	20617
890.871	20537
890.995	20370
891.118	20309
891.241	20419
891.364	20381
891.488	20431
891.611	20374
891.734	20454
891.857	20442
891.98	20298
892.103	20484
892.226	20396
892.349	20309
892.471	20092
892.594	20259
892.717	20347
892.839	20286
892.962	20309
893.085	20309
893.207	20282
893.33	20138
893.452	20088
893.575	20278
893.697	20180
893.819	20370
893.941	20549
894.064	20438
894.186	20176
894.308	20100
894.43	20431
894.552	20408
894.674	20317
894.796	20176
894.918	20263
895.04	20229
895.161	20275
895.283	20286
895.405	20358
895.526	20305
895.648	20286
895.769	20347
895.891	20351
896.012	20324
896.134	20339
896.255	20275
896.376	20267
896.498	20168
896.619	20221
896.74	20248
896.861	20347
896.982	20587
897.103	20640
897.224	20530
897.345	20522
897.466	20518
897.587	20484
897.708	20568
897.828	20446
897.949	20522
898.07	20347
898.19	20457
898.311	20480
898.431	20457
898.552	20545
898.672	20492
898.792	20575
898.913	20438
899.033	20332
899.153	20142
899.273	20172
899.393	20244
899.513	20267
899.633	20206
899.753	20328
899.873	20187
899.993	20248
900.113	20088
900.232	20244
900.352	20161
900.472	19986
900.591	19974
900.711	20016
900.83	19967
900.95	20100
901.069	20126
901.189	19921
901.308	19662
901.427	19537
901.546	19559
901.665	19540
901.784	19662
901.904	19369
902.023	19365
902.141	19160
902.26	19168
902.379	19129
902.498	19027
902.617	19038
902.735	19057
902.854	19004
902.973	19000
903.091	18749
903.21	18783
903.328	18779
903.446	18616
903.565	18555
903.683	18608
903.801	18471
903.919	18578
904.038	18433
904.156	18372
904.274	18528
904.392	18285
904.51	18277
904.627	18300
904.745	18342
904.863	18296
904.981	18171
905.098	18068
905.216	18060
905.334	18022
905.451	18030
905.569	17977
905.686	18011
905.803	17954
905.921	17779
906.038	17946
906.155	17745
906.272	17786
906.389	17752
906.506	17444
906.623	17554
906.74	17478
906.857	17330
906.974	17478
907.091	17532
907.208	17642
907.324	17551
907.441	17524
907.557	17296
907.674	17269
907.79	17239
907.907	17265
908.023	17299
908.139	17178
908.256	17204
908.372	17185
908.488	17128
908.604	17121
908.72	16881
908.836	16991
908.952	17003
909.068	16805
909.184	17060
909.3	16949
909.415	16908
909.531	16881
909.647	16683
909.762	16717
909.878	16618
909.993	16694
910.108	16558
910.224	16596
910.339	16645
910.454	16653
910.57	16478
910.685	16363
910.8	16569
910.915	16607
911.03	16436
911.145	16318
911.259	16280
911.374	16272
911.489	16158
911.604	16173
911.718	16071
911.833	15991
911.947	15892
912.062	15899
912.176	15979
912.291	16044
912.405	15850
912.519	16181
912.633	16177
912.748	16040
912.862	15975
912.976	15778
913.09	15690
913.204	15766
913.318	15850
913.431	15876
913.545	15884
913.659	15873
913.772	15816
913.886	15694
914	15557
914.113	15694
914.226	15656
914.34	15698
914.453	15458
914.566	15831
914.68	15519
914.793	15462
914.906	15344
915.019	15275
915.132	15233
915.245	15272
915.358	15260
915.47	15268
915.583	15249
915.696	15268
915.809	15237
915.921	15389
916.034	15199
916.146	15119
916.259	15184
916.371	15146
916.483	15112
916.595	15127
916.708	15077
916.82	15009
916.932	15028
917.044	14982
917.156	14979
917.268	14925
917.38	14906
917.491	14765
917.603	14880
917.715	14971
917.826	14990
917.938	14857
918.049	14765
918.161	14876
918.272	15032
918.384	14887
918.495	14743
918.606	14670
918.717	14545
918.828	14663
918.939	14731
919.05	14530
919.161	14552
919.272	14370
919.383	14495
919.494	14640
919.604	14857
919.715	14556
919.826	14377
919.936	14560
920.047	14583
920.157	14610
920.267	14697
920.378	14606
920.488	14537
920.598	14735
920.708	14933
920.818	14648
920.928	14644
921.038	14819
921.148	14845
921.258	14499
921.368	14431
921.477	14351
921.587	14339
921.697	14172
921.806	14275
921.916	14180
922.025	13993
922.134	13860
922.244	13841
922.353	13944
922.462	13826
922.571	13772
922.68	13674
922.789	13636
922.898	13647
923.007	13521
923.116	13670
923.224	13506
923.333	13636
923.442	13449
923.55	13392
923.659	13506
923.767	13491
923.876	13316
923.984	13476
924.092	13263
924.201	13415
924.309	13335
924.417	13354
924.525	13228
924.633	13304
924.741	14286
924.849	13076
924.956	13202
925.064	13027
925.172	12973
925.279	12943
925.387	13015
925.494	13034
925.602	13149
925.709	13076
925.816	12951
925.924	12886
926.031	13091
926.138	12977
926.245	13050
926.352	12886
926.459	12996
926.566	13023
926.673	12909
926.779	12764
926.886	12814
926.993	12608
927.099	12616
927.206	12589
927.312	12578
927.419	12696
927.525	12623
927.631	12608
927.737	12464
927.843	12426
927.95	12281
928.056	12357
928.162	12407
928.267	12445
928.373	13012
928.479	12540
928.585	12266
928.69	12311
928.796	12384
928.901	12220
929.007	12049
929.112	12228
929.218	12144
929.323	12083
929.428	12133
929.533	12289
929.638	12106
929.743	12060
929.848	12045
929.953	12045
930.058	11954
930.163	11832
930.267	11707
930.372	11954
930.477	11714
930.581	11996
930.685	11859
930.79	11680
930.894	11657
930.998	11653
931.103	11832
931.207	11444
931.311	11372
931.415	11258
931.519	11010
931.623	11056
