Data from test_V78500241_3334.txt Node
Date: Fri Mar 25 15:33:04 CST 2022
User: usil
Spectrometer: V785-0024
Trigger mode: 0
Integration Time (sec): 4.000000E-1
Scans to average: 1
Nonlinearity correction enabled: false
Boxcar width: 0
Storing dark spectrum: false
XAxis mode: Wavelengths
Number of Pixels in Spectrum: 1024
>>>>>Begin Spectral Data<<<<<
801.071	27397
801.214	27233
801.356	26963
801.499	26895
801.641	26872
801.783	26727
801.926	26777
802.068	26720
802.211	26750
802.353	26701
802.496	26503
802.638	26564
802.78	26503
802.923	26385
803.065	26389
803.208	26229
803.35	26286
803.492	26568
803.635	26541
803.777	26537
803.919	26583
804.061	26979
804.204	26617
804.346	26613
804.488	26507
804.63	26438
804.773	26305
804.915	26625
805.057	26705
805.199	26625
805.341	26556
805.483	26625
805.626	26644
805.768	26511
805.91	26708
806.052	26651
806.194	26659
806.336	26815
806.478	26625
806.62	26678
806.762	26781
806.904	26925
807.046	27036
807.188	27146
807.33	26994
807.472	27135
807.614	27013
807.756	27043
807.898	26849
808.04	26762
808.182	26788
808.324	26937
808.465	27055
808.607	26982
808.749	27245
808.891	27340
809.033	27492
809.174	27393
809.316	27241
809.458	27359
809.6	27264
809.741	27386
809.883	27477
810.025	27504
810.166	27519
810.308	27644
810.45	27553
810.591	27519
810.733	27329
810.875	27264
811.016	27150
811.158	27135
811.299	27310
811.441	27382
811.582	27485
811.724	27298
811.865	27192
812.007	27272
812.148	27211
812.29	27344
812.431	27435
812.573	27485
812.714	27831
812.855	27667
812.997	27831
813.138	27922
813.279	27903
813.421	27778
813.562	27679
813.703	27481
813.845	27329
813.986	27230
814.127	26982
814.268	27123
814.41	27005
814.551	26872
814.692	27013
814.833	26796
814.974	26861
815.115	26929
815.256	26845
815.397	26845
815.539	26819
815.68	26777
815.821	26609
815.962	26739
816.103	26617
816.244	26568
816.385	26461
816.526	26324
816.666	26366
816.807	26172
816.948	26267
817.089	26339
817.23	26195
817.371	26142
817.512	26161
817.653	26183
817.793	26176
817.934	26199
818.075	26058
818.216	26259
818.356	26233
818.497	26214
818.638	25932
818.778	26012
818.919	25795
819.06	25959
819.2	26180
819.341	26248
819.481	26271
819.622	26347
819.762	26514
819.903	26343
820.043	26320
820.184	26134
820.324	26256
820.465	26434
820.605	26336
820.746	26256
820.886	26054
821.026	26206
821.167	26229
821.307	26240
821.447	26191
821.588	26024
821.728	26069
821.868	25890
822.008	25582
822.149	25727
822.289	25635
822.429	25324
822.569	25449
822.709	25274
822.849	25168
822.99	25148
823.13	25114
823.27	25072
823.41	25019
823.55	24981
823.69	24966
823.83	24863
823.97	24935
824.11	24897
824.25	24722
824.389	24840
824.529	24916
824.669	24753
824.809	24943
824.949	24844
825.089	24935
825.228	24753
825.368	24509
825.508	24631
825.648	24684
825.787	24665
825.927	24703
826.067	24593
826.206	24814
826.346	24658
826.485	24639
826.625	24608
826.765	24692
826.904	24726
827.044	24410
827.183	24483
827.323	24289
827.462	24429
827.601	24270
827.741	24422
827.88	24296
828.02	24235
828.159	24342
828.298	24350
828.437	24490
828.577	24319
828.716	24407
828.855	24262
828.994	24098
829.134	24091
829.273	24018
829.412	24064
829.551	24030
829.69	24106
829.829	24178
829.968	24152
830.107	24152
830.246	24155
830.385	23996
830.524	24022
830.663	23851
830.802	23882
830.941	23695
831.08	23638
831.219	23748
831.357	23630
831.496	24003
831.635	23737
831.774	23726
831.913	23585
832.051	23539
832.19	23463
832.329	23592
832.467	23452
832.606	23395
832.744	23406
832.883	23387
833.022	23391
833.16	23318
833.299	23425
833.437	23292
833.576	23528
833.714	23440
833.852	23372
833.991	23505
834.129	23577
834.267	23543
834.406	23524
834.544	23440
834.682	23478
834.821	23341
834.959	23577
835.097	23398
835.235	23463
835.373	23353
835.511	23379
835.65	23402
835.788	23102
835.926	23231
836.064	23170
836.202	23044
836.34	23330
836.478	23299
836.615	23235
836.753	23322
836.891	23406
837.029	23376
837.167	23269
837.305	23181
837.443	23155
837.58	23048
837.718	23170
837.856	23216
837.993	23143
838.131	23079
838.269	23090
838.406	23022
838.544	22904
838.681	22801
838.819	22809
838.956	22634
839.094	22592
839.231	22713
839.369	22862
839.506	22976
839.643	22908
839.781	22599
839.918	22656
840.055	22641
840.193	22596
840.33	22569
840.467	22611
840.604	22645
840.742	22843
840.879	22489
841.016	22329
841.153	22367
841.29	22767
841.427	22649
841.564	22557
841.701	22538
841.838	22527
841.975	22363
842.112	22413
842.249	22451
842.385	22371
842.522	22531
842.659	22402
842.796	22276
842.933	22314
843.069	22284
843.206	22181
843.343	22417
843.479	22367
843.616	22246
843.752	22158
843.889	22188
844.025	22234
844.162	22048
844.298	22147
844.435	22078
844.571	22131
844.708	22097
844.844	22253
844.98	22124
845.117	22246
845.253	21979
845.389	21991
845.525	21968
845.661	22029
845.798	21819
845.934	21899
846.07	21941
846.206	21854
846.342	21987
846.478	21835
846.614	21583
846.75	21572
846.886	21599
847.022	21614
847.158	21568
847.294	21519
847.429	21679
847.565	21576
847.701	21770
847.837	21287
847.972	21310
848.108	21435
848.244	21321
848.379	21123
848.515	21203
848.65	21184
848.786	21169
848.921	21207
849.057	21199
849.192	21283
849.328	21237
849.463	21218
849.598	21135
849.734	20956
849.869	21009
850.004	20986
850.14	20933
850.275	20876
850.41	20952
850.545	20910
850.68	20826
850.815	21028
850.95	20804
851.085	21222
851.22	21058
851.355	21051
851.49	20979
851.625	20830
851.76	20849
851.895	20792
852.03	20811
852.165	20891
852.299	20804
852.434	20990
852.569	21074
852.703	20933
852.838	20921
852.973	21062
853.107	21032
853.242	20811
853.376	20796
853.511	20606
853.645	20735
853.78	20921
853.914	20804
854.048	20636
854.183	20716
854.317	20800
854.451	20925
854.585	20792
854.72	20682
854.854	20910
854.988	20682
855.122	20735
855.256	20629
855.39	20629
855.524	20872
855.658	20716
855.792	20811
855.926	20705
856.06	20678
856.194	20891
856.327	20629
856.461	20606
856.595	20712
856.729	20750
856.862	20830
856.996	20716
857.13	20754
857.263	20762
857.397	20906
857.53	20792
857.664	20819
857.797	20815
857.931	20937
858.064	20804
858.197	20899
858.331	20826
858.464	20632
858.597	20609
858.731	20796
858.864	20830
858.997	20682
859.13	20796
859.263	20864
859.396	20769
859.529	20743
859.662	20769
859.795	20651
859.928	20750
860.061	20891
860.194	20967
860.327	20777
860.46	20754
860.592	20906
860.725	20899
860.858	20925
860.99	20651
861.123	20762
861.256	20720
861.388	20769
861.521	21450
861.653	20629
861.786	20549
861.918	20682
862.05	20568
862.183	20693
862.315	20720
862.447	20743
862.58	20777
862.712	20488
862.844	20400
862.976	20617
863.108	20511
863.24	20982
863.372	20385
863.504	20454
863.636	20556
863.768	20533
863.9	20545
864.032	20400
864.164	20530
864.296	20609
864.428	20651
864.559	20518
864.691	20655
864.823	20522
864.954	20518
865.086	20518
865.217	20533
865.349	20385
865.48	20526
865.612	20389
865.743	20514
865.875	20313
866.006	20324
866.137	20454
866.269	20431
866.4	20454
866.531	20313
866.662	20396
866.793	20332
866.924	20309
867.055	20370
867.186	20324
867.317	20324
867.448	20259
867.579	20347
867.71	20210
867.841	20180
867.972	20332
868.103	20396
868.233	20324
868.364	20400
868.495	20434
868.625	20434
868.756	20689
868.886	20530
869.017	20613
869.147	20716
869.278	20655
869.408	20549
869.539	20678
869.669	20575
869.799	20590
869.929	20762
870.06	20659
870.19	20982
870.32	20906
870.45	20956
870.58	20963
870.71	21077
870.84	21184
870.97	21017
871.1	20967
871.23	21138
871.36	21249
871.489	21093
871.619	21081
871.749	21192
871.879	21272
872.008	21355
872.138	21272
872.267	21195
872.397	21127
872.526	21001
872.656	21001
872.785	21062
872.915	21176
873.044	21416
873.173	21192
873.303	21336
873.432	21252
873.561	21199
873.69	21142
873.819	21230
873.948	21226
874.077	21173
874.206	21195
874.335	21287
874.464	21386
874.593	21393
874.722	21367
874.851	21469
874.979	21454
875.108	21515
875.237	21378
875.365	21416
875.494	21466
875.623	21511
875.751	21530
875.88	21526
876.008	21663
876.136	21599
876.265	21930
876.393	22032
876.521	21838
876.65	22002
876.778	21838
876.906	21797
877.034	21713
877.162	21941
877.29	21808
877.418	21770
877.546	21736
877.674	21827
877.802	21941
877.93	21759
878.058	21732
878.185	21694
878.313	21747
878.441	21865
878.568	21648
878.696	21835
878.824	21797
878.951	21736
879.079	21945
879.206	22067
879.333	21888
879.461	21804
879.588	21854
879.715	21930
879.842	21987
879.97	21857
880.097	21644
880.224	21568
880.351	21717
880.478	21698
880.605	21549
880.732	21675
880.859	21793
880.986	21675
881.112	21648
881.239	21564
881.366	21416
881.493	21252
881.619	21226
881.746	21207
881.872	21180
881.999	21195
882.125	21138
882.252	21180
882.378	21188
882.505	21245
882.631	21108
882.757	20948
882.883	20990
883.01	20883
883.136	20876
883.262	20876
883.388	20823
883.514	20982
883.64	20941
883.766	20872
883.892	20674
884.018	20750
884.143	20868
884.269	21055
884.395	20648
884.52	20518
884.646	20644
884.772	20606
884.897	20328
885.023	20613
885.148	20651
885.274	20655
885.399	20716
885.524	20613
885.65	20587
885.775	20621
885.9	20552
886.025	20659
886.15	20667
886.275	20522
886.4	20488
886.525	20461
886.65	20476
886.775	20495
886.9	20686
887.025	20811
887.149	20613
887.274	20499
887.399	20324
887.523	20294
887.648	20271
887.773	20263
887.897	20560
888.021	20457
888.146	20202
888.27	20381
888.395	20400
888.519	20450
888.643	20332
888.767	20286
888.891	20244
889.015	20058
889.139	20362
889.263	19974
889.387	20320
889.511	20526
889.635	20313
889.759	20119
889.883	20096
890.006	20206
890.13	20206
890.254	19974
890.377	20039
890.501	19959
890.624	19906
890.748	19947
890.871	19738
890.995	19712
891.118	19616
891.241	19837
891.364	19696
891.488	19811
891.611	19693
891.734	19727
891.857	19833
891.98	19738
892.103	19750
892.226	19761
892.349	19689
892.471	19575
892.594	19643
892.717	19662
892.839	19605
892.962	19693
893.085	19712
893.207	19613
893.33	19464
893.452	19655
893.575	19628
893.697	19586
893.819	19868
893.941	19822
894.064	19921
894.186	19651
894.308	19605
894.43	19666
894.552	19708
894.674	19738
894.796	19624
894.918	19597
895.04	19472
895.161	19689
895.283	19651
895.405	19590
895.526	19639
895.648	19533
895.769	19738
895.891	19639
896.012	19712
896.134	19689
896.255	19643
896.376	19628
896.498	19590
896.619	19681
896.74	19605
896.861	19712
896.982	19986
897.103	20115
897.224	19780
897.345	19864
897.466	19765
897.587	19849
897.708	20065
897.828	19917
897.949	19772
898.07	19807
898.19	19868
898.311	19963
898.431	19772
898.552	19890
898.672	19963
898.792	19936
898.913	19917
899.033	19776
899.153	19590
899.273	19582
899.393	19616
899.513	19689
899.633	19677
899.753	19567
899.873	19548
899.993	19704
900.113	19578
900.232	19632
900.352	19537
900.472	19483
900.591	19396
900.711	19426
900.83	19403
900.95	19518
901.069	19529
901.189	19324
901.308	18932
901.427	18993
901.546	19046
901.665	19012
901.784	19046
901.904	18890
902.023	18779
902.141	18513
902.26	18513
902.379	18642
902.498	18429
902.617	18353
902.735	18566
902.854	18494
902.973	18395
903.091	18171
903.21	18197
903.328	18186
903.446	18163
903.565	17996
903.683	17992
903.801	17882
903.919	17984
904.038	18038
904.156	17748
904.274	17870
904.392	17752
904.51	17665
904.627	17775
904.745	17893
904.863	17832
904.981	17532
905.098	17440
905.216	17433
905.334	17459
905.451	17360
905.569	17448
905.686	17455
905.803	17440
905.921	17189
906.038	17360
906.155	17166
906.272	17136
906.389	17151
906.506	16984
906.623	16850
906.74	17029
906.857	16778
906.974	16869
907.091	16980
907.208	17064
907.324	17045
907.441	16885
907.557	16683
907.674	16771
907.79	16565
907.907	16801
908.023	16622
908.139	16656
908.256	16622
908.372	16558
908.488	16558
908.604	16481
908.72	16394
908.836	16375
908.952	16398
909.068	16314
909.184	16634
909.3	16432
909.415	16451
909.531	16394
909.647	16154
909.762	16090
909.878	16109
909.993	16139
910.108	16124
910.224	16150
910.339	16067
910.454	16044
910.57	15915
910.685	15842
910.8	16143
910.915	16143
911.03	15884
911.145	15812
911.259	15694
911.374	15774
911.489	15671
911.604	15587
911.718	15481
911.833	15393
911.947	15374
912.062	15393
912.176	15538
912.291	15542
912.405	15496
912.519	15618
912.633	15709
912.748	15553
912.862	15504
912.976	15283
913.09	15195
913.204	15256
913.318	15401
913.431	15348
913.545	15351
913.659	15431
913.772	15272
913.886	15154
914	14994
914.113	15211
914.226	15222
914.34	15230
914.453	14925
914.566	15116
914.68	14971
914.793	14941
914.906	14796
915.019	14651
915.132	14682
915.245	14750
915.358	14826
915.47	14712
915.583	14727
915.696	14720
915.809	14807
915.921	14792
916.034	14636
916.146	14659
916.259	14583
916.371	14731
916.483	14667
916.595	14511
916.708	14518
916.82	14659
916.932	14518
917.044	14507
917.156	14495
917.268	14454
917.38	14450
917.491	14339
917.603	14465
917.715	14438
917.826	14438
917.938	14328
918.049	14320
918.161	14328
918.272	14434
918.384	14454
918.495	14328
918.606	14233
918.717	14130
918.828	14115
918.939	14267
919.05	14107
919.161	14088
919.272	14001
919.383	13947
919.494	14248
919.604	14275
919.715	14168
919.826	14020
919.936	14123
920.047	14142
920.157	14107
920.267	14275
920.378	14183
920.488	14096
920.598	14237
920.708	14469
920.818	14301
920.928	14282
921.038	14495
921.148	14332
921.258	14096
921.368	13989
921.477	13936
921.587	13955
921.697	13639
921.806	13868
921.916	13746
922.025	13563
922.134	13468
922.244	13468
922.353	13495
922.462	13343
922.571	13460
922.68	13183
922.789	13171
922.898	13168
923.007	13046
923.116	13202
923.224	13187
923.333	13168
923.442	12989
923.55	13000
923.659	13031
923.767	13114
923.876	12947
923.984	13034
924.092	12779
924.201	12981
924.309	12989
924.417	12924
924.525	12871
924.633	12833
924.741	13849
924.849	12578
924.956	12772
925.064	12544
925.172	12566
925.279	12578
925.387	12627
925.494	12604
925.602	12696
925.709	12582
925.816	12517
925.924	12570
926.031	12654
926.138	12589
926.245	12585
926.352	12483
926.459	12681
926.566	12486
926.673	12532
926.779	12418
926.886	12338
926.993	12247
927.099	12220
927.206	12213
927.312	12064
927.419	12300
927.525	12152
927.631	12205
927.737	12102
927.843	12007
927.95	11897
928.056	12003
928.162	12060
928.267	12125
928.373	12597
928.479	12114
928.585	11912
928.69	11931
928.796	12068
928.901	11965
929.007	11695
929.112	11939
929.218	11946
929.323	11764
929.428	11767
929.533	11935
929.638	11745
929.743	11703
929.848	11805
929.953	11653
930.058	11737
930.163	11360
930.267	11486
930.372	11691
930.477	11372
930.581	11699
930.685	11463
930.79	11444
930.894	11414
930.998	11463
931.103	11539
931.207	11124
931.311	11086
931.415	10972
931.519	10824
931.623	10752
