Data from test_V78500241_82.txt Node
Date: Fri Mar 25 15:10:26 CST 2022
User: usil
Spectrometer: V785-0024
Trigger mode: 0
Integration Time (sec): 4.000000E-1
Scans to average: 1
Nonlinearity correction enabled: false
Boxcar width: 0
Storing dark spectrum: false
XAxis mode: Wavelengths
Number of Pixels in Spectrum: 1024
>>>>>Begin Spectral Data<<<<<
801.071	28584
801.214	28546
801.356	28287
801.499	28398
801.641	28112
801.783	28067
801.926	28200
802.068	27994
802.211	27968
802.353	27937
802.496	27743
802.638	27728
802.78	27743
802.923	27781
803.065	27564
803.208	27564
803.35	27675
803.492	27781
803.635	27812
803.777	27778
803.919	27854
804.061	28166
804.204	27812
804.346	27671
804.488	27774
804.63	27747
804.773	27812
804.915	27907
805.057	28006
805.199	27736
805.341	27903
805.483	27964
805.626	27812
805.768	27701
805.91	27987
806.052	27831
806.194	27819
806.336	28158
806.478	27918
806.62	27869
806.762	27953
806.904	28002
807.046	28394
807.188	28287
807.33	28177
807.472	28272
807.614	28139
807.756	28124
807.898	28086
808.04	28158
808.182	28040
808.324	28147
808.465	28010
808.607	28147
808.749	28207
808.891	28592
809.033	28603
809.174	28466
809.316	28432
809.458	28451
809.6	28382
809.741	28497
809.883	28664
810.025	28561
810.166	28733
810.308	28565
810.45	28508
810.591	28630
810.733	28382
810.875	28421
811.016	28291
811.158	28234
811.299	28287
811.441	28363
811.582	28447
811.724	28322
811.865	28299
812.007	28363
812.148	28238
812.29	28310
812.431	28500
812.573	28603
812.714	28641
812.855	28706
812.997	28972
813.138	28847
813.279	28919
813.421	28687
813.562	28828
813.703	28630
813.845	28497
813.986	28211
814.127	28067
814.268	27873
814.41	28044
814.551	28082
814.692	27991
814.833	27922
814.974	27972
815.115	27861
815.256	27804
815.397	27739
815.539	27679
815.68	27625
815.821	27545
815.962	27701
816.103	27762
816.244	27439
816.385	27431
816.526	27363
816.666	27150
816.807	27032
816.948	27214
817.089	27207
817.23	27226
817.371	27066
817.512	27074
817.653	27070
817.793	27032
817.934	27024
818.075	26975
818.216	26994
818.356	27009
818.497	26891
818.638	26883
818.778	26826
818.919	26785
819.06	26796
819.2	26910
819.341	26830
819.481	26933
819.622	27161
819.762	27291
819.903	27230
820.043	27131
820.184	27039
820.324	27074
820.465	27009
820.605	27001
820.746	26998
820.886	26944
821.026	27146
821.167	27017
821.307	27104
821.447	26902
821.588	26777
821.728	26735
821.868	26602
822.008	26434
822.149	26427
822.289	26358
822.429	26168
822.569	26012
822.709	26126
822.849	25890
822.99	25852
823.13	25822
823.27	25959
823.41	25723
823.55	25487
823.69	25696
823.83	25616
823.97	25548
824.11	25445
824.25	25468
824.389	25544
824.529	25590
824.669	25339
824.809	25422
824.949	25460
825.089	25468
825.228	25582
825.368	25301
825.508	25187
825.648	25278
825.787	25282
825.927	25274
826.067	25213
826.206	25335
826.346	25247
826.485	25236
826.625	25255
826.765	25358
826.904	25232
827.044	24985
827.183	25015
827.323	24837
827.462	24989
827.601	24829
827.741	24875
827.88	24871
828.02	24684
828.159	24829
828.298	24806
828.437	24875
828.577	24890
828.716	24966
828.855	24875
828.994	24563
829.134	24661
829.273	24764
829.412	24555
829.551	24635
829.69	24547
829.829	24521
829.968	24635
830.107	24688
830.246	24582
830.385	24445
830.524	24418
830.663	24376
830.802	24209
830.941	24091
831.08	24182
831.219	24155
831.357	24095
831.496	24388
831.635	24129
831.774	23923
831.913	24053
832.051	23946
832.19	23866
832.329	23946
832.467	23927
832.606	23733
832.744	23843
832.883	23764
833.022	23703
833.16	23737
833.299	23851
833.437	23775
833.576	23889
833.714	23718
833.852	23897
833.991	23927
834.129	23847
834.267	23790
834.406	23726
834.544	23786
834.682	23817
834.821	23802
834.959	23824
835.097	23642
835.235	23866
835.373	23707
835.511	23691
835.65	23566
835.788	23570
835.926	23455
836.064	23376
836.202	23368
836.34	23619
836.478	23695
836.615	23490
836.753	23638
836.891	23707
837.029	23646
837.167	23608
837.305	23592
837.443	23417
837.58	23353
837.718	23558
837.856	23570
837.993	23277
838.131	23356
838.269	23330
838.406	23337
838.544	23136
838.681	23060
838.819	23079
838.956	22869
839.094	22805
839.231	22881
839.369	23075
839.506	23166
839.643	23090
839.781	22881
839.918	22892
840.055	22752
840.193	22831
840.33	22847
840.467	22774
840.604	22850
840.742	23132
840.879	22565
841.016	22649
841.153	22630
841.29	22854
841.427	22687
841.564	22809
841.701	22755
841.838	22649
841.975	22542
842.112	22542
842.249	22535
842.385	22306
842.522	22485
842.659	22527
842.796	22440
842.933	22504
843.069	22481
843.206	22261
843.343	22405
843.479	22424
843.616	22417
843.752	22207
843.889	22143
844.025	22253
844.162	22120
844.298	22246
844.435	22196
844.571	22025
844.708	22204
844.844	22386
844.98	22333
845.117	22185
845.253	22097
845.389	21975
845.525	22040
845.661	21968
845.798	21816
845.934	21903
846.07	21915
846.206	21972
846.342	21941
846.478	21850
846.614	21648
846.75	21625
846.886	21618
847.022	21751
847.158	21686
847.294	21656
847.429	21698
847.565	21542
847.701	21854
847.837	21214
847.972	21237
848.108	21424
848.244	21382
848.379	21184
848.515	21157
848.65	21039
848.786	21184
848.921	21146
849.057	21249
849.192	21207
849.328	21279
849.463	21127
849.598	21112
849.734	21028
849.869	20918
850.004	20929
850.14	20944
850.275	20845
850.41	20826
850.545	20811
850.68	20845
850.815	20872
850.95	20842
851.085	21013
851.22	20963
851.355	20933
851.49	20830
851.625	20815
851.76	20834
851.895	20830
852.03	20781
852.165	20918
852.299	20971
852.434	20990
852.569	20876
852.703	20880
852.838	20842
852.973	20933
853.107	20967
853.242	20823
853.376	20765
853.511	20556
853.645	20594
853.78	20883
853.914	20625
854.048	20659
854.183	20636
854.317	20678
854.451	20807
854.585	20594
854.72	20655
854.854	20678
854.988	20644
855.122	20644
855.256	20507
855.39	20655
855.524	20651
855.658	20609
855.792	20602
855.926	20705
856.06	20621
856.194	20754
856.327	20648
856.461	20636
856.595	20530
856.729	20724
856.862	20800
856.996	20674
857.13	20655
857.263	20739
857.397	20777
857.53	20708
857.664	20606
857.797	20689
857.931	20735
858.064	20712
858.197	20773
858.331	20640
858.464	20590
858.597	20556
858.731	20575
858.864	20602
858.997	20568
859.13	20587
859.263	20655
859.396	20815
859.529	20533
859.662	20648
859.795	20541
859.928	20587
860.061	20674
860.194	20716
860.327	20674
860.46	20579
860.592	20807
860.725	20731
860.858	20667
860.99	20545
861.123	20495
861.256	20488
861.388	20613
861.521	21317
861.653	20476
861.786	20408
861.918	20495
862.05	20522
862.183	20499
862.315	20617
862.447	20674
862.58	20579
862.712	20408
862.844	20187
862.976	20408
863.108	20412
863.24	20689
863.372	20214
863.504	20256
863.636	20377
863.768	20214
863.9	20385
864.032	20237
864.164	20248
864.296	20278
864.428	20347
864.559	20358
864.691	20370
864.823	20355
864.954	20233
865.086	20240
865.217	20248
865.349	20031
865.48	20206
865.612	20210
865.743	20385
865.875	20259
866.006	20157
866.137	20126
866.269	20103
866.4	20320
866.531	20176
866.662	20088
866.793	20092
866.924	20202
867.055	20195
867.186	20145
867.317	20027
867.448	20092
867.579	20126
867.71	20008
867.841	19959
867.972	20111
868.103	20115
868.233	20218
868.364	19986
868.495	20145
868.625	20347
868.756	20454
868.886	20259
869.017	20278
869.147	20450
869.278	20488
869.408	20393
869.539	20278
869.669	20282
869.799	20301
869.929	20434
870.06	20343
870.19	20659
870.32	20632
870.45	20716
870.58	20617
870.71	20861
870.84	20891
870.97	20834
871.1	20724
871.23	20986
871.36	20906
871.489	20883
871.619	20868
871.749	20883
871.879	20998
872.008	21112
872.138	21058
872.267	20906
872.397	20807
872.526	20701
872.656	20773
872.785	20750
872.915	20967
873.044	21055
873.173	20895
873.303	20925
873.432	20979
873.561	21017
873.69	20948
873.819	20963
873.948	20971
874.077	21043
874.206	21051
874.335	20960
874.464	21036
874.593	21256
874.722	21230
874.851	21283
874.979	21378
875.108	21359
875.237	21176
875.365	21119
875.494	21157
875.623	21283
875.751	21123
875.88	21154
876.008	21386
876.136	21401
876.265	21618
876.393	21785
876.521	21846
876.65	21759
876.778	21622
876.906	21698
877.034	21515
877.162	21515
877.29	21405
877.418	21648
877.546	21591
877.674	21595
877.802	21496
877.93	21679
878.058	21492
878.185	21507
878.313	21583
878.441	21530
878.568	21428
878.696	21583
878.824	21526
878.951	21736
879.079	21823
879.206	21842
879.333	21606
879.461	21656
879.588	21774
879.715	21835
879.842	21880
879.97	21587
880.097	21321
880.224	21393
880.351	21420
880.478	21466
880.605	21249
880.732	21443
880.859	21530
880.986	21443
881.112	21549
881.239	21272
881.366	21024
881.493	21161
881.619	21047
881.746	21070
881.872	21058
881.999	21051
882.125	20902
882.252	21085
882.378	21043
882.505	21039
882.631	20826
882.757	20754
882.883	20796
883.01	20807
883.136	20724
883.262	20594
883.388	20598
883.514	20663
883.64	20743
883.766	20609
883.892	20552
884.018	20674
884.143	20712
884.269	20899
884.395	20499
884.52	20480
884.646	20457
884.772	20332
884.897	20320
885.023	20499
885.148	20377
885.274	20621
885.399	20450
885.524	20381
885.65	20358
885.775	20374
885.9	20427
886.025	20415
886.15	20434
886.275	20336
886.4	20271
886.525	20290
886.65	20320
886.775	20275
886.9	20454
887.025	20503
887.149	20457
887.274	20153
887.399	20183
887.523	20237
887.648	20096
887.773	20039
887.897	20180
888.021	20126
888.146	20024
888.27	20221
888.395	20248
888.519	20157
888.643	20157
888.767	20107
888.891	20164
889.015	19932
889.139	20058
889.263	19822
889.387	20084
889.511	20092
889.635	19940
889.759	19921
889.883	19837
890.006	19963
890.13	19967
890.254	19765
890.377	19837
890.501	19761
890.624	19662
890.748	19727
890.871	19658
890.995	19578
891.118	19392
891.241	19518
891.364	19434
891.488	19685
891.611	19445
891.734	19457
891.857	19552
891.98	19476
892.103	19639
892.226	19472
892.349	19392
892.471	19312
892.594	19483
892.717	19464
892.839	19472
892.962	19426
893.085	19400
893.207	19441
893.33	19346
893.452	19266
893.575	19449
893.697	19384
893.819	19586
893.941	19674
894.064	19586
894.186	19236
894.308	19335
894.43	19468
894.552	19529
894.674	19415
894.796	19324
894.918	19384
895.04	19327
895.161	19358
895.283	19449
895.405	19422
895.526	19312
895.648	19381
895.769	19449
895.891	19476
896.012	19632
896.134	19537
896.255	19472
896.376	19620
896.498	19575
896.619	19384
896.74	19388
896.861	19495
896.982	19776
897.103	19887
897.224	19689
897.345	19635
897.466	19521
897.587	19811
897.708	19723
897.828	19818
897.949	19529
898.07	19681
898.19	19605
898.311	19723
898.431	19514
898.552	19700
898.672	19647
898.792	19845
898.913	19704
899.033	19445
899.153	19499
899.273	19278
899.393	19472
899.513	19445
899.633	19293
899.753	19346
899.873	19343
899.993	19339
900.113	19301
900.232	19343
900.352	19270
900.472	19190
900.591	19232
900.711	19175
900.83	19118
900.95	19247
901.069	19297
901.189	18989
901.308	18852
901.427	18939
901.546	18673
901.665	18787
901.784	18776
901.904	18612
902.023	18551
902.141	18380
902.26	18285
902.379	18262
902.498	18330
902.617	18220
902.735	18285
902.854	18216
902.973	18232
903.091	18038
903.21	17885
903.328	17958
903.446	17942
903.565	17767
903.683	17855
903.801	17726
903.919	17771
904.038	17703
904.156	17619
904.274	17627
904.392	17547
904.51	17551
904.627	17467
904.745	17520
904.863	17630
904.981	17242
905.098	17124
905.216	17200
905.334	17280
905.451	17265
905.569	17147
905.686	17239
905.803	17273
905.921	17025
906.038	17143
906.155	17052
906.272	16968
906.389	16896
906.506	16748
906.623	16763
906.74	16828
906.857	16565
906.974	16584
907.091	16748
907.208	16816
907.324	16759
907.441	16664
907.557	16443
907.674	16436
907.79	16443
907.907	16493
908.023	16497
908.139	16382
908.256	16299
908.372	16261
908.488	16348
908.604	16162
908.72	16074
908.836	16131
908.952	16116
909.068	16139
909.184	16154
909.3	16055
909.415	16090
909.531	16223
909.647	15823
909.762	15793
909.878	15808
909.993	15835
910.108	15739
910.224	15747
910.339	15865
910.454	15610
910.57	15644
910.685	15515
910.8	15873
910.915	15679
911.03	15576
911.145	15424
911.259	15344
911.374	15386
911.489	15386
911.604	15222
911.718	15119
911.833	15089
911.947	15116
912.062	15001
912.176	15077
912.291	15150
912.405	15032
912.519	15355
912.633	15249
912.748	15214
912.862	15058
912.976	14914
913.09	14857
913.204	14975
913.318	14952
913.431	15085
913.545	14990
913.659	15058
913.772	14857
913.886	14830
914	14724
914.113	14849
914.226	14861
914.34	14796
914.453	14644
914.566	14826
914.68	14667
914.793	14590
914.906	14518
915.019	14423
915.132	14343
915.245	14450
915.358	14438
915.47	14423
915.583	14400
915.696	14351
915.809	14530
915.921	14511
916.034	14339
916.146	14336
916.259	14278
916.371	14313
916.483	14412
916.595	14267
916.708	14324
916.82	14259
916.932	14233
917.044	14210
917.156	14187
917.268	14100
917.38	14164
917.491	14012
917.603	14077
917.715	14206
917.826	14172
917.938	13986
918.049	13864
918.161	14058
918.272	14229
918.384	14153
918.495	14005
918.606	13909
918.717	13811
918.828	13906
918.939	13845
919.05	13651
919.161	13818
919.272	13677
919.383	13670
919.494	13913
919.604	14008
919.715	13772
919.826	13674
919.936	13769
920.047	13845
920.157	13742
920.267	14077
920.378	13742
920.488	13791
920.598	13982
920.708	14130
920.818	13947
920.928	13883
921.038	14058
921.148	13921
921.258	13715
921.368	13696
921.477	13632
921.587	13457
921.697	13441
921.806	13525
921.916	13445
922.025	13289
922.134	13228
922.244	13099
922.353	13270
922.462	13027
922.571	12966
922.68	12886
922.789	12745
922.898	12890
923.007	12840
923.116	12810
923.224	12795
923.333	12776
923.442	12654
923.55	12582
923.659	12688
923.767	12677
923.876	12631
923.984	12665
924.092	12639
924.201	12593
924.309	12616
924.417	12597
924.525	12570
924.633	12490
924.741	13259
924.849	12304
924.956	12365
925.064	12334
925.172	12182
925.279	12289
925.387	12266
925.494	12247
925.602	12502
925.709	12304
925.816	12209
925.924	12300
926.031	12308
926.138	12247
926.245	12247
926.352	12167
926.459	12243
926.566	12388
926.673	12098
926.779	12034
926.886	11996
926.993	11866
927.099	11851
927.206	11859
927.312	11847
927.419	11908
927.525	11786
927.631	11863
927.737	11634
927.843	11665
927.95	11680
928.056	11657
928.162	11653
928.267	11745
928.373	12281
928.479	11836
928.585	11623
928.69	11573
928.796	11596
928.901	11463
929.007	11425
929.112	11543
929.218	11543
929.323	11478
929.428	11395
929.533	11543
929.638	11372
929.743	11474
929.848	11486
929.953	11360
930.058	11307
930.163	11151
930.267	11239
930.372	11318
930.477	11048
930.581	11239
930.685	11143
930.79	10987
930.894	11064
930.998	11094
931.103	11151
931.207	10915
931.311	10748
931.415	10668
931.519	10356
931.623	10428
