Data from test_V78500241_1130.txt Node
Date: Fri Mar 25 15:17:43 CST 2022
User: usil
Spectrometer: V785-0024
Trigger mode: 0
Integration Time (sec): 4.000000E-1
Scans to average: 1
Nonlinearity correction enabled: false
Boxcar width: 0
Storing dark spectrum: false
XAxis mode: Wavelengths
Number of Pixels in Spectrum: 1024
>>>>>Begin Spectral Data<<<<<
801.071	28303
801.214	28211
801.356	27975
801.499	27956
801.641	27774
801.783	27812
801.926	27816
802.068	27755
802.211	27690
802.353	27591
802.496	27549
802.638	27549
802.78	27583
802.923	27450
803.065	27431
803.208	27405
803.35	27439
803.492	27724
803.635	27785
803.777	27542
803.919	27618
804.061	27994
804.204	27831
804.346	27675
804.488	27519
804.63	27679
804.773	27675
804.915	27606
805.057	27766
805.199	27861
805.341	27743
805.483	27759
805.626	27857
805.768	27823
805.91	27861
806.052	27774
806.194	27835
806.336	27945
806.478	27854
806.62	27956
806.762	28048
806.904	28124
807.046	28196
807.188	28322
807.33	28295
807.472	28443
807.614	28200
807.756	28333
807.898	28131
808.04	28162
808.182	28021
808.324	28230
808.465	28162
808.607	28440
808.749	28634
808.891	28466
809.033	28702
809.174	28618
809.316	28470
809.458	28470
809.6	28599
809.741	28645
809.883	28569
810.025	28702
810.166	28869
810.308	28790
810.45	28744
810.591	28660
810.733	28588
810.875	28470
811.016	28504
811.158	28500
811.299	28523
811.441	28656
811.582	28660
811.724	28637
811.865	28664
812.007	28531
812.148	28508
812.29	28577
812.431	28733
812.573	28816
812.714	28911
812.855	28991
812.997	29067
813.138	29277
813.279	29239
813.421	29193
813.562	28987
813.703	28839
813.845	28664
813.986	28440
814.127	28413
814.268	28143
814.41	28211
814.551	28318
814.692	28333
814.833	28173
814.974	28196
815.115	28238
815.256	28139
815.397	28139
815.539	28078
815.68	27998
815.821	27876
815.962	28017
816.103	27880
816.244	27895
816.385	27914
816.526	27827
816.666	27682
816.807	27599
816.948	27644
817.089	27698
817.23	27682
817.371	27511
817.512	27583
817.653	27488
817.793	27466
817.934	27572
818.075	27530
818.216	27755
818.356	27545
818.497	27427
818.638	27188
818.778	27287
818.919	27279
819.06	27359
819.2	27336
819.341	27511
819.481	27553
819.622	27698
819.762	27861
819.903	27781
820.043	27827
820.184	27732
820.324	27576
820.465	27861
820.605	27682
820.746	27728
820.886	27504
821.026	27629
821.167	27641
821.307	27629
821.447	27660
821.588	27549
821.728	27447
821.868	27070
822.008	27066
822.149	27039
822.289	26963
822.429	26857
822.569	26712
822.709	26712
822.849	26514
822.99	26453
823.13	26537
823.27	26446
823.41	26404
823.55	26282
823.69	26450
823.83	26450
823.97	26450
824.11	26183
824.25	26073
824.389	26202
824.529	26218
824.669	26233
824.809	26237
824.949	26320
825.089	26358
825.228	26298
825.368	26214
825.508	26142
825.648	26176
825.787	26012
825.927	26240
826.067	26149
826.206	26100
826.346	26202
826.485	26145
826.625	26039
826.765	26282
826.904	26172
827.044	25989
827.183	26069
827.323	25902
827.462	25959
827.601	25830
827.741	25750
827.88	25761
828.02	25807
828.159	25906
828.298	25921
828.437	25959
828.577	25772
828.716	25871
828.855	25734
828.994	25666
829.134	25559
829.273	25597
829.412	25464
829.551	25533
829.69	25472
829.829	25476
829.968	25639
830.107	25647
830.246	25590
830.385	25434
830.524	25537
830.663	25266
830.802	25324
830.941	25206
831.08	25061
831.219	25240
831.357	25301
831.496	25445
831.635	25160
831.774	25069
831.913	25004
832.051	24894
832.19	24909
832.329	24863
832.467	24996
832.606	24776
832.744	24848
832.883	24798
833.022	24825
833.16	25015
833.299	24958
833.437	24901
833.576	24943
833.714	25057
833.852	24954
833.991	24920
834.129	24992
834.267	24913
834.406	24924
834.544	25050
834.682	25038
834.821	24825
834.959	24928
835.097	24856
835.235	25023
835.373	24962
835.511	24932
835.65	24734
835.788	24867
835.926	24623
836.064	24684
836.202	24570
836.34	24802
836.478	24802
836.615	24776
836.753	24749
836.891	24734
837.029	24730
837.167	24741
837.305	24673
837.443	24688
837.58	24559
837.718	24688
837.856	24642
837.993	24749
838.131	24623
838.269	24433
838.406	24544
838.544	24483
838.681	24327
838.819	24178
838.956	24114
839.094	24144
839.231	24174
839.369	24232
839.506	24292
839.643	24254
839.781	24038
839.918	23885
840.055	24121
840.193	23916
840.33	24003
840.467	24117
840.604	23980
840.742	24205
840.879	23847
841.016	23798
841.153	23878
841.29	24182
841.427	23912
841.564	24030
841.701	24007
841.838	23821
841.975	23851
842.112	23851
842.249	23729
842.385	23756
842.522	23904
842.659	23817
842.796	23737
842.933	23733
843.069	23741
843.206	23741
843.343	23874
843.479	23634
843.616	23802
843.752	23630
843.889	23596
844.025	23726
844.162	23531
844.298	23687
844.435	23570
844.571	23512
844.708	23653
844.844	23764
844.98	23668
845.117	23619
845.253	23429
845.389	23417
845.525	23509
845.661	23383
845.798	23284
845.934	23318
846.07	23220
846.206	23178
846.342	23417
846.478	23174
846.614	22953
846.75	22877
846.886	22900
847.022	22949
847.158	23029
847.294	22873
847.429	22976
847.565	22946
847.701	23166
847.837	22736
847.972	22771
848.108	22778
848.244	22740
848.379	22733
848.515	22519
848.65	22580
848.786	22634
848.921	22516
849.057	22664
849.192	22531
849.328	22538
849.463	22527
849.598	22527
849.734	22462
849.869	22512
850.004	22284
850.14	22329
850.275	22375
850.41	22261
850.545	22268
850.68	22371
850.815	22455
850.95	22150
851.085	22519
851.22	22504
851.355	22421
851.49	22291
851.625	22440
851.76	22162
851.895	22154
852.03	22314
852.165	22303
852.299	22455
852.434	22348
852.569	22481
852.703	22287
852.838	22382
852.973	22428
853.107	22352
853.242	22360
853.376	22238
853.511	22112
853.645	22147
853.78	22204
853.914	22112
854.048	22067
854.183	22063
854.317	22150
854.451	22322
854.585	22185
854.72	22143
854.854	22280
854.988	22029
855.122	22078
855.256	21918
855.39	22154
855.524	22166
855.658	22128
855.792	22238
855.926	22207
856.06	22078
856.194	22200
856.327	22055
856.461	22215
856.595	22021
856.729	22192
856.862	22310
856.996	22230
857.13	22162
857.263	22276
857.397	22124
857.53	22090
857.664	22147
857.797	22150
857.931	22291
858.064	22128
858.197	22185
858.331	22032
858.464	22093
858.597	21964
858.731	22063
858.864	22131
858.997	22253
859.13	22272
859.263	22059
859.396	22192
859.529	22166
859.662	22006
859.795	22154
859.928	22090
860.061	22272
860.194	22398
860.327	22196
860.46	22211
860.592	22276
860.725	22306
860.858	22276
860.99	22204
861.123	22017
861.256	22063
861.388	22169
861.521	22908
861.653	22002
861.786	21873
861.918	21964
862.05	21956
862.183	21983
862.315	22070
862.447	22044
862.58	22006
862.712	21880
862.844	21850
862.976	21895
863.108	21903
863.24	22344
863.372	21804
863.504	21922
863.636	21960
863.768	21895
863.9	21838
864.032	21816
864.164	21800
864.296	21686
864.428	21918
864.559	21915
864.691	22013
864.823	21789
864.954	21804
865.086	21717
865.217	21819
865.349	21633
865.48	21728
865.612	21739
865.743	21899
865.875	21656
866.006	21667
866.137	21671
866.269	21762
866.4	21682
866.531	21633
866.662	21686
866.793	21622
866.924	21641
867.055	21724
867.186	21671
867.317	21523
867.448	21511
867.579	21694
867.71	21568
867.841	21629
867.972	21660
868.103	21614
868.233	21526
868.364	21747
868.495	21603
868.625	21922
868.756	21899
868.886	21804
869.017	21899
869.147	21937
869.278	22017
869.408	21804
869.539	21895
869.669	22055
869.799	21838
869.929	22017
870.06	21934
870.19	22265
870.32	22196
870.45	22226
870.58	22276
870.71	22268
870.84	22394
870.97	22341
871.1	22234
871.23	22440
871.36	22451
871.489	22337
871.619	22375
871.749	22379
871.879	22550
872.008	22569
872.138	22535
872.267	22462
872.397	22371
872.526	22226
872.656	22360
872.785	22424
872.915	22611
873.044	22497
873.173	22428
873.303	22481
873.432	22481
873.561	22611
873.69	22481
873.819	22489
873.948	22470
874.077	22493
874.206	22474
874.335	22497
874.464	22565
874.593	22793
874.722	22698
874.851	22759
874.979	22713
875.108	22771
875.237	22645
875.365	22588
875.494	22702
875.623	22755
875.751	22729
875.88	22641
876.008	22835
876.136	22904
876.265	23060
876.393	23220
876.521	23250
876.65	23269
876.778	23140
876.906	23018
877.034	23121
877.162	23132
877.29	23033
877.418	23044
877.546	23098
877.674	22991
877.802	23029
877.93	22961
878.058	23018
878.185	22923
878.313	22877
878.441	22976
878.568	22881
878.696	22858
878.824	23098
878.951	23143
879.079	23166
879.206	23303
879.333	23174
879.461	23090
879.588	23235
879.715	23315
879.842	23311
879.97	23086
880.097	23029
880.224	22828
880.351	22896
880.478	22885
880.605	22873
880.732	22854
880.859	23094
880.986	23014
881.112	22858
881.239	22744
881.366	22683
881.493	22542
881.619	22310
881.746	22436
881.872	22440
881.999	22504
882.125	22318
882.252	22466
882.378	22421
882.505	22535
882.631	22428
882.757	22158
882.883	22166
883.01	22143
883.136	21987
883.262	21979
883.388	21968
883.514	22109
883.64	22177
883.766	22116
883.892	21838
884.018	21831
884.143	22112
884.269	22253
884.395	21819
884.52	21854
884.646	21728
884.772	21743
884.897	21713
885.023	21732
885.148	21892
885.274	22032
885.399	21850
885.524	21827
885.65	21759
885.775	21808
885.9	21724
886.025	21835
886.15	21854
886.275	21507
886.4	21671
886.525	21644
886.65	21679
886.775	21717
886.9	21774
887.025	21869
887.149	21641
887.274	21572
887.399	21595
887.523	21515
887.648	21504
887.773	21450
887.897	21660
888.021	21534
888.146	21538
888.27	21663
888.395	21656
888.519	21595
888.643	21576
888.767	21542
888.891	21405
889.015	21321
889.139	21321
889.263	21332
889.387	21435
889.511	21515
889.635	21401
889.759	21184
889.883	21340
890.006	21310
890.13	21428
890.254	21283
890.377	21154
890.501	21100
890.624	21024
890.748	21104
890.871	20868
890.995	20937
891.118	20895
891.241	20861
891.364	20830
891.488	21077
891.611	20754
891.734	20807
891.857	20838
891.98	20807
892.103	20929
892.226	20842
892.349	20754
892.471	20674
892.594	20686
892.717	20857
892.839	20739
892.962	20838
893.085	20880
893.207	20796
893.33	20750
893.452	20674
893.575	20720
893.697	20750
893.819	20918
893.941	20880
894.064	20861
894.186	20743
894.308	20518
894.43	20792
894.552	20891
894.674	20864
894.796	20670
894.918	20708
895.04	20686
895.161	20826
895.283	20743
895.405	20762
895.526	20727
895.648	20686
895.769	20663
895.891	20868
896.012	20792
896.134	20796
896.255	20724
896.376	20731
896.498	20644
896.619	20750
896.74	20731
896.861	20769
896.982	20948
897.103	21032
897.224	21074
897.345	21043
897.466	20754
897.587	20960
897.708	21077
897.828	21020
897.949	20880
898.07	20868
898.19	20876
898.311	20971
898.431	20826
898.552	20872
898.672	20948
898.792	21047
898.913	20994
899.033	20773
899.153	20785
899.273	20522
899.393	20674
899.513	20727
899.633	20621
899.753	20625
899.873	20663
899.993	20636
900.113	20473
900.232	20575
900.352	20461
900.472	20587
900.591	20309
900.711	20431
900.83	20396
900.95	20454
901.069	20374
901.189	20252
901.308	19986
901.427	19940
901.546	19970
901.665	20065
901.784	19894
901.904	19803
902.023	19727
902.141	19468
902.26	19540
902.379	19670
902.498	19445
902.617	19499
902.735	19480
902.854	19430
902.973	19407
903.091	19183
903.21	19145
903.328	19206
903.446	19091
903.565	18943
903.683	18958
903.801	18859
903.919	18757
904.038	18882
904.156	18806
904.274	18825
904.392	18719
904.51	18677
904.627	18753
904.745	18776
904.863	18791
904.981	18544
905.098	18289
905.216	18319
905.334	18391
905.451	18380
905.569	18285
905.686	18353
905.803	18414
905.921	18205
906.038	18350
906.155	18285
906.272	18140
906.389	18117
906.506	17988
906.623	17996
906.74	17874
906.857	17870
906.974	17920
907.091	17878
907.208	17999
907.324	17923
907.441	17790
907.557	17566
907.674	17699
907.79	17490
907.907	17627
908.023	17649
908.139	17611
908.256	17623
908.372	17474
908.488	17573
908.604	17402
908.72	17277
908.836	17459
908.952	17452
909.068	17398
909.184	17448
909.3	17387
909.415	17280
909.531	17364
909.647	17079
909.762	17166
909.878	16995
909.993	17117
910.108	17003
910.224	16938
910.339	17025
910.454	16934
910.57	16927
910.685	16847
910.8	17045
910.915	17064
911.03	16904
911.145	16679
911.259	16653
911.374	16653
911.489	16561
911.604	16554
911.718	16405
911.833	16356
911.947	16246
912.062	16341
912.176	16504
912.291	16447
912.405	16455
912.519	16531
912.633	16459
912.748	16363
912.862	16344
912.976	16192
913.09	16112
913.204	16166
913.318	16303
913.431	16306
913.545	16379
913.659	16223
913.772	16086
913.886	16116
914	16006
914.113	15998
914.226	16124
914.34	16097
914.453	15816
914.566	16017
914.68	15941
914.793	15823
914.906	15644
915.019	15591
915.132	15462
915.245	15595
915.358	15625
915.47	15603
915.583	15679
915.696	15603
915.809	15739
915.921	15732
916.034	15515
916.146	15458
916.259	15420
916.371	15549
916.483	15629
916.595	15458
916.708	15359
916.82	15462
916.932	15317
917.044	15431
917.156	15367
917.268	15230
917.38	15306
917.491	15176
917.603	15233
917.715	15313
917.826	15336
917.938	15272
918.049	15036
918.161	15100
918.272	15180
918.384	15264
918.495	15154
918.606	15085
918.717	14921
918.828	14925
918.939	15028
919.05	14785
919.161	14826
919.272	14712
919.383	14861
919.494	15032
919.604	15131
919.715	14990
919.826	14815
919.936	14880
920.047	14975
920.157	14982
920.267	15222
920.378	14921
920.488	14986
920.598	15104
920.708	15176
920.818	15013
920.928	15081
921.038	15287
921.148	15176
921.258	14876
921.368	14769
921.477	14636
921.587	14606
921.697	14552
921.806	14678
921.916	14579
922.025	14385
922.134	14332
922.244	14275
922.353	14256
922.462	14138
922.571	14138
922.68	14027
922.789	13921
922.898	14039
923.007	13913
923.116	13921
923.224	13963
923.333	13860
923.442	13765
923.55	13681
923.659	13666
923.767	13784
923.876	13696
923.984	13814
924.092	13609
924.201	13670
924.309	13613
924.417	13594
924.525	13643
924.633	13681
924.741	14480
924.849	13343
924.956	13544
925.064	13301
925.172	13263
925.279	13343
925.387	13369
925.494	13274
925.602	13422
925.709	13422
925.816	13282
925.924	13221
926.031	13358
926.138	13278
926.245	13343
926.352	13114
926.459	13270
926.566	13362
926.673	13236
926.779	13034
926.886	13000
926.993	12840
927.099	12856
927.206	12890
927.312	12760
927.419	12939
927.525	12837
927.631	12798
927.737	12783
927.843	12806
927.95	12532
928.056	12696
928.162	12612
928.267	12753
928.373	13209
928.479	12715
928.585	12536
928.69	12608
928.796	12696
928.901	12509
929.007	12422
929.112	12544
929.218	12456
929.323	12422
929.428	12410
929.533	12525
929.638	12353
929.743	12391
929.848	12384
929.953	12410
930.058	12289
930.163	12034
930.267	12144
930.372	12186
930.477	12041
930.581	12254
930.685	12190
930.79	11961
930.894	11969
930.998	11946
931.103	12041
931.207	11756
931.311	11695
931.415	11528
931.519	11299
931.623	11337
