Data from test_V78500241_3172.txt Node
Date: Fri Mar 25 15:31:56 CST 2022
User: usil
Spectrometer: V785-0024
Trigger mode: 0
Integration Time (sec): 4.000000E-1
Scans to average: 1
Nonlinearity correction enabled: false
Boxcar width: 0
Storing dark spectrum: false
XAxis mode: Wavelengths
Number of Pixels in Spectrum: 1024
>>>>>Begin Spectral Data<<<<<
801.071	27154
801.214	27207
801.356	26925
801.499	26823
801.641	26648
801.783	26640
801.926	26750
802.068	26670
802.211	26613
802.353	26514
802.496	26419
802.638	26298
802.78	26278
802.923	26195
803.065	26134
803.208	26229
803.35	26343
803.492	26442
803.635	26461
803.777	26218
803.919	26355
804.061	26743
804.204	26408
804.346	26328
804.488	26389
804.63	26476
804.773	26393
804.915	26374
805.057	26480
805.199	26560
805.341	26552
805.483	26621
805.626	26712
805.768	26412
805.91	26514
806.052	26530
806.194	26431
806.336	26644
806.478	26404
806.62	26518
806.762	26537
806.904	26727
807.046	27047
807.188	26998
807.33	26906
807.472	26971
807.614	26792
807.756	26925
807.898	26762
808.04	26765
808.182	26857
808.324	26880
808.465	26986
808.607	26933
808.749	27192
808.891	27298
809.033	27401
809.174	27135
809.316	27116
809.458	27222
809.6	27184
809.741	27104
809.883	27211
810.025	27351
810.166	27439
810.308	27382
810.45	27329
810.591	27386
810.733	27302
810.875	27135
811.016	27154
811.158	26960
811.299	27165
811.441	27287
811.582	27169
811.724	27237
811.865	27024
812.007	27131
812.148	27161
812.29	27176
812.431	27291
812.573	27450
812.714	27336
812.855	27606
812.997	27717
813.138	27728
813.279	27774
813.421	27599
813.562	27629
813.703	27488
813.845	27256
813.986	27017
814.127	26861
814.268	26872
814.41	26762
814.551	26746
814.692	26902
814.833	26796
814.974	26705
815.115	26785
815.256	26598
815.397	26545
815.539	26598
815.68	26552
815.821	26393
815.962	26499
816.103	26552
816.244	26206
816.385	26294
816.526	26286
816.666	26157
816.807	25940
816.948	25993
817.089	26054
817.23	26157
817.371	26020
817.512	26073
817.653	26027
817.793	25963
817.934	26065
818.075	25997
818.216	26088
818.356	26020
818.497	25947
818.638	25803
818.778	25913
818.919	25753
819.06	25890
819.2	25909
819.341	26050
819.481	26077
819.622	26199
819.762	26438
819.903	26233
820.043	26142
820.184	26031
820.324	26183
820.465	26218
820.605	26130
820.746	26043
820.886	25966
821.026	26035
821.167	26100
821.307	25921
821.447	25951
821.588	25860
821.728	25788
821.868	25620
822.008	25460
822.149	25483
822.289	25400
822.429	25240
822.569	25198
822.709	25168
822.849	25053
822.99	25027
823.13	24871
823.27	24977
823.41	24791
823.55	24715
823.69	24894
823.83	24741
823.97	24909
824.11	24601
824.25	24631
824.389	24555
824.529	24738
824.669	24566
824.809	24620
824.949	24829
825.089	24726
825.228	24559
825.368	24365
825.508	24433
825.648	24353
825.787	24433
825.927	24547
826.067	24467
826.206	24441
826.346	24521
826.485	24426
826.625	24460
826.765	24574
826.904	24517
827.044	24292
827.183	24273
827.323	24159
827.462	24296
827.601	24224
827.741	24163
827.88	24281
828.02	24072
828.159	24228
828.298	24201
828.437	24144
828.577	24106
828.716	24266
828.855	24098
828.994	23984
829.134	23927
829.273	23942
829.412	23851
829.551	23733
829.69	23752
829.829	23904
829.968	24015
830.107	23950
830.246	23882
830.385	23722
830.524	23832
830.663	23809
830.802	23596
830.941	23577
831.08	23478
831.219	23570
831.357	23608
831.496	23649
831.635	23448
831.774	23360
831.913	23318
832.051	23181
832.19	23220
832.329	23307
832.467	23216
832.606	23067
832.744	23151
832.883	23189
833.022	23242
833.16	23258
833.299	23349
833.437	23292
833.576	23269
833.714	23254
833.852	23292
833.991	23360
834.129	23417
834.267	23200
834.406	23235
834.544	23318
834.682	23231
834.821	23250
834.959	23478
835.097	23113
835.235	23414
835.373	23166
835.511	23242
835.65	23189
835.788	23170
835.926	23060
836.064	23010
836.202	22847
836.34	23151
836.478	23121
836.615	23341
836.753	23166
836.891	23189
837.029	23109
837.167	23079
837.305	23018
837.443	22908
837.58	22911
837.718	23086
837.856	22904
837.993	22934
838.131	22930
838.269	22793
838.406	22889
838.544	22858
838.681	22607
838.819	22656
838.956	22440
839.094	22485
839.231	22443
839.369	22801
839.506	22672
839.643	22588
839.781	22466
839.918	22390
840.055	22344
840.193	22424
840.33	22196
840.467	22352
840.604	22459
840.742	22668
840.879	22166
841.016	22306
841.153	22314
841.29	22382
841.427	22390
841.564	22421
841.701	22363
841.838	22261
841.975	22249
842.112	22344
842.249	22318
842.385	22090
842.522	22363
842.659	22215
842.796	22181
842.933	22101
843.069	22086
843.206	22105
843.343	22192
843.479	22196
843.616	22090
843.752	21964
843.889	21865
844.025	22044
844.162	21930
844.298	22029
844.435	21873
844.571	21831
844.708	22010
844.844	21987
844.98	21903
845.117	22109
845.253	21873
845.389	21793
845.525	21720
845.661	21713
845.798	21656
845.934	21675
846.07	21660
846.206	21759
846.342	21781
846.478	21648
846.614	21557
846.75	21294
846.886	21355
847.022	21298
847.158	21428
847.294	21424
847.429	21348
847.565	21313
847.701	21652
847.837	21150
847.972	21081
848.108	21180
848.244	21275
848.379	21024
848.515	21051
848.65	20948
848.786	21062
848.921	20815
849.057	21169
849.192	21051
849.328	21039
849.463	20998
849.598	20918
849.734	20883
849.869	20853
850.004	20731
850.14	20663
850.275	20735
850.41	20765
850.545	20754
850.68	20750
850.815	20811
850.95	20670
851.085	20895
851.22	20811
851.355	20765
851.49	20678
851.625	20781
851.76	20670
851.895	20678
852.03	20598
852.165	20636
852.299	20819
852.434	20758
852.569	20743
852.703	20697
852.838	20762
852.973	20800
853.107	20811
853.242	20705
853.376	20560
853.511	20393
853.645	20571
853.78	20640
853.914	20594
854.048	20415
854.183	20640
854.317	20549
854.451	20750
854.585	20549
854.72	20533
854.854	20552
854.988	20590
855.122	20632
855.256	20434
855.39	20568
855.524	20682
855.658	20590
855.792	20613
855.926	20545
856.06	20522
856.194	20651
856.327	20419
856.461	20412
856.595	20552
856.729	20648
856.862	20693
856.996	20739
857.13	20606
857.263	20629
857.397	20560
857.53	20514
857.664	20686
857.797	20556
857.931	20602
858.064	20629
858.197	20606
858.331	20556
858.464	20431
858.597	20514
858.731	20552
858.864	20492
858.997	20484
859.13	20632
859.263	20583
859.396	20663
859.529	20537
859.662	20492
859.795	20617
859.928	20568
860.061	20720
860.194	20796
860.327	20571
860.46	20594
860.592	20644
860.725	20701
860.858	20613
860.99	20484
861.123	20503
861.256	20503
861.388	20545
861.521	21180
861.653	20415
861.786	20259
861.918	20381
862.05	20473
862.183	20423
862.315	20469
862.447	20568
862.58	20431
862.712	20408
862.844	20351
862.976	20415
863.108	20320
863.24	20682
863.372	20142
863.504	20263
863.636	20252
863.768	20381
863.9	20400
864.032	20244
864.164	20240
864.296	20324
864.428	20404
864.559	20275
864.691	20305
864.823	20229
864.954	20332
865.086	20202
865.217	20218
865.349	20149
865.48	20210
865.612	20221
865.743	20393
865.875	20229
866.006	20183
866.137	20088
866.269	20240
866.4	20237
866.531	20126
866.662	20096
866.793	20122
866.924	20161
867.055	20107
867.186	20191
867.317	20096
867.448	20005
867.579	20050
867.71	20149
867.841	20046
867.972	20172
868.103	20115
868.233	20161
868.364	20081
868.495	20126
868.625	20400
868.756	20480
868.886	20233
869.017	20351
869.147	20461
869.278	20427
869.408	20454
869.539	20317
869.669	20393
869.799	20374
869.929	20499
870.06	20556
870.19	20663
870.32	20708
870.45	20697
870.58	20750
870.71	20826
870.84	20883
870.97	20826
871.1	20845
871.23	20868
871.36	21020
871.489	20849
871.619	21005
871.749	21058
871.879	20998
872.008	21077
872.138	20948
872.267	21055
872.397	20891
872.526	20826
872.656	20815
872.785	20880
872.915	21077
873.044	21024
873.173	21051
873.303	21001
873.432	21039
873.561	21138
873.69	21001
873.819	20937
873.948	21070
874.077	20929
874.206	21017
874.335	21009
874.464	21036
874.593	21298
874.722	21199
874.851	21237
874.979	21233
875.108	21279
875.237	21161
875.365	21013
875.494	21131
875.623	21291
875.751	21252
875.88	21245
876.008	21298
876.136	21488
876.265	21641
876.393	21701
876.521	21720
876.65	21778
876.778	21778
876.906	21580
877.034	21656
877.162	21606
877.29	21606
877.418	21591
877.546	21583
877.674	21625
877.802	21583
877.93	21599
878.058	21580
878.185	21492
878.313	21564
878.441	21637
878.568	21393
878.696	21492
878.824	21648
878.951	21682
879.079	21816
879.206	21884
879.333	21747
879.461	21557
879.588	21572
879.715	21747
879.842	21819
879.97	21690
880.097	21412
880.224	21367
880.351	21405
880.478	21481
880.605	21431
880.732	21572
880.859	21576
880.986	21428
881.112	21526
881.239	21351
881.366	21203
881.493	21058
881.619	21039
881.746	20998
881.872	20971
881.999	20914
882.125	20937
882.252	21001
882.378	20963
882.505	21058
882.631	20739
882.757	20651
882.883	20872
883.01	20785
883.136	20754
883.262	20655
883.388	20560
883.514	20617
883.64	20743
883.766	20579
883.892	20377
884.018	20511
884.143	20530
884.269	20815
884.395	20339
884.52	20476
884.646	20305
884.772	20400
884.897	20298
885.023	20301
885.148	20446
885.274	20415
885.399	20511
885.524	20495
885.65	20244
885.775	20275
885.9	20332
886.025	20400
886.15	20442
886.275	20229
886.4	20301
886.525	20275
886.65	20240
886.775	20240
886.9	20461
887.025	20670
887.149	20301
887.274	20138
887.399	19978
887.523	20039
887.648	20069
887.773	20130
887.897	20214
888.021	20210
888.146	20111
888.27	20233
888.395	20263
888.519	20180
888.643	20275
888.767	20206
888.891	20119
889.015	19940
889.139	19997
889.263	19970
889.387	20088
889.511	20191
889.635	20065
889.759	19871
889.883	19784
890.006	19959
890.13	20001
890.254	19856
890.377	19925
890.501	19689
890.624	19803
890.748	19799
890.871	19647
890.995	19453
891.118	19464
891.241	19594
891.364	19502
891.488	19609
891.611	19510
891.734	19548
891.857	19559
891.98	19518
892.103	19537
892.226	19422
892.349	19540
892.471	19369
892.594	19415
892.717	19472
892.839	19438
892.962	19411
893.085	19434
893.207	19537
893.33	19400
893.452	19343
893.575	19548
893.697	19453
893.819	19643
893.941	19567
894.064	19563
894.186	19434
894.308	19411
894.43	19544
894.552	19613
894.674	19563
894.796	19388
894.918	19396
895.04	19297
895.161	19609
895.283	19544
895.405	19403
895.526	19495
895.648	19419
895.769	19506
895.891	19510
896.012	19499
896.134	19449
896.255	19362
896.376	19377
896.498	19487
896.619	19540
896.74	19388
896.861	19445
896.982	19750
897.103	19868
897.224	19727
897.345	19552
897.466	19662
897.587	19624
897.708	19845
897.828	19791
897.949	19586
898.07	19521
898.19	19647
898.311	19635
898.431	19738
898.552	19651
898.672	19871
898.792	19738
898.913	19677
899.033	19635
899.153	19483
899.273	19354
899.393	19468
899.513	19411
899.633	19407
899.753	19445
899.873	19362
899.993	19384
900.113	19350
900.232	19438
900.352	19339
900.472	19320
900.591	19133
900.711	19171
900.83	19251
900.95	19339
901.069	19324
901.189	19217
901.308	18970
901.427	18825
901.546	18943
901.665	18863
901.784	18878
901.904	18692
902.023	18574
902.141	18479
902.26	18346
902.379	18475
902.498	18456
902.617	18319
902.735	18407
902.854	18391
902.973	18213
903.091	18159
903.21	17927
903.328	17942
903.446	17889
903.565	17882
903.683	17817
903.801	17707
903.919	17756
904.038	17767
904.156	17516
904.274	17691
904.392	17570
904.51	17520
904.627	17608
904.745	17596
904.863	17665
904.981	17345
905.098	17330
905.216	17273
905.334	17440
905.451	17258
905.569	17318
905.686	17277
905.803	17296
905.921	17075
906.038	17189
906.155	17048
906.272	16915
906.389	17033
906.506	16778
906.623	16828
906.74	16835
906.857	16687
906.974	16771
907.091	16862
907.208	16976
907.324	16862
907.441	16637
907.557	16573
907.674	16569
907.79	16451
907.907	16588
908.023	16592
908.139	16424
908.256	16462
908.372	16443
908.488	16390
908.604	16261
908.72	16261
908.836	16238
908.952	16299
909.068	16242
909.184	16265
909.3	16280
909.415	16242
909.531	16295
909.647	16013
909.762	15960
909.878	15964
909.993	15975
910.108	15994
910.224	15869
910.339	15949
910.454	15892
910.57	15778
910.685	15660
910.8	15960
910.915	15865
911.03	15816
911.145	15542
911.259	15622
911.374	15549
911.489	15424
911.604	15405
911.718	15374
911.833	15389
911.947	15260
912.062	15165
912.176	15397
912.291	15359
912.405	15268
912.519	15530
912.633	15557
912.748	15386
912.862	15332
912.976	15188
913.09	15062
913.204	15047
913.318	15245
913.431	15241
913.545	15211
913.659	15249
913.772	15169
913.886	14918
914	14899
914.113	15039
914.226	15192
914.34	14971
914.453	14910
914.566	14921
914.68	14804
914.793	14773
914.906	14670
915.019	14526
915.132	14522
915.245	14571
915.358	14537
915.47	14670
915.583	14564
915.696	14610
915.809	14651
915.921	14716
916.034	14412
916.146	14469
916.259	14495
916.371	14556
916.483	14606
916.595	14438
916.708	14469
916.82	14514
916.932	14446
917.044	14438
917.156	14324
917.268	14298
917.38	14282
917.491	14290
917.603	14210
917.715	14305
917.826	14324
917.938	14218
918.049	14084
918.161	14206
918.272	14358
918.384	14366
918.495	14221
918.606	14043
918.717	13940
918.828	14081
918.939	14088
919.05	13902
919.161	13963
919.272	13799
919.383	13879
919.494	14005
919.604	14115
919.715	14054
919.826	13849
919.936	13986
920.047	13978
920.157	13887
920.267	14183
920.378	13978
920.488	13993
920.598	14229
920.708	14313
920.818	14191
920.928	14084
921.038	14244
921.148	14218
921.258	13986
921.368	13898
921.477	13769
921.587	13742
921.697	13567
921.806	13731
921.916	13586
922.025	13483
922.134	13384
922.244	13354
922.353	13400
922.462	13282
922.571	13187
922.68	13050
922.789	13091
922.898	13072
923.007	13000
923.116	13065
923.224	13122
923.333	12935
923.442	12920
923.55	12875
923.659	12825
923.767	12981
923.876	12795
923.984	12966
924.092	12749
924.201	12776
924.309	12802
924.417	12760
924.525	12631
924.633	12757
924.741	13666
924.849	12471
924.956	12650
925.064	12578
925.172	12467
925.279	12528
925.387	12517
925.494	12475
925.602	12646
925.709	12445
925.816	12334
925.924	12388
926.031	12597
926.138	12456
926.245	12544
926.352	12350
926.459	12502
926.566	12467
926.673	12342
926.779	12201
926.886	12247
926.993	12106
927.099	12060
927.206	11992
927.312	11961
927.419	12098
927.525	12079
927.631	12045
927.737	12057
927.843	11878
927.95	11775
928.056	11836
928.162	11885
928.267	11893
928.373	12528
928.479	11961
928.585	11741
928.69	11908
928.796	11897
928.901	11722
929.007	11684
929.112	11767
929.218	11672
929.323	11642
929.428	11638
929.533	11752
929.638	11577
929.743	11653
929.848	11573
929.953	11642
930.058	11459
930.163	11303
930.267	11372
930.372	11512
930.477	11220
930.581	11524
930.685	11269
930.79	11155
930.894	11303
930.998	11113
931.103	11417
931.207	11056
931.311	10896
931.415	10793
931.519	10717
931.623	10630
