Data from test_V78500241_2690.txt Node
Date: Fri Mar 25 15:28:35 CST 2022
User: usil
Spectrometer: V785-0024
Trigger mode: 0
Integration Time (sec): 4.000000E-1
Scans to average: 1
Nonlinearity correction enabled: false
Boxcar width: 0
Storing dark spectrum: false
XAxis mode: Wavelengths
Number of Pixels in Spectrum: 1024
>>>>>Begin Spectral Data<<<<<
801.071	26975
801.214	26952
801.356	26689
801.499	26750
801.641	26495
801.783	26606
801.926	26621
802.068	26511
802.211	26431
802.353	26275
802.496	26096
802.638	26054
802.78	26164
802.923	26043
803.065	25989
803.208	26088
803.35	26096
803.492	26336
803.635	26313
803.777	26202
803.919	26305
804.061	26648
804.204	26298
804.346	26305
804.488	26271
804.63	26336
804.773	26202
804.915	26237
805.057	26492
805.199	26301
805.341	26294
805.483	26412
805.626	26488
805.768	26233
805.91	26530
806.052	26415
806.194	26191
806.336	26469
806.478	26446
806.62	26438
806.762	26408
806.904	26606
807.046	26823
807.188	26811
807.33	26800
807.472	26811
807.614	26727
807.756	26651
807.898	26617
808.04	26549
808.182	26609
808.324	26541
808.465	26724
808.607	26990
808.749	26952
808.891	27123
809.033	27093
809.174	27055
809.316	26940
809.458	27066
809.6	26975
809.741	27104
809.883	27157
810.025	27367
810.166	27199
810.308	27176
810.45	27161
810.591	27096
810.733	26918
810.875	26967
811.016	26914
811.158	26963
811.299	27043
811.441	27268
811.582	27104
811.724	27195
811.865	26986
812.007	26910
812.148	26838
812.29	26979
812.431	27154
812.573	27283
812.714	27302
812.855	27344
812.997	27545
813.138	27774
813.279	27416
813.421	27397
813.562	27420
813.703	27154
813.845	27093
813.986	26746
814.127	26857
814.268	26598
814.41	26811
814.551	26434
814.692	26670
814.833	26606
814.974	26530
815.115	26514
815.256	26533
815.397	26541
815.539	26457
815.68	26271
815.821	26206
815.962	26377
816.103	26339
816.244	26195
816.385	26092
816.526	26001
816.666	25906
816.807	25845
816.948	25841
817.089	25997
817.23	25906
817.371	25936
817.512	25898
817.653	25830
817.793	25776
817.934	25795
818.075	25887
818.216	25837
818.356	25757
818.497	25708
818.638	25499
818.778	25537
818.919	25639
819.06	25635
819.2	25795
819.341	25925
819.481	25830
819.622	26016
819.762	26096
819.903	26100
820.043	26122
820.184	26092
820.324	25917
820.465	25989
820.605	25944
820.746	25986
820.886	25807
821.026	25970
821.167	25822
821.307	26039
821.447	25959
821.588	25731
821.728	25696
821.868	25331
822.008	25335
822.149	25240
822.289	25289
822.429	25053
822.569	25042
822.709	24856
822.849	24882
822.99	24825
823.13	24882
823.27	24844
823.41	24601
823.55	24650
823.69	24707
823.83	24703
823.97	24544
824.11	24578
824.25	24422
824.389	24426
824.529	24631
824.669	24490
824.809	24612
824.949	24509
825.089	24525
825.228	24441
825.368	24315
825.508	24285
825.648	24311
825.787	24277
825.927	24357
826.067	24292
826.206	24323
826.346	24346
826.485	24395
826.625	24395
826.765	24433
826.904	24338
827.044	24041
827.183	24129
827.323	23980
827.462	24060
827.601	24076
827.741	24068
827.88	23996
828.02	23847
828.159	23950
828.298	24053
828.437	23999
828.577	23961
828.716	24030
828.855	24064
828.994	23863
829.134	23786
829.273	23840
829.412	23676
829.551	23691
829.69	23695
829.829	23707
829.968	23805
830.107	23726
830.246	23722
830.385	23695
830.524	23638
830.663	23573
830.802	23497
830.941	23353
831.08	23292
831.219	23414
831.357	23372
831.496	23528
831.635	23254
831.774	23220
831.913	23227
832.051	23147
832.19	23204
832.329	23140
832.467	22847
832.606	22995
832.744	23075
832.883	22965
833.022	22904
833.16	22961
833.299	23064
833.437	22991
833.576	23022
833.714	23170
833.852	23025
833.991	23064
834.129	23185
834.267	23136
834.406	23048
834.544	23086
834.682	23067
834.821	23056
834.959	23246
835.097	23052
835.235	23014
835.373	23018
835.511	23041
835.65	22904
835.788	22797
835.926	22850
836.064	22740
836.202	22645
836.34	22980
836.478	22881
836.615	22820
836.753	22968
836.891	22942
837.029	22869
837.167	22900
837.305	22767
837.443	22736
837.58	22793
837.718	22854
837.856	22847
837.993	22881
838.131	22733
838.269	22580
838.406	22656
838.544	22630
838.681	22421
838.819	22299
838.956	22276
839.094	22230
839.231	22303
839.369	22459
839.506	22630
839.643	22500
839.781	22341
839.918	22223
840.055	22322
840.193	22211
840.33	22040
840.467	22249
840.604	22238
840.742	22497
840.879	22032
841.016	22223
841.153	22105
841.29	22246
841.427	22261
841.564	22169
841.701	22154
841.838	22105
841.975	22097
842.112	22006
842.249	22154
842.385	22032
842.522	22253
842.659	22074
842.796	21937
842.933	21861
843.069	22032
843.206	21827
843.343	21922
843.479	21907
843.616	21926
843.752	21743
843.889	21804
844.025	21899
844.162	21713
844.298	21732
844.435	21675
844.571	21675
844.708	21694
844.844	21922
844.98	21911
845.117	21800
845.253	21625
845.389	21637
845.525	21583
845.661	21443
845.798	21439
845.934	21374
846.07	21473
846.206	21523
846.342	21622
846.478	21504
846.614	21279
846.75	21199
846.886	21230
847.022	21245
847.158	21249
847.294	21203
847.429	21287
847.565	21051
847.701	21450
847.837	20990
847.972	20944
848.108	21093
848.244	20849
848.379	20830
848.515	20796
848.65	20773
848.786	20815
848.921	20762
849.057	20826
849.192	20933
849.328	20800
849.463	20746
849.598	20750
849.734	20701
849.869	20739
850.004	20571
850.14	20606
850.275	20511
850.41	20461
850.545	20404
850.68	20492
850.815	20530
850.95	20522
851.085	20727
851.22	20758
851.355	20617
851.49	20659
851.625	20571
851.76	20499
851.895	20488
852.03	20499
852.165	20537
852.299	20735
852.434	20617
852.569	20587
852.703	20499
852.838	20629
852.973	20823
853.107	20632
853.242	20492
853.376	20503
853.511	20248
853.645	20332
853.78	20419
853.914	20415
854.048	20313
854.183	20400
854.317	20442
854.451	20530
854.585	20393
854.72	20374
854.854	20545
854.988	20298
855.122	20355
855.256	20210
855.39	20301
855.524	20362
855.658	20393
855.792	20400
855.926	20385
856.06	20400
856.194	20575
856.327	20309
856.461	20336
856.595	20199
856.729	20294
856.862	20484
856.996	20507
857.13	20415
857.263	20423
857.397	20598
857.53	20377
857.664	20412
857.797	20446
857.931	20469
858.064	20374
858.197	20438
858.331	20324
858.464	20301
858.597	20206
858.731	20377
858.864	20328
858.997	20347
859.13	20191
859.263	20419
859.396	20434
859.529	20366
859.662	20351
859.795	20339
859.928	20385
860.061	20598
860.194	20560
860.327	20377
860.46	20396
860.592	20594
860.725	20495
860.858	20450
860.99	20423
861.123	20309
861.256	20332
861.388	20377
861.521	21165
861.653	20275
861.786	20161
861.918	20263
862.05	20244
862.183	20191
862.315	20385
862.447	20560
862.58	20358
862.712	20130
862.844	20138
862.976	20210
863.108	20263
863.24	20590
863.372	19951
863.504	20161
863.636	20024
863.768	20202
863.9	20119
864.032	20088
864.164	20145
864.296	20100
864.428	20256
864.559	20324
864.691	20138
864.823	20134
864.954	20081
865.086	20096
865.217	20062
865.349	20020
865.48	19944
865.612	20027
865.743	20214
865.875	20046
866.006	19989
866.137	20062
866.269	19936
866.4	19989
866.531	20001
866.662	19909
866.793	19921
866.924	19951
867.055	19974
867.186	19913
867.317	19917
867.448	19909
867.579	19947
867.71	19890
867.841	19887
867.972	19986
868.103	19982
868.233	20065
868.364	20081
868.495	20122
868.625	20252
868.756	20259
868.886	20046
869.017	20187
869.147	20267
869.278	20252
869.408	20210
869.539	20153
869.669	20320
869.799	20271
869.929	20313
870.06	20252
870.19	20587
870.32	20404
870.45	20571
870.58	20655
870.71	20743
870.84	20697
870.97	20667
871.1	20640
871.23	20765
871.36	20712
871.489	20674
871.619	20632
871.749	20849
871.879	20800
872.008	20880
872.138	20716
872.267	20883
872.397	20705
872.526	20667
872.656	20613
872.785	20579
872.915	20826
873.044	20910
873.173	20800
873.303	20876
873.432	20861
873.561	20948
873.69	20743
873.819	20785
873.948	20880
874.077	20883
874.206	20731
874.335	20845
874.464	20971
874.593	21211
874.722	21017
874.851	20979
874.979	21211
875.108	21051
875.237	21066
875.365	20994
875.494	20960
875.623	21195
875.751	21150
875.88	21096
876.008	21142
876.136	21340
876.265	21405
876.393	21511
876.521	21603
876.65	21454
876.778	21466
876.906	21382
877.034	21344
877.162	21447
877.29	21420
877.418	21542
877.546	21485
877.674	21355
877.802	21447
877.93	21488
878.058	21302
878.185	21408
878.313	21477
878.441	21431
878.568	21241
878.696	21336
878.824	21462
878.951	21435
879.079	21500
879.206	21671
879.333	21652
879.461	21462
879.588	21542
879.715	21629
879.842	21690
879.97	21428
880.097	21344
880.224	21298
880.351	21146
880.478	21264
880.605	21176
880.732	21283
880.859	21435
880.986	21275
881.112	21272
881.239	21089
881.366	20941
881.493	20975
881.619	20826
881.746	20994
881.872	20781
881.999	20830
882.125	20834
882.252	20891
882.378	20773
882.505	20891
882.631	20701
882.757	20568
882.883	20575
883.01	20617
883.136	20473
883.262	20385
883.388	20431
883.514	20579
883.64	20632
883.766	20499
883.892	20252
884.018	20400
884.143	20514
884.269	20621
884.395	20271
884.52	20240
884.646	20233
884.772	20088
884.897	20054
885.023	20233
885.148	20248
885.274	20374
885.399	20309
885.524	20210
885.65	20119
885.775	20210
885.9	20172
886.025	20317
886.15	20328
886.275	20103
886.4	20145
886.525	20191
886.65	20050
886.775	20073
886.9	20252
887.025	20412
887.149	20039
887.274	20031
887.399	19928
887.523	20050
887.648	19944
887.773	19913
887.897	19978
888.021	19951
888.146	19925
888.27	20054
888.395	20027
888.519	20039
888.643	19902
888.767	20016
888.891	19871
889.015	19776
889.139	19826
889.263	19696
889.387	19955
889.511	19936
889.635	19928
889.759	19734
889.883	19887
890.006	19811
890.13	19822
890.254	19655
890.377	19765
890.501	19601
890.624	19571
890.748	19453
890.871	19537
890.995	19297
891.118	19403
891.241	19544
891.364	19388
891.488	19331
891.611	19449
891.734	19392
891.857	19441
891.98	19346
892.103	19472
892.226	19365
892.349	19365
892.471	19244
892.594	19278
892.717	19304
892.839	19213
892.962	19369
893.085	19343
893.207	19221
893.33	19232
893.452	19324
893.575	19354
893.697	19168
893.819	19358
893.941	19544
894.064	19419
894.186	19217
894.308	19175
894.43	19422
894.552	19468
894.674	19259
894.796	19145
894.918	19263
895.04	19236
895.161	19422
895.283	19468
895.405	19103
895.526	19362
895.648	19293
895.769	19327
895.891	19225
896.012	19346
896.134	19449
896.255	19377
896.376	19133
896.498	19396
896.619	19339
896.74	19202
896.861	19411
896.982	19643
897.103	19689
897.224	19601
897.345	19411
897.466	19453
897.587	19567
897.708	19658
897.828	19567
897.949	19533
898.07	19396
898.19	19525
898.311	19575
898.431	19502
898.552	19635
898.672	19674
898.792	19594
898.913	19529
899.033	19381
899.153	19392
899.273	19259
899.393	19228
899.513	19407
899.633	19274
899.753	19285
899.873	19255
899.993	19304
900.113	19232
900.232	19221
900.352	19251
900.472	19141
900.591	19099
900.711	19232
900.83	19088
900.95	19168
901.069	19129
901.189	18924
901.308	18688
901.427	18654
901.546	18661
901.665	18760
901.784	18764
901.904	18570
902.023	18471
902.141	18182
902.26	18296
902.379	18308
902.498	18266
902.617	18159
902.735	18171
902.854	18228
902.973	18144
903.091	17866
903.21	17824
903.328	17939
903.446	17802
903.565	17752
903.683	17771
903.801	17558
903.919	17779
904.038	17718
904.156	17532
904.274	17630
904.392	17474
904.51	17566
904.627	17429
904.745	17478
904.863	17490
904.981	17345
905.098	17174
905.216	17094
905.334	17269
905.451	17170
905.569	17136
905.686	17208
905.803	17105
905.921	16900
906.038	17083
906.155	16915
906.272	16824
906.389	16752
906.506	16717
906.623	16748
906.74	16717
906.857	16645
906.974	16687
907.091	16729
907.208	16797
907.324	16721
907.441	16596
907.557	16493
907.674	16413
907.79	16333
907.907	16367
908.023	16405
908.139	16478
908.256	16363
908.372	16318
908.488	16306
908.604	16101
908.72	16120
908.836	16238
908.952	16105
909.068	16063
909.184	16188
909.3	16074
909.415	16238
909.531	16173
909.647	15941
909.762	15922
909.878	15838
909.993	15861
910.108	15778
910.224	15808
910.339	15743
910.454	15736
910.57	15705
910.685	15561
910.8	15934
910.915	15884
911.03	15690
911.145	15504
911.259	15488
911.374	15572
911.489	15355
911.604	15401
911.718	15245
911.833	15237
911.947	15173
912.062	15176
912.176	15256
912.291	15310
912.405	15279
912.519	15454
912.633	15511
912.748	15340
912.862	15260
912.976	15017
913.09	14921
913.204	14864
913.318	14998
913.431	15211
913.545	15013
913.659	15218
913.772	15108
913.886	14838
914	14857
914.113	14834
914.226	14960
914.34	14948
914.453	14743
914.566	14849
914.68	14651
914.793	14682
914.906	14511
915.019	14473
915.132	14362
915.245	14442
915.358	14511
915.47	14552
915.583	14541
915.696	14495
915.809	14552
915.921	14480
916.034	14351
916.146	14415
916.259	14336
916.371	14370
916.483	14374
916.595	14301
916.708	14328
916.82	14343
916.932	14263
917.044	14225
917.156	14271
917.268	14073
917.38	14100
917.491	14073
917.603	14164
917.715	14275
917.826	14206
917.938	14176
918.049	13982
918.161	13963
918.272	14195
918.384	14199
918.495	14195
918.606	14005
918.717	13947
918.828	13974
918.939	14005
919.05	13845
919.161	13913
919.272	13715
919.383	13803
919.494	13997
919.604	14031
919.715	13925
919.826	13830
919.936	13963
920.047	13864
920.157	13959
920.267	14103
920.378	13871
920.488	13856
920.598	14081
920.708	14298
920.818	14069
920.928	14073
921.038	14161
921.148	14168
921.258	13860
921.368	13700
921.477	13616
921.587	13632
921.697	13533
921.806	13643
921.916	13472
922.025	13335
922.134	13362
922.244	13251
922.353	13426
922.462	13312
922.571	13213
922.68	13110
922.789	13000
922.898	12932
923.007	12897
923.116	12958
923.224	12989
923.333	12878
923.442	12848
923.55	12848
923.659	12783
923.767	12856
923.876	12768
923.984	12810
924.092	12700
924.201	12654
924.309	12749
924.417	12703
924.525	12635
924.633	12677
924.741	13571
924.849	12429
924.956	12665
925.064	12346
925.172	12407
925.279	12365
925.387	12403
925.494	12372
925.602	12426
925.709	12395
925.816	12350
925.924	12334
926.031	12483
926.138	12327
926.245	12388
926.352	12235
926.459	12395
926.566	12433
926.673	12228
926.779	12136
926.886	12167
926.993	12019
927.099	11999
927.206	11916
927.312	11920
927.419	11973
927.525	11984
927.631	11992
927.737	11980
927.843	11901
927.95	11775
928.056	11798
928.162	11813
928.267	11824
928.373	12292
928.479	11817
928.585	11688
928.69	11741
928.796	11828
928.901	11619
929.007	11539
929.112	11680
929.218	11551
929.323	11551
929.428	11497
929.533	11741
929.638	11493
929.743	11547
929.848	11516
929.953	11497
930.058	11395
930.163	11292
930.267	11231
930.372	11417
930.477	11239
930.581	11417
930.685	11296
930.79	11128
930.894	11239
930.998	11079
931.103	11284
931.207	10869
931.311	10793
931.415	10694
931.519	10573
931.623	10474
