Data from test_V78500241_2063.txt Node
Date: Fri Mar 25 15:24:13 CST 2022
User: usil
Spectrometer: V785-0024
Trigger mode: 0
Integration Time (sec): 4.000000E-1
Scans to average: 1
Nonlinearity correction enabled: false
Boxcar width: 0
Storing dark spectrum: false
XAxis mode: Wavelengths
Number of Pixels in Spectrum: 1024
>>>>>Begin Spectral Data<<<<<
801.071	27622
801.214	27694
801.356	27450
801.499	27466
801.641	27287
801.783	27123
801.926	27393
802.068	27283
802.211	27199
802.353	27199
802.496	27001
802.638	26918
802.78	26880
802.923	26857
803.065	26796
803.208	26838
803.35	26994
803.492	26971
803.635	27051
803.777	26963
803.919	27195
804.061	27572
804.204	27142
804.346	26998
804.488	27032
804.63	27104
804.773	27043
804.915	27085
805.057	27096
805.199	27123
805.341	27222
805.483	27233
805.626	27176
805.768	27131
805.91	27233
806.052	27241
806.194	27081
806.336	27275
806.478	27146
806.62	27233
806.762	27298
806.904	27367
807.046	27709
807.188	27557
807.33	27701
807.472	27842
807.614	27648
807.756	27625
807.898	27504
808.04	27534
808.182	27492
808.324	27603
808.465	27606
808.607	27793
808.749	27739
808.891	27854
809.033	27922
809.174	27804
809.316	27793
809.458	27713
809.6	27823
809.741	28010
809.883	27903
810.025	28116
810.166	28120
810.308	28204
810.45	28097
810.591	28032
810.733	27884
810.875	27823
811.016	27728
811.158	27797
811.299	27918
811.441	27998
811.582	28032
811.724	27797
811.865	27743
812.007	27728
812.148	27800
812.29	27797
812.431	28044
812.573	28109
812.714	28150
812.855	28291
812.997	28413
813.138	28523
813.279	28470
813.421	28382
813.562	28265
813.703	27979
813.845	27972
813.986	27774
814.127	27728
814.268	27610
814.41	27564
814.551	27431
814.692	27606
814.833	27458
814.974	27424
815.115	27587
815.256	27325
815.397	27439
815.539	27439
815.68	27408
815.821	27211
815.962	27203
816.103	27195
816.244	27199
816.385	27070
816.526	27020
816.666	26918
816.807	26735
816.948	26823
817.089	26933
817.23	26792
817.371	26735
817.512	26823
817.653	26674
817.793	26735
817.934	26815
818.075	26838
818.216	26819
818.356	26762
818.497	26579
818.638	26537
818.778	26583
818.919	26564
819.06	26625
819.2	26731
819.341	26731
819.481	26735
819.622	26975
819.762	27112
819.903	26906
820.043	27017
820.184	26921
820.324	26937
820.465	26986
820.605	26838
820.746	26876
820.886	26526
821.026	26830
821.167	26659
821.307	26815
821.447	26701
821.588	26697
821.728	26571
821.868	26488
822.008	26168
822.149	26298
822.289	26298
822.429	25875
822.569	25852
822.709	25982
822.849	25761
822.99	25742
823.13	25780
823.27	25616
823.41	25472
823.55	25312
823.69	25605
823.83	25616
823.97	25514
824.11	25343
824.25	25304
824.389	25354
824.529	25479
824.669	25339
824.809	25628
824.949	25373
825.089	25563
825.228	25354
825.368	25285
825.508	25209
825.648	25274
825.787	25183
825.927	25327
826.067	25240
826.206	25228
826.346	25289
826.485	25152
826.625	25148
826.765	25354
826.904	25255
827.044	25034
827.183	24863
827.323	25050
827.462	25053
827.601	25072
827.741	24962
827.88	24992
828.02	24760
828.159	25050
828.298	24932
828.437	24977
828.577	24954
828.716	25065
828.855	24913
828.994	24711
829.134	24760
829.273	24582
829.412	24901
829.551	24642
829.69	24673
829.829	24707
829.968	24776
830.107	24711
830.246	24749
830.385	24544
830.524	24578
830.663	24498
830.802	24490
830.941	24414
831.08	24311
831.219	24521
831.357	24277
831.496	24563
831.635	24403
831.774	24136
831.913	24140
832.051	24057
832.19	24159
832.329	24083
832.467	24041
832.606	23969
832.744	24003
832.883	24079
833.022	23965
833.16	23992
833.299	24026
833.437	23988
833.576	23980
833.714	24110
833.852	24140
833.991	24216
834.129	24102
834.267	24072
834.406	24018
834.544	23992
834.682	24133
834.821	23999
834.959	24254
835.097	23939
835.235	24045
835.373	24007
835.511	23923
835.65	23874
835.788	23855
835.926	23760
836.064	23653
836.202	23661
836.34	23870
836.478	23874
836.615	23866
836.753	23828
836.891	23908
837.029	23923
837.167	23790
837.305	23764
837.443	23748
837.58	23783
837.718	23699
837.856	23771
837.993	23722
838.131	23703
838.269	23577
838.406	23589
838.544	23539
838.681	23417
838.819	23349
838.956	23197
839.094	23178
839.231	23178
839.369	23414
839.506	23543
839.643	23512
839.781	23280
839.918	23083
840.055	23151
840.193	23140
840.33	22980
840.467	23117
840.604	23200
840.742	23368
840.879	22923
841.016	22946
841.153	22889
841.29	23200
841.427	22984
841.564	23189
841.701	23064
841.838	23025
841.975	23064
842.112	23029
842.249	22820
842.385	22995
842.522	22999
842.659	22927
842.796	22816
842.933	22953
843.069	22793
843.206	22889
843.343	22927
843.479	22972
843.616	22774
843.752	22626
843.889	22725
844.025	22725
844.162	22592
844.298	22729
844.435	22675
844.571	22573
844.708	22641
844.844	22816
844.98	22763
845.117	22721
845.253	22577
845.389	22656
845.525	22493
845.661	22333
845.798	22474
845.934	22375
846.07	22314
846.206	22249
846.342	22440
846.478	22417
846.614	22166
846.75	22070
846.886	22124
847.022	22131
847.158	22093
847.294	22040
847.429	21972
847.565	22059
847.701	22386
847.837	21770
847.972	21903
848.108	21747
848.244	21876
848.379	21785
848.515	21625
848.65	21705
848.786	21675
848.921	21591
849.057	21717
849.192	21675
849.328	21648
849.463	21641
849.598	21644
849.734	21606
849.869	21458
850.004	21416
850.14	21500
850.275	21458
850.41	21306
850.545	21359
850.68	21473
850.815	21545
850.95	21424
851.085	21488
851.22	21431
851.355	21462
851.49	21401
851.625	21458
851.76	21412
851.895	21332
852.03	21233
852.165	21431
852.299	21416
852.434	21515
852.569	21405
852.703	21340
852.838	21542
852.973	21523
853.107	21545
853.242	21340
853.376	21268
853.511	21195
853.645	21230
853.78	21412
853.914	21291
854.048	21294
854.183	21283
854.317	21214
854.451	21428
854.585	21302
854.72	21230
854.854	21313
854.988	21176
855.122	21291
855.256	21039
855.39	21226
855.524	21382
855.658	21325
855.792	21321
855.926	21287
856.06	21321
856.194	21367
856.327	21207
856.461	21161
856.595	21154
856.729	21161
856.862	21283
856.996	21176
857.13	21393
857.263	21370
857.397	21351
857.53	21302
857.664	21211
857.797	21332
857.931	21332
858.064	21283
858.197	21348
858.331	21150
858.464	21195
858.597	21195
858.731	21142
858.864	21188
858.997	21169
859.13	21283
859.263	21287
859.396	21355
859.529	21161
859.662	21199
859.795	21211
859.928	21332
860.061	21420
860.194	21367
860.327	21207
860.46	21283
860.592	21397
860.725	21439
860.858	21439
860.99	21287
861.123	21214
861.256	21233
861.388	21287
861.521	21865
861.653	21058
861.786	21066
861.918	21138
862.05	21039
862.183	21100
862.315	21192
862.447	21287
862.58	21142
862.712	20975
862.844	20910
862.976	21013
863.108	21020
863.24	21332
863.372	20944
863.504	21009
863.636	20902
863.768	21028
863.9	20982
864.032	21001
864.164	20887
864.296	21001
864.428	21089
864.559	21089
864.691	21036
864.823	20921
864.954	20887
865.086	20960
865.217	20891
865.349	20826
865.48	20876
865.612	20815
865.743	21051
865.875	20952
866.006	20807
866.137	20819
866.269	20823
866.4	20708
866.531	20845
866.662	20693
866.793	20838
866.924	20804
867.055	20796
867.186	20807
867.317	20701
867.448	20682
867.579	20705
867.71	20746
867.841	20663
867.972	20762
868.103	20762
868.233	20781
868.364	20815
868.495	20937
868.625	20948
868.756	21146
868.886	20952
869.017	20952
869.147	20990
869.278	21161
869.408	21093
869.539	20971
869.669	21146
869.799	21051
869.929	21058
870.06	21154
870.19	21378
870.32	21283
870.45	21321
870.58	21477
870.71	21473
870.84	21606
870.97	21340
871.1	21321
871.23	21660
871.36	21576
871.489	21492
871.619	21561
871.749	21671
871.879	21614
872.008	21759
872.138	21675
872.267	21610
872.397	21534
872.526	21500
872.656	21454
872.785	21496
872.915	21679
873.044	21732
873.173	21644
873.303	21701
873.432	21648
873.561	21667
873.69	21701
873.819	21717
873.948	21705
874.077	21625
874.206	21557
874.335	21606
874.464	21743
874.593	21934
874.722	21835
874.851	21922
874.979	21892
875.108	21937
875.237	21774
875.365	21762
875.494	21930
875.623	21945
875.751	21892
875.88	21899
876.008	22078
876.136	22025
876.265	22200
876.393	22337
876.521	22314
876.65	22337
876.778	22337
876.906	22230
877.034	22246
877.162	22272
877.29	22086
877.418	22219
877.546	22166
877.674	22253
877.802	22306
877.93	22223
878.058	22128
878.185	22124
878.313	22234
878.441	22226
878.568	22097
878.696	22242
878.824	22291
878.951	22249
879.079	22409
879.206	22504
879.333	22455
879.461	22211
879.588	22207
879.715	22466
879.842	22481
879.97	22253
880.097	22048
880.224	21979
880.351	22055
880.478	22124
880.605	21991
880.732	21991
880.859	22192
880.986	22040
881.112	22128
881.239	21861
881.366	21747
881.493	21739
881.619	21663
881.746	21656
881.872	21542
881.999	21629
882.125	21534
882.252	21739
882.378	21561
882.505	21747
882.631	21557
882.757	21336
882.883	21393
883.01	21336
883.136	21291
883.262	21188
883.388	21127
883.514	21279
883.64	21302
883.766	21256
883.892	21028
884.018	21146
884.143	21188
884.269	21306
884.395	20967
884.52	20899
884.646	21043
884.772	20887
884.897	20849
885.023	20880
885.148	21077
885.274	21214
885.399	21055
885.524	20948
885.65	20914
885.775	20925
885.9	20948
886.025	21036
886.15	21013
886.275	20910
886.4	20948
886.525	20906
886.65	20838
886.775	20918
886.9	21028
887.025	21150
887.149	20887
887.274	20773
887.399	20735
887.523	20701
887.648	20545
887.773	20488
887.897	20823
888.021	20819
888.146	20587
888.27	20857
888.395	20838
888.519	20739
888.643	20819
888.767	20708
888.891	20609
889.015	20389
889.139	20571
889.263	20526
889.387	20720
889.511	20712
889.635	20651
889.759	20480
889.883	20526
890.006	20473
890.13	20602
890.254	20454
890.377	20454
890.501	20233
890.624	20153
890.748	20431
890.871	20240
890.995	20073
891.118	20001
891.241	20206
891.364	20084
891.488	20195
891.611	19982
891.734	20088
891.857	20180
891.98	20077
892.103	20130
892.226	20180
892.349	20005
892.471	19830
892.594	20050
892.717	20073
892.839	19963
892.962	20008
893.085	20119
893.207	20054
893.33	19890
893.452	19963
893.575	20054
893.697	19913
893.819	20164
893.941	20309
894.064	20107
894.186	19982
894.308	19917
894.43	20050
894.552	20221
894.674	20046
894.796	19887
894.918	19955
895.04	19890
895.161	20077
895.283	20122
895.405	19833
895.526	19913
895.648	19955
895.769	20001
895.891	20043
896.012	20119
896.134	19978
896.255	20005
896.376	19944
896.498	19993
896.619	19883
896.74	20024
896.861	19967
896.982	20275
897.103	20518
897.224	20332
897.345	20126
897.466	20176
897.587	20199
897.708	20366
897.828	20221
897.949	20081
898.07	19921
898.19	20195
898.311	20259
898.431	20164
898.552	20195
898.672	20183
898.792	20252
898.913	20244
899.033	20142
899.153	19936
899.273	19963
899.393	19894
899.513	20012
899.633	19978
899.753	20043
899.873	19959
899.993	19955
900.113	19902
900.232	20058
900.352	19955
900.472	19738
900.591	19791
900.711	19750
900.83	19639
900.95	19887
901.069	19845
901.189	19666
901.308	19464
901.427	19388
901.546	19320
901.665	19354
901.784	19422
901.904	19145
902.023	19095
902.141	19065
902.26	18875
902.379	18894
902.498	18954
902.617	18787
902.735	18890
902.854	18806
902.973	18779
903.091	18635
903.21	18593
903.328	18441
903.446	18403
903.565	18342
903.683	18350
903.801	18213
903.919	18182
904.038	18216
904.156	18121
904.274	18254
904.392	18106
904.51	18190
904.627	18117
904.745	18087
904.863	18114
904.981	17885
905.098	17775
905.216	17726
905.334	17798
905.451	17821
905.569	17786
905.686	17802
905.803	17684
905.921	17493
906.038	17649
906.155	17604
906.272	17452
906.389	17520
906.506	17303
906.623	17220
906.74	17341
906.857	17098
906.974	17197
907.091	17429
907.208	17364
907.324	17372
907.441	17193
907.557	16972
907.674	17029
907.79	16915
907.907	16953
908.023	17014
908.139	17056
908.256	16953
908.372	16930
908.488	16885
908.604	16820
908.72	16622
908.836	16793
908.952	16710
909.068	16744
909.184	16839
909.3	16653
909.415	16843
909.531	16710
909.647	16428
909.762	16508
909.878	16379
909.993	16432
910.108	16459
910.224	16367
910.339	16424
910.454	16303
910.57	16150
910.685	16192
910.8	16398
910.915	16375
911.03	16192
911.145	16036
911.259	15983
911.374	16101
911.489	15937
911.604	15876
911.718	15701
911.833	15774
911.947	15629
912.062	15637
912.176	15743
912.291	15850
912.405	15755
912.519	15941
912.633	15941
912.748	15717
912.862	15728
912.976	15633
913.09	15519
913.204	15462
913.318	15618
913.431	15641
913.545	15644
913.659	15663
913.772	15568
913.886	15424
914	15500
914.113	15576
914.226	15469
914.34	15477
914.453	15405
914.566	15332
914.68	15249
914.793	15275
914.906	15165
915.019	15005
915.132	14906
915.245	14967
915.358	15070
915.47	14986
915.583	15028
915.696	15013
915.809	15131
915.921	15150
916.034	14952
916.146	14861
916.259	14895
916.371	14963
916.483	14921
916.595	14834
916.708	14796
916.82	14914
916.932	14807
917.044	14758
917.156	14781
917.268	14659
917.38	14670
917.491	14617
917.603	14655
917.715	14739
917.826	14792
917.938	14610
918.049	14640
918.161	14613
918.272	14769
918.384	14689
918.495	14678
918.606	14374
918.717	14381
918.828	14545
918.939	14469
919.05	14381
919.161	14362
919.272	14214
919.383	14381
919.494	14442
919.604	14629
919.715	14339
919.826	14343
919.936	14393
920.047	14438
920.157	14370
920.267	14568
920.378	14400
920.488	14393
920.598	14617
920.708	14644
920.818	14575
920.928	14415
921.038	14492
921.148	14640
921.258	14336
921.368	14347
921.477	14138
921.587	14088
921.697	13986
921.806	14103
921.916	13974
922.025	13875
922.134	13636
922.244	13655
922.353	13734
922.462	13632
922.571	13594
922.68	13434
922.789	13373
922.898	13445
923.007	13316
923.116	13483
923.224	13460
923.333	13346
923.442	13312
923.55	13225
923.659	13422
923.767	13327
923.876	13255
923.984	13289
924.092	13122
924.201	13175
924.309	13141
924.417	13164
924.525	13065
924.633	13126
924.741	13856
924.849	12897
924.956	13050
925.064	12916
925.172	12772
925.279	12798
925.387	12916
925.494	12749
925.602	12928
925.709	12928
925.816	12749
925.924	12814
926.031	12905
926.138	12745
926.245	12859
926.352	12677
926.459	12867
926.566	12871
926.673	12779
926.779	12608
926.886	12585
926.993	12361
927.099	12426
927.206	12369
927.312	12380
927.419	12429
927.525	12361
927.631	12414
927.737	12391
927.843	12266
927.95	12087
928.056	12254
928.162	12311
928.267	12228
928.373	12981
928.479	12296
928.585	12087
928.69	12144
928.796	12285
928.901	12125
929.007	11889
929.112	12079
929.218	12026
929.323	12019
929.428	11950
929.533	12098
929.638	11893
929.743	11961
929.848	11996
929.953	12007
930.058	11805
930.163	11707
930.267	11726
930.372	11676
930.477	11668
930.581	11809
930.685	11630
930.79	11486
930.894	11562
930.998	11520
931.103	11684
931.207	11318
931.311	11155
931.415	11147
931.519	10949
931.623	10782
