Data from test_V78500241_3536.txt Node
Date: Fri Mar 25 15:34:28 CST 2022
User: usil
Spectrometer: V785-0024
Trigger mode: 0
Integration Time (sec): 4.000000E-1
Scans to average: 1
Nonlinearity correction enabled: false
Boxcar width: 0
Storing dark spectrum: false
XAxis mode: Wavelengths
Number of Pixels in Spectrum: 1024
>>>>>Begin Spectral Data<<<<<
801.071	27249
801.214	27146
801.356	27043
801.499	26788
801.641	26849
801.783	26777
801.926	26807
802.068	26739
802.211	26857
802.353	26640
802.496	26651
802.638	26507
802.78	26328
802.923	26324
803.065	26233
803.208	26328
803.35	26370
803.492	26552
803.635	26587
803.777	26366
803.919	26727
804.061	26842
804.204	26568
804.346	26492
804.488	26336
804.63	26583
804.773	26499
804.915	26655
805.057	26807
805.199	26686
805.341	26701
805.483	26735
805.626	26815
805.768	26499
805.91	26788
806.052	26606
806.194	26674
806.336	26777
806.478	26617
806.62	26697
806.762	26739
806.904	26864
807.046	27222
807.188	27062
807.33	27165
807.472	27195
807.614	26975
807.756	26998
807.898	26948
808.04	26773
808.182	26811
808.324	26910
808.465	26826
808.607	27108
808.749	27188
808.891	27294
809.033	27389
809.174	27294
809.316	27249
809.458	27237
809.6	27154
809.741	27443
809.883	27348
810.025	27538
810.166	27530
810.308	27637
810.45	27469
810.591	27416
810.733	27443
810.875	27184
811.016	27245
811.158	27268
811.299	27355
811.441	27454
811.582	27469
811.724	27275
811.865	27203
812.007	27100
812.148	27287
812.29	27302
812.431	27412
812.573	27675
812.714	27705
812.855	27728
812.997	27774
813.138	28063
813.279	27911
813.421	27816
813.562	27561
813.703	27622
813.845	27439
813.986	27180
814.127	26986
814.268	26891
814.41	26975
814.551	26861
814.692	26952
814.833	26910
814.974	26895
815.115	26979
815.256	26807
815.397	26788
815.539	26716
815.68	26667
815.821	26598
815.962	26583
816.103	26693
816.244	26678
816.385	26514
816.526	26503
816.666	26305
816.807	25970
816.948	26244
817.089	26271
817.23	26195
817.371	26244
817.512	26073
817.653	26161
817.793	26092
817.934	26062
818.075	26138
818.216	26290
818.356	26294
818.497	26092
818.638	25909
818.778	25909
818.919	25936
819.06	26084
819.2	26031
819.341	26145
819.481	26210
819.622	26233
819.762	26514
819.903	26518
820.043	26305
820.184	26358
820.324	26218
820.465	26400
820.605	26309
820.746	26282
820.886	26024
821.026	26278
821.167	26362
821.307	26301
821.447	26126
821.588	25978
821.728	25921
821.868	25811
822.008	25586
822.149	25704
822.289	25586
822.429	25426
822.569	25232
822.709	25388
822.849	25221
822.99	25148
823.13	25187
823.27	25129
823.41	24954
823.55	24878
823.69	24985
823.83	25004
823.97	24882
824.11	24772
824.25	24798
824.389	24734
824.529	24829
824.669	24806
824.809	24798
824.949	25053
825.089	24825
825.228	24787
825.368	24726
825.508	24635
825.648	24582
825.787	24658
825.927	24772
826.067	24582
826.206	24563
826.346	24623
826.485	24601
826.625	24753
826.765	24757
826.904	24669
827.044	24494
827.183	24350
827.323	24289
827.462	24357
827.601	24323
827.741	24273
827.88	24456
828.02	24334
828.159	24311
828.298	24467
828.437	24334
828.577	24239
828.716	24361
828.855	24308
828.994	24095
829.134	24121
829.273	24186
829.412	24038
829.551	23961
829.69	24076
829.829	24038
829.968	24220
830.107	24235
830.246	24030
830.385	23931
830.524	23920
830.663	24011
830.802	23889
830.941	23710
831.08	23604
831.219	23809
831.357	23802
831.496	23927
831.635	23737
831.774	23691
831.913	23509
832.051	23535
832.19	23493
832.329	23581
832.467	23448
832.606	23349
832.744	23231
832.883	23463
833.022	23315
833.16	23212
833.299	23360
833.437	23512
833.576	23558
833.714	23455
833.852	23433
833.991	23551
834.129	23596
834.267	23551
834.406	23436
834.544	23501
834.682	23490
834.821	23429
834.959	23657
835.097	23421
835.235	23486
835.373	23417
835.511	23505
835.65	23208
835.788	23296
835.926	23185
836.064	23052
836.202	23132
836.34	23170
836.478	23406
836.615	23379
836.753	23269
836.891	23395
837.029	23330
837.167	23246
837.305	23258
837.443	23090
837.58	23212
837.718	23242
837.856	23181
837.993	23159
838.131	23132
838.269	23113
838.406	23166
838.544	22908
838.681	22809
838.819	22702
838.956	22615
839.094	22611
839.231	22721
839.369	22683
839.506	22957
839.643	22854
839.781	22691
839.918	22634
840.055	22561
840.193	22580
840.33	22455
840.467	22626
840.604	22668
840.742	22900
840.879	22421
841.016	22478
841.153	22554
841.29	22748
841.427	22599
841.564	22542
841.701	22550
841.838	22516
841.975	22402
842.112	22356
842.249	22367
842.385	22379
842.522	22618
842.659	22322
842.796	22310
842.933	22390
843.069	22219
843.206	22257
843.343	22276
843.479	22413
843.616	22261
843.752	22101
843.889	22162
844.025	22204
844.162	22063
844.298	22101
844.435	22078
844.571	22090
844.708	22109
844.844	22249
844.98	22310
845.117	22055
845.253	22139
845.389	22055
845.525	22036
845.661	21945
845.798	21915
845.934	21861
846.07	21869
846.206	21873
846.342	21934
846.478	21747
846.614	21648
846.75	21587
846.886	21568
847.022	21717
847.158	21675
847.294	21587
847.429	21679
847.565	21561
847.701	21789
847.837	21264
847.972	21283
848.108	21351
848.244	21420
848.379	21188
848.515	21096
848.65	21161
848.786	21077
848.921	21192
849.057	21252
849.192	21176
849.328	21169
849.463	21321
849.598	21211
849.734	21093
849.869	21085
850.004	20826
850.14	21028
850.275	21047
850.41	20861
850.545	20937
850.68	20891
850.815	21081
850.95	20857
851.085	21211
851.22	20960
851.355	20952
851.49	20929
851.625	20899
851.76	20883
851.895	20921
852.03	20880
852.165	20883
852.299	21039
852.434	20971
852.569	20941
852.703	20857
852.838	21055
852.973	20944
853.107	21116
853.242	20914
853.376	20769
853.511	20686
853.645	20659
853.78	20708
853.914	20792
854.048	20697
854.183	20792
854.317	20819
854.451	20792
854.585	20773
854.72	20743
854.854	20857
854.988	20617
855.122	20796
855.256	20465
855.39	20746
855.524	20716
855.658	20861
855.792	20735
855.926	20762
856.06	20788
856.194	20895
856.327	20640
856.461	20731
856.595	20705
856.729	20720
856.862	20819
856.996	20800
857.13	20731
857.263	20758
857.397	20750
857.53	20731
857.664	20853
857.797	20857
857.931	20868
858.064	20739
858.197	20914
858.331	20800
858.464	20750
858.597	20632
858.731	20739
858.864	20697
858.997	20667
859.13	20785
859.263	20754
859.396	20842
859.529	20807
859.662	20648
859.795	20830
859.928	20769
860.061	20902
860.194	20918
860.327	20830
860.46	20705
860.592	20792
860.725	20918
860.858	20895
860.99	20735
861.123	20708
861.256	20762
861.388	20705
861.521	21557
861.653	20701
861.786	20518
861.918	20552
862.05	20609
862.183	20720
862.315	20632
862.447	20613
862.58	20712
862.712	20465
862.844	20526
862.976	20438
863.108	20511
863.24	20864
863.372	20465
863.504	20404
863.636	20461
863.768	20663
863.9	20537
864.032	20404
864.164	20476
864.296	20556
864.428	20606
864.559	20568
864.691	20560
864.823	20556
864.954	20454
865.086	20408
865.217	20309
865.349	20465
865.48	20404
865.612	20374
865.743	20484
865.875	20434
866.006	20282
866.137	20347
866.269	20427
866.4	20362
866.531	20252
866.662	20172
866.793	20400
866.924	20419
867.055	20294
867.186	20275
867.317	20176
867.448	20233
867.579	20271
867.71	20244
867.841	20294
867.972	20286
868.103	20362
868.233	20332
868.364	20290
868.495	20423
868.625	20533
868.756	20609
868.886	20412
869.017	20484
869.147	20587
869.278	20689
869.408	20568
869.539	20526
869.669	20765
869.799	20632
869.929	20754
870.06	20724
870.19	20994
870.32	20819
870.45	20800
870.58	20910
870.71	21157
870.84	21028
870.97	20921
871.1	21062
871.23	21146
871.36	21214
871.489	21119
871.619	21161
871.749	21112
871.879	21272
872.008	21374
872.138	21184
872.267	21127
872.397	21028
872.526	21017
872.656	20979
872.785	20906
872.915	21154
873.044	21256
873.173	21138
873.303	21287
873.432	21135
873.561	21325
873.69	21207
873.819	21036
873.948	21211
874.077	21199
874.206	21100
874.335	21154
874.464	21408
874.593	21424
874.722	21367
874.851	21534
874.979	21477
875.108	21416
875.237	21291
875.365	21348
875.494	21382
875.623	21572
875.751	21313
875.88	21538
876.008	21572
876.136	21736
876.265	21747
876.393	22017
876.521	21949
876.65	21804
876.778	21835
876.906	21835
877.034	21865
877.162	21751
877.29	21785
877.418	21800
877.546	21907
877.674	21804
877.802	21781
877.93	21717
878.058	21713
878.185	21576
878.313	21713
878.441	21667
878.568	21633
878.696	21629
878.824	21732
878.951	21865
879.079	21846
879.206	22006
879.333	21991
879.461	21854
879.588	21949
879.715	21895
879.842	22059
879.97	21831
880.097	21690
880.224	21667
880.351	21587
880.478	21652
880.605	21656
880.732	21572
880.859	21937
880.986	21603
881.112	21644
881.239	21401
881.366	21454
881.493	21374
881.619	21329
881.746	21112
881.872	21199
881.999	21176
882.125	21036
882.252	21173
882.378	21074
882.505	21272
882.631	21127
882.757	20952
882.883	20990
883.01	20952
883.136	20864
883.262	20842
883.388	20606
883.514	20800
883.64	20948
883.766	20804
883.892	20617
884.018	20674
884.143	20788
884.269	20944
884.395	20503
884.52	20598
884.646	20511
884.772	20518
884.897	20530
885.023	20560
885.148	20606
885.274	20678
885.399	20537
885.524	20590
885.65	20541
885.775	20530
885.9	20533
886.025	20739
886.15	20625
886.275	20457
886.4	20351
886.525	20541
886.65	20423
886.775	20507
886.9	20606
887.025	20804
887.149	20446
887.274	20309
887.399	20298
887.523	20309
887.648	20214
887.773	20229
887.897	20415
888.021	20313
888.146	20362
888.27	20381
888.395	20408
888.519	20450
888.643	20408
888.767	20351
888.891	20191
889.015	20221
889.139	20282
889.263	20149
889.387	20191
889.511	20278
889.635	20218
889.759	20065
889.883	20115
890.006	20172
890.13	20237
890.254	19974
890.377	20111
890.501	19864
890.624	19784
890.748	19947
890.871	19674
890.995	19696
891.118	19651
891.241	19753
891.364	19727
891.488	19791
891.611	19693
891.734	19597
891.857	19795
891.98	19715
892.103	19712
892.226	19651
892.349	19639
892.471	19575
892.594	19521
892.717	19635
892.839	19567
892.962	19677
893.085	19578
893.207	19582
893.33	19495
893.452	19563
893.575	19548
893.697	19628
893.819	19769
893.941	19822
894.064	19776
894.186	19616
894.308	19556
894.43	19750
894.552	19666
894.674	19674
894.796	19533
894.918	19693
895.04	19605
895.161	19670
895.283	19719
895.405	19643
895.526	19651
895.648	19628
895.769	19628
895.891	19643
896.012	19715
896.134	19639
896.255	19674
896.376	19643
896.498	19586
896.619	19647
896.74	19609
896.861	19594
896.982	19963
897.103	20130
897.224	19951
897.345	19860
897.466	19769
897.587	19864
897.708	20005
897.828	19898
897.949	19784
898.07	19700
898.19	19750
898.311	19940
898.431	19830
898.552	19856
898.672	19955
898.792	19947
898.913	19879
899.033	19674
899.153	19734
899.273	19495
899.393	19613
899.513	19666
899.633	19628
899.753	19670
899.873	19483
899.993	19655
900.113	19510
900.232	19540
900.352	19453
900.472	19445
900.591	19327
900.711	19384
900.83	19285
900.95	19491
901.069	19540
901.189	19160
901.308	19004
901.427	18939
901.546	18966
901.665	19027
901.784	18951
901.904	18985
902.023	18757
902.141	18597
902.26	18414
902.379	18563
902.498	18471
902.617	18483
902.735	18513
902.854	18426
902.973	18353
903.091	18190
903.21	18171
903.328	18140
903.446	18064
903.565	17950
903.683	18038
903.801	17912
903.919	17840
904.038	17961
904.156	17665
904.274	17847
904.392	17783
904.51	17657
904.627	17680
904.745	17733
904.863	17745
904.981	17573
905.098	17429
905.216	17471
905.334	17326
905.451	17493
905.569	17501
905.686	17512
905.803	17368
905.921	17204
906.038	17303
906.155	17185
906.272	17067
906.389	17124
906.506	16942
906.623	17014
906.74	16919
906.857	16862
906.974	16938
907.091	17006
907.208	17102
907.324	16995
907.441	16752
907.557	16717
907.674	16664
907.79	16649
907.907	16672
908.023	16691
908.139	16660
908.256	16691
908.372	16607
908.488	16561
908.604	16360
908.72	16558
908.836	16531
908.952	16421
909.068	16367
909.184	16451
909.3	16478
909.415	16481
909.531	16325
909.647	16215
909.762	16287
909.878	16139
909.993	16109
910.108	16143
910.224	16097
910.339	16154
910.454	16002
910.57	15960
910.685	15812
910.8	16090
910.915	16086
911.03	15937
911.145	15781
911.259	15732
911.374	15663
911.489	15713
911.604	15603
911.718	15477
911.833	15595
911.947	15416
912.062	15332
912.176	15553
912.291	15420
912.405	15515
912.519	15656
912.633	15656
912.748	15519
912.862	15443
912.976	15310
913.09	15203
913.204	15211
913.318	15298
913.431	15454
913.545	15397
913.659	15485
913.772	15199
913.886	15184
914	15024
914.113	15180
914.226	15260
914.34	15142
914.453	15055
914.566	15051
914.68	15100
914.793	14929
914.906	14804
915.019	14708
915.132	14678
915.245	14792
915.358	14758
915.47	14701
915.583	14689
915.696	14739
915.809	14792
915.921	14781
916.034	14705
916.146	14625
916.259	14629
916.371	14769
916.483	14716
916.595	14514
916.708	14583
916.82	14579
916.932	14560
917.044	14522
917.156	14438
917.268	14400
917.38	14355
917.491	14336
917.603	14396
917.715	14431
917.826	14396
917.938	14290
918.049	14290
918.161	14381
918.272	14507
918.384	14457
918.495	14282
918.606	14115
918.717	14035
918.828	14161
918.939	14180
919.05	14119
919.161	14096
919.272	13917
919.383	13970
919.494	14191
919.604	14419
919.715	14119
919.826	14012
919.936	14062
920.047	14176
920.157	14084
920.267	14214
920.378	14191
920.488	14130
920.598	14313
920.708	14438
920.818	14339
920.928	14210
921.038	14450
921.148	14351
921.258	14024
921.368	13997
921.477	13917
921.587	13799
921.697	13719
921.806	13871
921.916	13734
922.025	13518
922.134	13586
922.244	13499
922.353	13521
922.462	13358
922.571	13381
922.68	13160
922.789	13179
922.898	13225
923.007	13103
923.116	13232
923.224	13206
923.333	13122
923.442	12981
923.55	12993
923.659	12993
923.767	13114
923.876	12935
923.984	13000
924.092	12894
924.201	13031
924.309	13019
924.417	12882
924.525	12848
924.633	12821
924.741	13597
924.849	12646
924.956	12798
925.064	12635
925.172	12498
925.279	12654
925.387	12616
925.494	12623
925.602	12673
925.709	12578
925.816	12509
925.924	12513
926.031	12582
926.138	12475
926.245	12502
926.352	12441
926.459	12665
926.566	12677
926.673	12414
926.779	12296
926.886	12319
926.993	12216
927.099	12148
927.206	12175
927.312	12079
927.419	12159
927.525	12159
927.631	12091
927.737	12068
927.843	12045
927.95	11950
928.056	12064
928.162	12019
928.267	12125
928.373	12593
928.479	12076
928.585	11904
928.69	12003
928.796	12030
928.901	11832
929.007	11672
929.112	11885
929.218	11855
929.323	11726
929.428	11783
929.533	11832
929.638	11718
929.743	11703
929.848	11684
929.953	11707
930.058	11562
930.163	11478
930.267	11360
930.372	11554
930.477	11284
930.581	11581
930.685	11497
930.79	11334
930.894	11356
930.998	11303
931.103	11417
931.207	11071
931.311	11048
931.415	10908
931.519	10679
931.623	10660
