Data from test_V78500241_3171.txt Node
Date: Fri Mar 25 15:31:56 CST 2022
User: usil
Spectrometer: V785-0024
Trigger mode: 0
Integration Time (sec): 4.000000E-1
Scans to average: 1
Nonlinearity correction enabled: false
Boxcar width: 0
Storing dark spectrum: false
XAxis mode: Wavelengths
Number of Pixels in Spectrum: 1024
>>>>>Begin Spectral Data<<<<<
801.071	27207
801.214	27180
801.356	26777
801.499	26769
801.641	26636
801.783	26560
801.926	26583
802.068	26492
802.211	26579
802.353	26571
802.496	26336
802.638	26385
802.78	26309
802.923	26229
803.065	26256
803.208	26172
803.35	26313
803.492	26400
803.635	26492
803.777	26263
803.919	26423
804.061	26743
804.204	26453
804.346	26473
804.488	26259
804.63	26370
804.773	26275
804.915	26541
805.057	26503
805.199	26362
805.341	26362
805.483	26571
805.626	26545
805.768	26423
805.91	26511
806.052	26571
806.194	26442
806.336	26674
806.478	26518
806.62	26507
806.762	26564
806.904	26731
807.046	27062
807.188	26960
807.33	27024
807.472	26982
807.614	26804
807.756	26804
807.898	26705
808.04	26693
808.182	26693
808.324	26716
808.465	26883
808.607	26975
808.749	27161
808.891	27154
809.033	27275
809.174	27199
809.316	27066
809.458	27112
809.6	27066
809.741	27199
809.883	27306
810.025	27321
810.166	27420
810.308	27329
810.45	27382
810.591	27344
810.733	27214
810.875	27146
811.016	27127
811.158	27055
811.299	27135
811.441	27294
811.582	27264
811.724	27268
811.865	27028
812.007	26952
812.148	27203
812.29	27188
812.431	27302
812.573	27370
812.714	27504
812.855	27564
812.997	27671
813.138	27732
813.279	27572
813.421	27492
813.562	27469
813.703	27393
813.845	27294
813.986	27062
814.127	26914
814.268	26735
814.41	26682
814.551	26807
814.692	26857
814.833	26663
814.974	26625
815.115	26762
815.256	26598
815.397	26674
815.539	26541
815.68	26663
815.821	26465
815.962	26522
816.103	26655
816.244	26328
816.385	26229
816.526	26271
816.666	26142
816.807	25997
816.948	26046
817.089	26145
817.23	25978
817.371	26054
817.512	26069
817.653	25913
817.793	25852
817.934	26008
818.075	26107
818.216	25917
818.356	25925
818.497	25947
818.638	25830
818.778	25776
818.919	25723
819.06	25803
819.2	25947
819.341	25830
819.481	25997
819.622	26039
819.762	26362
819.903	26366
820.043	26157
820.184	26100
820.324	26096
820.465	26145
820.605	26130
820.746	26069
820.886	25890
821.026	26122
821.167	25993
821.307	26161
821.447	26058
821.588	25970
821.728	25772
821.868	25563
822.008	25476
822.149	25468
822.289	25422
822.429	25255
822.569	25228
822.709	25141
822.849	24932
822.99	25091
823.13	24992
823.27	25000
823.41	24844
823.55	24776
823.69	24817
823.83	24783
823.97	24753
824.11	24441
824.25	24597
824.389	24635
824.529	24715
824.669	24608
824.809	24768
824.949	24639
825.089	24787
825.228	24612
825.368	24429
825.508	24464
825.648	24334
825.787	24429
825.927	24509
826.067	24498
826.206	24410
826.346	24475
826.485	24585
826.625	24338
826.765	24719
826.904	24517
827.044	24327
827.183	24384
827.323	24190
827.462	24182
827.601	24270
827.741	24209
827.88	24334
828.02	24072
828.159	24205
828.298	24232
828.437	24213
828.577	24342
828.716	24262
828.855	24083
828.994	23889
829.134	23920
829.273	23935
829.412	23946
829.551	23920
829.69	23939
829.829	23904
829.968	24129
830.107	24178
830.246	23916
830.385	23908
830.524	23805
830.663	23748
830.802	23836
830.941	23573
831.08	23528
831.219	23722
831.357	23600
831.496	23786
831.635	23474
831.774	23482
831.913	23360
832.051	23364
832.19	23239
832.329	23345
832.467	23254
832.606	23033
832.744	23098
832.883	23151
833.022	23174
833.16	23231
833.299	23235
833.437	23341
833.576	23265
833.714	23292
833.852	23296
833.991	23463
834.129	23216
834.267	23315
834.406	23269
834.544	23277
834.682	23284
834.821	23334
834.959	23459
835.097	23105
835.235	23356
835.373	23258
835.511	23170
835.65	23170
835.788	23223
835.926	23094
836.064	22873
836.202	22995
836.34	23189
836.478	23216
836.615	23014
836.753	23056
836.891	23166
837.029	23128
837.167	23079
837.305	23010
837.443	22927
837.58	23018
837.718	22896
837.856	23052
837.993	22953
838.131	22930
838.269	22778
838.406	22896
838.544	22771
838.681	22603
838.819	22531
838.956	22565
839.094	22550
839.231	22432
839.369	22584
839.506	22862
839.643	22592
839.781	22485
839.918	22455
840.055	22478
840.193	22405
840.33	22398
840.467	22394
840.604	22447
840.742	22691
840.879	22360
841.016	22474
841.153	22249
841.29	22459
841.427	22341
841.564	22421
841.701	22455
841.838	22386
841.975	22348
842.112	22329
842.249	22249
842.385	22223
842.522	22462
842.659	22196
842.796	22082
842.933	22200
843.069	21979
843.206	22067
843.343	22181
843.479	22051
843.616	22211
843.752	21945
843.889	21934
844.025	21994
844.162	21835
844.298	22086
844.435	21888
844.571	21846
844.708	21918
844.844	22067
844.98	22010
845.117	22116
845.253	21854
845.389	21755
845.525	21800
845.661	21857
845.798	21622
845.934	21736
846.07	21690
846.206	21671
846.342	21660
846.478	21648
846.614	21473
846.75	21351
846.886	21424
847.022	21492
847.158	21351
847.294	21298
847.429	21542
847.565	21378
847.701	21595
847.837	21154
847.972	21131
848.108	21256
848.244	21123
848.379	21074
848.515	21093
848.65	21039
848.786	21009
848.921	20998
849.057	21013
849.192	21077
849.328	20990
849.463	20910
849.598	20853
849.734	20838
849.869	20891
850.004	20697
850.14	20781
850.275	20708
850.41	20564
850.545	20708
850.68	20724
850.815	20762
850.95	20697
851.085	20861
851.22	20872
851.355	20834
851.49	20796
851.625	20602
851.76	20765
851.895	20697
852.03	20674
852.165	20758
852.299	20804
852.434	20864
852.569	20781
852.703	20701
852.838	20724
852.973	20986
853.107	20910
853.242	20689
853.376	20556
853.511	20514
853.645	20621
853.78	20594
853.914	20556
854.048	20560
854.183	20533
854.317	20568
854.451	20777
854.585	20693
854.72	20556
854.854	20640
854.988	20530
855.122	20560
855.256	20545
855.39	20644
855.524	20583
855.658	20602
855.792	20727
855.926	20663
856.06	20545
856.194	20552
856.327	20606
856.461	20431
856.595	20613
856.729	20495
856.862	20739
856.996	20629
857.13	20579
857.263	20670
857.397	20644
857.53	20651
857.664	20552
857.797	20613
857.931	20678
858.064	20526
858.197	20716
858.331	20606
858.464	20533
858.597	20469
858.731	20549
858.864	20499
858.997	20621
859.13	20689
859.263	20629
859.396	20674
859.529	20537
859.662	20533
859.795	20598
859.928	20571
860.061	20689
860.194	20708
860.327	20522
860.46	20564
860.592	20720
860.725	20644
860.858	20644
860.99	20625
861.123	20632
861.256	20431
861.388	20564
861.521	21085
861.653	20461
861.786	20358
861.918	20332
862.05	20438
862.183	20674
862.315	20511
862.447	20533
862.58	20400
862.712	20317
862.844	20259
862.976	20358
863.108	20427
863.24	20636
863.372	20336
863.504	20301
863.636	20305
863.768	20358
863.9	20282
864.032	20122
864.164	20298
864.296	20332
864.428	20415
864.559	20362
864.691	20339
864.823	20332
864.954	20263
865.086	20320
865.217	20172
865.349	20153
865.48	20206
865.612	20237
865.743	20332
865.875	20172
866.006	20088
866.137	20263
866.269	20161
866.4	20084
866.531	20145
866.662	20050
866.793	20100
866.924	20100
867.055	20210
867.186	20210
867.317	20081
867.448	20157
867.579	20161
867.71	20107
867.841	20115
867.972	20149
868.103	20210
868.233	20138
868.364	20218
868.495	20210
868.625	20396
868.756	20457
868.886	20286
869.017	20347
869.147	20484
869.278	20571
869.408	20408
869.539	20332
869.669	20446
869.799	20503
869.929	20564
870.06	20495
870.19	20739
870.32	20800
870.45	20781
870.58	20727
870.71	20891
870.84	20876
870.97	20853
871.1	20804
871.23	20883
871.36	20929
871.489	20971
871.619	20880
871.749	20937
871.879	21055
872.008	21116
872.138	21085
872.267	20918
872.397	20746
872.526	20800
872.656	20731
872.785	20861
872.915	20979
873.044	21013
873.173	21032
873.303	21089
873.432	20982
873.561	21104
873.69	20994
873.819	21024
873.948	21066
874.077	21127
874.206	20982
874.335	20994
874.464	21138
874.593	21302
874.722	21283
874.851	21302
874.979	21237
875.108	21268
875.237	21287
875.365	21279
875.494	21169
875.623	21233
875.751	21249
875.88	21302
876.008	21405
876.136	21637
876.265	21690
876.393	21854
876.521	21690
876.65	21800
876.778	21587
876.906	21671
877.034	21686
877.162	21572
877.29	21523
877.418	21614
877.546	21644
877.674	21698
877.802	21629
877.93	21553
878.058	21519
878.185	21576
878.313	21660
878.441	21629
878.568	21389
878.696	21511
878.824	21656
878.951	21743
879.079	21709
879.206	21827
879.333	21732
879.461	21648
879.588	21728
879.715	21671
879.842	21918
879.97	21564
880.097	21553
880.224	21386
880.351	21534
880.478	21519
880.605	21351
880.732	21462
880.859	21648
880.986	21507
881.112	21447
881.239	21351
881.366	21146
881.493	21070
881.619	21077
881.746	21013
881.872	21020
881.999	21005
882.125	21017
882.252	21055
882.378	20929
882.505	21001
882.631	20872
882.757	20819
882.883	20861
883.01	20811
883.136	20655
883.262	20568
883.388	20571
883.514	20609
883.64	20807
883.766	20682
883.892	20617
884.018	20606
884.143	20720
884.269	20739
884.395	20503
884.52	20374
884.646	20400
884.772	20278
884.897	20278
885.023	20358
885.148	20499
885.274	20552
885.399	20469
885.524	20423
885.65	20385
885.775	20282
885.9	20404
886.025	20476
886.15	20374
886.275	20381
886.4	20221
886.525	20343
886.65	20275
886.775	20259
886.9	20431
887.025	20575
887.149	20317
887.274	20248
887.399	20157
887.523	20134
887.648	20062
887.773	20046
887.897	20187
888.021	20164
888.146	20096
888.27	20149
888.395	20199
888.519	20221
888.643	20096
888.767	20214
888.891	20020
889.015	19989
889.139	19978
889.263	19822
889.387	20008
889.511	20142
889.635	19970
889.759	19940
889.883	19921
890.006	19890
890.13	19997
890.254	19833
890.377	19986
890.501	19849
890.624	19689
890.748	19795
890.871	19666
890.995	19548
891.118	19502
891.241	19628
891.364	19544
891.488	19738
891.611	19529
891.734	19544
891.857	19601
891.98	19624
892.103	19712
892.226	19449
892.349	19339
892.471	19362
892.594	19472
892.717	19540
892.839	19403
892.962	19441
893.085	19457
893.207	19457
893.33	19403
893.452	19320
893.575	19647
893.697	19514
893.819	19719
893.941	19628
894.064	19605
894.186	19373
894.308	19392
894.43	19594
894.552	19628
894.674	19472
894.796	19331
894.918	19445
895.04	19502
895.161	19544
895.283	19582
895.405	19468
895.526	19422
895.648	19441
895.769	19514
895.891	19537
896.012	19590
896.134	19487
896.255	19468
896.376	19381
896.498	19362
896.619	19525
896.74	19445
896.861	19533
896.982	19826
897.103	19894
897.224	19776
897.345	19715
897.466	19597
897.587	19670
897.708	19951
897.828	19757
897.949	19605
898.07	19483
898.19	19635
898.311	19803
898.431	19544
898.552	19666
898.672	19849
898.792	19811
898.913	19666
899.033	19567
899.153	19578
899.273	19403
899.393	19415
899.513	19499
899.633	19434
899.753	19430
899.873	19354
899.993	19468
900.113	19438
900.232	19396
900.352	19373
900.472	19343
900.591	19164
900.711	19331
900.83	19118
900.95	19320
901.069	19240
901.189	19175
901.308	18954
901.427	18722
901.546	18768
901.665	18890
901.784	18878
901.904	18745
902.023	18532
902.141	18388
902.26	18391
902.379	18494
902.498	18330
902.617	18281
902.735	18330
902.854	18308
902.973	18243
903.091	18087
903.21	18030
903.328	18003
903.446	17958
903.565	17836
903.683	17939
903.801	17813
903.919	17805
904.038	17741
904.156	17676
904.274	17722
904.392	17570
904.51	17581
904.627	17573
904.745	17661
904.863	17585
904.981	17486
905.098	17269
905.216	17337
905.334	17364
905.451	17200
905.569	17334
905.686	17364
905.803	17254
905.921	17045
906.038	17170
906.155	17117
906.272	16877
906.389	16972
906.506	16892
906.623	16847
906.74	16858
906.857	16736
906.974	16660
907.091	16896
907.208	16953
907.324	16854
907.441	16691
907.557	16558
907.674	16535
907.79	16455
907.907	16481
908.023	16546
908.139	16637
908.256	16478
908.372	16390
908.488	16470
908.604	16341
908.72	16322
908.836	16257
908.952	16204
909.068	16306
909.184	16348
909.3	16287
909.415	16360
909.531	16249
909.647	16059
909.762	16101
909.878	15998
909.993	15911
910.108	15960
910.224	15918
910.339	15934
910.454	15922
910.57	15903
910.685	15797
910.8	15994
910.915	15949
911.03	15785
911.145	15587
911.259	15599
911.374	15534
911.489	15534
911.604	15405
911.718	15310
911.833	15367
911.947	15268
912.062	15306
912.176	15428
912.291	15412
912.405	15321
912.519	15534
912.633	15389
912.748	15389
912.862	15294
912.976	15104
913.09	15032
913.204	15127
913.318	15074
913.431	15287
913.545	15256
913.659	15249
913.772	15127
913.886	15081
914	14975
914.113	14986
914.226	15138
914.34	15043
914.453	14838
914.566	14918
914.68	14750
914.793	14777
914.906	14568
915.019	14583
915.132	14442
915.245	14537
915.358	14587
915.47	14686
915.583	14495
915.696	14575
915.809	14678
915.921	14674
916.034	14507
916.146	14461
916.259	14594
916.371	14590
916.483	14579
916.595	14385
916.708	14355
916.82	14473
916.932	14438
917.044	14415
917.156	14317
917.268	14374
917.38	14320
917.491	14343
917.603	14259
917.715	14275
917.826	14324
917.938	14191
918.049	14183
918.161	14248
918.272	14351
918.384	14298
918.495	14183
918.606	14107
918.717	13955
918.828	14115
918.939	14008
919.05	13944
919.161	13959
919.272	13807
919.383	13830
919.494	14088
919.604	14237
919.715	14065
919.826	13913
919.936	13989
920.047	14062
920.157	14001
920.267	14138
920.378	14001
920.488	14001
920.598	14161
920.708	14301
920.818	14084
920.928	14130
921.038	14282
921.148	14191
921.258	14005
921.368	13913
921.477	13712
921.587	13734
921.697	13655
921.806	13776
921.916	13613
922.025	13415
922.134	13403
922.244	13312
922.353	13495
922.462	13263
922.571	13202
922.68	13023
922.789	13099
922.898	13050
923.007	13053
923.116	13126
923.224	13034
923.333	13076
923.442	12924
923.55	13004
923.659	12909
923.767	12916
923.876	12837
923.984	12939
924.092	12840
924.201	12875
924.309	12817
924.417	12817
924.525	12757
924.633	12639
924.741	13734
924.849	12574
924.956	12715
925.064	12521
925.172	12479
925.279	12490
925.387	12525
925.494	12460
925.602	12623
925.709	12528
925.816	12350
925.924	12426
926.031	12551
926.138	12399
926.245	12494
926.352	12311
926.459	12540
926.566	12483
926.673	12365
926.779	12163
926.886	12163
926.993	12186
927.099	12076
927.206	12064
927.312	11920
927.419	12121
927.525	12053
927.631	12140
927.737	11992
927.843	11980
927.95	11874
928.056	11908
928.162	11939
928.267	11939
928.373	12456
928.479	11927
928.585	11661
928.69	11904
928.796	11946
928.901	11790
929.007	11676
929.112	11783
929.218	11718
929.323	11680
929.428	11585
929.533	11843
929.638	11630
929.743	11566
929.848	11649
929.953	11611
930.058	11490
930.163	11322
930.267	11387
930.372	11463
930.477	11349
930.581	11471
930.685	11455
930.79	11098
930.894	11235
930.998	11273
931.103	11379
931.207	10934
931.311	10938
931.415	10767
931.519	10558
931.623	10508
