Data from test_V78500241_243.txt Node
Date: Fri Mar 25 15:11:33 CST 2022
User: usil
Spectrometer: V785-0024
Trigger mode: 0
Integration Time (sec): 4.000000E-1
Scans to average: 1
Nonlinearity correction enabled: false
Boxcar width: 0
Storing dark spectrum: false
XAxis mode: Wavelengths
Number of Pixels in Spectrum: 1024
>>>>>Begin Spectral Data<<<<<
801.071	28280
801.214	28101
801.356	27968
801.499	27949
801.641	27895
801.783	27816
801.926	27717
802.068	27698
802.211	27530
802.353	27667
802.496	27389
802.638	27401
802.78	27252
802.923	27401
803.065	27199
803.208	27294
803.35	27287
803.492	27439
803.635	27603
803.777	27317
803.919	27515
804.061	27850
804.204	27466
804.346	27473
804.488	27458
804.63	27496
804.773	27294
804.915	27519
805.057	27572
805.199	27424
805.341	27534
805.483	27629
805.626	27534
805.768	27412
805.91	27443
806.052	27701
806.194	27496
806.336	27682
806.478	27625
806.62	27568
806.762	27652
806.904	27911
807.046	28097
807.188	28010
807.33	28017
807.472	28116
807.614	27873
807.756	27850
807.898	27663
808.04	27759
808.182	27720
808.324	27831
808.465	27675
808.607	28040
808.749	28082
808.891	28310
809.033	28325
809.174	28291
809.316	28177
809.458	28070
809.6	28143
809.741	28341
809.883	28242
810.025	28390
810.166	28485
810.308	28424
810.45	28386
810.591	28337
810.733	28261
810.875	28112
811.016	28093
811.158	28006
811.299	28196
811.441	28246
811.582	28295
811.724	28196
811.865	27979
812.007	28070
812.148	28059
812.29	28158
812.431	28257
812.573	28417
812.714	28443
812.855	28546
812.997	28698
813.138	28752
813.279	28759
813.421	28717
813.562	28538
813.703	28432
813.845	28382
813.986	27987
814.127	27857
814.268	27797
814.41	27789
814.551	27797
814.692	27785
814.833	27698
814.974	27637
815.115	27755
815.256	27747
815.397	27625
815.539	27591
815.68	27526
815.821	27416
815.962	27515
816.103	27420
816.244	27408
816.385	27424
816.526	27340
816.666	27043
816.807	26895
816.948	27096
817.089	27127
817.23	27089
817.371	26986
817.512	26963
817.653	27104
817.793	26800
817.934	27051
818.075	27020
818.216	27005
818.356	26849
818.497	26811
818.638	26785
818.778	26724
818.919	26705
819.06	26811
819.2	26902
819.341	26937
819.481	26914
819.622	27093
819.762	27203
819.903	27116
820.043	27123
820.184	27036
820.324	26944
820.465	27150
820.605	27017
820.746	26975
820.886	26918
821.026	27055
821.167	27066
821.307	27028
821.447	26826
821.588	26758
821.728	26693
821.868	26511
822.008	26518
822.149	26427
822.289	26492
822.429	26195
822.569	25925
822.709	26001
822.849	25974
822.99	25860
823.13	25860
823.27	25746
823.41	25681
823.55	25609
823.69	25689
823.83	25887
823.97	25639
824.11	25506
824.25	25403
824.389	25472
824.529	25525
824.669	25438
824.809	25582
824.949	25567
825.089	25537
825.228	25403
825.368	25228
825.508	25266
825.648	25259
825.787	25304
825.927	25335
826.067	25354
826.206	25152
826.346	25331
826.485	25331
826.625	25426
826.765	25495
826.904	25259
827.044	25221
827.183	25019
827.323	24989
827.462	25008
827.601	25046
827.741	24992
827.88	25027
828.02	24932
828.159	24981
828.298	24985
828.437	25114
828.577	25065
828.716	25046
828.855	24916
828.994	24795
829.134	24631
829.273	24768
829.412	24741
829.551	24673
829.69	24635
829.829	24703
829.968	24817
830.107	24696
830.246	24658
830.385	24559
830.524	24460
830.663	24395
830.802	24399
830.941	24323
831.08	24251
831.219	24330
831.357	24365
831.496	24445
831.635	24186
831.774	24125
831.913	24239
832.051	23988
832.19	24034
832.329	24030
832.467	23931
832.606	23863
832.744	23946
832.883	24026
833.022	23939
833.16	23901
833.299	23984
833.437	24015
833.576	24106
833.714	23954
833.852	24057
833.991	23973
834.129	24076
834.267	24030
834.406	23950
834.544	23973
834.682	23999
834.821	23901
834.959	24148
835.097	24007
835.235	23897
835.373	23939
835.511	23843
835.65	23733
835.788	23965
835.926	23710
836.064	23547
836.202	23699
836.34	23741
836.478	23920
836.615	23714
836.753	23707
836.891	23977
837.029	23748
837.167	23695
837.305	23813
837.443	23760
837.58	23604
837.718	23756
837.856	23577
837.993	23592
838.131	23630
838.269	23398
838.406	23691
838.544	23478
838.681	23250
838.819	23227
838.956	23216
839.094	23109
839.231	23143
839.369	23288
839.506	23421
839.643	23376
839.781	23098
839.918	23022
840.055	23079
840.193	23117
840.33	23033
840.467	23044
840.604	23090
840.742	23360
840.879	22801
841.016	22900
841.153	22984
841.29	23075
841.427	22953
841.564	23079
841.701	23064
841.838	22923
841.975	22850
842.112	22885
842.249	22744
842.385	22763
842.522	22816
842.659	22866
842.796	22702
842.933	22812
843.069	22679
843.206	22500
843.343	22561
843.479	22694
843.616	22828
843.752	22523
843.889	22333
844.025	22538
844.162	22481
844.298	22512
844.435	22470
844.571	22546
844.708	22500
844.844	22626
844.98	22580
845.117	22592
845.253	22432
845.389	22356
845.525	22337
845.661	22428
845.798	22097
845.934	22325
846.07	22124
846.206	22211
846.342	22154
846.478	22196
846.614	22017
846.75	21785
846.886	22006
847.022	21975
847.158	21888
847.294	21842
847.429	21998
847.565	21869
847.701	22272
847.837	21618
847.972	21713
848.108	21686
848.244	21717
848.379	21587
848.515	21504
848.65	21477
848.786	21644
848.921	21519
849.057	21637
849.192	21576
849.328	21561
849.463	21595
849.598	21538
849.734	21378
849.869	21397
850.004	21135
850.14	21283
850.275	21291
850.41	21218
850.545	21180
850.68	21119
850.815	21272
850.95	21260
851.085	21447
851.22	21279
851.355	21214
851.49	21222
851.625	21146
851.76	21096
851.895	21199
852.03	21058
852.165	21241
852.299	21207
852.434	21332
852.569	21226
852.703	21188
852.838	21249
852.973	21401
853.107	21374
853.242	21275
853.376	21123
853.511	20899
853.645	21051
853.78	21218
853.914	21009
854.048	20929
854.183	20899
854.317	21180
854.451	21157
854.585	21001
854.72	21131
854.854	21055
854.988	20925
855.122	21051
855.256	20880
855.39	20960
855.524	21214
855.658	21001
855.792	21169
855.926	21062
856.06	21104
856.194	21047
856.327	21024
856.461	21055
856.595	20952
856.729	20982
856.862	21180
856.996	21157
857.13	21173
857.263	21032
857.397	21039
857.53	20929
857.664	21169
857.797	21104
857.931	21173
858.064	21150
858.197	21116
858.331	20956
858.464	21017
858.597	20914
858.731	20971
858.864	20998
858.997	21009
859.13	20986
859.263	20963
859.396	21180
859.529	20906
859.662	21005
859.795	20941
859.928	21066
860.061	21150
860.194	21192
860.327	20982
860.46	21013
860.592	21195
860.725	21108
860.858	21199
860.99	21020
861.123	21043
861.256	21100
861.388	21043
861.521	21709
861.653	20906
861.786	20872
861.918	20857
862.05	20899
862.183	20876
862.315	20914
862.447	20990
862.58	21039
862.712	20663
862.844	20670
862.976	20804
863.108	20716
863.24	21241
863.372	20773
863.504	20667
863.636	20636
863.768	20739
863.9	20644
864.032	20632
864.164	20708
864.296	20918
864.428	20743
864.559	20796
864.691	20735
864.823	20804
864.954	20659
865.086	20667
865.217	20629
865.349	20518
865.48	20625
865.612	20651
865.743	20796
865.875	20686
866.006	20507
866.137	20583
866.269	20602
866.4	20503
866.531	20575
866.662	20621
866.793	20492
866.924	20571
867.055	20518
867.186	20602
867.317	20530
867.448	20419
867.579	20450
867.71	20400
867.841	20495
867.972	20541
868.103	20389
868.233	20431
868.364	20530
868.495	20701
868.625	20830
868.756	20826
868.886	20655
869.017	20861
869.147	20921
869.278	20902
869.408	20724
869.539	20800
869.669	20861
869.799	20857
869.929	20830
870.06	20883
870.19	21070
870.32	21001
870.45	21150
870.58	21207
870.71	21256
870.84	21336
870.97	21192
871.1	21074
871.23	21245
871.36	21386
871.489	21321
871.619	21279
871.749	21275
871.879	21310
872.008	21496
872.138	21298
872.267	21450
872.397	21218
872.526	21218
872.656	21100
872.785	21184
872.915	21443
873.044	21374
873.173	21363
873.303	21564
873.432	21416
873.561	21389
873.69	21439
873.819	21317
873.948	21374
874.077	21439
874.206	21329
874.335	21306
874.464	21599
874.593	21553
874.722	21545
874.851	21728
874.979	21637
875.108	21667
875.237	21599
875.365	21576
875.494	21485
875.623	21614
875.751	21652
875.88	21675
876.008	21717
876.136	21781
876.265	22048
876.393	22173
876.521	22017
876.65	22177
876.778	22017
876.906	22040
877.034	21956
877.162	22010
877.29	21838
877.418	21911
877.546	22029
877.674	21899
877.802	21918
877.93	21975
878.058	22017
878.185	21835
878.313	21937
878.441	22006
878.568	21781
878.696	21937
878.824	21975
878.951	22010
879.079	22139
879.206	22268
879.333	22090
879.461	21892
879.588	22162
879.715	22116
879.842	22150
879.97	21922
880.097	21854
880.224	21747
880.351	21846
880.478	21698
880.605	21667
880.732	21838
880.859	22101
880.986	21808
881.112	21880
881.239	21644
881.366	21572
881.493	21549
881.619	21287
881.746	21351
881.872	21424
881.999	21283
882.125	21272
882.252	21420
882.378	21313
882.505	21515
882.631	21294
882.757	21165
882.883	21226
883.01	21013
883.136	21180
883.262	20952
883.388	20933
883.514	21104
883.64	21119
883.766	21127
883.892	20743
884.018	20830
884.143	21093
884.269	21013
884.395	20891
884.52	20701
884.646	20849
884.772	20613
884.897	20602
885.023	20701
885.148	20845
885.274	20891
885.399	20823
885.524	20674
885.65	20670
885.775	20785
885.9	20804
886.025	20800
886.15	20731
886.275	20613
886.4	20552
886.525	20556
886.65	20606
886.775	20670
886.9	20853
887.025	20971
887.149	20697
887.274	20621
887.399	20480
887.523	20469
887.648	20583
887.773	20362
887.897	20571
888.021	20381
888.146	20298
888.27	20545
888.395	20629
888.519	20682
888.643	20556
888.767	20507
888.891	20374
889.015	20309
889.139	20396
889.263	20301
889.387	20469
889.511	20507
889.635	20320
889.759	20282
889.883	20271
890.006	20221
890.13	20400
890.254	20195
890.377	20161
890.501	20050
890.624	20001
890.748	20115
890.871	19913
890.995	19906
891.118	19852
891.241	19814
891.364	19989
891.488	19986
891.611	19795
891.734	19913
891.857	19803
891.98	19902
892.103	19856
892.226	19890
892.349	19871
892.471	19628
892.594	19780
892.717	19852
892.839	19666
892.962	19807
893.085	19852
893.207	19799
893.33	19639
893.452	19719
893.575	19826
893.697	19715
893.819	20046
893.941	20027
894.064	19898
894.186	19635
894.308	19662
894.43	19822
894.552	19951
894.674	19814
894.796	19662
894.918	19753
895.04	19746
895.161	19913
895.283	19921
895.405	19738
895.526	19719
895.648	19753
895.769	19894
895.891	19731
896.012	19963
896.134	19761
896.255	19750
896.376	19742
896.498	19837
896.619	19746
896.74	19761
896.861	19830
896.982	20138
897.103	20301
897.224	20043
897.345	20005
897.466	19986
897.587	20031
897.708	20130
897.828	19997
897.949	19890
898.07	19944
898.19	19921
898.311	19944
898.431	19871
898.552	19921
898.672	20016
898.792	20043
898.913	19883
899.033	19959
899.153	19803
899.273	19833
899.393	19666
899.513	19734
899.633	19822
899.753	19723
899.873	19693
899.993	19757
900.113	19590
900.232	19689
900.352	19628
900.472	19533
900.591	19407
900.711	19487
900.83	19415
900.95	19651
901.069	19708
901.189	19411
901.308	19126
901.427	19091
901.546	19114
901.665	19076
901.784	19114
901.904	19015
902.023	18844
902.141	18745
902.26	18795
902.379	18665
902.498	18616
902.617	18418
902.735	18551
902.854	18658
902.973	18479
903.091	18270
903.21	18224
903.328	18323
903.446	18167
903.565	18045
903.683	18117
903.801	18003
903.919	18125
904.038	18045
904.156	17847
904.274	17992
904.392	17866
904.51	17794
904.627	17870
904.745	17828
904.863	17889
904.981	17687
905.098	17547
905.216	17478
905.334	17581
905.451	17509
905.569	17512
905.686	17505
905.803	17551
905.921	17288
906.038	17482
906.155	17307
906.272	17231
906.389	17216
906.506	17029
906.623	17174
906.74	16999
906.857	16881
906.974	16953
907.091	17094
907.208	17189
907.324	16972
907.441	16949
907.557	16771
907.674	16752
907.79	16698
907.907	16729
908.023	16797
908.139	16717
908.256	16786
908.372	16607
908.488	16683
908.604	16523
908.72	16379
908.836	16409
908.952	16424
909.068	16497
909.184	16588
909.3	16386
909.415	16424
909.531	16402
909.647	16234
909.762	16128
909.878	16109
909.993	16185
910.108	16158
910.224	16200
910.339	16101
910.454	15968
910.57	15953
910.685	15915
910.8	16196
910.915	16063
911.03	16067
911.145	15812
911.259	15793
911.374	15793
911.489	15728
911.604	15682
911.718	15519
911.833	15488
911.947	15473
912.062	15393
912.176	15538
912.291	15416
912.405	15473
912.519	15633
912.633	15701
912.748	15625
912.862	15454
912.976	15348
913.09	15226
913.204	15207
913.318	15233
913.431	15424
913.545	15416
913.659	15317
913.772	15241
913.886	15252
914	15161
914.113	15211
914.226	15226
914.34	15245
914.453	14963
914.566	15218
914.68	14971
914.793	14952
914.906	14796
915.019	14758
915.132	14686
915.245	14701
915.358	14773
915.47	14758
915.583	14743
915.696	14792
915.809	14815
915.921	14804
916.034	14716
916.146	14636
916.259	14636
916.371	14659
916.483	14674
916.595	14575
916.708	14602
916.82	14514
916.932	14541
917.044	14568
917.156	14514
917.268	14427
917.38	14381
917.491	14393
917.603	14393
917.715	14473
917.826	14552
917.938	14278
918.049	14309
918.161	14358
918.272	14480
918.384	14408
918.495	14358
918.606	14195
918.717	14145
918.828	14172
918.939	14058
919.05	14119
919.161	14043
919.272	13936
919.383	13978
919.494	14164
919.604	14377
919.715	14081
919.826	14043
919.936	14153
920.047	14218
920.157	14168
920.267	14385
920.378	14043
920.488	14134
920.598	14396
920.708	14400
920.818	14366
920.928	14218
921.038	14423
921.148	14412
921.258	13989
921.368	13932
921.477	13906
921.587	13868
921.697	13753
921.806	13841
921.916	13750
922.025	13563
922.134	13548
922.244	13415
922.353	13548
922.462	13441
922.571	13282
922.68	13221
922.789	13141
922.898	13084
923.007	13061
923.116	13213
923.224	13133
923.333	13095
923.442	12985
923.55	12985
923.659	13012
923.767	13031
923.876	12977
923.984	12989
924.092	12897
924.201	12996
924.309	12951
924.417	12977
924.525	12837
924.633	12867
924.741	13552
924.849	12642
924.956	12779
925.064	12578
925.172	12582
925.279	12665
925.387	12604
925.494	12627
925.602	12707
925.709	12589
925.816	12536
925.924	12563
926.031	12620
926.138	12479
926.245	12646
926.352	12509
926.459	12551
926.566	12722
926.673	12494
926.779	12350
926.886	12372
926.993	12190
927.099	12140
927.206	12087
927.312	12106
927.419	12262
927.525	12178
927.631	12144
927.737	12057
927.843	12064
927.95	11916
928.056	11946
928.162	11996
928.267	11977
928.373	12597
928.479	12034
928.585	11851
928.69	11950
928.796	12022
928.901	11908
929.007	11661
929.112	11840
929.218	11863
929.323	11680
929.428	11718
929.533	11855
929.638	11630
929.743	11642
929.848	11741
929.953	11699
930.058	11585
930.163	11440
930.267	11474
930.372	11543
930.477	11425
930.581	11558
930.685	11532
930.79	11318
930.894	11341
930.998	11356
931.103	11406
931.207	11029
931.311	10987
931.415	10908
931.519	10733
931.623	10668
