Data from test_V78500241_3422.txt Node
Date: Fri Mar 25 15:33:41 CST 2022
User: usil
Spectrometer: V785-0024
Trigger mode: 0
Integration Time (sec): 4.000000E-1
Scans to average: 1
Nonlinearity correction enabled: false
Boxcar width: 0
Storing dark spectrum: false
XAxis mode: Wavelengths
Number of Pixels in Spectrum: 1024
>>>>>Begin Spectral Data<<<<<
801.071	27336
801.214	27256
801.356	27096
801.499	26956
801.641	26769
801.783	26842
801.926	26868
802.068	26773
802.211	26815
802.353	26682
802.496	26602
802.638	26629
802.78	26389
802.923	26336
803.065	26385
803.208	26381
803.35	26484
803.492	26568
803.635	26594
803.777	26412
803.919	26659
804.061	26906
804.204	26636
804.346	26461
804.488	26625
804.63	26526
804.773	26568
804.915	26598
805.057	26686
805.199	26533
805.341	26731
805.483	26754
805.626	26640
805.768	26731
805.91	26735
806.052	26762
806.194	26636
806.336	26868
806.478	26587
806.62	26686
806.762	26792
806.904	26921
807.046	27180
807.188	27089
807.33	27089
807.472	27264
807.614	26971
807.756	27077
807.898	27047
808.04	26724
808.182	26952
808.324	26960
808.465	27150
808.607	27028
808.749	27150
808.891	27321
809.033	27458
809.174	27336
809.316	27427
809.458	27249
809.6	27291
809.741	27386
809.883	27496
810.025	27606
810.166	27618
810.308	27625
810.45	27427
810.591	27466
810.733	27382
810.875	27332
811.016	27173
811.158	27287
811.299	27370
811.441	27393
811.582	27466
811.724	27283
811.865	27214
812.007	27222
812.148	27146
812.29	27230
812.431	27427
812.573	27591
812.714	27701
812.855	27739
812.997	27983
813.138	28093
813.279	27819
813.421	27781
813.562	27838
813.703	27580
813.845	27496
813.986	27116
814.127	27154
814.268	26819
814.41	27070
814.551	26998
814.692	27009
814.833	26910
814.974	26807
815.115	26986
815.256	26807
815.397	26788
815.539	26914
815.68	26682
815.821	26769
815.962	26739
816.103	26651
816.244	26594
816.385	26518
816.526	26400
816.666	26240
816.807	26233
816.948	26275
817.089	26244
817.23	26176
817.371	26183
817.512	26130
817.653	26107
817.793	26069
817.934	26119
818.075	26275
818.216	26191
818.356	26130
818.497	26145
818.638	25936
818.778	25951
818.919	25951
819.06	25906
819.2	26122
819.341	26183
819.481	26092
819.622	26278
819.762	26533
819.903	26484
820.043	26347
820.184	26286
820.324	26431
820.465	26381
820.605	26244
820.746	26149
820.886	26058
821.026	26271
821.167	26130
821.307	26301
821.447	26187
821.588	26202
821.728	26115
821.868	25685
822.008	25715
822.149	25776
822.289	25578
822.429	25464
822.569	25312
822.709	25346
822.849	25278
822.99	25198
823.13	25171
823.27	25194
823.41	24905
823.55	24848
823.69	25057
823.83	25103
823.97	24916
824.11	24764
824.25	24707
824.389	24829
824.529	24802
824.669	24722
824.809	24985
824.949	24935
825.089	24749
825.228	24692
825.368	24711
825.508	24692
825.648	24601
825.787	24700
825.927	24738
826.067	24597
826.206	24696
826.346	24848
826.485	24722
826.625	24669
826.765	24814
826.904	24589
827.044	24513
827.183	24467
827.323	24502
827.462	24357
827.601	24399
827.741	24391
827.88	24273
828.02	24216
828.159	24338
828.298	24342
828.437	24467
828.577	24342
828.716	24403
828.855	24228
828.994	24045
829.134	24060
829.273	24247
829.412	24049
829.551	24011
829.69	24041
829.829	24102
829.968	24159
830.107	24167
830.246	24098
830.385	23969
830.524	23965
830.663	23950
830.802	23897
830.941	23653
831.08	23737
831.219	23684
831.357	23893
831.496	23920
831.635	23573
831.774	23592
831.913	23566
832.051	23512
832.19	23421
832.329	23539
832.467	23387
832.606	23239
832.744	23292
832.883	23277
833.022	23356
833.16	23433
833.299	23406
833.437	23334
833.576	23512
833.714	23509
833.852	23509
833.991	23501
834.129	23471
834.267	23589
834.406	23425
834.544	23501
834.682	23436
834.821	23478
834.959	23684
835.097	23406
835.235	23486
835.373	23395
835.511	23417
835.65	23170
835.788	23311
835.926	23143
836.064	23098
836.202	23090
836.34	23284
836.478	23467
836.615	23181
836.753	23379
836.891	23372
837.029	23322
837.167	23280
837.305	23235
837.443	23151
837.58	23212
837.718	23128
837.856	23143
837.993	23250
838.131	23288
838.269	22896
838.406	23094
838.544	22972
838.681	22885
838.819	22721
838.956	22763
839.094	22702
839.231	22725
839.369	22839
839.506	23037
839.643	22854
839.781	22687
839.918	22653
840.055	22702
840.193	22592
840.33	22599
840.467	22519
840.604	22580
840.742	22835
840.879	22455
841.016	22508
841.153	22504
841.29	22588
841.427	22660
841.564	22626
841.701	22622
841.838	22386
841.975	22550
842.112	22542
842.249	22466
842.385	22409
842.522	22580
842.659	22390
842.796	22440
842.933	22337
843.069	22265
843.206	22276
843.343	22367
843.479	22303
843.616	22166
843.752	22025
843.889	22147
844.025	22196
844.162	22166
844.298	22177
844.435	21983
844.571	22070
844.708	22048
844.844	22306
844.98	22162
845.117	22131
845.253	22116
845.389	21926
845.525	22059
845.661	21934
845.798	21819
845.934	21922
846.07	21804
846.206	21831
846.342	21869
846.478	21873
846.614	21603
846.75	21450
846.886	21610
847.022	21633
847.158	21591
847.294	21656
847.429	21549
847.565	21557
847.701	21804
847.837	21393
847.972	21214
848.108	21359
848.244	21340
848.379	21233
848.515	21138
848.65	21161
848.786	21188
848.921	21123
849.057	21294
849.192	21199
849.328	21207
849.463	21192
849.598	21081
849.734	21116
849.869	20933
850.004	20998
850.14	21047
850.275	21017
850.41	20914
850.545	20906
850.68	21005
850.815	20925
850.95	20998
851.085	21104
851.22	21074
851.355	20952
851.49	20807
851.625	20979
851.76	20883
851.895	20811
852.03	20796
852.165	20914
852.299	21001
852.434	20918
852.569	21093
852.703	20849
852.838	20982
852.973	21108
853.107	21058
853.242	20918
853.376	20883
853.511	20708
853.645	20838
853.78	20864
853.914	20754
854.048	20655
854.183	20746
854.317	20868
854.451	21020
854.585	20883
854.72	20697
854.854	20842
854.988	20659
855.122	20739
855.256	20689
855.39	20819
855.524	20823
855.658	20788
855.792	20750
855.926	20811
856.06	20769
856.194	20842
856.327	20655
856.461	20644
856.595	20682
856.729	20674
856.862	20842
856.996	20796
857.13	20788
857.263	20796
857.397	20876
857.53	20804
857.664	20735
857.797	20864
857.931	20739
858.064	20823
858.197	20785
858.331	20598
858.464	20712
858.597	20693
858.731	20689
858.864	20777
858.997	20678
859.13	20739
859.263	20750
859.396	20910
859.529	20625
859.662	20701
859.795	20640
859.928	20857
860.061	21005
860.194	20971
860.327	20830
860.46	20701
860.592	20902
860.725	20956
860.858	20830
860.99	20785
861.123	20785
861.256	20750
861.388	20853
861.521	21564
861.653	20663
861.786	20518
861.918	20632
862.05	20629
862.183	20727
862.315	20765
862.447	20785
862.58	20640
862.712	20549
862.844	20370
862.976	20522
863.108	20556
863.24	21017
863.372	20385
863.504	20545
863.636	20484
863.768	20495
863.9	20473
864.032	20446
864.164	20469
864.296	20511
864.428	20518
864.559	20613
864.691	20511
864.823	20499
864.954	20465
865.086	20465
865.217	20400
865.349	20381
865.48	20381
865.612	20396
865.743	20556
865.875	20396
866.006	20412
866.137	20366
866.269	20431
866.4	20358
866.531	20358
866.662	20358
866.793	20320
866.924	20282
867.055	20381
867.186	20294
867.317	20408
867.448	20252
867.579	20351
867.71	20263
867.841	20305
867.972	20370
868.103	20263
868.233	20336
868.364	20362
868.495	20347
868.625	20537
868.756	20545
868.886	20530
869.017	20621
869.147	20667
869.278	20575
869.408	20617
869.539	20583
869.669	20674
869.799	20697
869.929	20735
870.06	20613
870.19	20902
870.32	20921
870.45	20902
870.58	20880
870.71	21005
870.84	21146
870.97	21020
871.1	21036
871.23	21070
871.36	21020
871.489	21131
871.619	21135
871.749	21142
871.879	21165
872.008	21241
872.138	21211
872.267	21108
872.397	20960
872.526	20963
872.656	21051
872.785	21009
872.915	21272
873.044	21184
873.173	21184
873.303	21260
873.432	21207
873.561	21287
873.69	21157
873.819	21310
873.948	21378
874.077	21256
874.206	21184
874.335	21230
874.464	21378
874.593	21511
874.722	21329
874.851	21515
874.979	21477
875.108	21603
875.237	21329
875.365	21287
875.494	21431
875.623	21488
875.751	21363
875.88	21401
876.008	21538
876.136	21599
876.265	21945
876.393	21956
876.521	21930
876.65	21953
876.778	21949
876.906	21857
877.034	21705
877.162	21747
877.29	21846
877.418	21854
877.546	21915
877.674	21838
877.802	21717
877.93	21720
878.058	21709
878.185	21705
878.313	21675
878.441	21816
878.568	21587
878.696	21705
878.824	21728
878.951	21747
879.079	21930
879.206	22112
879.333	21876
879.461	21774
879.588	21816
879.715	21964
879.842	21979
879.97	21762
880.097	21557
880.224	21660
880.351	21656
880.478	21747
880.605	21644
880.732	21660
880.859	21823
880.986	21736
881.112	21648
881.239	21412
881.366	21359
881.493	21306
881.619	21226
881.746	21135
881.872	21245
881.999	21127
882.125	21116
882.252	21192
882.378	21047
882.505	21184
882.631	21020
882.757	20899
882.883	20982
883.01	20933
883.136	21005
883.262	20769
883.388	20724
883.514	20918
883.64	20845
883.766	20838
883.892	20670
884.018	20697
884.143	20883
884.269	20895
884.395	20598
884.52	20625
884.646	20419
884.772	20461
884.897	20556
885.023	20625
885.148	20762
885.274	20674
885.399	20625
885.524	20579
885.65	20549
885.775	20625
885.9	20549
886.025	20629
886.15	20625
886.275	20533
886.4	20450
886.525	20556
886.65	20461
886.775	20480
886.9	20613
887.025	20701
887.149	20499
887.274	20324
887.399	20271
887.523	20454
887.648	20233
887.773	20172
887.897	20313
888.021	20400
888.146	20229
888.27	20423
888.395	20480
888.519	20396
888.643	20389
888.767	20298
888.891	20107
889.015	20039
889.139	20111
889.263	20229
889.387	20275
889.511	20256
889.635	20172
889.759	20149
889.883	20138
890.006	20130
890.13	20259
890.254	20096
890.377	20100
890.501	19887
890.624	19750
890.748	19928
890.871	19830
890.995	19700
891.118	19674
891.241	19799
891.364	19715
891.488	19837
891.611	19719
891.734	19677
891.857	19769
891.98	19731
892.103	19784
892.226	19685
892.349	19651
892.471	19529
892.594	19677
892.717	19575
892.839	19582
892.962	19578
893.085	19681
893.207	19567
893.33	19571
893.452	19464
893.575	19567
893.697	19559
893.819	19791
893.941	19852
894.064	19788
894.186	19563
894.308	19624
894.43	19681
894.552	19685
894.674	19814
894.796	19487
894.918	19628
895.04	19510
895.161	19590
895.283	19594
895.405	19529
895.526	19647
895.648	19559
895.769	19662
895.891	19590
896.012	19757
896.134	19689
896.255	19712
896.376	19518
896.498	19674
896.619	19681
896.74	19643
896.861	19723
896.982	19909
897.103	19978
897.224	19852
897.345	19814
897.466	19791
897.587	19868
897.708	19940
897.828	19811
897.949	19864
898.07	19731
898.19	19780
898.311	19906
898.431	19761
898.552	19795
898.672	19928
898.792	19890
898.913	19822
899.033	19776
899.153	19605
899.273	19571
899.393	19571
899.513	19632
899.633	19582
899.753	19613
899.873	19502
899.993	19666
900.113	19605
900.232	19590
900.352	19635
900.472	19529
900.591	19335
900.711	19415
900.83	19270
900.95	19426
901.069	19464
901.189	19114
901.308	19023
901.427	19000
901.546	19004
901.665	19110
901.784	19023
901.904	18829
902.023	18776
902.141	18578
902.26	18391
902.379	18601
902.498	18525
902.617	18448
902.735	18582
902.854	18540
902.973	18407
903.091	18232
903.21	18114
903.328	18095
903.446	18155
903.565	17980
903.683	18152
903.801	17904
903.919	17961
904.038	17969
904.156	17752
904.274	17802
904.392	17859
904.51	17710
904.627	17581
904.745	17779
904.863	17737
904.981	17497
905.098	17417
905.216	17425
905.334	17532
905.451	17467
905.569	17501
905.686	17501
905.803	17440
905.921	17265
906.038	17318
906.155	17235
906.272	17113
906.389	17098
906.506	16946
906.623	16949
906.74	16923
906.857	16790
906.974	16843
907.091	16953
907.208	17098
907.324	16991
907.441	16850
907.557	16759
907.674	16622
907.79	16637
907.907	16653
908.023	16771
908.139	16748
908.256	16668
908.372	16485
908.488	16527
908.604	16500
908.72	16363
908.836	16428
908.952	16306
909.068	16481
909.184	16519
909.3	16394
909.415	16481
909.531	16375
909.647	16181
909.762	16135
909.878	16128
909.993	16162
910.108	16109
910.224	15956
910.339	16131
910.454	15983
910.57	16017
910.685	15880
910.8	16116
910.915	16044
911.03	15934
911.145	15812
911.259	15804
911.374	15743
911.489	15576
911.604	15542
911.718	15450
911.833	15473
911.947	15344
912.062	15321
912.176	15439
912.291	15393
912.405	15591
912.519	15625
912.633	15644
912.748	15568
912.862	15504
912.976	15359
913.09	15180
913.204	15199
913.318	15287
913.431	15325
913.545	15359
913.659	15443
913.772	15264
913.886	15169
914	15192
914.113	15264
914.226	15150
914.34	15085
914.453	14960
914.566	15119
914.68	15013
914.793	15020
914.906	14845
915.019	14697
915.132	14777
915.245	14705
915.358	14667
915.47	14697
915.583	14804
915.696	14724
915.809	14800
915.921	14925
916.034	14659
916.146	14632
916.259	14689
916.371	14800
916.483	14674
916.595	14518
916.708	14613
916.82	14537
916.932	14526
917.044	14469
917.156	14473
917.268	14438
917.38	14442
917.491	14355
917.603	14374
917.715	14457
917.826	14473
917.938	14278
918.049	14187
918.161	14305
918.272	14438
918.384	14476
918.495	14267
918.606	14187
918.717	14107
918.828	14164
918.939	14164
919.05	14035
919.161	14054
919.272	13902
919.383	13993
919.494	14191
919.604	14389
919.715	14191
919.826	14100
919.936	14123
920.047	14210
920.157	14145
920.267	14263
920.378	14084
920.488	14027
920.598	14256
920.708	14503
920.818	14168
920.928	14298
921.038	14366
921.148	14366
921.258	14035
921.368	13970
921.477	13894
921.587	13811
921.697	13772
921.806	13849
921.916	13746
922.025	13693
922.134	13552
922.244	13476
922.353	13563
922.462	13430
922.571	13297
922.68	13168
922.789	13164
922.898	13183
923.007	13194
923.116	13221
923.224	13129
923.333	13099
923.442	13050
923.55	12935
923.659	13038
923.767	13168
923.876	12920
923.984	12909
924.092	12882
924.201	12882
924.309	12985
924.417	12886
924.525	12878
924.633	12897
924.741	13750
924.849	12639
924.956	12798
925.064	12646
925.172	12547
925.279	12642
925.387	12627
925.494	12570
925.602	12719
925.709	12620
925.816	12517
925.924	12639
926.031	12601
926.138	12517
926.245	12642
926.352	12448
926.459	12585
926.566	12593
926.673	12445
926.779	12330
926.886	12327
926.993	12292
927.099	12266
927.206	12129
927.312	12079
927.419	12209
927.525	12197
927.631	12194
927.737	11965
927.843	12026
927.95	11961
928.056	11912
928.162	11920
928.267	12022
928.373	12448
928.479	12057
928.585	11805
928.69	11973
928.796	11999
928.901	11904
929.007	11756
929.112	11870
929.218	11779
929.323	11790
929.428	11767
929.533	11855
929.638	11676
929.743	11680
929.848	11695
929.953	11680
930.058	11547
930.163	11372
930.267	11467
930.372	11627
930.477	11326
930.581	11608
930.685	11478
930.79	11345
930.894	11322
930.998	11277
931.103	11452
931.207	11151
931.311	10995
931.415	10930
931.519	10736
931.623	10736
