Data from test_V78500241_1266.txt Node
Date: Fri Mar 25 15:18:40 CST 2022
User: usil
Spectrometer: V785-0024
Trigger mode: 0
Integration Time (sec): 4.000000E-1
Scans to average: 1
Nonlinearity correction enabled: false
Boxcar width: 0
Storing dark spectrum: false
XAxis mode: Wavelengths
Number of Pixels in Spectrum: 1024
>>>>>Begin Spectral Data<<<<<
801.071	28078
801.214	27975
801.356	27816
801.499	27679
801.641	27553
801.783	27648
801.926	27606
802.068	27610
802.211	27310
802.353	27477
802.496	27275
802.638	27214
802.78	27169
802.923	27214
803.065	27154
803.208	27184
803.35	27241
803.492	27275
803.635	27439
803.777	27325
803.919	27477
804.061	27732
804.204	27492
804.346	27378
804.488	27306
804.63	27473
804.773	27420
804.915	27363
805.057	27553
805.199	27325
805.341	27591
805.483	27557
805.626	27511
805.768	27466
805.91	27534
806.052	27412
806.194	27454
806.336	27671
806.478	27561
806.62	27641
806.762	27675
806.904	27876
807.046	28086
807.188	27991
807.33	28150
807.472	27991
807.614	27960
807.756	27994
807.898	27934
808.04	27930
808.182	27869
808.324	27922
808.465	27816
808.607	28101
808.749	28192
808.891	28265
809.033	28424
809.174	28234
809.316	28382
809.458	28306
809.6	28207
809.741	28436
809.883	28451
810.025	28546
810.166	28432
810.308	28538
810.45	28500
810.591	28401
810.733	28303
810.875	28162
811.016	28196
811.158	28188
811.299	28261
811.441	28348
811.582	28303
811.724	28139
811.865	28360
812.007	28166
812.148	28234
812.29	28261
812.431	28337
812.573	28466
812.714	28733
812.855	28710
812.997	28835
813.138	28942
813.279	28896
813.421	28965
813.562	28702
813.703	28554
813.845	28607
813.986	28219
814.127	28036
814.268	27865
814.41	27926
814.551	27934
814.692	28070
814.833	27895
814.974	27911
815.115	27903
815.256	27816
815.397	27774
815.539	27884
815.68	27713
815.821	27675
815.962	27884
816.103	27732
816.244	27629
816.385	27538
816.526	27473
816.666	27378
816.807	27211
816.948	27447
817.089	27351
817.23	27294
817.371	27165
817.512	27176
817.653	27157
817.793	27154
817.934	27268
818.075	27306
818.216	27321
818.356	27313
818.497	27211
818.638	26982
818.778	26963
818.919	27058
819.06	27036
819.2	27074
819.341	27249
819.481	27192
819.622	27405
819.762	27641
819.903	27427
820.043	27500
820.184	27370
820.324	27359
820.465	27405
820.605	27355
820.746	27176
820.886	27306
821.026	27447
821.167	27283
821.307	27477
821.447	27207
821.588	27131
821.728	27051
821.868	26902
822.008	26735
822.149	26750
822.289	26701
822.429	26511
822.569	26396
822.709	26389
822.849	26218
822.99	26294
823.13	26142
823.27	26122
823.41	26062
823.55	26008
823.69	26043
823.83	26100
823.97	26005
824.11	25864
824.25	25757
824.389	25978
824.529	25974
824.669	25742
824.809	26027
824.949	25951
825.089	26008
825.228	25966
825.368	25704
825.508	25772
825.648	25803
825.787	25795
825.927	25811
826.067	25708
826.206	25670
826.346	25731
826.485	25811
826.625	25746
826.765	25738
826.904	25803
827.044	25499
827.183	25373
827.323	25438
827.462	25441
827.601	25362
827.741	25487
827.88	25472
828.02	25266
828.159	25464
828.298	25483
828.437	25346
828.577	25244
828.716	25495
828.855	25129
828.994	25206
829.134	25148
829.273	25255
829.412	25228
829.551	25038
829.69	25076
829.829	25312
829.968	25187
830.107	25213
830.246	25103
830.385	25137
830.524	24958
830.663	24996
830.802	24958
830.941	24741
831.08	24688
831.219	24859
831.357	24856
831.496	24970
831.635	24757
831.774	24867
831.913	24665
832.051	24525
832.19	24452
832.329	24661
832.467	24483
832.606	24391
832.744	24574
832.883	24334
833.022	24407
833.16	24555
833.299	24559
833.437	24494
833.576	24513
833.714	24540
833.852	24525
833.991	24642
834.129	24623
834.267	24582
834.406	24551
834.544	24650
834.682	24585
834.821	24490
834.959	24688
835.097	24456
835.235	24612
835.373	24521
835.511	24532
835.65	24464
835.788	24338
835.926	24285
836.064	24114
836.202	24178
836.34	24357
836.478	24532
836.615	24270
836.753	24388
836.891	24426
837.029	24361
837.167	24273
837.305	24186
837.443	24068
837.58	24296
837.718	24456
837.856	24201
837.993	24136
838.131	24114
838.269	24041
838.406	24144
838.544	23988
838.681	23794
838.819	24007
838.956	23634
839.094	23634
839.231	23752
839.369	23775
839.506	24022
839.643	23805
839.781	23710
839.918	23531
840.055	23722
840.193	23608
840.33	23547
840.467	23554
840.604	23630
840.742	23863
840.879	23334
841.016	23512
841.153	23406
841.29	23729
841.427	23478
841.564	23619
841.701	23585
841.838	23486
841.975	23566
842.112	23459
842.249	23425
842.385	23258
842.522	23482
842.659	23368
842.796	23410
842.933	23296
843.069	23280
843.206	23204
843.343	23433
843.479	23227
843.616	23277
843.752	23083
843.889	23128
844.025	23273
844.162	23117
844.298	23261
844.435	23060
844.571	23166
844.708	23284
844.844	23185
844.98	23303
845.117	23208
845.253	23048
845.389	22927
845.525	22980
845.661	22900
845.798	22702
845.934	22797
846.07	22778
846.206	22866
846.342	22976
846.478	22790
846.614	22683
846.75	22527
846.886	22615
847.022	22656
847.158	22523
847.294	22569
847.429	22451
847.565	22493
847.701	22786
847.837	22280
847.972	22196
848.108	22386
848.244	22478
848.379	22177
848.515	22188
848.65	22181
848.786	22074
848.921	22139
849.057	22314
849.192	22257
849.328	22154
849.463	22128
849.598	22093
849.734	21937
849.869	22002
850.004	21838
850.14	21968
850.275	21842
850.41	21918
850.545	21850
850.68	21751
850.815	21922
850.95	21956
851.085	22017
851.22	21930
851.355	21876
851.49	21823
851.625	21873
851.76	21857
851.895	21861
852.03	21812
852.165	21994
852.299	21869
852.434	22021
852.569	22010
852.703	21854
852.838	21949
852.973	22090
853.107	21991
853.242	21888
853.376	21880
853.511	21686
853.645	21629
853.78	21880
853.914	21652
854.048	21538
854.183	21720
854.317	21895
854.451	21953
854.585	21739
854.72	21717
854.854	21842
854.988	21739
855.122	21743
855.256	21610
855.39	21724
855.524	21819
855.658	21842
855.792	21724
855.926	21793
856.06	21755
856.194	21781
856.327	21713
856.461	21713
856.595	21633
856.729	21861
856.862	21884
856.996	21755
857.13	21747
857.263	21762
857.397	21835
857.53	21614
857.664	21720
857.797	21800
857.931	21778
858.064	21793
858.197	21838
858.331	21781
858.464	21663
858.597	21603
858.731	21762
858.864	21568
858.997	21698
859.13	21755
859.263	21728
859.396	21854
859.529	21755
859.662	21698
859.795	21625
859.928	21800
860.061	21949
860.194	21854
860.327	21797
860.46	21663
860.592	21808
860.725	21766
860.858	21865
860.99	21614
861.123	21656
861.256	21781
861.388	21660
861.521	22436
861.653	21526
861.786	21568
861.918	21530
862.05	21557
862.183	21675
862.315	21526
862.447	21709
862.58	21591
862.712	21526
862.844	21393
862.976	21481
863.108	21473
863.24	21774
863.372	21450
863.504	21359
863.636	21431
863.768	21447
863.9	21329
864.032	21393
864.164	21443
864.296	21424
864.428	21439
864.559	21466
864.691	21500
864.823	21538
864.954	21428
865.086	21473
865.217	21249
865.349	21245
865.48	21226
865.612	21287
865.743	21435
865.875	21313
866.006	21245
866.137	21264
866.269	21313
866.4	21359
866.531	21096
866.662	21192
866.793	21306
866.924	21264
867.055	21207
867.186	21256
867.317	21157
867.448	21211
867.579	21176
867.71	21150
867.841	21275
867.972	21195
868.103	21123
868.233	21245
868.364	21313
868.495	21279
868.625	21443
868.756	21629
868.886	21389
869.017	21454
869.147	21587
869.278	21557
869.408	21488
869.539	21458
869.669	21591
869.799	21587
869.929	21644
870.06	21542
870.19	21835
870.32	21720
870.45	21789
870.58	21918
870.71	21869
870.84	21888
870.97	21934
871.1	21793
871.23	21945
871.36	21983
871.489	21934
871.619	21991
871.749	22139
871.879	22128
872.008	22185
872.138	22101
872.267	22101
872.397	21987
872.526	21873
872.656	21907
872.785	21975
872.915	22162
873.044	22051
873.173	22063
873.303	22162
873.432	22181
873.561	22223
873.69	22120
873.819	22032
873.948	22196
874.077	22128
874.206	22078
874.335	22169
874.464	22295
874.593	22299
874.722	22188
874.851	22310
874.979	22394
875.108	22322
875.237	22188
875.365	22135
875.494	22219
875.623	22261
875.751	22299
875.88	22257
876.008	22363
876.136	22459
876.265	22557
876.393	22767
876.521	22862
876.65	22744
876.778	22710
876.906	22634
877.034	22641
877.162	22672
877.29	22531
877.418	22615
877.546	22588
877.674	22656
877.802	22702
877.93	22668
878.058	22687
878.185	22440
878.313	22634
878.441	22599
878.568	22493
878.696	22618
878.824	22820
878.951	22816
879.079	22835
879.206	22987
879.333	22729
879.461	22725
879.588	22660
879.715	22790
879.842	22938
879.97	22729
880.097	22577
880.224	22455
880.351	22679
880.478	22535
880.605	22352
880.732	22470
880.859	22698
880.986	22428
881.112	22573
881.239	22462
881.366	22162
881.493	22063
881.619	22101
881.746	21987
881.872	22029
881.999	21964
882.125	21937
882.252	22040
882.378	22067
882.505	22063
882.631	21934
882.757	21823
882.883	21762
883.01	21827
883.136	21690
883.262	21576
883.388	21526
883.514	21770
883.64	21751
883.766	21713
883.892	21408
884.018	21629
884.143	21633
884.269	21637
884.395	21329
884.52	21386
884.646	21469
884.772	21287
884.897	21279
885.023	21294
885.148	21477
885.274	21595
885.399	21469
885.524	21313
885.65	21466
885.775	21348
885.9	21291
886.025	21454
886.15	21275
886.275	21386
886.4	21279
886.525	21306
886.65	21367
886.775	21416
886.9	21481
887.025	21504
887.149	21420
887.274	21180
887.399	21211
887.523	21173
887.648	21123
887.773	20990
887.897	21245
888.021	21131
888.146	21032
888.27	21214
888.395	21310
888.519	21241
888.643	21154
888.767	21123
888.891	21062
889.015	21074
889.139	20952
889.263	20952
889.387	21077
889.511	21119
889.635	21009
889.759	20902
889.883	20823
890.006	20967
890.13	20967
890.254	20872
890.377	20750
890.501	20606
890.624	20697
890.748	20773
890.871	20537
890.995	20423
891.118	20434
891.241	20461
891.364	20499
891.488	20648
891.611	20564
891.734	20518
891.857	20560
891.98	20587
892.103	20583
892.226	20564
892.349	20412
892.471	20206
892.594	20393
892.717	20317
892.839	20423
892.962	20385
893.085	20556
893.207	20484
893.33	20252
893.452	20320
893.575	20271
893.697	20313
893.819	20495
893.941	20648
894.064	20404
894.186	20347
894.308	20393
894.43	20480
894.552	20556
894.674	20492
894.796	20191
894.918	20374
895.04	20301
895.161	20427
895.283	20457
895.405	20366
895.526	20343
895.648	20339
895.769	20358
895.891	20480
896.012	20309
896.134	20423
896.255	20358
896.376	20282
896.498	20438
896.619	20438
896.74	20389
896.861	20374
896.982	20632
897.103	20819
897.224	20499
897.345	20686
897.466	20606
897.587	20606
897.708	20708
897.828	20663
897.949	20541
898.07	20484
898.19	20587
898.311	20743
898.431	20552
898.552	20560
898.672	20613
898.792	20701
898.913	20575
899.033	20366
899.153	20473
899.273	20324
899.393	20347
899.513	20423
899.633	20324
899.753	20351
899.873	20328
899.993	20457
900.113	20206
900.232	20259
900.352	20221
900.472	20221
900.591	20043
900.711	20134
900.83	20107
900.95	20240
901.069	20157
901.189	20027
901.308	19734
901.427	19750
901.546	19746
901.665	19696
901.784	19719
901.904	19590
902.023	19457
902.141	19270
902.26	19206
902.379	19202
902.498	19236
902.617	19118
902.735	19308
902.854	19103
902.973	19053
903.091	18852
903.21	18871
903.328	18939
903.446	18741
903.565	18658
903.683	18703
903.801	18494
903.919	18654
904.038	18620
904.156	18414
904.274	18452
904.392	18445
904.51	18498
904.627	18536
904.745	18433
904.863	18429
904.981	18163
905.098	18136
905.216	18110
905.334	18182
905.451	18091
905.569	18064
905.686	18114
905.803	18019
905.921	17950
906.038	17996
906.155	17958
906.272	17802
906.389	17866
906.506	17657
906.623	17668
906.74	17619
906.857	17551
906.974	17505
907.091	17657
907.208	17748
907.324	17596
907.441	17573
907.557	17459
907.674	17474
907.79	17223
907.907	17315
908.023	17353
908.139	17322
908.256	17280
908.372	17189
908.488	17178
908.604	17189
908.72	17041
908.836	17067
908.952	16991
909.068	16999
909.184	17178
909.3	16995
909.415	16999
909.531	17121
909.647	16831
909.762	16778
909.878	16721
909.993	16767
910.108	16793
910.224	16675
910.339	16778
910.454	16679
910.57	16481
910.685	16527
910.8	16774
910.915	16729
911.03	16523
911.145	16470
911.259	16375
911.374	16314
911.489	16299
911.604	16249
911.718	16150
911.833	16177
911.947	15953
912.062	15953
912.176	16029
912.291	16029
912.405	16074
912.519	16219
912.633	16147
912.748	16093
912.862	16044
912.976	15915
913.09	15854
913.204	15926
913.318	15975
913.431	16013
913.545	16036
913.659	16036
913.772	15869
913.886	15781
914	15701
914.113	15888
914.226	15842
914.34	15751
914.453	15591
914.566	15755
914.68	15515
914.793	15504
914.906	15378
915.019	15359
915.132	15325
915.245	15397
915.358	15317
915.47	15294
915.583	15256
915.696	15367
915.809	15389
915.921	15378
916.034	15294
916.146	15233
916.259	15237
916.371	15313
916.483	15192
916.595	15150
916.708	15157
916.82	15039
916.932	15108
917.044	15138
917.156	15203
917.268	15047
917.38	14990
917.491	14921
917.603	14975
917.715	15009
917.826	15097
917.938	14845
918.049	14792
918.161	14918
918.272	15077
918.384	14937
918.495	14807
918.606	14819
918.717	14640
918.828	14746
918.939	14750
919.05	14545
919.161	14777
919.272	14507
919.383	14568
919.494	14670
919.604	14845
919.715	14693
919.826	14693
919.936	14583
920.047	14739
920.157	14674
920.267	14876
920.378	14663
920.488	14674
920.598	14781
920.708	14979
920.818	14773
920.928	14819
921.038	15093
921.148	14914
921.258	14587
921.368	14594
921.477	14423
921.587	14400
921.697	14328
921.806	14389
921.916	14347
922.025	14054
922.134	14039
922.244	13940
922.353	14119
922.462	13894
922.571	13799
922.68	13700
922.789	13704
922.898	13677
923.007	13681
923.116	13723
923.224	13632
923.333	13582
923.442	13597
923.55	13525
923.659	13563
923.767	13628
923.876	13460
923.984	13487
924.092	13400
924.201	13556
924.309	13419
924.417	13339
924.525	13308
924.633	13350
924.741	14024
924.849	13126
924.956	13285
925.064	13084
925.172	13065
925.279	13069
925.387	13031
925.494	13114
925.602	13259
925.709	13202
925.816	13046
925.924	13027
926.031	13099
926.138	13046
926.245	13152
926.352	12993
926.459	13141
926.566	13015
926.673	12966
926.779	12916
926.886	12840
926.993	12688
927.099	12662
927.206	12658
927.312	12582
927.419	12749
927.525	12749
927.631	12719
927.737	12601
927.843	12483
927.95	12410
928.056	12475
928.162	12418
928.267	12563
928.373	13164
928.479	12528
928.585	12346
928.69	12422
928.796	12471
928.901	12410
929.007	12178
929.112	12323
929.218	12224
929.323	12125
929.428	12228
929.533	12304
929.638	12171
929.743	12190
929.848	12182
929.953	12087
930.058	12034
930.163	11916
930.267	11942
930.372	11958
930.477	11840
930.581	12038
930.685	11794
930.79	11676
930.894	11805
930.998	11779
931.103	11904
931.207	11551
931.311	11471
931.415	11356
931.519	11136
931.623	11113
