Data from test_V78500241_2384.txt Node
Date: Fri Mar 25 15:26:27 CST 2022
User: usil
Spectrometer: V785-0024
Trigger mode: 0
Integration Time (sec): 4.000000E-1
Scans to average: 1
Nonlinearity correction enabled: false
Boxcar width: 0
Storing dark spectrum: false
XAxis mode: Wavelengths
Number of Pixels in Spectrum: 1024
>>>>>Begin Spectral Data<<<<<
801.071	27412
801.214	27154
801.356	27043
801.499	26975
801.641	26914
801.783	26956
801.926	26929
802.068	26826
802.211	26952
802.353	26834
802.496	26583
802.638	26358
802.78	26533
802.923	26560
803.065	26453
803.208	26484
803.35	26514
803.492	26644
803.635	26693
803.777	26670
803.919	26762
804.061	27047
804.204	26815
804.346	26648
804.488	26720
804.63	26632
804.773	26655
804.915	26773
805.057	26678
805.199	26636
805.341	26785
805.483	26819
805.626	26864
805.768	26667
805.91	26765
806.052	26826
806.194	26705
806.336	27020
806.478	26902
806.62	26781
806.762	26872
806.904	27157
807.046	27142
807.188	27138
807.33	27237
807.472	27233
807.614	27161
807.756	27272
807.898	27043
808.04	26921
808.182	27116
808.324	27157
808.465	26960
808.607	27150
808.749	27348
808.891	27504
809.033	27606
809.174	27348
809.316	27321
809.458	27294
809.6	27454
809.741	27382
809.883	27603
810.025	27618
810.166	27770
810.308	27625
810.45	27587
810.591	27439
810.733	27416
810.875	27294
811.016	27180
811.158	27279
811.299	27515
811.441	27420
811.582	27454
811.724	27408
811.865	27458
812.007	27447
812.148	27241
812.29	27359
812.431	27580
812.573	27789
812.714	27797
812.855	27987
812.997	28002
813.138	28036
813.279	28044
813.421	27899
813.562	27816
813.703	27633
813.845	27553
813.986	27294
814.127	27089
814.268	27142
814.41	27009
814.551	26998
814.692	27043
814.833	26998
814.974	27100
815.115	27058
815.256	26815
815.397	26971
815.539	26906
815.68	26834
815.821	26785
815.962	26880
816.103	26746
816.244	26693
816.385	26613
816.526	26511
816.666	26473
816.807	26328
816.948	26355
817.089	26450
817.23	26389
817.371	26286
817.512	26256
817.653	26286
817.793	26202
817.934	26339
818.075	26256
818.216	26351
818.356	26473
818.497	26271
818.638	26065
818.778	26111
818.919	26161
819.06	26065
819.2	26267
819.341	26233
819.481	26290
819.622	26514
819.762	26712
819.903	26583
820.043	26625
820.184	26438
820.324	26457
820.465	26393
820.605	26438
820.746	26362
820.886	26248
821.026	26434
821.167	26332
821.307	26556
821.447	26305
821.588	26206
821.728	26210
821.868	26024
822.008	25761
822.149	25723
822.289	25799
822.429	25514
822.569	25445
822.709	25419
822.849	25244
822.99	25449
823.13	25209
823.27	25244
823.41	25099
823.55	25000
823.69	25148
823.83	25065
823.97	24932
824.11	24897
824.25	24913
824.389	24901
824.529	24973
824.669	24909
824.809	24928
824.949	25061
825.089	25057
825.228	24973
825.368	24688
825.508	24798
825.648	24677
825.787	24856
825.927	24863
826.067	24741
826.206	24848
826.346	24741
826.485	24738
826.625	24909
826.765	24757
826.904	24875
827.044	24627
827.183	24517
827.323	24540
827.462	24608
827.601	24578
827.741	24525
827.88	24498
828.02	24391
828.159	24525
828.298	24498
828.437	24593
828.577	24528
828.716	24547
828.855	24418
828.994	24266
829.134	24068
829.273	24216
829.412	24018
829.551	24167
829.69	24228
829.829	24186
829.968	24338
830.107	24323
830.246	24201
830.385	24216
830.524	24114
830.663	24045
830.802	23992
830.941	23783
831.08	23760
831.219	23889
831.357	23870
831.496	24034
831.635	23843
831.774	23745
831.913	23687
832.051	23478
832.19	23570
832.329	23676
832.467	23505
832.606	23448
832.744	23467
832.883	23501
833.022	23406
833.16	23501
833.299	23592
833.437	23554
833.576	23516
833.714	23657
833.852	23459
833.991	23600
834.129	23634
834.267	23634
834.406	23528
834.544	23486
834.682	23562
834.821	23543
834.959	23615
835.097	23497
835.235	23581
835.373	23547
835.511	23497
835.65	23406
835.788	23395
835.926	23292
836.064	23296
836.202	23235
836.34	23368
836.478	23490
836.615	23467
836.753	23444
836.891	23482
837.029	23448
837.167	23341
837.305	23296
837.443	23345
837.58	23288
837.718	23181
837.856	23231
837.993	23174
838.131	23235
838.269	23231
838.406	23193
838.544	23010
838.681	22873
838.819	22934
838.956	22710
839.094	22710
839.231	22755
839.369	22869
839.506	23079
839.643	22984
839.781	22778
839.918	22626
840.055	22736
840.193	22637
840.33	22721
840.467	22691
840.604	22736
840.742	22828
840.879	22550
841.016	22592
841.153	22554
841.29	22672
841.427	22668
841.564	22607
841.701	22641
841.838	22691
841.975	22485
842.112	22527
842.249	22470
842.385	22455
842.522	22588
842.659	22417
842.796	22329
842.933	22398
843.069	22299
843.206	22322
843.343	22409
843.479	22379
843.616	22280
843.752	22143
843.889	22287
844.025	22257
844.162	22177
844.298	22386
844.435	22162
844.571	22139
844.708	22207
844.844	22268
844.98	22261
845.117	22177
845.253	22268
845.389	22032
845.525	22101
845.661	22048
845.798	21949
845.934	22059
846.07	21994
846.206	22006
846.342	22040
846.478	21922
846.614	21831
846.75	21568
846.886	21652
847.022	21720
847.158	21656
847.294	21739
847.429	21709
847.565	21656
847.701	21895
847.837	21435
847.972	21359
848.108	21568
848.244	21386
848.379	21294
848.515	21119
848.65	21272
848.786	21218
848.921	21321
849.057	21378
849.192	21154
849.328	21268
849.463	21226
849.598	21264
849.734	21100
849.869	21077
850.004	21066
850.14	20921
850.275	21001
850.41	20967
850.545	20910
850.68	21112
850.815	21017
850.95	21062
851.085	21188
851.22	20975
851.355	21005
851.49	20902
851.625	20929
851.76	21051
851.895	20948
852.03	20960
852.165	21020
852.299	21047
852.434	21104
852.569	21043
852.703	21028
852.838	21055
852.973	21135
853.107	21017
853.242	20891
853.376	20887
853.511	20682
853.645	20705
853.78	20880
853.914	20765
854.048	20830
854.183	20777
854.317	20899
854.451	20899
854.585	20929
854.72	20731
854.854	20838
854.988	20765
855.122	20864
855.256	20724
855.39	20796
855.524	20895
855.658	20914
855.792	20804
855.926	20933
856.06	20853
856.194	20857
856.327	20750
856.461	20731
856.595	20731
856.729	20777
856.862	20956
856.996	20948
857.13	20853
857.263	20800
857.397	20944
857.53	20834
857.664	20872
857.797	21009
857.931	20918
858.064	20925
858.197	20960
858.331	20861
858.464	20796
858.597	20804
858.731	20807
858.864	20880
858.997	20929
859.13	20895
859.263	20781
859.396	20887
859.529	20769
859.662	20739
859.795	20720
859.928	20811
860.061	20910
860.194	21024
860.327	20834
860.46	20659
860.592	20994
860.725	21039
860.858	20990
860.99	20807
861.123	20777
861.256	20739
861.388	20819
861.521	21332
861.653	20701
861.786	20594
861.918	20556
862.05	20621
862.183	20743
862.315	20811
862.447	20880
862.58	20686
862.712	20651
862.844	20476
862.976	20663
863.108	20682
863.24	20826
863.372	20492
863.504	20556
863.636	20541
863.768	20640
863.9	20556
864.032	20552
864.164	20537
864.296	20716
864.428	20705
864.559	20701
864.691	20602
864.823	20484
864.954	20579
865.086	20583
865.217	20454
865.349	20358
865.48	20511
865.612	20522
865.743	20537
865.875	20492
866.006	20454
866.137	20396
866.269	20484
866.4	20393
866.531	20400
866.662	20324
866.793	20427
866.924	20370
867.055	20393
867.186	20465
867.317	20408
867.448	20309
867.579	20415
867.71	20191
867.841	20221
867.972	20408
868.103	20412
868.233	20393
868.364	20423
868.495	20484
868.625	20655
868.756	20762
868.886	20549
869.017	20632
869.147	20754
869.278	20697
869.408	20621
869.539	20526
869.669	20663
869.799	20708
869.929	20758
870.06	20838
870.19	20914
870.32	20883
870.45	20986
870.58	21009
870.71	21135
870.84	21203
870.97	21017
871.1	21055
871.23	21150
871.36	21275
871.489	21104
871.619	21245
871.749	21222
871.879	21283
872.008	21268
872.138	21211
872.267	21131
872.397	21127
872.526	21001
872.656	21036
872.785	21180
872.915	21199
873.044	21306
873.173	21389
873.303	21382
873.432	21351
873.561	21336
873.69	21207
873.819	21154
873.948	21268
874.077	21237
874.206	21275
874.335	21142
874.464	21340
874.593	21485
874.722	21526
874.851	21549
874.979	21504
875.108	21443
875.237	21348
875.365	21428
875.494	21488
875.623	21401
875.751	21355
875.88	21576
876.008	21618
876.136	21648
876.265	21842
876.393	22017
876.521	21918
876.65	21911
876.778	21895
876.906	21762
877.034	21873
877.162	21926
877.29	21739
877.418	21945
877.546	21812
877.674	21823
877.802	21816
877.93	21720
878.058	21781
878.185	21599
878.313	21850
878.441	21823
878.568	21656
878.696	21679
878.824	21816
878.951	21930
879.079	21972
879.206	22051
879.333	22029
879.461	21911
879.588	21907
879.715	22021
879.842	22162
879.97	21876
880.097	21728
880.224	21694
880.351	21713
880.478	21618
880.605	21458
880.732	21622
880.859	21956
880.986	21610
881.112	21656
881.239	21378
881.366	21454
881.493	21439
881.619	21458
881.746	21211
881.872	21321
881.999	21195
882.125	21169
882.252	21176
882.378	21184
882.505	21249
882.631	21108
882.757	21032
882.883	20986
883.01	20906
883.136	20902
883.262	20800
883.388	20686
883.514	20979
883.64	20948
883.766	20815
883.892	20720
884.018	20701
884.143	20921
884.269	20921
884.395	20739
884.52	20522
884.646	20579
884.772	20328
884.897	20499
885.023	20602
885.148	20674
885.274	20811
885.399	20689
885.524	20629
885.65	20488
885.775	20674
885.9	20541
886.025	20746
886.15	20587
886.275	20507
886.4	20473
886.525	20579
886.65	20495
886.775	20431
886.9	20552
887.025	20762
887.149	20560
887.274	20366
887.399	20358
887.523	20199
887.648	20309
887.773	20229
887.897	20385
888.021	20278
888.146	20355
888.27	20412
888.395	20454
888.519	20343
888.643	20454
888.767	20301
888.891	20313
889.015	20187
889.139	20275
889.263	20225
889.387	20290
889.511	20275
889.635	20370
889.759	20100
889.883	20115
890.006	20081
890.13	20313
890.254	20058
890.377	20035
890.501	19936
890.624	19883
890.748	19928
890.871	19868
890.995	19860
891.118	19738
891.241	19719
891.364	19830
891.488	19814
891.611	19734
891.734	19734
891.857	19780
891.98	19681
892.103	19765
892.226	19746
892.349	19601
892.471	19468
892.594	19639
892.717	19807
892.839	19609
892.962	19597
893.085	19666
893.207	19597
893.33	19525
893.452	19525
893.575	19742
893.697	19658
893.819	19799
893.941	19875
894.064	19852
894.186	19605
894.308	19658
894.43	19757
894.552	19715
894.674	19727
894.796	19567
894.918	19620
895.04	19639
895.161	19761
895.283	19681
895.405	19616
895.526	19666
895.648	19635
895.769	19567
895.891	19696
896.012	19719
896.134	19734
896.255	19613
896.376	19712
896.498	19685
896.619	19700
896.74	19670
896.861	19731
896.982	19894
897.103	20157
897.224	19841
897.345	19909
897.466	19898
897.587	19947
897.708	19986
897.828	19902
897.949	19932
898.07	19708
898.19	19830
898.311	20050
898.431	19868
898.552	19894
898.672	19963
898.792	19845
898.913	19849
899.033	19746
899.153	19761
899.273	19674
899.393	19586
899.513	19681
899.633	19537
899.753	19700
899.873	19594
899.993	19693
900.113	19590
900.232	19666
900.352	19567
900.472	19582
900.591	19449
900.711	19403
900.83	19259
900.95	19491
901.069	19556
901.189	19190
901.308	19023
901.427	19038
901.546	19053
901.665	19042
901.784	19057
901.904	18890
902.023	18886
902.141	18688
902.26	18563
902.379	18669
902.498	18536
902.617	18536
902.735	18513
902.854	18479
902.973	18433
903.091	18232
903.21	18133
903.328	18224
903.446	17950
903.565	18064
903.683	18152
903.801	17977
903.919	18003
904.038	17859
904.156	17718
904.274	17878
904.392	17748
904.51	17843
904.627	17748
904.745	17771
904.863	17752
904.981	17558
905.098	17539
905.216	17448
905.334	17444
905.451	17425
905.569	17356
905.686	17501
905.803	17482
905.921	17261
906.038	17417
906.155	17315
906.272	17174
906.389	17124
906.506	17121
906.623	17014
906.74	16961
906.857	16889
906.974	16930
907.091	16968
907.208	17143
907.324	16999
907.441	16873
907.557	16820
907.674	16774
907.79	16607
907.907	16713
908.023	16721
908.139	16733
908.256	16626
908.372	16538
908.488	16656
908.604	16455
908.72	16398
908.836	16519
908.952	16432
909.068	16538
909.184	16497
909.3	16440
909.415	16455
909.531	16375
909.647	16188
909.762	16143
909.878	16147
909.993	16207
910.108	16143
910.224	16059
910.339	16090
910.454	15907
910.57	15987
910.685	15945
910.8	16181
910.915	16097
911.03	15915
911.145	15766
911.259	15759
911.374	15679
911.489	15686
911.604	15641
911.718	15561
911.833	15576
911.947	15424
912.062	15222
912.176	15492
912.291	15561
912.405	15507
912.519	15682
912.633	15717
912.748	15580
912.862	15367
912.976	15294
913.09	15222
913.204	15321
913.318	15355
913.431	15466
913.545	15420
913.659	15348
913.772	15211
913.886	15138
914	15169
914.113	15283
914.226	15233
914.34	15142
914.453	15074
914.566	15192
914.68	15005
914.793	15024
914.906	14800
915.019	14792
915.132	14739
915.245	14712
915.358	14876
915.47	14762
915.583	14826
915.696	14864
915.809	14785
915.921	14868
916.034	14640
916.146	14697
916.259	14590
916.371	14788
916.483	14655
916.595	14617
916.708	14667
916.82	14533
916.932	14488
917.044	14602
917.156	14454
917.268	14381
917.38	14415
917.491	14461
917.603	14461
917.715	14419
917.826	14488
917.938	14324
918.049	14180
918.161	14389
918.272	14541
918.384	14389
918.495	14370
918.606	14206
918.717	14092
918.828	14168
918.939	14206
919.05	14084
919.161	14252
919.272	13898
919.383	14081
919.494	14164
919.604	14408
919.715	14130
919.826	13989
919.936	14107
920.047	14168
920.157	14111
920.267	14400
920.378	14153
920.488	14065
920.598	14355
920.708	14434
920.818	14172
920.928	14202
921.038	14454
921.148	14381
921.258	14096
921.368	14016
921.477	13883
921.587	13856
921.697	13780
921.806	13989
921.916	13776
922.025	13556
922.134	13597
922.244	13495
922.353	13518
922.462	13400
922.571	13449
922.68	13175
922.789	13190
922.898	13156
923.007	13114
923.116	13187
923.224	13084
923.333	13152
923.442	13038
923.55	12993
923.659	13088
923.767	13084
923.876	12947
923.984	13015
924.092	12909
924.201	12935
924.309	12939
924.417	12939
924.525	12856
924.633	12890
924.741	13795
924.849	12673
924.956	12779
925.064	12684
925.172	12574
925.279	12563
925.387	12642
925.494	12566
925.602	12825
925.709	12635
925.816	12490
925.924	12582
926.031	12627
926.138	12650
926.245	12646
926.352	12483
926.459	12635
926.566	12703
926.673	12525
926.779	12410
926.886	12342
926.993	12270
927.099	12216
927.206	12178
927.312	12175
927.419	12220
927.525	12155
927.631	12235
927.737	12140
927.843	12057
927.95	11996
928.056	12026
928.162	12003
928.267	12030
928.373	12642
928.479	12144
928.585	11920
928.69	12049
928.796	12007
928.901	11920
929.007	11813
929.112	11961
929.218	11813
929.323	11741
929.428	11775
929.533	11882
929.638	11657
929.743	11748
929.848	11813
929.953	11699
930.058	11524
930.163	11459
930.267	11551
930.372	11516
930.477	11463
930.581	11718
930.685	11512
930.79	11356
930.894	11391
930.998	11383
931.103	11467
931.207	11185
931.311	10991
931.415	10965
931.519	10771
931.623	10759
