Data from test_V78500241_1035.txt Node
Date: Fri Mar 25 15:17:03 CST 2022
User: usil
Spectrometer: V785-0024
Trigger mode: 0
Integration Time (sec): 4.000000E-1
Scans to average: 1
Nonlinearity correction enabled: false
Boxcar width: 0
Storing dark spectrum: false
XAxis mode: Wavelengths
Number of Pixels in Spectrum: 1024
>>>>>Begin Spectral Data<<<<<
801.071	28207
801.214	28090
801.356	27827
801.499	27770
801.641	27587
801.783	27553
801.926	27732
802.068	27739
802.211	27633
802.353	27606
802.496	27294
802.638	27203
802.78	27306
802.923	27291
803.065	27226
803.208	27367
803.35	27310
803.492	27306
803.635	27523
803.777	27496
803.919	27545
804.061	27861
804.204	27663
804.346	27515
804.488	27447
804.63	27671
804.773	27447
804.915	27500
805.057	27660
805.199	27435
805.341	27641
805.483	27667
805.626	27747
805.768	27538
805.91	27572
806.052	27599
806.194	27576
806.336	27968
806.478	27842
806.62	27705
806.762	27960
806.904	27960
807.046	28147
807.188	28032
807.33	28040
807.472	28162
807.614	28063
807.756	27979
807.898	27994
808.04	27930
808.182	27808
808.324	28109
808.465	28036
808.607	28272
808.749	28337
808.891	28538
809.033	28440
809.174	28386
809.316	28287
809.458	28284
809.6	28249
809.741	28618
809.883	28466
810.025	28809
810.166	28793
810.308	28656
810.45	28603
810.591	28489
810.733	28390
810.875	28519
811.016	28291
811.158	28242
811.299	28478
811.441	28504
811.582	28653
811.724	28363
811.865	28257
812.007	28360
812.148	28360
812.29	28462
812.431	28561
812.573	28687
812.714	28797
812.855	28995
812.997	29102
813.138	29060
813.279	29147
813.421	28953
813.562	28938
813.703	28702
813.845	28641
813.986	28226
814.127	28086
814.268	27979
814.41	28139
814.551	28044
814.692	28051
814.833	28093
814.974	28093
815.115	28120
815.256	27964
815.397	28063
815.539	28013
815.68	27956
815.821	27838
815.962	27854
816.103	28006
816.244	27800
816.385	27819
816.526	27557
816.666	27424
816.807	27374
816.948	27340
817.089	27382
817.23	27458
817.371	27469
817.512	27466
817.653	27245
817.793	27279
817.934	27496
818.075	27473
818.216	27306
818.356	27283
818.497	27245
818.638	27093
818.778	26994
818.919	27260
819.06	27237
819.2	27264
819.341	27306
819.481	27367
819.622	27583
819.762	27751
819.903	27587
820.043	27599
820.184	27454
820.324	27519
820.465	27595
820.605	27595
820.746	27454
820.886	27454
821.026	27469
821.167	27447
821.307	27603
821.447	27367
821.588	27279
821.728	27214
821.868	27051
822.008	27055
822.149	26861
822.289	26762
822.429	26625
822.569	26530
822.709	26465
822.849	26324
822.99	26431
823.13	26355
823.27	26408
823.41	26202
823.55	26191
823.69	26195
823.83	26347
823.97	26210
824.11	25989
824.25	26027
824.389	26115
824.529	26122
824.669	26058
824.809	26142
824.949	26096
825.089	26138
825.228	26012
825.368	25868
825.508	25894
825.648	25997
825.787	25940
825.927	25921
826.067	25791
826.206	25765
826.346	25860
826.485	25928
826.625	25947
826.765	25940
826.904	26008
827.044	25753
827.183	25715
827.323	25666
827.462	25708
827.601	25540
827.741	25548
827.88	25746
828.02	25499
828.159	25605
828.298	25556
828.437	25696
828.577	25552
828.716	25765
828.855	25586
828.994	25403
829.134	25354
829.273	25449
829.412	25255
829.551	25236
829.69	25263
829.829	25449
829.968	25495
830.107	25422
830.246	25365
830.385	25369
830.524	25312
830.663	25164
830.802	25042
830.941	25008
831.08	24886
831.219	25015
831.357	25012
831.496	25168
831.635	24951
831.774	24970
831.913	24856
832.051	24814
832.19	24696
832.329	24939
832.467	24700
832.606	24616
832.744	24544
832.883	24730
833.022	24483
833.16	24722
833.299	24741
833.437	24681
833.576	24730
833.714	24738
833.852	24646
833.991	24707
834.129	24677
834.267	24726
834.406	24722
834.544	24745
834.682	24757
834.821	24620
834.959	24901
835.097	24654
835.235	24772
835.373	24604
835.511	24635
835.65	24551
835.788	24547
835.926	24460
836.064	24270
836.202	24479
836.34	24483
836.478	24620
836.615	24422
836.753	24612
836.891	24646
837.029	24582
837.167	24502
837.305	24426
837.443	24334
837.58	24300
837.718	24445
837.856	24426
837.993	24262
838.131	24452
838.269	24171
838.406	24243
838.544	24159
838.681	24011
838.819	24060
838.956	23866
839.094	23843
839.231	23866
839.369	24026
839.506	24224
839.643	24057
839.781	23824
839.918	23733
840.055	23908
840.193	23897
840.33	23733
840.467	23687
840.604	23897
840.742	24190
840.879	23547
841.016	23653
841.153	23516
841.29	23859
841.427	23745
841.564	23775
841.701	23718
841.838	23752
841.975	23672
842.112	23592
842.249	23604
842.385	23512
842.522	23604
842.659	23592
842.796	23543
842.933	23554
843.069	23471
843.206	23360
843.343	23630
843.479	23551
843.616	23425
843.752	23292
843.889	23261
844.025	23436
844.162	23242
844.298	23368
844.435	23402
844.571	23204
844.708	23265
844.844	23368
844.98	23448
845.117	23345
845.253	23155
845.389	23128
845.525	23231
845.661	23178
845.798	23083
845.934	22968
846.07	23098
846.206	23064
846.342	23113
846.478	22904
846.614	22869
846.75	22679
846.886	22748
847.022	22755
847.158	22771
847.294	22801
847.429	22843
847.565	22744
847.701	22984
847.837	22432
847.972	22413
848.108	22523
848.244	22634
848.379	22344
848.515	22291
848.65	22322
848.786	22405
848.921	22394
849.057	22329
849.192	22428
849.328	22451
849.463	22352
849.598	22306
849.734	22272
849.869	22249
850.004	22177
850.14	22166
850.275	22109
850.41	22010
850.545	22002
850.68	22002
850.815	22105
850.95	22162
851.085	22299
851.22	22287
851.355	22010
851.49	22105
851.625	22078
851.76	22044
851.895	22010
852.03	22040
852.165	22032
852.299	22181
852.434	22204
852.569	22063
852.703	22223
852.838	22135
852.973	22348
853.107	22173
853.242	22112
853.376	21827
853.511	21979
853.645	21941
853.78	21979
853.914	21907
854.048	21888
854.183	21903
854.317	21956
854.451	21998
854.585	21975
854.72	21972
854.854	22067
854.988	21850
855.122	21915
855.256	21812
855.39	21861
855.524	21895
855.658	22029
855.792	21953
855.926	21956
856.06	21934
856.194	22055
856.327	21755
856.461	21918
856.595	21888
856.729	21911
856.862	22158
856.996	21915
857.13	22048
857.263	22036
857.397	22040
857.53	21953
857.664	21975
857.797	22013
857.931	22002
858.064	22002
858.197	22067
858.331	21892
858.464	21865
858.597	21759
858.731	21918
858.864	21816
858.997	21865
859.13	21964
859.263	21941
859.396	21987
859.529	21899
859.662	21861
859.795	21892
859.928	21869
860.061	22021
860.194	22207
860.327	21937
860.46	22074
860.592	22074
860.725	22116
860.858	22051
860.99	21975
861.123	21873
861.256	21827
861.388	21903
861.521	22618
861.653	21846
861.786	21736
861.918	21770
862.05	21698
862.183	21838
862.315	21899
862.447	21770
862.58	21903
862.712	21690
862.844	21728
862.976	21720
863.108	21606
863.24	22139
863.372	21622
863.504	21641
863.636	21622
863.768	21770
863.9	21618
864.032	21511
864.164	21663
864.296	21667
864.428	21709
864.559	21705
864.691	21717
864.823	21568
864.954	21625
865.086	21576
865.217	21469
865.349	21530
865.48	21454
865.612	21515
865.743	21523
865.875	21583
866.006	21492
866.137	21496
866.269	21454
866.4	21507
866.531	21397
866.662	21382
866.793	21599
866.924	21435
867.055	21523
867.186	21511
867.317	21439
867.448	21336
867.579	21466
867.71	21367
867.841	21397
867.972	21363
868.103	21351
868.233	21553
868.364	21428
868.495	21614
868.625	21686
868.756	21724
868.886	21583
869.017	21713
869.147	21827
869.278	21789
869.408	21698
869.539	21663
869.669	21679
869.799	21660
869.929	21785
870.06	21743
870.19	21953
870.32	21979
870.45	22135
870.58	22192
870.71	22211
870.84	22082
870.97	22078
871.1	22048
871.23	22200
871.36	22147
871.489	22162
871.619	22303
871.749	22173
871.879	22265
872.008	22390
872.138	22238
872.267	22188
872.397	22169
872.526	22070
872.656	22093
872.785	22124
872.915	22322
873.044	22409
873.173	22246
873.303	22402
873.432	22443
873.561	22337
873.69	22295
873.819	22405
873.948	22337
874.077	22329
874.206	22257
874.335	22405
874.464	22413
874.593	22565
874.722	22451
874.851	22508
874.979	22497
875.108	22519
875.237	22432
875.365	22413
875.494	22546
875.623	22512
875.751	22554
875.88	22466
876.008	22687
876.136	22687
876.265	22854
876.393	23075
876.521	22915
876.65	22911
876.778	22908
876.906	22843
877.034	22809
877.162	22816
877.29	22801
877.418	22961
877.546	22790
877.674	22885
877.802	22843
877.93	22866
878.058	22885
878.185	22759
878.313	22809
878.441	22869
878.568	22634
878.696	22831
878.824	22820
878.951	22885
879.079	23060
879.206	23212
879.333	22927
879.461	22915
879.588	23010
879.715	22980
879.842	23121
879.97	22854
880.097	22615
880.224	22679
880.351	22683
880.478	22759
880.605	22744
880.732	22656
880.859	22980
880.986	22596
881.112	22694
881.239	22519
881.366	22363
881.493	22280
881.619	22276
881.746	22162
881.872	22299
881.999	22188
882.125	22192
882.252	22284
882.378	22226
882.505	22299
882.631	21972
882.757	21926
882.883	22097
883.01	21998
883.136	21903
883.262	21873
883.388	21907
883.514	21850
883.64	21998
883.766	21892
883.892	21667
884.018	21698
884.143	21781
884.269	21918
884.395	21580
884.52	21557
884.646	21682
884.772	21534
884.897	21530
885.023	21553
885.148	21591
885.274	21728
885.399	21705
885.524	21564
885.65	21523
885.775	21485
885.9	21564
886.025	21660
886.15	21561
886.275	21641
886.4	21496
886.525	21496
886.65	21534
886.775	21504
886.9	21622
887.025	21778
887.149	21553
887.274	21298
887.399	21382
887.523	21272
887.648	21252
887.773	21447
887.897	21344
888.021	21374
888.146	21340
888.27	21355
888.395	21397
888.519	21245
888.643	21397
888.767	21332
888.891	21313
889.015	21047
889.139	21150
889.263	21096
889.387	21226
889.511	21313
889.635	21150
889.759	21116
889.883	21138
890.006	21226
890.13	21378
890.254	21009
890.377	21127
890.501	20895
890.624	20762
890.748	21001
890.871	20788
890.995	20765
891.118	20617
891.241	20579
891.364	20769
891.488	20910
891.611	20769
891.734	20792
891.857	20807
891.98	20579
892.103	20629
892.226	20670
892.349	20655
892.471	20396
892.594	20526
892.717	20701
892.839	20598
892.962	20549
893.085	20651
893.207	20594
893.33	20564
893.452	20526
893.575	20659
893.697	20434
893.819	20708
893.941	20758
894.064	20663
894.186	20473
894.308	20568
894.43	20568
894.552	20720
894.674	20476
894.796	20575
894.918	20389
895.04	20530
895.161	20716
895.283	20511
895.405	20530
895.526	20705
895.648	20552
895.769	20560
895.891	20583
896.012	20602
896.134	20564
896.255	20583
896.376	20537
896.498	20617
896.619	20469
896.74	20594
896.861	20564
896.982	20845
897.103	20998
897.224	20849
897.345	20765
897.466	20750
897.587	20849
897.708	20963
897.828	20788
897.949	20663
898.07	20625
898.19	20716
898.311	20872
898.431	20655
898.552	20511
898.672	20952
898.792	20750
898.913	20743
899.033	20705
899.153	20598
899.273	20469
899.393	20613
899.513	20587
899.633	20533
899.753	20526
899.873	20396
899.993	20583
900.113	20457
900.232	20530
900.352	20434
900.472	20408
900.591	20275
900.711	20252
900.83	20180
900.95	20423
901.069	20244
901.189	20206
901.308	20031
901.427	19967
901.546	19776
901.665	19845
901.784	19864
901.904	19776
902.023	19628
902.141	19381
902.26	19468
902.379	19529
902.498	19312
902.617	19259
902.735	19365
902.854	19312
902.973	19297
903.091	19114
903.21	19080
903.328	18947
903.446	18935
903.565	18787
903.683	18897
903.801	18726
903.919	18863
904.038	18734
904.156	18566
904.274	18711
904.392	18665
904.51	18528
904.627	18528
904.745	18517
904.863	18654
904.981	18448
905.098	18395
905.216	18171
905.334	18292
905.451	18304
905.569	18182
905.686	18304
905.803	18372
905.921	18117
906.038	18144
906.155	18110
906.272	17939
906.389	17931
906.506	17786
906.623	17805
906.74	17821
906.857	17783
906.974	17718
907.091	17836
907.208	17904
907.324	17798
907.441	17699
907.557	17581
907.674	17608
907.79	17425
907.907	17551
908.023	17436
908.139	17551
908.256	17459
908.372	17433
908.488	17372
908.604	17337
908.72	17162
908.836	17212
908.952	17235
909.068	17417
909.184	17315
909.3	17322
909.415	17299
909.531	17242
909.647	16900
909.762	16980
909.878	16793
909.993	16987
910.108	16915
910.224	16771
910.339	16908
910.454	16717
910.57	16668
910.685	16645
910.8	16987
910.915	16892
911.03	16691
911.145	16565
911.259	16599
911.374	16535
911.489	16451
911.604	16405
911.718	16257
911.833	16272
911.947	16109
912.062	15979
912.176	16272
912.291	16204
912.405	16162
912.519	16421
912.633	16322
912.748	16272
912.862	16242
912.976	16097
913.09	16044
913.204	16101
913.318	16063
913.431	16143
913.545	16177
913.659	16215
913.772	15934
913.886	15945
914	15850
914.113	15922
914.226	16002
914.34	15956
914.453	15770
914.566	15956
914.68	15842
914.793	15679
914.906	15675
915.019	15473
915.132	15405
915.245	15435
915.358	15481
915.47	15507
915.583	15519
915.696	15412
915.809	15580
915.921	15523
916.034	15382
916.146	15386
916.259	15351
916.371	15424
916.483	15458
916.595	15218
916.708	15302
916.82	15424
916.932	15298
917.044	15275
917.156	15233
917.268	14979
917.38	15138
917.491	15017
917.603	15150
917.715	15146
917.826	15146
917.938	14944
918.049	14941
918.161	15066
918.272	15173
918.384	15150
918.495	15024
918.606	14872
918.717	14800
918.828	14906
918.939	14876
919.05	14754
919.161	14765
919.272	14655
919.383	14765
919.494	14785
919.604	14975
919.715	14857
919.826	14739
919.936	14727
920.047	14792
920.157	14861
920.267	14914
920.378	14819
920.488	14727
920.598	14906
920.708	15142
920.818	15005
920.928	14807
921.038	15097
921.148	14998
921.258	14739
921.368	14678
921.477	14571
921.587	14442
921.697	14393
921.806	14541
921.916	14358
922.025	14237
922.134	14187
922.244	14050
922.353	14237
922.462	14024
922.571	14043
922.68	13849
922.789	13795
922.898	13879
923.007	13761
923.116	13811
923.224	13826
923.333	13761
923.442	13723
923.55	13636
923.659	13677
923.767	13616
923.876	13575
923.984	13738
924.092	13628
924.201	13491
924.309	13647
924.417	13609
924.525	13514
924.633	13510
924.741	14446
924.849	13209
924.956	13377
925.064	13270
925.172	13297
925.279	13198
925.387	13274
925.494	13236
925.602	13327
925.709	13247
925.816	13118
925.924	13099
926.031	13156
926.138	13179
926.245	13228
926.352	13019
926.459	13183
926.566	13206
926.673	13042
926.779	12947
926.886	12947
926.993	12863
927.099	12810
927.206	12696
927.312	12730
927.419	12817
927.525	12783
927.631	12814
927.737	12578
927.843	12654
927.95	12536
928.056	12585
928.162	12616
928.267	12620
928.373	13194
928.479	12639
928.585	12437
928.69	12479
928.796	12665
928.901	12399
929.007	12258
929.112	12391
929.218	12456
929.323	12273
929.428	12346
929.533	12448
929.638	12224
929.743	12273
929.848	12292
929.953	12213
930.058	12194
930.163	12034
930.267	11946
930.372	12136
930.477	11961
930.581	12209
930.685	12057
930.79	11916
930.894	11878
930.998	11817
931.103	12030
931.207	11619
931.311	11554
931.415	11387
931.519	11322
931.623	11258
