Data from test_V78500241_3561.txt Node
Date: Fri Mar 25 15:34:39 CST 2022
User: usil
Spectrometer: V785-0024
Trigger mode: 0
Integration Time (sec): 4.000000E-1
Scans to average: 1
Nonlinearity correction enabled: false
Boxcar width: 0
Storing dark spectrum: false
XAxis mode: Wavelengths
Number of Pixels in Spectrum: 1024
>>>>>Begin Spectral Data<<<<<
801.071	27344
801.214	27268
801.356	27055
801.499	26876
801.641	26857
801.783	26701
801.926	26944
802.068	26921
802.211	26777
802.353	26701
802.496	26663
802.638	26503
802.78	26682
802.923	26377
803.065	26320
803.208	26336
803.35	26495
803.492	26518
803.635	26590
803.777	26518
803.919	26686
804.061	26918
804.204	26613
804.346	26659
804.488	26594
804.63	26552
804.773	26499
804.915	26674
805.057	26640
805.199	26514
805.341	26602
805.483	26651
805.626	26758
805.768	26686
805.91	26735
806.052	26845
806.194	26609
806.336	26830
806.478	26640
806.62	26530
806.762	26902
806.904	26864
807.046	27291
807.188	27093
807.33	27157
807.472	27032
807.614	27066
807.756	26982
807.898	26967
808.04	26883
808.182	26918
808.324	26937
808.465	26902
808.607	27150
808.749	27355
808.891	27401
809.033	27363
809.174	27473
809.316	27363
809.458	27150
809.6	27195
809.741	27397
809.883	27363
810.025	27466
810.166	27591
810.308	27485
810.45	27538
810.591	27561
810.733	27405
810.875	27310
811.016	27256
811.158	27138
811.299	27336
811.441	27424
811.582	27405
811.724	27279
811.865	27195
812.007	27165
812.148	27268
812.29	27230
812.431	27500
812.573	27447
812.714	27595
812.855	27762
812.997	27789
813.138	27983
813.279	27827
813.421	27778
813.562	27618
813.703	27637
813.845	27568
813.986	27283
814.127	27005
814.268	26944
814.41	26944
814.551	26906
814.692	27028
814.833	26998
814.974	26918
815.115	26967
815.256	26804
815.397	26906
815.539	26754
815.68	26739
815.821	26777
815.962	26800
816.103	26796
816.244	26579
816.385	26518
816.526	26503
816.666	26404
816.807	26206
816.948	26229
817.089	26317
817.23	26320
817.371	26244
817.512	26202
817.653	26240
817.793	26225
817.934	26180
818.075	26320
818.216	26142
818.356	26195
818.497	26031
818.638	25814
818.778	25997
818.919	26069
819.06	25993
819.2	26054
819.341	26187
819.481	26164
819.622	26385
819.762	26545
819.903	26374
820.043	26275
820.184	26298
820.324	26294
820.465	26427
820.605	26278
820.746	26301
820.886	26191
821.026	26263
821.167	26252
821.307	26294
821.447	26183
821.588	26027
821.728	26008
821.868	25750
822.008	25620
822.149	25772
822.289	25658
822.429	25457
822.569	25453
822.709	25392
822.849	25118
822.99	25232
823.13	25183
823.27	25164
823.41	25012
823.55	24871
823.69	24981
823.83	24989
823.97	24977
824.11	24696
824.25	24798
824.389	24878
824.529	24992
824.669	24905
824.809	24867
824.949	24977
825.089	24882
825.228	24958
825.368	24665
825.508	24825
825.648	24711
825.787	24570
825.927	24734
826.067	24646
826.206	24692
826.346	24741
826.485	24806
826.625	24768
826.765	24882
826.904	24760
827.044	24646
827.183	24547
827.323	24239
827.462	24551
827.601	24479
827.741	24555
827.88	24483
828.02	24384
828.159	24323
828.298	24464
828.437	24441
828.577	24281
828.716	24422
828.855	24262
828.994	24220
829.134	24167
829.273	24121
829.412	24224
829.551	24057
829.69	24038
829.829	24117
829.968	24213
830.107	24266
830.246	24251
830.385	24102
830.524	24034
830.663	24060
830.802	23843
830.941	23684
831.08	23771
831.219	23893
831.357	23729
831.496	23996
831.635	23722
831.774	23707
831.913	23539
832.051	23608
832.19	23512
832.329	23577
832.467	23528
832.606	23478
832.744	23292
832.883	23455
833.022	23341
833.16	23509
833.299	23497
833.437	23440
833.576	23429
833.714	23577
833.852	23585
833.991	23436
834.129	23729
834.267	23524
834.406	23551
834.544	23581
834.682	23493
834.821	23490
834.959	23779
835.097	23539
835.235	23649
835.373	23509
835.511	23573
835.65	23455
835.788	23395
835.926	23284
836.064	23143
836.202	23155
836.34	23273
836.478	23467
836.615	23387
836.753	23414
836.891	23459
837.029	23349
837.167	23296
837.305	23258
837.443	23231
837.58	23159
837.718	23273
837.856	23223
837.993	23105
838.131	23250
838.269	23006
838.406	23166
838.544	22984
838.681	22790
838.819	22961
838.956	22668
839.094	22729
839.231	22782
839.369	22919
839.506	23231
839.643	22961
839.781	22771
839.918	22615
840.055	22672
840.193	22588
840.33	22668
840.467	22603
840.604	22793
840.742	22927
840.879	22493
841.016	22615
841.153	22485
841.29	22790
841.427	22603
841.564	22683
841.701	22702
841.838	22660
841.975	22557
842.112	22481
842.249	22428
842.385	22440
842.522	22744
842.659	22443
842.796	22413
842.933	22363
843.069	22329
843.206	22333
843.343	22504
843.479	22363
843.616	22329
843.752	22177
843.889	22185
844.025	22379
844.162	22158
844.298	22249
844.435	22188
844.571	22082
844.708	22219
844.844	22150
844.98	22314
845.117	22341
845.253	21975
845.389	22006
845.525	22105
845.661	22032
845.798	21800
845.934	22044
846.07	21903
846.206	22002
846.342	22006
846.478	21895
846.614	21656
846.75	21595
846.886	21656
847.022	21656
847.158	21705
847.294	21652
847.429	21690
847.565	21576
847.701	21846
847.837	21363
847.972	21336
848.108	21424
848.244	21519
848.379	21180
848.515	21218
848.65	21226
848.786	21241
848.921	21165
849.057	21264
849.192	21329
849.328	21173
849.463	21176
849.598	21157
849.734	21184
849.869	21093
850.004	21081
850.14	21036
850.275	20963
850.41	20925
850.545	21047
850.68	20929
850.815	20990
850.95	21001
851.085	21199
851.22	21081
851.355	21001
851.49	20910
851.625	20944
851.76	20933
851.895	20918
852.03	20929
852.165	21024
852.299	20990
852.434	21005
852.569	21085
852.703	21081
852.838	21131
852.973	21043
853.107	21207
853.242	20910
853.376	20823
853.511	20739
853.645	20842
853.78	20914
853.914	20918
854.048	20834
854.183	20670
854.317	20762
854.451	21062
854.585	20868
854.72	20891
854.854	20986
854.988	20785
855.122	20785
855.256	20819
855.39	20773
855.524	20796
855.658	20853
855.792	20838
855.926	20857
856.06	20887
856.194	20956
856.327	20807
856.461	20727
856.595	20682
856.729	20807
856.862	20830
856.996	20857
857.13	20971
857.263	20800
857.397	20910
857.53	20845
857.664	20952
857.797	20941
857.931	21005
858.064	20773
858.197	20982
858.331	20823
858.464	20731
858.597	20663
858.731	20788
858.864	20868
858.997	20785
859.13	20872
859.263	20914
859.396	20883
859.529	20785
859.662	20857
859.795	20655
859.928	20826
860.061	20906
860.194	21009
860.327	20861
860.46	20777
860.592	20899
860.725	21028
860.858	20960
860.99	20773
861.123	20750
861.256	20670
861.388	20720
861.521	21557
861.653	20602
861.786	20522
861.918	20549
862.05	20720
862.183	20792
862.315	20773
862.447	20887
862.58	20830
862.712	20492
862.844	20465
862.976	20678
863.108	20473
863.24	20925
863.372	20526
863.504	20537
863.636	20465
863.768	20454
863.9	20537
864.032	20511
864.164	20476
864.296	20507
864.428	20571
864.559	20545
864.691	20545
864.823	20549
864.954	20514
865.086	20556
865.217	20339
865.349	20423
865.48	20450
865.612	20423
865.743	20571
865.875	20400
866.006	20503
866.137	20415
866.269	20480
866.4	20336
866.531	20339
866.662	20324
866.793	20404
866.924	20404
867.055	20408
867.186	20480
867.317	20415
867.448	20309
867.579	20404
867.71	20358
867.841	20275
867.972	20351
868.103	20419
868.233	20419
868.364	20389
868.495	20457
868.625	20564
868.756	20792
868.886	20575
869.017	20617
869.147	20621
869.278	20670
869.408	20613
869.539	20583
869.669	20716
869.799	20617
869.929	20762
870.06	20864
870.19	21066
870.32	20887
870.45	20937
870.58	21081
870.71	21051
870.84	21070
870.97	21108
871.1	20891
871.23	21279
871.36	21256
871.489	21241
871.619	21017
871.749	21294
871.879	21310
872.008	21359
872.138	21264
872.267	21321
872.397	21150
872.526	21051
872.656	21104
872.785	21165
872.915	21272
873.044	21211
873.173	21199
873.303	21344
873.432	21245
873.561	21306
873.69	21252
873.819	21230
873.948	21344
874.077	21260
874.206	21180
874.335	21294
874.464	21374
874.593	21500
874.722	21378
874.851	21481
874.979	21485
875.108	21557
875.237	21481
875.365	21450
875.494	21496
875.623	21557
875.751	21389
875.88	21561
876.008	21599
876.136	21743
876.265	21831
876.393	21953
876.521	21972
876.65	21949
876.778	21800
876.906	21850
877.034	21838
877.162	21793
877.29	21747
877.418	21949
877.546	21835
877.674	21759
877.802	21873
877.93	21812
878.058	21785
878.185	21759
878.313	21804
878.441	21838
878.568	21739
878.696	21755
878.824	21949
878.951	21911
879.079	22044
879.206	22116
879.333	21949
879.461	21823
879.588	21941
879.715	22090
879.842	22109
879.97	21880
880.097	21622
880.224	21701
880.351	21770
880.478	21759
880.605	21682
880.732	21705
880.859	21838
880.986	21648
881.112	21660
881.239	21412
881.366	21439
881.493	21351
881.619	21336
881.746	21351
881.872	21154
881.999	21211
882.125	21203
882.252	21214
882.378	21237
882.505	21370
882.631	21032
882.757	20990
882.883	21028
883.01	20990
883.136	20967
883.262	20876
883.388	20918
883.514	20986
883.64	20868
883.766	20933
883.892	20826
884.018	20804
884.143	20929
884.269	21093
884.395	20613
884.52	20499
884.646	20617
884.772	20488
884.897	20469
885.023	20552
885.148	20720
885.274	20613
885.399	20788
885.524	20590
885.65	20613
885.775	20503
885.9	20560
886.025	20708
886.15	20655
886.275	20499
886.4	20533
886.525	20590
886.65	20454
886.775	20541
886.9	20735
887.025	20724
887.149	20560
887.274	20499
887.399	20408
887.523	20461
887.648	20290
887.773	20240
887.897	20476
888.021	20393
888.146	20317
888.27	20522
888.395	20408
888.519	20434
888.643	20434
888.767	20328
888.891	20237
889.015	20187
889.139	20362
889.263	20248
889.387	20286
889.511	20351
889.635	20332
889.759	20149
889.883	20195
890.006	20161
890.13	20233
890.254	20157
890.377	20092
890.501	19978
890.624	19959
890.748	19974
890.871	19780
890.995	19651
891.118	19776
891.241	19811
891.364	19677
891.488	19887
891.611	19822
891.734	19799
891.857	19852
891.98	19780
892.103	19811
892.226	19788
892.349	19677
892.471	19586
892.594	19715
892.717	19772
892.839	19601
892.962	19571
893.085	19811
893.207	19597
893.33	19643
893.452	19586
893.575	19601
893.697	19715
893.819	19723
893.941	19814
894.064	19852
894.186	19635
894.308	19514
894.43	19765
894.552	19769
894.674	19772
894.796	19567
894.918	19590
895.04	19658
895.161	19761
895.283	19727
895.405	19677
895.526	19586
895.648	19658
895.769	19670
895.891	19734
896.012	19761
896.134	19696
896.255	19795
896.376	19624
896.498	19655
896.619	19742
896.74	19761
896.861	19719
896.982	19989
897.103	20164
897.224	19978
897.345	19894
897.466	19879
897.587	19925
897.708	19989
897.828	20043
897.949	19826
898.07	19746
898.19	19776
898.311	19993
898.431	19784
898.552	19776
898.672	20016
898.792	19879
898.913	19951
899.033	19852
899.153	19731
899.273	19696
899.393	19605
899.513	19746
899.633	19681
899.753	19693
899.873	19605
899.993	19784
900.113	19639
900.232	19674
900.352	19506
900.472	19506
900.591	19396
900.711	19384
900.83	19453
900.95	19476
901.069	19502
901.189	19343
901.308	19168
901.427	19034
901.546	19091
901.665	19031
901.784	18985
901.904	18810
902.023	18817
902.141	18544
902.26	18494
902.379	18673
902.498	18494
902.617	18475
902.735	18601
902.854	18528
902.973	18509
903.091	18262
903.21	18133
903.328	18239
903.446	18095
903.565	18091
903.683	18060
903.801	17908
903.919	17996
904.038	18045
904.156	17870
904.274	17901
904.392	17745
904.51	17726
904.627	17813
904.745	17790
904.863	17863
904.981	17611
905.098	17486
905.216	17577
905.334	17478
905.451	17490
905.569	17577
905.686	17486
905.803	17391
905.921	17239
906.038	17353
906.155	17185
906.272	17117
906.389	17109
906.506	17037
906.623	16923
906.74	17003
906.857	16885
906.974	16892
907.091	17086
907.208	17090
907.324	17006
907.441	16828
907.557	16771
907.674	16691
907.79	16622
907.907	16653
908.023	16771
908.139	16664
908.256	16774
908.372	16538
908.488	16656
908.604	16436
908.72	16405
908.836	16531
908.952	16478
909.068	16531
909.184	16512
909.3	16508
909.415	16478
909.531	16466
909.647	16181
909.762	16131
909.878	16090
909.993	16192
910.108	16128
910.224	16207
910.339	16215
910.454	16036
910.57	16010
910.685	15827
910.8	16253
910.915	16128
911.03	15968
911.145	15797
911.259	15793
911.374	15770
911.489	15739
911.604	15690
911.718	15488
911.833	15564
911.947	15458
912.062	15355
912.176	15545
912.291	15538
912.405	15549
912.519	15797
912.633	15736
912.748	15576
912.862	15519
912.976	15310
913.09	15165
913.204	15310
913.318	15340
913.431	15454
913.545	15443
913.659	15450
913.772	15256
913.886	15173
914	15047
914.113	15226
914.226	15214
914.34	15184
914.453	15032
914.566	15165
914.68	15043
914.793	14944
914.906	14826
915.019	14708
915.132	14720
915.245	14792
915.358	14773
915.47	14720
915.583	14804
915.696	14773
915.809	14819
915.921	14929
916.034	14708
916.146	14682
916.259	14621
916.371	14724
916.483	14758
916.595	14568
916.708	14590
916.82	14670
916.932	14560
917.044	14587
917.156	14530
917.268	14393
917.38	14324
917.491	14442
917.603	14442
917.715	14594
917.826	14473
917.938	14374
918.049	14218
918.161	14358
918.272	14514
918.384	14473
918.495	14313
918.606	14134
918.717	14096
918.828	14206
918.939	14267
919.05	14092
919.161	14161
919.272	13974
919.383	14046
919.494	14180
919.604	14362
919.715	14176
919.826	14149
919.936	14130
920.047	14214
920.157	14214
920.267	14377
920.378	14202
920.488	14126
920.598	14374
920.708	14415
920.818	14328
920.928	14374
921.038	14374
921.148	14389
921.258	14103
921.368	14084
921.477	13917
921.587	13932
921.697	13788
921.806	13993
921.916	13765
922.025	13567
922.134	13529
922.244	13548
922.353	13521
922.462	13438
922.571	13316
922.68	13194
922.789	13095
922.898	13137
923.007	13179
923.116	13171
923.224	13164
923.333	13145
923.442	13053
923.55	13004
923.659	13133
923.767	13084
923.876	13000
923.984	13053
924.092	12966
924.201	13008
924.309	12886
924.417	12924
924.525	12951
924.633	12928
924.741	13723
924.849	12677
924.956	12741
925.064	12623
925.172	12669
925.279	12597
925.387	12673
925.494	12623
925.602	12707
925.709	12669
925.816	12525
925.924	12566
926.031	12658
926.138	12635
926.245	12589
926.352	12521
926.459	12555
926.566	12631
926.673	12525
926.779	12467
926.886	12357
926.993	12216
927.099	12087
927.206	12220
927.312	12167
927.419	12251
927.525	12205
927.631	12197
927.737	12152
927.843	12068
927.95	11893
928.056	11977
928.162	11973
928.267	12148
928.373	12601
928.479	12190
928.585	11946
928.69	12011
928.796	11996
928.901	11897
929.007	11786
929.112	11927
929.218	11851
929.323	11737
929.428	11729
929.533	11863
929.638	11684
929.743	11642
929.848	11843
929.953	11710
930.058	11535
930.163	11493
930.267	11467
930.372	11657
930.477	11417
930.581	11665
930.685	11459
930.79	11387
930.894	11414
930.998	11353
931.103	11410
931.207	11079
931.311	11060
931.415	10965
931.519	10767
931.623	10774
