Data from test_V78500241_1028.txt Node
Date: Fri Mar 25 15:17:00 CST 2022
User: usil
Spectrometer: V785-0024
Trigger mode: 0
Integration Time (sec): 4.000000E-1
Scans to average: 1
Nonlinearity correction enabled: false
Boxcar width: 0
Storing dark spectrum: false
XAxis mode: Wavelengths
Number of Pixels in Spectrum: 1024
>>>>>Begin Spectral Data<<<<<
801.071	28485
801.214	28436
801.356	28166
801.499	28086
801.641	27998
801.783	28074
801.926	28143
802.068	28074
802.211	28051
802.353	27846
802.496	27625
802.638	27614
802.78	27603
802.923	27747
803.065	27557
803.208	27553
803.35	27603
803.492	27778
803.635	27823
803.777	27861
803.919	27842
804.061	28188
804.204	27895
804.346	27797
804.488	27835
804.63	27823
804.773	27922
804.915	27914
805.057	28017
805.199	27964
805.341	27964
805.483	28040
805.626	28082
805.768	27983
805.91	28032
806.052	28051
806.194	27930
806.336	28154
806.478	28067
806.62	28067
806.762	28158
806.904	28253
807.046	28580
807.188	28497
807.33	28455
807.472	28497
807.614	28428
807.756	28481
807.898	28424
808.04	28215
808.182	28276
808.324	28329
808.465	28341
808.607	28653
808.749	28702
808.891	28831
809.033	28949
809.174	28774
809.316	28717
809.458	28675
809.6	28637
809.741	28771
809.883	28790
810.025	29079
810.166	28999
810.308	28923
810.45	29022
810.591	28862
810.733	28771
810.875	28580
811.016	28729
811.158	28645
811.299	28748
811.441	28858
811.582	28911
811.724	28835
811.865	28759
812.007	28850
812.148	28736
812.29	28774
812.431	28942
812.573	29067
812.714	29197
812.855	29197
812.997	29440
813.138	29474
813.279	29315
813.421	29493
813.562	29326
813.703	28987
813.845	29109
813.986	28740
814.127	28363
814.268	28413
814.41	28489
814.551	28436
814.692	28538
814.833	28440
814.974	28500
815.115	28424
815.256	28398
815.397	28333
815.539	28341
815.68	28459
815.821	28154
815.962	28318
816.103	28234
816.244	28078
816.385	28204
816.526	28013
816.666	27789
816.807	27762
816.948	27884
817.089	27762
817.23	27804
817.371	27854
817.512	27793
817.653	27770
817.793	27899
817.934	27698
818.075	27800
818.216	27816
818.356	27648
818.497	27656
818.638	27393
818.778	27587
818.919	27523
819.06	27652
819.2	27606
819.341	27838
819.481	27835
819.622	27842
819.762	28074
819.903	28063
820.043	27918
820.184	28036
820.324	27785
820.465	28010
820.605	28097
820.746	27918
820.886	27823
821.026	27850
821.167	27766
821.307	28048
821.447	27842
821.588	27614
821.728	27629
821.868	27431
822.008	27176
822.149	27279
822.289	27264
822.429	26960
822.569	26826
822.709	26857
822.849	26883
822.99	26811
823.13	26773
823.27	26674
823.41	26476
823.55	26434
823.69	26781
823.83	26590
823.97	26526
824.11	26385
824.25	26579
824.389	26400
824.529	26541
824.669	26434
824.809	26469
824.949	26457
825.089	26412
825.228	26438
825.368	26221
825.508	26278
825.648	26233
825.787	26453
825.927	26278
826.067	26233
826.206	26164
826.346	26290
826.485	26343
826.625	26351
826.765	26377
826.904	26469
827.044	26107
827.183	26084
827.323	25913
827.462	26031
827.601	26138
827.741	25993
827.88	26039
828.02	25928
828.159	25928
828.298	26046
828.437	26039
828.577	25887
828.716	25986
828.855	25928
828.994	25696
829.134	25597
829.273	25784
829.412	25696
829.551	25655
829.69	25620
829.829	25742
829.968	25871
830.107	25723
830.246	25704
830.385	25696
830.524	25628
830.663	25571
830.802	25510
830.941	25312
831.08	25464
831.219	25438
831.357	25354
831.496	25601
831.635	25274
831.774	25247
831.913	25312
832.051	25228
832.19	25034
832.329	25202
832.467	25072
832.606	25004
832.744	24894
832.883	25053
833.022	24909
833.16	25008
833.299	25038
833.437	24920
833.576	25187
833.714	25023
833.852	25148
833.991	25118
834.129	25255
834.267	25137
834.406	25088
834.544	25122
834.682	25126
834.821	25034
834.959	25308
835.097	25187
835.235	25012
835.373	24882
835.511	25148
835.65	24951
835.788	24943
835.926	24802
836.064	24646
836.202	24817
836.34	24928
836.478	25148
836.615	24810
836.753	24791
836.891	24981
837.029	24939
837.167	24913
837.305	24700
837.443	24829
837.58	24734
837.718	24833
837.856	24768
837.993	24589
838.131	24715
838.269	24654
838.406	24555
838.544	24563
838.681	24471
838.819	24330
838.956	24235
839.094	24171
839.231	24243
839.369	24342
839.506	24544
839.643	24433
839.781	24174
839.918	24258
840.055	24163
840.193	24114
840.33	24251
840.467	24266
840.604	24167
840.742	24357
840.879	24026
841.016	24038
841.153	24015
841.29	24171
841.427	24129
841.564	24174
841.701	24106
841.838	24060
841.975	24091
842.112	24079
842.249	23893
842.385	23866
842.522	24060
842.659	23897
842.796	23931
842.933	23878
843.069	23809
843.206	23798
843.343	23950
843.479	23908
843.616	23882
843.752	23573
843.889	23733
844.025	23764
844.162	23600
844.298	23657
844.435	23691
844.571	23535
844.708	23752
844.844	23859
844.98	23802
845.117	23649
845.253	23619
845.389	23524
845.525	23543
845.661	23543
845.798	23364
845.934	23429
846.07	23421
846.206	23360
846.342	23551
846.478	23402
846.614	23185
846.75	23037
846.886	22999
847.022	23178
847.158	23128
847.294	23151
847.429	23147
847.565	23025
847.701	23322
847.837	22763
847.972	22869
848.108	23056
848.244	22911
848.379	22812
848.515	22759
848.65	22523
848.786	22858
848.921	22812
849.057	22877
849.192	22729
849.328	22831
849.463	22683
849.598	22702
849.734	22565
849.869	22615
850.004	22459
850.14	22474
850.275	22554
850.41	22344
850.545	22516
850.68	22508
850.815	22470
850.95	22478
851.085	22679
851.22	22607
851.355	22409
851.49	22428
851.625	22538
851.76	22455
851.895	22390
852.03	22280
852.165	22493
852.299	22405
852.434	22478
852.569	22516
852.703	22405
852.838	22455
852.973	22603
853.107	22428
853.242	22367
853.376	22207
853.511	22177
853.645	22177
853.78	22443
853.914	22325
854.048	22333
854.183	22306
854.317	22325
854.451	22432
854.585	22253
854.72	22428
854.854	22337
854.988	22226
855.122	22162
855.256	22173
855.39	22215
855.524	22360
855.658	22325
855.792	22417
855.926	22295
856.06	22379
856.194	22325
856.327	22257
856.461	22063
856.595	22322
856.729	22253
856.862	22398
856.996	22348
857.13	22409
857.263	22306
857.397	22485
857.53	22295
857.664	22299
857.797	22325
857.931	22337
858.064	22329
858.197	22344
858.331	22234
858.464	22120
858.597	22185
858.731	22196
858.864	22322
858.997	22219
859.13	22272
859.263	22200
859.396	22276
859.529	22207
859.662	22219
859.795	22177
859.928	22150
860.061	22413
860.194	22432
860.327	22379
860.46	22284
860.592	22375
860.725	22489
860.858	22356
860.99	22333
861.123	22139
861.256	22246
861.388	22268
861.521	22930
861.653	22112
861.786	22059
861.918	22090
862.05	22135
862.183	22101
862.315	22147
862.447	22207
862.58	22246
862.712	22017
862.844	21907
862.976	22215
863.108	22048
863.24	22440
863.372	21979
863.504	21979
863.636	21983
863.768	22078
863.9	22036
864.032	21918
864.164	21907
864.296	21922
864.428	22063
864.559	22044
864.691	21994
864.823	21880
864.954	22025
865.086	21915
865.217	21850
865.349	21808
865.48	21827
865.612	21835
865.743	22044
865.875	21854
866.006	21903
866.137	21876
866.269	21713
866.4	21789
866.531	21835
866.662	21827
866.793	21713
866.924	21895
867.055	21823
867.186	21854
867.317	21789
867.448	21686
867.579	21732
867.71	21717
867.841	21728
867.972	21812
868.103	21884
868.233	21785
868.364	21835
868.495	21945
868.625	21953
868.756	22188
868.886	21983
869.017	22090
869.147	22169
869.278	22238
869.408	22055
869.539	22006
869.669	22036
869.799	22055
869.929	22063
870.06	22173
870.19	22299
870.32	22276
870.45	22356
870.58	22356
870.71	22451
870.84	22443
870.97	22303
871.1	22478
871.23	22637
871.36	22668
871.489	22630
871.619	22577
871.749	22630
871.879	22618
872.008	22634
872.138	22649
872.267	22561
872.397	22512
872.526	22588
872.656	22443
872.785	22474
872.915	22687
873.044	22668
873.173	22618
873.303	22698
873.432	22694
873.561	22672
873.69	22668
873.819	22656
873.948	22660
874.077	22618
874.206	22656
874.335	22550
874.464	22717
874.593	22782
874.722	22717
874.851	22919
874.979	22847
875.108	22900
875.237	22828
875.365	22782
875.494	22736
875.623	22946
875.751	22831
875.88	22809
876.008	22961
876.136	22930
876.265	23117
876.393	23261
876.521	23311
876.65	23280
876.778	23079
876.906	23117
877.034	23204
877.162	23277
877.29	23174
877.418	23181
877.546	23223
877.674	23117
877.802	23151
877.93	23132
878.058	23109
878.185	23060
878.313	23265
878.441	23299
878.568	23010
878.696	23181
878.824	23223
878.951	23254
879.079	23334
879.206	23520
879.333	23379
879.461	23349
879.588	23337
879.715	23315
879.842	23551
879.97	23284
880.097	23098
880.224	23075
880.351	23105
880.478	23098
880.605	23033
880.732	23086
880.859	23223
880.986	23098
881.112	23041
881.239	22847
881.366	22771
881.493	22744
881.619	22474
881.746	22694
881.872	22561
881.999	22637
882.125	22512
882.252	22588
882.378	22497
882.505	22584
882.631	22447
882.757	22242
882.883	22348
883.01	22238
883.136	22284
883.262	22185
883.388	22086
883.514	22257
883.64	22405
883.766	22185
883.892	21945
884.018	22086
884.143	22196
884.269	22192
884.395	22059
884.52	21873
884.646	21789
884.772	21724
884.897	21774
885.023	21941
885.148	21956
885.274	22021
885.399	21892
885.524	21827
885.65	21903
885.775	21964
885.9	21915
886.025	22002
886.15	21998
886.275	21823
886.4	21736
886.525	21827
886.65	21865
886.775	21728
886.9	21880
887.025	21979
887.149	21823
887.274	21785
887.399	21618
887.523	21679
887.648	21557
887.773	21504
887.897	21759
888.021	21663
888.146	21675
888.27	21762
888.395	21644
888.519	21694
888.643	21671
888.767	21747
888.891	21663
889.015	21485
889.139	21545
889.263	21542
889.387	21523
889.511	21698
889.635	21603
889.759	21447
889.883	21454
890.006	21443
890.13	21424
890.254	21283
890.377	21268
890.501	21165
890.624	21161
890.748	21348
890.871	21108
890.995	21051
891.118	20914
891.241	21081
891.364	21032
891.488	21214
891.611	21009
891.734	20971
891.857	21058
891.98	21142
892.103	21058
892.226	20998
892.349	21070
892.471	20830
892.594	20891
892.717	20971
892.839	20914
892.962	20944
893.085	21055
893.207	21001
893.33	20815
893.452	20826
893.575	20842
893.697	20769
893.819	21051
893.941	21146
894.064	21051
894.186	20880
894.308	20804
894.43	20982
894.552	21028
894.674	21043
894.796	20796
894.918	20864
895.04	20918
895.161	20906
895.283	20979
895.405	20819
895.526	20830
895.648	20883
895.769	20914
895.891	20956
896.012	21009
896.134	20971
896.255	20910
896.376	20842
896.498	20960
896.619	20868
896.74	20899
896.861	20918
896.982	21256
897.103	21397
897.224	21176
897.345	21256
897.466	21161
897.587	21180
897.708	21291
897.828	20994
897.949	21017
898.07	20944
898.19	21032
898.311	21089
898.431	21100
898.552	21013
898.672	21154
898.792	21199
898.913	21070
899.033	21112
899.153	21024
899.273	20876
899.393	20811
899.513	20872
899.633	20842
899.753	20823
899.873	20842
899.993	20823
900.113	20819
900.232	20731
900.352	20781
900.472	20705
900.591	20598
900.711	20697
900.83	20636
900.95	20503
901.069	20663
901.189	20434
901.308	20134
901.427	20153
901.546	20256
901.665	20199
901.784	20187
901.904	20043
902.023	19978
902.141	19837
902.26	19639
902.379	19784
902.498	19704
902.617	19765
902.735	19586
902.854	19529
902.973	19559
903.091	19419
903.21	19464
903.328	19369
903.446	19278
903.565	19152
903.683	19107
903.801	18962
903.919	19046
904.038	19042
904.156	18951
904.274	19004
904.392	18878
904.51	18932
904.627	18878
904.745	18871
904.863	18981
904.981	18616
905.098	18456
905.216	18589
905.334	18540
905.451	18585
905.569	18486
905.686	18547
905.803	18555
905.921	18277
906.038	18403
906.155	18365
906.272	18140
906.389	18258
906.506	17992
906.623	18110
906.74	18049
906.857	17893
906.974	18022
907.091	18152
907.208	18182
907.324	18060
907.441	17920
907.557	17885
907.674	17805
907.79	17623
907.907	17703
908.023	17817
908.139	17885
908.256	17729
908.372	17638
908.488	17638
908.604	17608
908.72	17387
908.836	17535
908.952	17448
909.068	17459
909.184	17623
909.3	17566
909.415	17478
909.531	17429
909.647	17223
909.762	17200
909.878	17239
909.993	17322
910.108	17208
910.224	17037
910.339	17212
910.454	16968
910.57	16980
910.685	16942
910.8	17140
910.915	17216
911.03	16980
911.145	16828
911.259	16793
911.374	16767
911.489	16675
911.604	16668
911.718	16470
911.833	16653
911.947	16519
912.062	16352
912.176	16588
912.291	16478
912.405	16474
912.519	16748
912.633	16630
912.748	16584
912.862	16542
912.976	16402
913.09	16276
913.204	16341
913.318	16246
913.431	16466
913.545	16421
913.659	16500
913.772	16325
913.886	16204
914	16124
914.113	16173
914.226	16268
914.34	16204
914.453	15987
914.566	16139
914.68	16036
914.793	16059
914.906	15766
915.019	15728
915.132	15762
915.245	15717
915.358	15785
915.47	15682
915.583	15606
915.696	15759
915.809	15842
915.921	15884
916.034	15656
916.146	15690
916.259	15774
916.371	15701
916.483	15705
916.595	15595
916.708	15591
916.82	15507
916.932	15515
917.044	15462
917.156	15447
917.268	15287
917.38	15344
917.491	15325
917.603	15355
917.715	15382
917.826	15466
917.938	15374
918.049	15298
918.161	15355
918.272	15420
918.384	15393
918.495	15405
918.606	15081
918.717	15017
918.828	15123
918.939	15013
919.05	15055
919.161	15074
919.272	14849
919.383	14956
919.494	15161
919.604	15218
919.715	15077
919.826	15013
919.936	15009
920.047	15005
920.157	15055
920.267	15382
920.378	15009
920.488	14986
920.598	15230
920.708	15325
920.818	15165
920.928	15195
921.038	15363
921.148	15291
921.258	15024
921.368	14899
921.477	14861
921.587	14674
921.697	14636
921.806	14815
921.916	14746
922.025	14495
922.134	14408
922.244	14431
922.353	14377
922.462	14218
922.571	14210
922.68	14111
922.789	14050
922.898	14103
923.007	14088
923.116	14046
923.224	14012
923.333	13970
923.442	13944
923.55	13841
923.659	13803
923.767	13932
923.876	13803
923.984	13944
924.092	13761
924.201	13788
924.309	13719
924.417	13780
924.525	13582
924.633	13700
924.741	14598
924.849	13487
924.956	13620
925.064	13468
925.172	13480
925.279	13445
925.387	13392
925.494	13438
925.602	13495
925.709	13502
925.816	13327
925.924	13377
926.031	13400
926.138	13381
926.245	13480
926.352	13335
926.459	13377
926.566	13419
926.673	13293
926.779	13145
926.886	13183
926.993	13050
927.099	12958
927.206	12958
927.312	12932
927.419	13034
927.525	12977
927.631	13084
927.737	12863
927.843	12859
927.95	12722
928.056	12821
928.162	12829
928.267	12859
928.373	13411
928.479	12890
928.585	12574
928.69	12734
928.796	12745
928.901	12662
929.007	12513
929.112	12601
929.218	12681
929.323	12597
929.428	12479
929.533	12616
929.638	12502
929.743	12475
929.848	12506
929.953	12388
930.058	12330
930.163	12171
930.267	12209
930.372	12292
930.477	12049
930.581	12315
930.685	12209
930.79	12095
930.894	12026
930.998	11931
931.103	12243
931.207	11923
931.311	11790
931.415	11703
931.519	11520
931.623	11444
