Data from test_V78500241_1958.txt Node
Date: Fri Mar 25 15:23:29 CST 2022
User: usil
Spectrometer: V785-0024
Trigger mode: 0
Integration Time (sec): 4.000000E-1
Scans to average: 1
Nonlinearity correction enabled: false
Boxcar width: 0
Storing dark spectrum: false
XAxis mode: Wavelengths
Number of Pixels in Spectrum: 1024
>>>>>Begin Spectral Data<<<<<
801.071	27515
801.214	27367
801.356	27279
801.499	27287
801.641	27100
801.783	27070
801.926	27104
802.068	27135
802.211	27047
802.353	26963
802.496	26868
802.638	26849
802.78	26823
802.923	26617
803.065	26602
803.208	26682
803.35	26792
803.492	26777
803.635	26880
803.777	26815
803.919	27017
804.061	27355
804.204	27051
804.346	26861
804.488	26872
804.63	27058
804.773	26998
804.915	26914
805.057	27123
805.199	26960
805.341	27104
805.483	27058
805.626	27009
805.768	27032
805.91	26994
806.052	27096
806.194	27009
806.336	27260
806.478	27085
806.62	27070
806.762	27161
806.904	27427
807.046	27591
807.188	27576
807.33	27568
807.472	27507
807.614	27408
807.756	27416
807.898	27545
808.04	27397
808.182	27355
808.324	27405
808.465	27500
808.607	27595
808.749	27774
808.891	27720
809.033	27945
809.174	27766
809.316	27660
809.458	27633
809.6	27762
809.741	27679
809.883	27865
810.025	27956
810.166	28051
810.308	27979
810.45	28010
810.591	27759
810.733	27682
810.875	27644
811.016	27526
811.158	27568
811.299	27675
811.441	27755
811.582	27755
811.724	27701
811.865	27641
812.007	27671
812.148	27747
812.29	27606
812.431	27903
812.573	28029
812.714	28158
812.855	28295
812.997	28310
813.138	28542
813.279	28363
813.421	28249
813.562	28070
813.703	27941
813.845	28036
813.986	27667
814.127	27492
814.268	27458
814.41	27401
814.551	27306
814.692	27587
814.833	27355
814.974	27469
815.115	27386
815.256	27241
815.397	27340
815.539	27188
815.68	27256
815.821	26960
815.962	27146
816.103	27104
816.244	26952
816.385	26948
816.526	26910
816.666	26777
816.807	26689
816.948	26758
817.089	26621
817.23	26583
817.371	26651
817.512	26541
817.653	26568
817.793	26598
817.934	26670
818.075	26560
818.216	26465
818.356	26556
818.497	26564
818.638	26336
818.778	26412
818.919	26366
819.06	26453
819.2	26629
819.341	26659
819.481	26632
819.622	26902
819.762	26948
819.903	26864
820.043	26834
820.184	26925
820.324	26655
820.465	26739
820.605	26746
820.746	26739
820.886	26545
821.026	26765
821.167	26735
821.307	26804
821.447	26648
821.588	26606
821.728	26450
821.868	26267
822.008	26263
822.149	26043
822.289	26100
822.429	25795
822.569	25761
822.709	25696
822.849	25613
822.99	25518
823.13	25544
823.27	25613
823.41	25430
823.55	25476
823.69	25556
823.83	25502
823.97	25548
824.11	25202
824.25	25240
824.389	25304
824.529	25285
824.669	25278
824.809	25240
824.949	25384
825.089	25255
825.228	25270
825.368	25228
825.508	25000
825.648	25118
825.787	25198
825.927	25274
826.067	25164
826.206	25103
826.346	25190
826.485	25118
826.625	25027
826.765	25202
826.904	25118
827.044	24905
827.183	24825
827.323	24833
827.462	24875
827.601	24783
827.741	24821
827.88	24878
828.02	24806
828.159	24810
828.298	24829
828.437	24947
828.577	24722
828.716	25042
828.855	24707
828.994	24627
829.134	24635
829.273	24642
829.412	24620
829.551	24410
829.69	24494
829.829	24650
829.968	24536
830.107	24448
830.246	24376
830.385	24380
830.524	24376
830.663	24350
830.802	24216
830.941	23973
831.08	24133
831.219	24083
831.357	24205
831.496	24391
831.635	24186
831.774	24076
831.913	24072
832.051	23942
832.19	23999
832.329	23920
832.467	23874
832.606	23714
832.744	23794
832.883	23893
833.022	23866
833.16	23764
833.299	23935
833.437	23923
833.576	23885
833.714	23859
833.852	23965
833.991	23859
834.129	23996
834.267	24018
834.406	23904
834.544	23946
834.682	23999
834.821	23874
834.959	23950
835.097	23984
835.235	23904
835.373	23927
835.511	23965
835.65	23779
835.788	23745
835.926	23562
836.064	23486
836.202	23611
836.34	23665
836.478	23901
836.615	23733
836.753	23596
836.891	23863
837.029	23707
837.167	23665
837.305	23608
837.443	23642
837.58	23619
837.718	23748
837.856	23615
837.993	23577
838.131	23589
838.269	23478
838.406	23558
838.544	23330
838.681	23212
838.819	23288
838.956	23067
839.094	23067
839.231	22942
839.369	23185
839.506	23315
839.643	23220
839.781	22972
839.918	23105
840.055	23006
840.193	23029
840.33	22953
840.467	22991
840.604	22961
840.742	23288
840.879	22805
841.016	22797
841.153	22797
841.29	22976
841.427	22946
841.564	23071
841.701	22900
841.838	22885
841.975	22881
842.112	22869
842.249	22801
842.385	22672
842.522	22896
842.659	22831
842.796	22710
842.933	22733
843.069	22637
843.206	22675
843.343	22843
843.479	22702
843.616	22805
843.752	22466
843.889	22500
844.025	22717
844.162	22481
844.298	22607
844.435	22588
844.571	22508
844.708	22497
844.844	22675
844.98	22637
845.117	22733
845.253	22481
845.389	22363
845.525	22436
845.661	22356
845.798	22325
845.934	22219
846.07	22219
846.206	22405
846.342	22352
846.478	22223
846.614	22036
846.75	21975
846.886	21892
847.022	22109
847.158	21987
847.294	21934
847.429	21937
847.565	22051
847.701	22234
847.837	21781
847.972	21599
848.108	21766
848.244	21736
848.379	21732
848.515	21511
848.65	21542
848.786	21549
848.921	21553
849.057	21629
849.192	21629
849.328	21496
849.463	21530
849.598	21526
849.734	21408
849.869	21389
850.004	21466
850.14	21405
850.275	21344
850.41	21131
850.545	21256
850.68	21374
850.815	21526
850.95	21310
851.085	21374
851.22	21462
851.355	21275
851.49	21321
851.625	21363
851.76	21317
851.895	21272
852.03	21237
852.165	21161
852.299	21367
852.434	21374
852.569	21340
852.703	21435
852.838	21447
852.973	21443
853.107	21447
853.242	21275
853.376	21062
853.511	21100
853.645	21199
853.78	21169
853.914	21142
854.048	21104
854.183	21089
854.317	21321
854.451	21359
854.585	21218
854.72	21119
854.854	21226
854.988	21096
855.122	21173
855.256	21013
855.39	21161
855.524	21344
855.658	21207
855.792	21154
855.926	21272
856.06	21386
856.194	21233
856.327	21100
856.461	21093
856.595	21154
856.729	21169
856.862	21317
856.996	21142
857.13	21291
857.263	21199
857.397	21256
857.53	21119
857.664	21150
857.797	21180
857.931	21268
858.064	21241
858.197	21275
858.331	21100
858.464	21089
858.597	20975
858.731	21142
858.864	21135
858.997	21135
859.13	21131
859.263	21119
859.396	21142
859.529	21230
859.662	21218
859.795	21180
859.928	21135
860.061	21264
860.194	21450
860.327	21192
860.46	21249
860.592	21332
860.725	21291
860.858	21306
860.99	21165
861.123	21093
861.256	21081
861.388	21176
861.521	21865
861.653	21032
861.786	20944
861.918	20853
862.05	21036
862.183	21131
862.315	21055
862.447	21074
862.58	20963
862.712	20796
862.844	20762
862.976	20899
863.108	20880
863.24	21401
863.372	20834
863.504	20857
863.636	20861
863.768	20902
863.9	20952
864.032	20739
864.164	20906
864.296	20895
864.428	20971
864.559	20883
864.691	21058
864.823	20796
864.954	20807
865.086	20891
865.217	20777
865.349	20823
865.48	20625
865.612	20838
865.743	20937
865.875	20842
866.006	20697
866.137	20765
866.269	20830
866.4	20689
866.531	20743
866.662	20640
866.793	20708
866.924	20731
867.055	20613
867.186	20667
867.317	20571
867.448	20701
867.579	20613
867.71	20549
867.841	20606
867.972	20575
868.103	20792
868.233	20750
868.364	20648
868.495	20750
868.625	20960
868.756	21058
868.886	20842
869.017	20842
869.147	21173
869.278	21032
869.408	20925
869.539	20982
869.669	21108
869.799	21005
869.929	21070
870.06	21142
870.19	21367
870.32	21237
870.45	21207
870.58	21272
870.71	21504
870.84	21500
870.97	21313
871.1	21298
871.23	21519
871.36	21515
871.489	21466
871.619	21648
871.749	21462
871.879	21549
872.008	21671
872.138	21557
872.267	21469
872.397	21374
872.526	21386
872.656	21454
872.785	21397
872.915	21561
873.044	21583
873.173	21545
873.303	21591
873.432	21591
873.561	21648
873.69	21587
873.819	21561
873.948	21641
874.077	21576
874.206	21507
874.335	21603
874.464	21656
874.593	21812
874.722	21709
874.851	21766
874.979	21819
875.108	21778
875.237	21652
875.365	21724
875.494	21774
875.623	21926
875.751	21679
875.88	21774
876.008	21907
876.136	21945
876.265	22215
876.393	22211
876.521	22261
876.65	22234
876.778	22276
876.906	22196
877.034	22055
877.162	22135
877.29	22025
877.418	22261
877.546	22135
877.674	22204
877.802	22116
877.93	22181
878.058	22139
878.185	22013
878.313	22166
878.441	22063
878.568	21861
878.696	22063
878.824	22196
878.951	22207
879.079	22109
879.206	22371
879.333	22284
879.461	22048
879.588	22242
879.715	22306
879.842	22462
879.97	22230
880.097	22063
880.224	21918
880.351	21861
880.478	21983
880.605	21907
880.732	21953
880.859	22143
880.986	21930
881.112	21987
881.239	21968
881.366	21713
881.493	21698
881.619	21633
881.746	21580
881.872	21488
881.999	21412
882.125	21454
882.252	21572
882.378	21336
882.505	21591
882.631	21370
882.757	21298
882.883	21287
883.01	21283
883.136	21169
883.262	21051
883.388	21077
883.514	21393
883.64	21313
883.766	21176
883.892	21043
884.018	21039
884.143	21249
884.269	21291
884.395	20849
884.52	20769
884.646	20941
884.772	20933
884.897	20682
885.023	20849
885.148	20963
885.274	20948
885.399	20979
885.524	20883
885.65	20883
885.775	20876
885.9	20937
886.025	20902
886.15	21062
886.275	20868
886.4	20853
886.525	20880
886.65	20781
886.775	20906
886.9	20929
887.025	21112
887.149	20899
887.274	20712
887.399	20606
887.523	20724
887.648	20686
887.773	20442
887.897	20743
888.021	20777
888.146	20549
888.27	20708
888.395	20754
888.519	20598
888.643	20587
888.767	20762
888.891	20590
889.015	20556
889.139	20579
889.263	20415
889.387	20552
889.511	20682
889.635	20560
889.759	20419
889.883	20412
890.006	20442
890.13	20434
890.254	20366
890.377	20404
890.501	20214
890.624	20202
890.748	20278
890.871	20164
890.995	19967
891.118	19978
891.241	20081
891.364	20005
891.488	20134
891.611	20092
891.734	20039
891.857	20073
891.98	19947
892.103	20001
892.226	20020
892.349	19868
892.471	19750
892.594	19993
892.717	19982
892.839	19963
892.962	20016
893.085	20046
893.207	19963
893.33	19811
893.452	19913
893.575	19902
893.697	19928
893.819	20138
893.941	20077
894.064	20043
894.186	19772
894.308	19906
894.43	20035
894.552	20031
894.674	20020
894.796	19852
894.918	19970
895.04	19856
895.161	19986
895.283	19959
895.405	19746
895.526	19898
895.648	19890
895.769	19978
895.891	19967
896.012	19955
896.134	20065
896.255	19993
896.376	19852
896.498	19833
896.619	20008
896.74	19978
896.861	19932
896.982	20202
897.103	20438
897.224	20187
897.345	20024
897.466	20142
897.587	20244
897.708	20362
897.828	20168
897.949	20100
898.07	19947
898.19	20069
898.311	20248
898.431	20126
898.552	20191
898.672	20233
898.792	20180
898.913	20191
899.033	20096
899.153	20065
899.273	19917
899.393	19909
899.513	19890
899.633	19921
899.753	19814
899.873	19826
899.993	19963
900.113	19951
900.232	19822
900.352	19765
900.472	19731
900.591	19651
900.711	19681
900.83	19776
900.95	19731
901.069	19757
901.189	19544
901.308	19335
901.427	19282
901.546	19263
901.665	19179
901.784	19331
901.904	19141
902.023	19038
902.141	18852
902.26	18901
902.379	18890
902.498	18760
902.617	18722
902.735	18684
902.854	18852
902.973	18711
903.091	18426
903.21	18399
903.328	18460
903.446	18334
903.565	18197
903.683	18266
903.801	18155
903.919	18171
904.038	18228
904.156	18072
904.274	18163
904.392	17992
904.51	17912
904.627	18022
904.745	18015
904.863	18030
904.981	17809
905.098	17615
905.216	17695
905.334	17737
905.451	17760
905.569	17592
905.686	17733
905.803	17642
905.921	17455
906.038	17554
906.155	17615
906.272	17402
906.389	17376
906.506	17128
906.623	17261
906.74	17242
906.857	17094
906.974	17170
907.091	17353
907.208	17383
907.324	17159
907.441	17151
907.557	16972
907.674	16889
907.79	16816
907.907	17033
908.023	16980
908.139	16957
908.256	16885
908.372	16862
908.488	16820
908.604	16778
908.72	16637
908.836	16675
908.952	16664
909.068	16668
909.184	16721
909.3	16618
909.415	16698
909.531	16660
909.647	16489
909.762	16462
909.878	16394
909.993	16375
910.108	16421
910.224	16409
910.339	16276
910.454	16276
910.57	16204
910.685	16086
910.8	16405
910.915	16386
911.03	16226
911.145	16120
911.259	15892
911.374	15972
911.489	15930
911.604	15804
911.718	15705
911.833	15698
911.947	15622
912.062	15496
912.176	15709
912.291	15759
912.405	15743
912.519	15819
912.633	15911
912.748	15774
912.862	15698
912.976	15591
913.09	15397
913.204	15538
913.318	15606
913.431	15618
913.545	15663
913.659	15679
913.772	15542
913.886	15370
914	15374
914.113	15462
914.226	15428
914.34	15447
914.453	15150
914.566	15386
914.68	15207
914.793	15146
914.906	15024
915.019	14986
915.132	14952
915.245	14891
915.358	14952
915.47	14960
915.583	14956
915.696	15017
915.809	15097
915.921	14986
916.034	15009
916.146	14788
916.259	14762
916.371	14975
916.483	14883
916.595	14773
916.708	14804
916.82	14765
916.932	14796
917.044	14667
917.156	14720
917.268	14571
917.38	14686
917.491	14545
917.603	14587
917.715	14663
917.826	14800
917.938	14598
918.049	14454
918.161	14625
918.272	14663
918.384	14667
918.495	14663
918.606	14370
918.717	14328
918.828	14412
918.939	14404
919.05	14244
919.161	14343
919.272	14229
919.383	14313
919.494	14492
919.604	14632
919.715	14324
919.826	14313
919.936	14259
920.047	14412
920.157	14427
920.267	14533
920.378	14317
920.488	14358
920.598	14564
920.708	14640
920.818	14396
920.928	14457
921.038	14602
921.148	14530
921.258	14263
921.368	14195
921.477	14126
921.587	14043
921.697	13997
921.806	14096
921.916	13940
922.025	13811
922.134	13803
922.244	13708
922.353	13753
922.462	13658
922.571	13548
922.68	13411
922.789	13304
922.898	13388
923.007	13228
923.116	13400
923.224	13377
923.333	13369
923.442	13247
923.55	13156
923.659	13282
923.767	13179
923.876	13149
923.984	13206
924.092	13076
924.201	13107
924.309	13118
924.417	13095
924.525	13072
924.633	13069
924.741	13841
924.849	12863
924.956	13019
925.064	12829
925.172	12673
925.279	12795
925.387	12833
925.494	12757
925.602	12932
925.709	12825
925.816	12688
925.924	12768
926.031	12760
926.138	12738
926.245	12745
926.352	12642
926.459	12776
926.566	12787
926.673	12669
926.779	12540
926.886	12589
926.993	12342
927.099	12338
927.206	12266
927.312	12357
927.419	12369
927.525	12403
927.631	12334
927.737	12159
927.843	12285
927.95	12125
928.056	12209
928.162	12224
928.267	12228
928.373	12696
928.479	12232
928.585	12019
928.69	12129
928.796	12110
928.901	12049
929.007	11923
929.112	12049
929.218	12022
929.323	11878
929.428	11866
929.533	12030
929.638	11859
929.743	11904
929.848	11923
929.953	11821
930.058	11741
930.163	11585
930.267	11619
930.372	11737
930.477	11539
930.581	11714
930.685	11646
930.79	11562
930.894	11604
930.998	11520
931.103	11638
931.207	11334
931.311	11197
931.415	11060
931.519	10980
931.623	10889
