Data from test_V78500241_2575.txt Node
Date: Fri Mar 25 15:27:47 CST 2022
User: usil
Spectrometer: V785-0024
Trigger mode: 0
Integration Time (sec): 4.000000E-1
Scans to average: 1
Nonlinearity correction enabled: false
Boxcar width: 0
Storing dark spectrum: false
XAxis mode: Wavelengths
Number of Pixels in Spectrum: 1024
>>>>>Begin Spectral Data<<<<<
801.071	27256
801.214	27245
801.356	27146
801.499	26963
801.641	26796
801.783	26686
801.926	26914
802.068	26842
802.211	26785
802.353	26667
802.496	26434
802.638	26480
802.78	26446
802.923	26377
803.065	26343
803.208	26427
803.35	26476
803.492	26541
803.635	26678
803.777	26412
803.919	26549
804.061	26952
804.204	26758
804.346	26606
804.488	26552
804.63	26720
804.773	26579
804.915	26613
805.057	26739
805.199	26583
805.341	26724
805.483	26743
805.626	26640
805.768	26667
805.91	26640
806.052	26746
806.194	26632
806.336	26960
806.478	26575
806.62	26765
806.762	26674
806.904	26956
807.046	27302
807.188	27104
807.33	27214
807.472	27203
807.614	27055
807.756	27142
807.898	27096
808.04	26960
808.182	27032
808.324	27070
808.465	27192
808.607	27279
808.749	27355
808.891	27397
809.033	27534
809.174	27405
809.316	27321
809.458	27367
809.6	27233
809.741	27431
809.883	27614
810.025	27759
810.166	27633
810.308	27701
810.45	27637
810.591	27439
810.733	27275
810.875	27317
811.016	27207
811.158	27173
811.299	27523
811.441	27583
811.582	27454
811.724	27321
811.865	27329
812.007	27291
812.148	27207
812.29	27382
812.431	27466
812.573	27576
812.714	27709
812.855	27789
812.997	27911
813.138	28036
813.279	27998
813.421	27838
813.562	27698
813.703	27568
813.845	27496
813.986	27184
814.127	27142
814.268	26883
814.41	27070
814.551	26925
814.692	27077
814.833	27043
814.974	26895
815.115	26937
815.256	26861
815.397	26887
815.539	26769
815.68	26838
815.821	26705
815.962	26807
816.103	26921
816.244	26720
816.385	26583
816.526	26556
816.666	26408
816.807	26286
816.948	26309
817.089	26343
817.23	26282
817.371	26244
817.512	26164
817.653	26252
817.793	26218
817.934	26320
818.075	26191
818.216	26267
818.356	26282
818.497	26100
818.638	26039
818.778	25913
818.919	26043
819.06	26069
819.2	26199
819.341	26225
819.481	26225
819.622	26355
819.762	26537
819.903	26415
820.043	26552
820.184	26324
820.324	26488
820.465	26366
820.605	26339
820.746	26343
820.886	26210
821.026	26294
821.167	26275
821.307	26358
821.447	26317
821.588	26172
821.728	26149
821.868	25875
822.008	25647
822.149	25704
822.289	25670
822.429	25609
822.569	25495
822.709	25453
822.849	25206
822.99	25244
823.13	25118
823.27	25266
823.41	25004
823.55	24977
823.69	25114
823.83	25046
823.97	25034
824.11	24821
824.25	24875
824.389	24814
824.529	24962
824.669	24779
824.809	25034
824.949	24935
825.089	25050
825.228	25012
825.368	24764
825.508	24719
825.648	24776
825.787	24741
825.927	24859
826.067	24741
826.206	24783
826.346	24779
826.485	24844
826.625	24802
826.765	24821
826.904	24787
827.044	24517
827.183	24566
827.323	24403
827.462	24494
827.601	24388
827.741	24479
827.88	24452
828.02	24296
828.159	24445
828.298	24547
828.437	24536
828.577	24376
828.716	24646
828.855	24361
828.994	24148
829.134	24220
829.273	24209
829.412	24186
829.551	24057
829.69	24163
829.829	24270
829.968	24258
830.107	24258
830.246	24228
830.385	24194
830.524	24136
830.663	23950
830.802	23874
830.941	23745
831.08	23737
831.219	23920
831.357	23817
831.496	23893
831.635	23741
831.774	23729
831.913	23596
832.051	23551
832.19	23668
832.329	23551
832.467	23471
832.606	23452
832.744	23417
832.883	23318
833.022	23467
833.16	23497
833.299	23493
833.437	23383
833.576	23551
833.714	23604
833.852	23589
833.991	23646
834.129	23760
834.267	23505
834.406	23551
834.544	23630
834.682	23577
834.821	23455
834.959	23676
835.097	23463
835.235	23611
835.373	23528
835.511	23524
835.65	23364
835.788	23448
835.926	23292
836.064	23060
836.202	23185
836.34	23353
836.478	23368
836.615	23410
836.753	23490
836.891	23391
837.029	23398
837.167	23265
837.305	23379
837.443	23322
837.58	23239
837.718	23372
837.856	23159
837.993	23204
838.131	23197
838.269	23025
838.406	23102
838.544	22900
838.681	22942
838.819	22927
838.956	22725
839.094	22615
839.231	22710
839.369	22892
839.506	23022
839.643	23018
839.781	22733
839.918	22675
840.055	22630
840.193	22782
840.33	22660
840.467	22637
840.604	22706
840.742	22980
840.879	22573
841.016	22519
841.153	22592
841.29	22694
841.427	22656
841.564	22599
841.701	22656
841.838	22577
841.975	22493
842.112	22569
842.249	22508
842.385	22504
842.522	22702
842.659	22618
842.796	22356
842.933	22405
843.069	22390
843.206	22287
843.343	22531
843.479	22386
843.616	22310
843.752	22276
843.889	22188
844.025	22291
844.162	22067
844.298	22314
844.435	22177
844.571	22169
844.708	22116
844.844	22310
844.98	22257
845.117	22204
845.253	22158
845.389	21979
845.525	22116
845.661	22086
845.798	21785
845.934	21857
846.07	21873
846.206	21968
846.342	22074
846.478	21720
846.614	21690
846.75	21701
846.886	21648
847.022	21694
847.158	21751
847.294	21629
847.429	21671
847.565	21656
847.701	21892
847.837	21363
847.972	21348
848.108	21473
848.244	21568
848.379	21348
848.515	21245
848.65	21241
848.786	21351
848.921	21336
849.057	21294
849.192	21291
849.328	21294
849.463	21207
849.598	21195
849.734	21199
849.869	21169
850.004	21081
850.14	21001
850.275	20975
850.41	20986
850.545	21039
850.68	21039
850.815	20994
850.95	21024
851.085	21294
851.22	21157
851.355	20902
851.49	21096
851.625	20960
851.76	20925
851.895	20857
852.03	20982
852.165	20990
852.299	20986
852.434	21062
852.569	21036
852.703	21001
852.838	21146
852.973	21104
853.107	21176
853.242	20857
853.376	20872
853.511	20826
853.645	20773
853.78	20880
853.914	20910
854.048	20845
854.183	20823
854.317	20895
854.451	21089
854.585	20823
854.72	20864
854.854	20944
854.988	20804
855.122	20807
855.256	20826
855.39	20864
855.524	21020
855.658	20941
855.792	20975
855.926	20834
856.06	20914
856.194	20883
856.327	20933
856.461	20834
856.595	20777
856.729	20807
856.862	20864
856.996	20826
857.13	20861
857.263	20891
857.397	20895
857.53	20807
857.664	20758
857.797	20941
857.931	20921
858.064	20765
858.197	20990
858.331	20754
858.464	20712
858.597	20682
858.731	20826
858.864	20857
858.997	20887
859.13	20838
859.263	20811
859.396	20910
859.529	20785
859.662	20842
859.795	20720
859.928	20883
860.061	20960
860.194	20975
860.327	20849
860.46	20891
860.592	20918
860.725	20998
860.858	21020
860.99	20891
861.123	20838
861.256	20644
861.388	20773
861.521	21481
861.653	20674
861.786	20552
861.918	20678
862.05	20712
862.183	20800
862.315	20861
862.447	20800
862.58	20743
862.712	20655
862.844	20522
862.976	20678
863.108	20636
863.24	21051
863.372	20533
863.504	20590
863.636	20545
863.768	20495
863.9	20522
864.032	20434
864.164	20499
864.296	20606
864.428	20705
864.559	20716
864.691	20682
864.823	20473
864.954	20526
865.086	20552
865.217	20469
865.349	20377
865.48	20438
865.612	20480
865.743	20636
865.875	20492
866.006	20431
866.137	20385
866.269	20454
866.4	20419
866.531	20457
866.662	20415
866.793	20275
866.924	20362
867.055	20339
867.186	20495
867.317	20336
867.448	20233
867.579	20290
867.71	20271
867.841	20309
867.972	20336
868.103	20434
868.233	20484
868.364	20461
868.495	20396
868.625	20590
868.756	20705
868.886	20590
869.017	20663
869.147	20762
869.278	20777
869.408	20552
869.539	20590
869.669	20724
869.799	20754
869.929	20807
870.06	20629
870.19	20891
870.32	20982
870.45	20933
870.58	20975
870.71	21119
870.84	21211
870.97	21089
871.1	20979
871.23	21119
871.36	21275
871.489	21142
871.619	21306
871.749	21264
871.879	21272
872.008	21237
872.138	21287
872.267	21192
872.397	21112
872.526	21062
872.656	21013
872.785	21150
872.915	21313
873.044	21374
873.173	21161
873.303	21393
873.432	21241
873.561	21348
873.69	21329
873.819	21367
873.948	21477
874.077	21165
874.206	21226
874.335	21336
874.464	21431
874.593	21458
874.722	21424
874.851	21507
874.979	21553
875.108	21557
875.237	21534
875.365	21378
875.494	21469
875.623	21519
875.751	21332
875.88	21530
876.008	21500
876.136	21778
876.265	21793
876.393	22093
876.521	21922
876.65	21953
876.778	21797
876.906	21880
877.034	21816
877.162	21743
877.29	21816
877.418	22055
877.546	21850
877.674	21846
877.802	21838
877.93	21816
878.058	21838
878.185	21812
878.313	21895
878.441	21838
878.568	21686
878.696	21739
878.824	21808
878.951	21884
879.079	22109
879.206	22105
879.333	21964
879.461	21736
879.588	22090
879.715	21945
879.842	22128
879.97	21972
880.097	21797
880.224	21660
880.351	21606
880.478	21656
880.605	21641
880.732	21736
880.859	22006
880.986	21644
881.112	21823
881.239	21507
881.366	21405
881.493	21355
881.619	21245
881.746	21287
881.872	21268
881.999	21131
882.125	21245
882.252	21252
882.378	21211
882.505	21275
882.631	21222
882.757	20982
882.883	21036
883.01	21039
883.136	20975
883.262	20720
883.388	20758
883.514	21013
883.64	21047
883.766	20910
883.892	20754
884.018	20864
884.143	20853
884.269	21150
884.395	20724
884.52	20712
884.646	20541
884.772	20564
884.897	20480
885.023	20621
885.148	20708
885.274	20754
885.399	20754
885.524	20545
885.65	20701
885.775	20712
885.9	20484
886.025	20746
886.15	20644
886.275	20522
886.4	20499
886.525	20484
886.65	20579
886.775	20408
886.9	20674
887.025	20823
887.149	20560
887.274	20374
887.399	20450
887.523	20446
887.648	20225
887.773	20172
887.897	20393
888.021	20465
888.146	20244
888.27	20461
888.395	20583
888.519	20393
888.643	20492
888.767	20400
888.891	20252
889.015	20252
889.139	20275
889.263	20271
889.387	20343
889.511	20431
889.635	20374
889.759	20180
889.883	20039
890.006	20130
890.13	20343
890.254	20187
890.377	20073
890.501	19906
890.624	19963
890.748	20001
890.871	19875
890.995	19791
891.118	19715
891.241	19860
891.364	19906
891.488	19921
891.611	19807
891.734	19757
891.857	19845
891.98	19803
892.103	19887
892.226	19845
892.349	19712
892.471	19575
892.594	19719
892.717	19772
892.839	19594
892.962	19624
893.085	19693
893.207	19655
893.33	19628
893.452	19525
893.575	19734
893.697	19609
893.819	19841
893.941	19875
894.064	19761
894.186	19708
894.308	19620
894.43	19704
894.552	19753
894.674	19719
894.796	19563
894.918	19685
895.04	19670
895.161	19852
895.283	19780
895.405	19620
895.526	19620
895.648	19738
895.769	19700
895.891	19761
896.012	19814
896.134	19761
896.255	19723
896.376	19750
896.498	19662
896.619	19734
896.74	19655
896.861	19883
896.982	19909
897.103	20149
897.224	20054
897.345	19928
897.466	19898
897.587	19845
897.708	20020
897.828	19936
897.949	19750
898.07	19753
898.19	19803
898.311	20020
898.431	19894
898.552	19940
898.672	19890
898.792	19898
898.913	19864
899.033	19814
899.153	19712
899.273	19605
899.393	19658
899.513	19738
899.633	19601
899.753	19723
899.873	19620
899.993	19662
900.113	19563
900.232	19613
900.352	19586
900.472	19449
900.591	19495
900.711	19453
900.83	19388
900.95	19499
901.069	19533
901.189	19354
901.308	19069
901.427	19050
901.546	19126
901.665	19065
901.784	19069
901.904	18897
902.023	18764
902.141	18578
902.26	18623
902.379	18604
902.498	18502
902.617	18658
902.735	18608
902.854	18506
902.973	18426
903.091	18205
903.21	18292
903.328	18232
903.446	18194
903.565	18133
903.683	18019
903.801	17942
903.919	18030
904.038	17980
904.156	17813
904.274	17931
904.392	17775
904.51	17756
904.627	17802
904.745	17901
904.863	17836
904.981	17695
905.098	17395
905.216	17547
905.334	17558
905.451	17501
905.569	17433
905.686	17478
905.803	17516
905.921	17315
906.038	17467
906.155	17239
906.272	17170
906.389	17212
906.506	17083
906.623	17056
906.74	17025
906.857	16908
906.974	16885
907.091	17067
907.208	17166
907.324	17006
907.441	16915
907.557	16801
907.674	16771
907.79	16649
907.907	16713
908.023	16786
908.139	16744
908.256	16672
908.372	16554
908.488	16649
908.604	16580
908.72	16436
908.836	16500
908.952	16440
909.068	16432
909.184	16577
909.3	16489
909.415	16519
909.531	16462
909.647	16204
909.762	16147
909.878	16128
909.993	16253
910.108	16166
910.224	16211
910.339	16192
910.454	16128
910.57	16002
910.685	15918
910.8	16230
910.915	16109
911.03	15960
911.145	15797
911.259	15812
911.374	15778
911.489	15629
911.604	15618
911.718	15549
911.833	15595
911.947	15561
912.062	15408
912.176	15629
912.291	15652
912.405	15622
912.519	15819
912.633	15751
912.748	15652
912.862	15530
912.976	15408
913.09	15302
913.204	15329
913.318	15439
913.431	15523
913.545	15332
913.659	15443
913.772	15374
913.886	15173
914	15135
914.113	15104
914.226	15241
914.34	15256
914.453	15089
914.566	15195
914.68	15058
914.793	15028
914.906	14906
915.019	14746
915.132	14697
915.245	14716
915.358	14899
915.47	14762
915.583	14758
915.696	14811
915.809	14872
915.921	14948
916.034	14758
916.146	14686
916.259	14667
916.371	14693
916.483	14739
916.595	14590
916.708	14625
916.82	14667
916.932	14651
917.044	14488
917.156	14495
917.268	14465
917.38	14476
917.491	14446
917.603	14465
917.715	14488
917.826	14518
917.938	14351
918.049	14400
918.161	14393
918.272	14522
918.384	14423
918.495	14366
918.606	14309
918.717	14199
918.828	14275
918.939	14237
919.05	14164
919.161	14202
919.272	13963
919.383	14020
919.494	14218
919.604	14355
919.715	14210
919.826	14142
919.936	14123
920.047	14240
920.157	14176
920.267	14389
920.378	14100
920.488	14092
920.598	14275
920.708	14408
920.818	14362
920.928	14339
921.038	14518
921.148	14511
921.258	14149
921.368	14054
921.477	13978
921.587	13936
921.697	13761
921.806	13898
921.916	13791
922.025	13480
922.134	13613
922.244	13521
922.353	13605
922.462	13491
922.571	13377
922.68	13316
922.789	13164
922.898	13175
923.007	13217
923.116	13247
923.224	13202
923.333	13274
923.442	13149
923.55	12973
923.659	13110
923.767	13126
923.876	12970
923.984	13095
924.092	12928
924.201	13031
924.309	13004
924.417	12977
924.525	12894
924.633	12932
924.741	13788
924.849	12726
924.956	12871
925.064	12719
925.172	12650
925.279	12536
925.387	12692
925.494	12646
925.602	12779
925.709	12700
925.816	12540
925.924	12585
926.031	12658
926.138	12681
926.245	12620
926.352	12490
926.459	12730
926.566	12612
926.673	12566
926.779	12429
926.886	12350
926.993	12235
927.099	12213
927.206	12155
927.312	12216
927.419	12304
927.525	12224
927.631	12258
927.737	12140
927.843	12079
927.95	11882
928.056	12041
928.162	12125
928.267	12121
928.373	12627
928.479	12148
928.585	11946
928.69	12060
928.796	12072
928.901	11942
929.007	11733
929.112	11977
929.218	11790
929.323	11908
929.428	11707
929.533	11836
929.638	11764
929.743	11722
929.848	11779
929.953	11642
930.058	11570
930.163	11516
930.267	11509
930.372	11627
930.477	11379
930.581	11661
930.685	11532
930.79	11383
930.894	11417
930.998	11311
931.103	11448
931.207	11086
931.311	11124
931.415	11010
931.519	10706
931.623	10835
