Data from test_V78500241_698.txt Node
Date: Fri Mar 25 15:14:43 CST 2022
User: usil
Spectrometer: V785-0024
Trigger mode: 0
Integration Time (sec): 4.000000E-1
Scans to average: 1
Nonlinearity correction enabled: false
Boxcar width: 0
Storing dark spectrum: false
XAxis mode: Wavelengths
Number of Pixels in Spectrum: 1024
>>>>>Begin Spectral Data<<<<<
801.071	28067
801.214	28139
801.356	27850
801.499	27873
801.641	27648
801.783	27778
801.926	27774
802.068	27686
802.211	27606
802.353	27431
802.496	27386
802.638	27313
802.78	27336
802.923	27310
803.065	27264
803.208	27298
803.35	27389
803.492	27306
803.635	27553
803.777	27473
803.919	27504
804.061	27739
804.204	27545
804.346	27534
804.488	27405
804.63	27450
804.773	27469
804.915	27511
805.057	27511
805.199	27564
805.341	27739
805.483	27709
805.626	27622
805.768	27652
805.91	27591
806.052	27648
806.194	27507
806.336	27816
806.478	27625
806.62	27713
806.762	27823
806.904	27972
807.046	28116
807.188	28116
807.33	28090
807.472	28090
807.614	28032
807.756	28013
807.898	27861
808.04	27869
808.182	27812
808.324	27975
808.465	27892
808.607	28070
808.749	28306
808.891	28348
809.033	28554
809.174	28367
809.316	28295
809.458	28485
809.6	28325
809.741	28360
809.883	28428
810.025	28622
810.166	28664
810.308	28649
810.45	28584
810.591	28554
810.733	28424
810.875	28303
811.016	28238
811.158	28169
811.299	28325
811.441	28531
811.582	28447
811.724	28405
811.865	28322
812.007	28421
812.148	28367
812.29	28478
812.431	28500
812.573	28698
812.714	28786
812.855	28892
812.997	28987
813.138	29014
813.279	29079
813.421	29010
813.562	28885
813.703	28717
813.845	28706
813.986	28322
814.127	28124
814.268	28109
814.41	28082
814.551	28017
814.692	28215
814.833	28067
814.974	27888
815.115	28116
815.256	27930
815.397	27953
815.539	27964
815.68	27846
815.821	27800
815.962	27934
816.103	27781
816.244	27766
816.385	27667
816.526	27568
816.666	27443
816.807	27298
816.948	27348
817.089	27443
817.23	27382
817.371	27477
817.512	27370
817.653	27184
817.793	27363
817.934	27427
818.075	27226
818.216	27348
818.356	27294
818.497	27218
818.638	27173
818.778	27081
818.919	27055
819.06	27161
819.2	27325
819.341	27367
819.481	27325
819.622	27511
819.762	27759
819.903	27667
820.043	27462
820.184	27359
820.324	27454
820.465	27443
820.605	27515
820.746	27485
820.886	27367
821.026	27458
821.167	27458
821.307	27500
821.447	27378
821.588	27294
821.728	27264
821.868	26975
822.008	26887
822.149	26948
822.289	26746
822.429	26541
822.569	26579
822.709	26488
822.849	26377
822.99	26320
823.13	26336
823.27	26347
823.41	26031
823.55	26138
823.69	26005
823.83	26024
823.97	26221
824.11	26035
824.25	25978
824.389	26031
824.529	26092
824.669	25940
824.809	26058
824.949	26024
825.089	26084
825.228	26039
825.368	25887
825.508	25788
825.648	25791
825.787	25966
825.927	25982
826.067	25814
826.206	25932
826.346	25909
826.485	25936
826.625	25780
826.765	25986
826.904	25860
827.044	25632
827.183	25514
827.323	25521
827.462	25662
827.601	25624
827.741	25529
827.88	25620
828.02	25358
828.159	25575
828.298	25586
828.437	25635
828.577	25460
828.716	25605
828.855	25350
828.994	25278
829.134	25316
829.273	25232
829.412	25152
829.551	25263
829.69	25312
829.829	25316
829.968	25304
830.107	25206
830.246	25225
830.385	25285
830.524	25266
830.663	25069
830.802	25031
830.941	24909
831.08	24920
831.219	24954
831.357	25065
831.496	25050
831.635	24863
831.774	24783
831.913	24833
832.051	24555
832.19	24726
832.329	24707
832.467	24502
832.606	24467
832.744	24502
832.883	24585
833.022	24517
833.16	24585
833.299	24509
833.437	24505
833.576	24681
833.714	24616
833.852	24673
833.991	24582
834.129	24787
834.267	24669
834.406	24741
834.544	24631
834.682	24536
834.821	24604
834.959	24757
835.097	24574
835.235	24677
835.373	24711
835.511	24639
835.65	24479
835.788	24422
835.926	24399
836.064	24178
836.202	24254
836.34	24357
836.478	24513
836.615	24357
836.753	24544
836.891	24517
837.029	24563
837.167	24292
837.305	24380
837.443	24334
837.58	24365
837.718	24365
837.856	24319
837.993	24201
838.131	24197
838.269	24083
838.406	24053
838.544	24144
838.681	23878
838.819	23866
838.956	23790
839.094	23874
839.231	23817
839.369	23916
839.506	24053
839.643	23999
839.781	23855
839.918	23783
840.055	23668
840.193	23684
840.33	23543
840.467	23638
840.604	23672
840.742	23950
840.879	23589
841.016	23608
841.153	23585
841.29	23722
841.427	23680
841.564	23672
841.701	23619
841.838	23623
841.975	23512
842.112	23558
842.249	23398
842.385	23425
842.522	23512
842.659	23600
842.796	23353
842.933	23261
843.069	23349
843.206	23524
843.343	23448
843.479	23440
843.616	23368
843.752	23204
843.889	23235
844.025	23398
844.162	23113
844.298	23280
844.435	23143
844.571	23147
844.708	23136
844.844	23296
844.98	23429
845.117	23383
845.253	23083
845.389	23064
845.525	23003
845.661	23067
845.798	22942
845.934	22938
846.07	22968
846.206	22953
846.342	22991
846.478	22915
846.614	22736
846.75	22577
846.886	22694
847.022	22645
847.158	22622
847.294	22577
847.429	22710
847.565	22573
847.701	22930
847.837	22421
847.972	22356
848.108	22535
848.244	22569
848.379	22242
848.515	22223
848.65	22196
848.786	22181
848.921	22234
849.057	22440
849.192	22287
849.328	22154
849.463	22295
849.598	22166
849.734	22032
849.869	21994
850.004	22154
850.14	22006
850.275	21975
850.41	21979
850.545	22097
850.68	21922
850.815	22013
850.95	22070
851.085	22147
851.22	22093
851.355	22051
851.49	22044
851.625	22040
851.76	21956
851.895	21892
852.03	21766
852.165	22002
852.299	22082
852.434	22150
852.569	22021
852.703	22013
852.838	22002
852.973	22162
853.107	22135
853.242	21892
853.376	21797
853.511	21739
853.645	21770
853.78	21884
853.914	21903
854.048	21774
854.183	21770
854.317	21918
854.451	21987
854.585	21808
854.72	21736
854.854	21861
854.988	21797
855.122	21892
855.256	21690
855.39	21755
855.524	21922
855.658	21983
855.792	21854
855.926	21804
856.06	21793
856.194	21850
856.327	21717
856.461	21850
856.595	21800
856.729	21797
856.862	21915
856.996	21816
857.13	21903
857.263	21934
857.397	21926
857.53	21770
857.664	21827
857.797	21899
857.931	21953
858.064	21835
858.197	21842
858.331	21869
858.464	21656
858.597	21701
858.731	21819
858.864	21778
858.997	21732
859.13	21785
859.263	21823
859.396	21835
859.529	21842
859.662	21755
859.795	21747
859.928	21842
860.061	21941
860.194	22051
860.327	21812
860.46	21857
860.592	21975
860.725	21873
860.858	22048
860.99	21918
861.123	21785
861.256	21884
861.388	21869
861.521	22615
861.653	21625
861.786	21641
861.918	21644
862.05	21671
862.183	21736
862.315	21671
862.447	21823
862.58	21717
862.712	21591
862.844	21576
862.976	21599
863.108	21625
863.24	21793
863.372	21370
863.504	21485
863.636	21591
863.768	21568
863.9	21545
864.032	21420
864.164	21500
864.296	21462
864.428	21675
864.559	21523
864.691	21507
864.823	21549
864.954	21572
865.086	21374
865.217	21408
865.349	21386
865.48	21348
865.612	21416
865.743	21572
865.875	21363
866.006	21275
866.137	21485
866.269	21397
866.4	21389
866.531	21291
866.662	21256
866.793	21378
866.924	21306
867.055	21291
867.186	21348
867.317	21169
867.448	21180
867.579	21321
867.71	21351
867.841	21260
867.972	21279
868.103	21374
868.233	21389
868.364	21325
868.495	21412
868.625	21564
868.756	21675
868.886	21420
869.017	21526
869.147	21739
869.278	21724
869.408	21690
869.539	21561
869.669	21671
869.799	21561
869.929	21641
870.06	21785
870.19	21937
870.32	21812
870.45	21949
870.58	21960
870.71	21972
870.84	22051
870.97	21998
871.1	21926
871.23	22082
871.36	22074
871.489	22036
871.619	22086
871.749	22166
871.879	22192
872.008	22219
872.138	22226
872.267	22147
872.397	22078
872.526	21975
872.656	22010
872.785	22002
872.915	22196
873.044	22097
873.173	22112
873.303	22299
873.432	22219
873.561	22322
873.69	22249
873.819	22135
873.948	22280
874.077	22272
874.206	22128
874.335	22196
874.464	22341
874.593	22318
874.722	22428
874.851	22428
874.979	22413
875.108	22550
875.237	22402
875.365	22398
875.494	22394
875.623	22557
875.751	22322
875.88	22402
876.008	22508
876.136	22774
876.265	22759
876.393	22805
876.521	23022
876.65	22904
876.778	22748
876.906	22573
877.034	22763
877.162	22824
877.29	22759
877.418	22843
877.546	22721
877.674	22675
877.802	22755
877.93	22626
878.058	22736
878.185	22519
878.313	22725
878.441	22691
878.568	22615
878.696	22660
878.824	22736
878.951	22717
879.079	22892
879.206	23056
879.333	22968
879.461	22809
879.588	22911
879.715	22968
879.842	23037
879.97	22774
880.097	22474
880.224	22580
880.351	22637
880.478	22637
880.605	22466
880.732	22535
880.859	22873
880.986	22516
881.112	22550
881.239	22417
881.366	22363
881.493	22131
881.619	22131
881.746	22223
881.872	22215
881.999	22067
882.125	22116
882.252	22135
882.378	22169
882.505	22154
882.631	21907
882.757	21903
882.883	21827
883.01	21755
883.136	21739
883.262	21644
883.388	21728
883.514	21762
883.64	21918
883.766	21800
883.892	21595
884.018	21644
884.143	21732
884.269	21755
884.395	21568
884.52	21408
884.646	21500
884.772	21428
884.897	21435
885.023	21485
885.148	21595
885.274	21610
885.399	21545
885.524	21393
885.65	21420
885.775	21511
885.9	21420
886.025	21545
886.15	21443
886.275	21443
886.4	21355
886.525	21443
886.65	21306
886.775	21488
886.9	21557
887.025	21652
887.149	21363
887.274	21260
887.399	21279
887.523	21348
887.648	21176
887.773	21150
887.897	21344
888.021	21161
888.146	21096
888.27	21313
888.395	21272
888.519	21214
888.643	21184
888.767	21222
888.891	21085
889.015	21154
889.139	21093
889.263	21013
889.387	21005
889.511	21226
889.635	21127
889.759	20941
889.883	20899
890.006	21009
890.13	21055
890.254	20960
890.377	20929
890.501	20781
890.624	20621
890.748	20826
890.871	20727
890.995	20625
891.118	20526
891.241	20571
891.364	20720
891.488	20792
891.611	20590
891.734	20583
891.857	20541
891.98	20511
892.103	20564
892.226	20541
892.349	20541
892.471	20404
892.594	20488
892.717	20556
892.839	20507
892.962	20404
893.085	20590
893.207	20507
893.33	20431
893.452	20400
893.575	20533
893.697	20400
893.819	20621
893.941	20621
894.064	20594
894.186	20438
894.308	20427
894.43	20545
894.552	20594
894.674	20549
894.796	20434
894.918	20499
895.04	20469
895.161	20484
895.283	20533
895.405	20511
895.526	20438
895.648	20473
895.769	20454
895.891	20480
896.012	20552
896.134	20526
896.255	20450
896.376	20488
896.498	20454
896.619	20533
896.74	20499
896.861	20545
896.982	20861
897.103	20861
897.224	20762
897.345	20625
897.466	20667
897.587	20598
897.708	20815
897.828	20708
897.949	20655
898.07	20533
898.19	20564
898.311	20849
898.431	20613
898.552	20636
898.672	20750
898.792	20785
898.913	20663
899.033	20640
899.153	20484
899.273	20476
899.393	20434
899.513	20374
899.633	20499
899.753	20434
899.873	20374
899.993	20442
900.113	20446
900.232	20309
900.352	20339
900.472	20240
900.591	20107
900.711	20039
900.83	20012
900.95	20290
901.069	20202
901.189	20031
901.308	19944
901.427	19803
901.546	19784
901.665	19704
901.784	19852
901.904	19696
902.023	19548
902.141	19419
902.26	19289
902.379	19369
902.498	19320
902.617	19179
902.735	19259
902.854	19278
902.973	19103
903.091	19027
903.21	18920
903.328	18943
903.446	18772
903.565	18757
903.683	18753
903.801	18696
903.919	18681
904.038	18673
904.156	18566
904.274	18574
904.392	18486
904.51	18441
904.627	18559
904.745	18494
904.863	18540
904.981	18308
905.098	18247
905.216	18254
905.334	18235
905.451	18133
905.569	18235
905.686	18140
905.803	18235
905.921	17904
906.038	18091
906.155	18034
906.272	17946
906.389	17935
906.506	17817
906.623	17756
906.74	17672
906.857	17649
906.974	17653
907.091	17649
907.208	17760
907.324	17783
907.441	17611
907.557	17478
907.674	17501
907.79	17387
907.907	17326
908.023	17493
908.139	17486
908.256	17318
908.372	17303
908.488	17303
908.604	17109
908.72	17159
908.836	17200
908.952	17178
909.068	17132
909.184	17250
909.3	17121
909.415	17170
909.531	17132
909.647	16908
909.762	16820
909.878	16892
909.993	16858
910.108	16828
910.224	16774
910.339	16908
910.454	16733
910.57	16679
910.685	16546
910.8	16835
910.915	16721
911.03	16691
911.145	16481
911.259	16386
911.374	16497
911.489	16451
911.604	16295
911.718	16166
911.833	16166
911.947	16090
912.062	16101
912.176	16188
912.291	16158
912.405	16071
912.519	16310
912.633	16246
912.748	16188
912.862	16105
912.976	16109
913.09	15880
913.204	15918
913.318	15987
913.431	16109
913.545	15979
913.659	16086
913.772	15922
913.886	15827
914	15747
914.113	15854
914.226	15926
914.34	15808
914.453	15652
914.566	15865
914.68	15549
914.793	15538
914.906	15584
915.019	15454
915.132	15310
915.245	15405
915.358	15412
915.47	15504
915.583	15367
915.696	15530
915.809	15500
915.921	15538
916.034	15344
916.146	15279
916.259	15241
916.371	15405
916.483	15256
916.595	15245
916.708	15264
916.82	15188
916.932	15104
917.044	15119
917.156	15192
917.268	14982
917.38	15020
917.491	15013
917.603	15017
917.715	15097
917.826	15127
917.938	14944
918.049	14880
918.161	14986
918.272	15089
918.384	15047
918.495	15039
918.606	14765
918.717	14716
918.828	14792
918.939	14842
919.05	14693
919.161	14731
919.272	14636
919.383	14724
919.494	14838
919.604	14941
919.715	14651
919.826	14765
919.936	14701
920.047	14781
920.157	14754
920.267	14891
920.378	14838
920.488	14773
920.598	14895
920.708	14952
920.818	14857
920.928	14857
921.038	14998
921.148	14994
921.258	14697
921.368	14583
921.477	14457
921.587	14552
921.697	14305
921.806	14484
921.916	14374
922.025	14294
922.134	14103
922.244	14039
922.353	14130
922.462	14016
922.571	13864
922.68	13765
922.789	13719
922.898	13875
923.007	13708
923.116	13784
923.224	13715
923.333	13704
923.442	13594
923.55	13525
923.659	13552
923.767	13666
923.876	13457
923.984	13518
924.092	13457
924.201	13457
924.309	13468
924.417	13483
924.525	13373
924.633	13426
924.741	14145
924.849	13221
924.956	13331
925.064	13202
925.172	13110
925.279	13190
925.387	13183
925.494	13080
925.602	13289
925.709	13217
925.816	13057
925.924	13202
926.031	13171
926.138	13099
926.245	13190
926.352	13050
926.459	13084
926.566	13095
926.673	13042
926.779	12920
926.886	12962
926.993	12741
927.099	12741
927.206	12593
927.312	12791
927.419	12760
927.525	12673
927.631	12665
927.737	12593
927.843	12521
927.95	12506
928.056	12532
928.162	12566
928.267	12498
928.373	13164
928.479	12540
928.585	12391
928.69	12544
928.796	12544
928.901	12338
929.007	12224
929.112	12388
929.218	12361
929.323	12308
929.428	12247
929.533	12327
929.638	12159
929.743	12197
929.848	12194
929.953	12136
930.058	12136
930.163	11958
930.267	11931
930.372	12144
930.477	12011
930.581	12136
930.685	12003
930.79	11771
930.894	11843
930.998	11821
931.103	11980
931.207	11558
931.311	11406
931.415	11402
931.519	11318
931.623	11265
