Data from test_V78500241_3220.txt Node
Date: Fri Mar 25 15:32:16 CST 2022
User: usil
Spectrometer: V785-0024
Trigger mode: 0
Integration Time (sec): 4.000000E-1
Scans to average: 1
Nonlinearity correction enabled: false
Boxcar width: 0
Storing dark spectrum: false
XAxis mode: Wavelengths
Number of Pixels in Spectrum: 1024
>>>>>Begin Spectral Data<<<<<
801.071	27154
801.214	27169
801.356	27001
801.499	26872
801.641	26788
801.783	26781
801.926	26773
802.068	26765
802.211	26689
802.353	26632
802.496	26492
802.638	26434
802.78	26355
802.923	26412
803.065	26309
803.208	26328
803.35	26305
803.492	26358
803.635	26492
803.777	26408
803.919	26514
804.061	26845
804.204	26560
804.346	26385
804.488	26431
804.63	26419
804.773	26423
804.915	26590
805.057	26549
805.199	26587
805.341	26621
805.483	26735
805.626	26697
805.768	26533
805.91	26716
806.052	26701
806.194	26712
806.336	26758
806.478	26613
806.62	26568
806.762	26640
806.904	26899
807.046	27222
807.188	27085
807.33	27028
807.472	27055
807.614	26933
807.756	27032
807.898	26956
808.04	26800
808.182	26910
808.324	26785
808.465	26937
808.607	27020
808.749	27230
808.891	27184
809.033	27294
809.174	27336
809.316	27256
809.458	27306
809.6	27214
809.741	27348
809.883	27302
810.025	27458
810.166	27526
810.308	27530
810.45	27378
810.591	27485
810.733	27237
810.875	27207
811.016	27211
811.158	27096
811.299	27306
811.441	27386
811.582	27397
811.724	27260
811.865	27230
812.007	27313
812.148	27173
812.29	27302
812.431	27447
812.573	27393
812.714	27603
812.855	27641
812.997	27808
813.138	27914
813.279	27705
813.421	27778
813.562	27648
813.703	27538
813.845	27523
813.986	27260
814.127	26929
814.268	27089
814.41	26785
814.551	26842
814.692	26960
814.833	26975
814.974	26788
815.115	26796
815.256	26853
815.397	26834
815.539	26693
815.68	26560
815.821	26590
815.962	26781
816.103	26800
816.244	26480
816.385	26412
816.526	26434
816.666	26305
816.807	26191
816.948	26237
817.089	26199
817.23	26218
817.371	26119
817.512	26347
817.653	26259
817.793	26149
817.934	26225
818.075	26145
818.216	26062
818.356	26256
818.497	26149
818.638	25970
818.778	25734
818.919	25955
819.06	26069
819.2	26134
819.341	26252
819.481	26180
819.622	26339
819.762	26476
819.903	26351
820.043	26427
820.184	26355
820.324	26305
820.465	26374
820.605	26275
820.746	26214
820.886	26039
821.026	26214
821.167	26298
821.307	26263
821.447	26161
821.588	26031
821.728	25970
821.868	25833
822.008	25609
822.149	25628
822.289	25537
822.429	25430
822.569	25259
822.709	25343
822.849	25152
822.99	25148
823.13	25168
823.27	25152
823.41	24882
823.55	24882
823.69	25099
823.83	24916
823.97	24939
824.11	24692
824.25	24753
824.389	24837
824.529	24787
824.669	24878
824.809	24947
824.949	24738
825.089	24901
825.228	24840
825.368	24604
825.508	24684
825.648	24616
825.787	24639
825.927	24722
826.067	24658
826.206	24700
826.346	24661
826.485	24612
826.625	24616
826.765	24886
826.904	24711
827.044	24471
827.183	24426
827.323	24353
827.462	24498
827.601	24566
827.741	24407
827.88	24323
828.02	24273
828.159	24353
828.298	24597
828.437	24304
828.577	24380
828.716	24395
828.855	24213
828.994	24045
829.134	24224
829.273	24106
829.412	24091
829.551	23946
829.69	24091
829.829	24102
829.968	23977
830.107	24148
830.246	24144
830.385	23980
830.524	23999
830.663	23965
830.802	23836
830.941	23714
831.08	23672
831.219	23752
831.357	23714
831.496	23843
831.635	23642
831.774	23558
831.913	23691
832.051	23535
832.19	23547
832.329	23474
832.467	23303
832.606	23315
832.744	23436
832.883	23444
833.022	23265
833.16	23493
833.299	23261
833.437	23425
833.576	23471
833.714	23391
833.852	23376
833.991	23414
834.129	23528
834.267	23596
834.406	23455
834.544	23497
834.682	23406
834.821	23345
834.959	23627
835.097	23292
835.235	23471
835.373	23322
835.511	23467
835.65	23353
835.788	23277
835.926	23197
836.064	23113
836.202	22961
836.34	23162
836.478	23436
836.615	23326
836.753	23433
836.891	23318
837.029	23311
837.167	23220
837.305	23189
837.443	23227
837.58	23083
837.718	23311
837.856	23132
837.993	23064
838.131	23140
838.269	23048
838.406	22930
838.544	22835
838.681	22797
838.819	22744
838.956	22672
839.094	22645
839.231	22565
839.369	22694
839.506	22984
839.643	22919
839.781	22664
839.918	22466
840.055	22561
840.193	22577
840.33	22592
840.467	22580
840.604	22588
840.742	22812
840.879	22367
841.016	22478
841.153	22386
841.29	22641
841.427	22478
841.564	22561
841.701	22538
841.838	22516
841.975	22341
842.112	22375
842.249	22466
842.385	22367
842.522	22607
842.659	22360
842.796	22295
842.933	22310
843.069	22147
843.206	22348
843.343	22295
843.479	22257
843.616	22268
843.752	22010
843.889	22173
844.025	22265
844.162	22112
844.298	22246
844.435	22078
844.571	21918
844.708	22131
844.844	22246
844.98	22287
845.117	22173
845.253	22032
845.389	21941
845.525	22025
845.661	22002
845.798	21823
845.934	21895
846.07	21717
846.206	21895
846.342	21831
846.478	21789
846.614	21553
846.75	21507
846.886	21481
847.022	21557
847.158	21515
847.294	21660
847.429	21728
847.565	21447
847.701	21899
847.837	21192
847.972	21252
848.108	21473
848.244	21348
848.379	21283
848.515	21108
848.65	21104
848.786	21017
848.921	21157
849.057	21211
849.192	21329
849.328	21211
849.463	21093
849.598	21043
849.734	20979
849.869	20906
850.004	20830
850.14	20971
850.275	20914
850.41	20765
850.545	20842
850.68	20944
850.815	20925
850.95	20948
851.085	20963
851.22	21024
851.355	20921
851.49	20906
851.625	20861
851.76	20849
851.895	20849
852.03	20853
852.165	20849
852.299	20906
852.434	20906
852.569	20830
852.703	20868
852.838	20944
852.973	21154
853.107	20918
853.242	20868
853.376	20826
853.511	20545
853.645	20617
853.78	20804
853.914	20811
854.048	20651
854.183	20705
854.317	20754
854.451	20887
854.585	20864
854.72	20792
854.854	20910
854.988	20659
855.122	20712
855.256	20575
855.39	20674
855.524	20853
855.658	20796
855.792	20861
855.926	20777
856.06	20807
856.194	20815
856.327	20765
856.461	20686
856.595	20693
856.729	20686
856.862	20762
856.996	20708
857.13	20765
857.263	20792
857.397	20792
857.53	20636
857.664	20613
857.797	20777
857.931	20743
858.064	20750
858.197	20883
858.331	20689
858.464	20674
858.597	20636
858.731	20655
858.864	20602
858.997	20735
859.13	20686
859.263	20648
859.396	20880
859.529	20708
859.662	20689
859.795	20762
859.928	20716
860.061	20864
860.194	20872
860.327	20830
860.46	20705
860.592	20834
860.725	20853
860.858	20823
860.99	20754
861.123	20663
861.256	20705
861.388	20697
861.521	21249
861.653	20609
861.786	20415
861.918	20564
862.05	20625
862.183	20602
862.315	20670
862.447	20712
862.58	20617
862.712	20488
862.844	20389
862.976	20579
863.108	20431
863.24	20823
863.372	20434
863.504	20431
863.636	20476
863.768	20438
863.9	20507
864.032	20446
864.164	20408
864.296	20499
864.428	20560
864.559	20609
864.691	20465
864.823	20495
864.954	20454
865.086	20415
865.217	20446
865.349	20271
865.48	20339
865.612	20355
865.743	20476
865.875	20343
866.006	20282
866.137	20385
866.269	20324
866.4	20244
866.531	20290
866.662	20313
866.793	20355
866.924	20328
867.055	20324
867.186	20351
867.317	20339
867.448	20282
867.579	20309
867.71	20180
867.841	20180
867.972	20294
868.103	20240
868.233	20290
868.364	20370
868.495	20336
868.625	20670
868.756	20674
868.886	20469
869.017	20537
869.147	20469
869.278	20663
869.408	20484
869.539	20431
869.669	20518
869.799	20606
869.929	20629
870.06	20674
870.19	20830
870.32	20781
870.45	20842
870.58	20868
870.71	21001
870.84	21039
870.97	20910
871.1	20944
871.23	21043
871.36	21203
871.489	20929
871.619	21169
871.749	21096
871.879	21203
872.008	21317
872.138	21157
872.267	21176
872.397	20971
872.526	20937
872.656	20979
872.785	20933
872.915	21176
873.044	21268
873.173	21089
873.303	21135
873.432	21321
873.561	21233
873.69	21222
873.819	21112
873.948	21192
874.077	21214
874.206	21195
874.335	21093
874.464	21287
874.593	21466
874.722	21237
874.851	21485
874.979	21496
875.108	21466
875.237	21431
875.365	21218
875.494	21332
875.623	21496
875.751	21329
875.88	21397
876.008	21511
876.136	21583
876.265	21789
876.393	21945
876.521	21968
876.65	21888
876.778	21819
876.906	21549
877.034	21751
877.162	21747
877.29	21842
877.418	21743
877.546	21701
877.674	21804
877.802	21751
877.93	21751
878.058	21713
878.185	21751
878.313	21759
878.441	21660
878.568	21561
878.696	21561
878.824	21747
878.951	21793
879.079	21949
879.206	22135
879.333	21892
879.461	21671
879.588	21972
879.715	21960
879.842	22032
879.97	21816
880.097	21663
880.224	21603
880.351	21583
880.478	21644
880.605	21553
880.732	21568
880.859	21816
880.986	21568
881.112	21633
881.239	21500
881.366	21321
881.493	21233
881.619	21142
881.746	21188
881.872	21169
881.999	21131
882.125	21123
882.252	21211
882.378	21066
882.505	21256
882.631	21093
882.757	20925
882.883	21009
883.01	20781
883.136	20845
883.262	20708
883.388	20731
883.514	20773
883.64	20891
883.766	20838
883.892	20606
884.018	20739
884.143	20902
884.269	20864
884.395	20651
884.52	20632
884.646	20537
884.772	20526
884.897	20404
885.023	20602
885.148	20514
885.274	20602
885.399	20556
885.524	20545
885.65	20545
885.775	20549
885.9	20465
886.025	20537
886.15	20575
886.275	20450
886.4	20366
886.525	20537
886.65	20488
886.775	20476
886.9	20655
887.025	20697
887.149	20328
887.274	20294
887.399	20278
887.523	20290
887.648	20240
887.773	20195
887.897	20434
888.021	20225
888.146	20362
888.27	20278
888.395	20381
888.519	20317
888.643	20275
888.767	20370
888.891	20218
889.015	20172
889.139	20187
889.263	20020
889.387	20301
889.511	20290
889.635	20191
889.759	20039
889.883	20092
890.006	19959
890.13	20142
890.254	19967
890.377	20122
890.501	19864
890.624	19731
890.748	19841
890.871	19852
890.995	19613
891.118	19620
891.241	19742
891.364	19693
891.488	19761
891.611	19677
891.734	19731
891.857	19772
891.98	19738
892.103	19677
892.226	19742
892.349	19651
892.471	19540
892.594	19605
892.717	19632
892.839	19658
892.962	19613
893.085	19712
893.207	19677
893.33	19487
893.452	19681
893.575	19651
893.697	19472
893.819	19696
893.941	19693
894.064	19723
894.186	19449
894.308	19415
894.43	19639
894.552	19708
894.674	19620
894.796	19540
894.918	19609
895.04	19495
895.161	19643
895.283	19624
895.405	19620
895.526	19666
895.648	19601
895.769	19605
895.891	19533
896.012	19662
896.134	19647
896.255	19609
896.376	19616
896.498	19594
896.619	19594
896.74	19521
896.861	19647
896.982	19925
897.103	20005
897.224	19890
897.345	19845
897.466	19807
897.587	19830
897.708	19909
897.828	19837
897.949	19837
898.07	19540
898.19	19723
898.311	19925
898.431	19696
898.552	19772
898.672	19894
898.792	19989
898.913	19871
899.033	19753
899.153	19643
899.273	19537
899.393	19548
899.513	19616
899.633	19582
899.753	19685
899.873	19609
899.993	19597
900.113	19567
900.232	19601
900.352	19525
900.472	19441
900.591	19346
900.711	19415
900.83	19384
900.95	19468
901.069	19392
901.189	19304
901.308	19118
901.427	18878
901.546	18833
901.665	18966
901.784	18996
901.904	18852
902.023	18719
902.141	18601
902.26	18513
902.379	18597
902.498	18566
902.617	18365
902.735	18414
902.854	18525
902.973	18350
903.091	18213
903.21	18152
903.328	18148
903.446	18022
903.565	17904
903.683	17977
903.801	17897
903.919	17866
904.038	17912
904.156	17775
904.274	17798
904.392	17638
904.51	17836
904.627	17741
904.745	17703
904.863	17779
904.981	17547
905.098	17379
905.216	17376
905.334	17391
905.451	17452
905.569	17353
905.686	17467
905.803	17417
905.921	17189
906.038	17246
906.155	17239
906.272	17086
906.389	17086
906.506	16949
906.623	17003
906.74	16892
906.857	16896
906.974	16828
907.091	17029
907.208	16999
907.324	17006
907.441	16915
907.557	16725
907.674	16634
907.79	16580
907.907	16634
908.023	16656
908.139	16607
908.256	16672
908.372	16649
908.488	16447
908.604	16432
908.72	16402
908.836	16333
908.952	16363
909.068	16398
909.184	16592
909.3	16500
909.415	16462
909.531	16379
909.647	16116
909.762	16097
909.878	16154
909.993	16188
910.108	16082
910.224	16101
910.339	16124
910.454	15987
910.57	15876
910.685	15854
910.8	16143
910.915	15968
911.03	15915
911.145	15778
911.259	15709
911.374	15614
911.489	15587
911.604	15553
911.718	15416
911.833	15496
911.947	15348
912.062	15359
912.176	15538
912.291	15450
912.405	15447
912.519	15667
912.633	15648
912.748	15485
912.862	15431
912.976	15302
913.09	15188
913.204	15245
913.318	15188
913.431	15393
913.545	15355
913.659	15412
913.772	15192
913.886	15127
914	15051
914.113	15264
914.226	15275
914.34	15150
914.453	14963
914.566	15165
914.68	14925
914.793	14971
914.906	14758
915.019	14579
915.132	14575
915.245	14682
915.358	14708
915.47	14716
915.583	14773
915.696	14716
915.809	14781
915.921	14880
916.034	14720
916.146	14598
916.259	14571
916.371	14701
916.483	14621
916.595	14526
916.708	14530
916.82	14552
916.932	14499
917.044	14469
917.156	14537
917.268	14332
917.38	14393
917.491	14347
917.603	14332
917.715	14446
917.826	14514
917.938	14305
918.049	14259
918.161	14313
918.272	14393
918.384	14351
918.495	14362
918.606	14149
918.717	14107
918.828	14267
918.939	14065
919.05	13986
919.161	14100
919.272	13799
919.383	13936
919.494	14168
919.604	14374
919.715	14149
919.826	14027
919.936	14008
920.047	14183
920.157	14115
920.267	14317
920.378	14180
920.488	14092
920.598	14202
920.708	14320
920.818	14263
920.928	14267
921.038	14381
921.148	14370
921.258	14031
921.368	13883
921.477	13940
921.587	13818
921.697	13738
921.806	13852
921.916	13723
922.025	13537
922.134	13491
922.244	13483
922.353	13563
922.462	13400
922.571	13320
922.68	13209
922.789	13133
922.898	13206
923.007	13129
923.116	13171
923.224	13103
923.333	13091
923.442	13034
923.55	13061
923.659	12928
923.767	13012
923.876	12947
923.984	13000
924.092	12897
924.201	12962
924.309	12833
924.417	12916
924.525	12768
924.633	12875
924.741	13761
924.849	12673
924.956	12753
925.064	12650
925.172	12551
925.279	12601
925.387	12570
925.494	12570
925.602	12722
925.709	12635
925.816	12467
925.924	12521
926.031	12608
926.138	12544
926.245	12578
926.352	12486
926.459	12551
926.566	12585
926.673	12506
926.779	12350
926.886	12350
926.993	12182
927.099	12220
927.206	12159
927.312	12057
927.419	12220
927.525	12205
927.631	12182
927.737	12148
927.843	12007
927.95	11958
928.056	12026
928.162	11973
928.267	11988
928.373	12570
928.479	12072
928.585	11920
928.69	11984
928.796	11992
928.901	11866
929.007	11737
929.112	11889
929.218	11809
929.323	11790
929.428	11737
929.533	11866
929.638	11646
929.743	11668
929.848	11741
929.953	11619
930.058	11657
930.163	11425
930.267	11372
930.372	11573
930.477	11372
930.581	11589
930.685	11482
930.79	11326
930.894	11265
930.998	11299
931.103	11368
931.207	11079
931.311	10995
931.415	10919
931.519	10767
931.623	10660
