Data from test_V78500241_169.txt Node
Date: Fri Mar 25 15:11:02 CST 2022
User: usil
Spectrometer: V785-0024
Trigger mode: 0
Integration Time (sec): 4.000000E-1
Scans to average: 1
Nonlinearity correction enabled: false
Boxcar width: 0
Storing dark spectrum: false
XAxis mode: Wavelengths
Number of Pixels in Spectrum: 1024
>>>>>Begin Spectral Data<<<<<
801.071	27937
801.214	27991
801.356	27648
801.499	27595
801.641	27599
801.783	27534
801.926	27538
802.068	27477
802.211	27283
802.353	27374
802.496	27142
802.638	27043
802.78	27047
802.923	27043
803.065	26986
803.208	26998
803.35	27028
803.492	27077
803.635	27203
803.777	26986
803.919	27093
804.061	27447
804.204	27222
804.346	27142
804.488	26872
804.63	27039
804.773	26861
804.915	27058
805.057	27116
805.199	27165
805.341	27020
805.483	27226
805.626	27192
805.768	27123
805.91	27237
806.052	27237
806.194	27131
806.336	27462
806.478	27165
806.62	27108
806.762	27222
806.904	27416
807.046	27720
807.188	27530
807.33	27542
807.472	27717
807.614	27408
807.756	27447
807.898	27507
808.04	27310
808.182	27370
808.324	27344
808.465	27439
808.607	27618
808.749	27709
808.891	27808
809.033	27880
809.174	27850
809.316	27838
809.458	27736
809.6	27797
809.741	27682
809.883	27823
810.025	28002
810.166	27998
810.308	27869
810.45	28029
810.591	27880
810.733	27675
810.875	27686
811.016	27625
811.158	27644
811.299	27827
811.441	27914
811.582	27789
811.724	27652
811.865	27625
812.007	27682
812.148	27698
812.29	27686
812.431	27831
812.573	27930
812.714	28078
812.855	28093
812.997	28211
813.138	28459
813.279	28299
813.421	28070
813.562	28105
813.703	28017
813.845	27922
813.986	27591
814.127	27378
814.268	27256
814.41	27306
814.551	27264
814.692	27488
814.833	27077
814.974	27135
815.115	27302
815.256	27100
815.397	27051
815.539	27001
815.68	26986
815.821	27085
815.962	26925
816.103	27047
816.244	26902
816.385	26883
816.526	26788
816.666	26442
816.807	26484
816.948	26625
817.089	26689
817.23	26571
817.371	26374
817.512	26450
817.653	26492
817.793	26389
817.934	26381
818.075	26579
818.216	26419
818.356	26400
818.497	26305
818.638	26237
818.778	26248
818.919	26183
819.06	26252
819.2	26298
819.341	26233
819.481	26343
819.622	26629
819.762	26853
819.903	26629
820.043	26587
820.184	26533
820.324	26507
820.465	26434
820.605	26556
820.746	26503
820.886	26298
821.026	26415
821.167	26488
821.307	26613
821.447	26362
821.588	26214
821.728	26225
821.868	25940
822.008	25765
822.149	25784
822.289	25860
822.429	25571
822.569	25563
822.709	25594
822.849	25415
822.99	25331
823.13	25339
823.27	25198
823.41	25164
823.55	24992
823.69	25080
823.83	25148
823.97	25110
824.11	24932
824.25	24878
824.389	24901
824.529	24878
824.669	24871
824.809	24954
824.949	24977
825.089	25027
825.228	25004
825.368	24817
825.508	24779
825.648	24787
825.787	24852
825.927	24753
826.067	24821
826.206	24711
826.346	24764
826.485	24837
826.625	24745
826.765	24913
826.904	24719
827.044	24471
827.183	24445
827.323	24361
827.462	24448
827.601	24426
827.741	24350
827.88	24456
828.02	24323
828.159	24334
828.298	24410
828.437	24464
828.577	24346
828.716	24483
828.855	24311
828.994	24178
829.134	24076
829.273	24159
829.412	23969
829.551	23988
829.69	24007
829.829	24133
829.968	24087
830.107	24045
830.246	24098
830.385	23961
830.524	23828
830.663	23813
830.802	23847
830.941	23657
831.08	23718
831.219	23680
831.357	23741
831.496	23878
831.635	23592
831.774	23558
831.913	23592
832.051	23509
832.19	23459
832.329	23497
832.467	23406
832.606	23284
832.744	23326
832.883	23337
833.022	23239
833.16	23315
833.299	23410
833.437	23356
833.576	23433
833.714	23337
833.852	23372
833.991	23326
834.129	23551
834.267	23497
834.406	23292
834.544	23311
834.682	23410
834.821	23208
834.959	23493
835.097	23200
835.235	23383
835.373	23406
835.511	23223
835.65	23220
835.788	23181
835.926	22927
836.064	22908
836.202	23014
836.34	23296
836.478	23170
836.615	23136
836.753	23159
836.891	23216
837.029	23174
837.167	23178
837.305	22938
837.443	23029
837.58	23022
837.718	22984
837.856	23067
837.993	23014
838.131	22843
838.269	22892
838.406	22873
838.544	22835
838.681	22596
838.819	22489
838.956	22440
839.094	22417
839.231	22527
839.369	22634
839.506	22885
839.643	22824
839.781	22516
839.918	22459
840.055	22470
840.193	22379
840.33	22261
840.467	22306
840.604	22478
840.742	22668
840.879	22131
841.016	22268
841.153	22150
841.29	22478
841.427	22459
841.564	22470
841.701	22356
841.838	22249
841.975	22325
842.112	22318
842.249	22082
842.385	22044
842.522	22261
842.659	22185
842.796	22017
842.933	22169
843.069	22010
843.206	21869
843.343	22169
843.479	22044
843.616	22051
843.752	21838
843.889	21793
844.025	21972
844.162	21873
844.298	21911
844.435	21747
844.571	21793
844.708	21941
844.844	21987
844.98	21888
845.117	21941
845.253	21816
845.389	21709
845.525	21705
845.661	21751
845.798	21568
845.934	21599
846.07	21447
846.206	21606
846.342	21637
846.478	21511
846.614	21359
846.75	21252
846.886	21287
847.022	21367
847.158	21336
847.294	21408
847.429	21256
847.565	21214
847.701	21424
847.837	21001
847.972	20937
848.108	21013
848.244	21089
848.379	20872
848.515	20899
848.65	20754
848.786	20838
848.921	20933
849.057	20948
849.192	20956
849.328	20876
849.463	20800
849.598	20830
849.734	20720
849.869	20777
850.004	20484
850.14	20716
850.275	20651
850.41	20583
850.545	20503
850.68	20579
850.815	20617
850.95	20629
851.085	20697
851.22	20644
851.355	20587
851.49	20431
851.625	20594
851.76	20545
851.895	20442
852.03	20511
852.165	20530
852.299	20530
852.434	20678
852.569	20541
852.703	20484
852.838	20579
852.973	20587
853.107	20663
853.242	20503
853.376	20617
853.511	20195
853.645	20305
853.78	20533
853.914	20366
854.048	20396
854.183	20259
854.317	20492
854.451	20598
854.585	20366
854.72	20366
854.854	20503
854.988	20358
855.122	20370
855.256	20275
855.39	20328
855.524	20495
855.658	20438
855.792	20412
855.926	20358
856.06	20328
856.194	20495
856.327	20385
856.461	20298
856.595	20446
856.729	20389
856.862	20533
856.996	20423
857.13	20518
857.263	20423
857.397	20492
857.53	20309
857.664	20526
857.797	20419
857.931	20492
858.064	20404
858.197	20518
858.331	20339
858.464	20366
858.597	20252
858.731	20229
858.864	20351
858.997	20358
859.13	20313
859.263	20370
859.396	20396
859.529	20282
859.662	20317
859.795	20278
859.928	20389
860.061	20457
860.194	20602
860.327	20355
860.46	20336
860.592	20404
860.725	20518
860.858	20492
860.99	20358
861.123	20183
861.256	20305
861.388	20324
861.521	20910
861.653	20229
861.786	20199
861.918	20271
862.05	20313
862.183	20294
862.315	20339
862.447	20385
862.58	20290
862.712	20077
862.844	20058
862.976	20122
863.108	20100
863.24	20476
863.372	20050
863.504	20073
863.636	19989
863.768	20096
863.9	20073
864.032	19959
864.164	20020
864.296	19986
864.428	20122
864.559	20027
864.691	20111
864.823	20035
864.954	20073
865.086	20039
865.217	19993
865.349	19849
865.48	19974
865.612	20024
865.743	20130
865.875	19860
866.006	19898
866.137	19944
866.269	19917
866.4	19883
866.531	19940
866.662	19856
866.793	19818
866.924	19879
867.055	19936
867.186	19925
867.317	19818
867.448	19837
867.579	19868
867.71	19734
867.841	19894
867.972	19883
868.103	19791
868.233	19856
868.364	19944
868.495	19963
868.625	20031
868.756	20218
868.886	19982
869.017	20024
869.147	20164
869.278	20229
869.408	20107
869.539	20054
869.669	20202
869.799	20202
869.929	20233
870.06	20290
870.19	20492
870.32	20484
870.45	20568
870.58	20526
870.71	20609
870.84	20625
870.97	20488
871.1	20431
871.23	20765
871.36	20769
871.489	20655
871.619	20727
871.749	20663
871.879	20689
872.008	20872
872.138	20731
872.267	20788
872.397	20568
872.526	20552
872.656	20541
872.785	20571
872.915	20701
873.044	20906
873.173	20701
873.303	20762
873.432	20739
873.561	20735
873.69	20830
873.819	20727
873.948	20819
874.077	20712
874.206	20629
874.335	20594
874.464	20842
874.593	20933
874.722	21001
874.851	21066
874.979	21123
875.108	21036
875.237	20910
875.365	20899
875.494	20990
875.623	21104
875.751	20921
875.88	21093
876.008	21146
876.136	21241
876.265	21382
876.393	21386
876.521	21481
876.65	21435
876.778	21439
876.906	21283
877.034	21374
877.162	21340
877.29	21351
877.418	21359
877.546	21420
877.674	21363
877.802	21477
877.93	21317
878.058	21306
878.185	21260
878.313	21393
878.441	21443
878.568	21199
878.696	21207
878.824	21310
878.951	21447
879.079	21462
879.206	21713
879.333	21504
879.461	21329
879.588	21481
879.715	21534
879.842	21637
879.97	21420
880.097	21283
880.224	21116
880.351	21203
880.478	21154
880.605	21108
880.732	21218
880.859	21462
880.986	21226
881.112	21074
881.239	21058
881.366	20925
881.493	20853
881.619	20796
881.746	20762
881.872	20777
881.999	20792
882.125	20762
882.252	20750
882.378	20689
882.505	20823
882.631	20636
882.757	20644
882.883	20590
883.01	20629
883.136	20423
883.262	20461
883.388	20393
883.514	20492
883.64	20571
883.766	20476
883.892	20298
884.018	20305
884.143	20579
884.269	20522
884.395	20240
884.52	20084
884.646	20168
884.772	20046
884.897	20069
885.023	20065
885.148	20218
885.274	20313
885.399	20195
885.524	20103
885.65	20138
885.775	20119
885.9	20077
886.025	20096
886.15	20183
886.275	20092
886.4	19909
886.525	20100
886.65	19989
886.775	19959
886.9	20313
887.025	20286
887.149	20145
887.274	20024
887.399	19799
887.523	19906
887.648	19818
887.773	19769
887.897	20001
888.021	19906
888.146	19811
888.27	19978
888.395	19974
888.519	19890
888.643	19837
888.767	19887
888.891	19689
889.015	19772
889.139	19647
889.263	19689
889.387	19776
889.511	19856
889.635	19753
889.759	19620
889.883	19677
890.006	19563
890.13	19734
890.254	19708
890.377	19651
890.501	19563
890.624	19449
890.748	19525
890.871	19445
890.995	19164
891.118	19320
891.241	19316
891.364	19270
891.488	19354
891.611	19331
891.734	19289
891.857	19266
891.98	19206
892.103	19304
892.226	19308
892.349	19148
892.471	19072
892.594	19187
892.717	19270
892.839	19289
892.962	19217
893.085	19278
893.207	19171
893.33	19057
893.452	19156
893.575	19381
893.697	19236
893.819	19388
893.941	19460
894.064	19327
894.186	19091
894.308	19072
894.43	19221
894.552	19301
894.674	19263
894.796	19126
894.918	19175
895.04	19122
895.161	19217
895.283	19209
895.405	19194
895.526	19236
895.648	19247
895.769	19251
895.891	19259
896.012	19297
896.134	19301
896.255	19160
896.376	19247
896.498	19285
896.619	19377
896.74	19255
896.861	19316
896.982	19700
897.103	19746
897.224	19506
897.345	19567
897.466	19468
897.587	19476
897.708	19613
897.828	19491
897.949	19445
898.07	19202
898.19	19354
898.311	19575
898.431	19426
898.552	19441
898.672	19556
898.792	19411
898.913	19457
899.033	19316
899.153	19171
899.273	19198
899.393	19133
899.513	19194
899.633	19209
899.753	19232
899.873	19072
899.993	19175
900.113	19084
900.232	19118
900.352	19168
900.472	18989
900.591	18977
900.711	19012
900.83	19000
900.95	19110
901.069	19069
901.189	18909
901.308	18681
901.427	18654
901.546	18574
901.665	18627
901.784	18563
901.904	18536
902.023	18311
902.141	18228
902.26	18087
902.379	18171
902.498	18144
902.617	18068
902.735	18213
902.854	18095
902.973	17969
903.091	17824
903.21	17729
903.328	17699
903.446	17687
903.565	17642
903.683	17528
903.801	17448
903.919	17566
904.038	17493
904.156	17364
904.274	17364
904.392	17349
904.51	17425
904.627	17315
904.745	17315
904.863	17387
904.981	17143
905.098	16999
905.216	17048
905.334	17155
905.451	17098
905.569	17067
905.686	17117
905.803	17079
905.921	16828
906.038	16873
906.155	16816
906.272	16744
906.389	16752
906.506	16550
906.623	16516
906.74	16512
906.857	16478
906.974	16500
907.091	16596
907.208	16725
907.324	16755
907.441	16428
907.557	16291
907.674	16284
907.79	16093
907.907	16295
908.023	16333
908.139	16265
908.256	16185
908.372	16143
908.488	16207
908.604	16040
908.72	15964
908.836	15975
908.952	16006
909.068	15975
909.184	16029
909.3	15998
909.415	15987
909.531	16036
909.647	15709
909.762	15705
909.878	15682
909.993	15675
910.108	15648
910.224	15603
910.339	15656
910.454	15557
910.57	15542
910.685	15382
910.8	15690
910.915	15644
911.03	15389
911.145	15351
911.259	15252
911.374	15214
911.489	15173
911.604	15131
911.718	15032
911.833	15074
911.947	14971
912.062	14845
912.176	15001
912.291	14982
912.405	14994
912.519	15230
912.633	15173
912.748	15070
912.862	14937
912.976	14815
913.09	14807
913.204	14777
913.318	14712
913.431	14902
913.545	14902
913.659	14864
913.772	14807
913.886	14644
914	14610
914.113	14720
914.226	14777
914.34	14720
914.453	14526
914.566	14651
914.68	14526
914.793	14625
914.906	14362
915.019	14320
915.132	14313
915.245	14202
915.358	14256
915.47	14267
915.583	14328
915.696	14317
915.809	14396
915.921	14473
916.034	14164
916.146	14077
916.259	14180
916.371	14263
916.483	14183
916.595	14092
916.708	14206
916.82	14054
916.932	14107
917.044	14062
917.156	14073
917.268	13909
917.38	14005
917.491	14027
917.603	14016
917.715	14065
917.826	14039
917.938	13940
918.049	13814
918.161	13890
918.272	14039
918.384	13951
918.495	13921
918.606	13803
918.717	13727
918.828	13700
918.939	13742
919.05	13613
919.161	13803
919.272	13468
919.383	13647
919.494	13708
919.604	13887
919.715	13780
919.826	13643
919.936	13578
920.047	13811
920.157	13655
920.267	13894
920.378	13658
920.488	13636
920.598	13902
920.708	14073
920.818	13841
920.928	13868
921.038	13928
921.148	14008
921.258	13556
921.368	13567
921.477	13529
921.587	13464
921.697	13331
921.806	13419
921.916	13274
922.025	13202
922.134	13088
922.244	12996
922.353	13240
922.462	12981
922.571	12954
922.68	12859
922.789	12776
922.898	12635
923.007	12650
923.116	12779
923.224	12688
923.333	12745
923.442	12688
923.55	12555
923.659	12532
923.767	12639
923.876	12502
923.984	12566
924.092	12410
924.201	12525
924.309	12551
924.417	12483
924.525	12410
924.633	12388
924.741	13259
924.849	12232
924.956	12365
925.064	12144
925.172	12155
925.279	12167
925.387	12258
925.494	12247
925.602	12323
925.709	12285
925.816	12095
925.924	12228
926.031	12228
926.138	12129
926.245	12220
926.352	12155
926.459	12239
926.566	12194
926.673	12079
926.779	12041
926.886	12015
926.993	11847
927.099	11722
927.206	11760
927.312	11733
927.419	11843
927.525	11855
927.631	11733
927.737	11649
927.843	11630
927.95	11562
928.056	11642
928.162	11570
928.267	11672
928.373	12277
928.479	11657
928.585	11539
928.69	11566
928.796	11604
928.901	11566
929.007	11349
929.112	11459
929.218	11414
929.323	11376
929.428	11337
929.533	11448
929.638	11292
929.743	11284
929.848	11318
929.953	11341
930.058	11273
930.163	11048
930.267	11086
930.372	11239
930.477	10987
930.581	11265
930.685	11083
930.79	10953
930.894	10999
930.998	10885
931.103	11060
931.207	10721
931.311	10596
931.415	10569
931.519	10363
931.623	10284
