Data from test_V78500241_2790.txt Node
Date: Fri Mar 25 15:29:17 CST 2022
User: usil
Spectrometer: V785-0024
Trigger mode: 0
Integration Time (sec): 4.000000E-1
Scans to average: 1
Nonlinearity correction enabled: false
Boxcar width: 0
Storing dark spectrum: false
XAxis mode: Wavelengths
Number of Pixels in Spectrum: 1024
>>>>>Begin Spectral Data<<<<<
801.071	27336
801.214	27009
801.356	26834
801.499	26735
801.641	26708
801.783	26701
801.926	26655
802.068	26674
802.211	26629
802.353	26640
802.496	26336
802.638	26404
802.78	26298
802.923	26202
803.065	26122
803.208	26130
803.35	26267
803.492	26465
803.635	26526
803.777	26336
803.919	26530
804.061	26758
804.204	26575
804.346	26431
804.488	26362
804.63	26419
804.773	26385
804.915	26465
805.057	26450
805.199	26473
805.341	26408
805.483	26537
805.626	26625
805.768	26461
805.91	26579
806.052	26621
806.194	26583
806.336	26674
806.478	26541
806.62	26746
806.762	26651
806.904	26739
807.046	27032
807.188	26982
807.33	26998
807.472	27070
807.614	26937
807.756	26948
807.898	26819
808.04	26807
808.182	26773
808.324	26845
808.465	26887
808.607	27085
808.749	27230
808.891	27226
809.033	27252
809.174	27329
809.316	27051
809.458	27047
809.6	27047
809.741	27268
809.883	27268
810.025	27184
810.166	27511
810.308	27583
810.45	27435
810.591	27298
810.733	27096
810.875	27169
811.016	27154
811.158	27039
811.299	27173
811.441	27412
811.582	27420
811.724	27173
811.865	27043
812.007	27188
812.148	27146
812.29	27298
812.431	27275
812.573	27587
812.714	27591
812.855	27534
812.997	27675
813.138	27766
813.279	27633
813.421	27591
813.562	27614
813.703	27466
813.845	27283
813.986	26925
814.127	26899
814.268	26743
814.41	26842
814.551	26861
814.692	26864
814.833	26811
814.974	26769
815.115	26910
815.256	26708
815.397	26720
815.539	26758
815.68	26492
815.821	26503
815.962	26686
816.103	26590
816.244	26400
816.385	26377
816.526	26419
816.666	26138
816.807	26073
816.948	26054
817.089	26122
817.23	26111
817.371	26024
817.512	26024
817.653	25963
817.793	26020
817.934	26062
818.075	26035
818.216	26054
818.356	26024
818.497	25909
818.638	25811
818.778	25765
818.919	25883
819.06	25913
819.2	25970
819.341	25993
819.481	26058
819.622	26107
819.762	26332
819.903	26358
820.043	26126
820.184	26073
820.324	26024
820.465	26153
820.605	26119
820.746	26062
820.886	25932
821.026	26043
821.167	25989
821.307	26077
821.447	26073
821.588	25947
821.728	25849
821.868	25578
822.008	25582
822.149	25594
822.289	25529
822.429	25377
822.569	25316
822.709	25145
822.849	25012
822.99	25015
823.13	25023
823.27	25042
823.41	24768
823.55	24726
823.69	24981
823.83	24932
823.97	24745
824.11	24582
824.25	24623
824.389	24635
824.529	24642
824.669	24612
824.809	24722
824.949	24730
825.089	24741
825.228	24585
825.368	24532
825.508	24486
825.648	24513
825.787	24604
825.927	24627
826.067	24547
826.206	24445
826.346	24513
826.485	24422
826.625	24540
826.765	24673
826.904	24589
827.044	24270
827.183	24194
827.323	24224
827.462	24235
827.601	24308
827.741	24083
827.88	24247
828.02	24129
828.159	24338
828.298	24258
828.437	24209
828.577	24308
828.716	24228
828.855	24159
828.994	23973
829.134	23912
829.273	24079
829.412	23885
829.551	23805
829.69	23920
829.829	23927
829.968	23992
830.107	24041
830.246	24022
830.385	23923
830.524	23882
830.663	23726
830.802	23665
830.941	23531
831.08	23615
831.219	23611
831.357	23760
831.496	23668
831.635	23497
831.774	23429
831.913	23379
832.051	23417
832.19	23307
832.329	23261
832.467	23105
832.606	23147
832.744	23117
832.883	23235
833.022	23178
833.16	23159
833.299	23216
833.437	23159
833.576	23273
833.714	23258
833.852	23235
833.991	23231
834.129	23341
834.267	23318
834.406	23185
834.544	23326
834.682	23200
834.821	23364
834.959	23376
835.097	23220
835.235	23349
835.373	23181
835.511	23159
835.65	23258
835.788	23185
835.926	23003
836.064	22961
836.202	22919
836.34	23014
836.478	23189
836.615	23086
836.753	23060
836.891	23174
837.029	23166
837.167	23086
837.305	22976
837.443	23014
837.58	22911
837.718	22999
837.856	22911
837.993	22828
838.131	22919
838.269	22843
838.406	22835
838.544	22599
838.681	22664
838.819	22577
838.956	22440
839.094	22322
839.231	22516
839.369	22607
839.506	22790
839.643	22664
839.781	22402
839.918	22306
840.055	22280
840.193	22314
840.33	22443
840.467	22398
840.604	22413
840.742	22717
840.879	22268
841.016	22284
841.153	22230
841.29	22485
841.427	22234
841.564	22363
841.701	22318
841.838	22276
841.975	22238
842.112	22188
842.249	22272
842.385	22010
842.522	22451
842.659	22181
842.796	22044
842.933	22055
843.069	22082
843.206	22139
843.343	22246
843.479	22105
843.616	22143
843.752	21915
843.889	21842
844.025	22051
844.162	21930
844.298	21850
844.435	21873
844.571	21895
844.708	21903
844.844	21972
844.98	22074
845.117	21953
845.253	21785
845.389	21736
845.525	21873
845.661	21686
845.798	21641
845.934	21736
846.07	21587
846.206	21785
846.342	21747
846.478	21679
846.614	21298
846.75	21218
846.886	21329
847.022	21458
847.158	21382
847.294	21412
847.429	21523
847.565	21428
847.701	21603
847.837	21051
847.972	21070
848.108	21150
848.244	21226
848.379	20948
848.515	20986
848.65	20895
848.786	20811
848.921	20921
849.057	21138
849.192	21032
849.328	21036
849.463	20925
849.598	20925
849.734	20842
849.869	20857
850.004	20682
850.14	20697
850.275	20716
850.41	20670
850.545	20575
850.68	20602
850.815	20708
850.95	20781
851.085	20861
851.22	20815
851.355	20655
851.49	20640
851.625	20659
851.76	20655
851.895	20678
852.03	20735
852.165	20773
852.299	20800
852.434	20819
852.569	20830
852.703	20758
852.838	20811
852.973	20887
853.107	20773
853.242	20659
853.376	20579
853.511	20412
853.645	20564
853.78	20670
853.914	20621
854.048	20454
854.183	20469
854.317	20396
854.451	20712
854.585	20575
854.72	20640
854.854	20686
854.988	20507
855.122	20537
855.256	20499
855.39	20571
855.524	20644
855.658	20514
855.792	20476
855.926	20560
856.06	20564
856.194	20716
856.327	20442
856.461	20495
856.595	20446
856.729	20438
856.862	20632
856.996	20533
857.13	20712
857.263	20568
857.397	20575
857.53	20488
857.664	20674
857.797	20667
857.931	20606
858.064	20545
858.197	20648
858.331	20552
858.464	20450
858.597	20450
858.731	20625
858.864	20587
858.997	20446
859.13	20621
859.263	20526
859.396	20594
859.529	20526
859.662	20571
859.795	20549
859.928	20602
860.061	20686
860.194	20754
860.327	20530
860.46	20644
860.592	20613
860.725	20682
860.858	20792
860.99	20522
861.123	20438
861.256	20495
861.388	20476
861.521	21173
861.653	20438
861.786	20385
861.918	20309
862.05	20355
862.183	20404
862.315	20541
862.447	20568
862.58	20415
862.712	20267
862.844	20206
862.976	20358
863.108	20282
863.24	20872
863.372	20275
863.504	20134
863.636	20278
863.768	20431
863.9	20313
864.032	20240
864.164	20248
864.296	20233
864.428	20408
864.559	20351
864.691	20408
864.823	20275
864.954	20229
865.086	20195
865.217	20100
865.349	20130
865.48	20195
865.612	20157
865.743	20275
865.875	20278
866.006	20107
866.137	20138
866.269	20195
866.4	20096
866.531	20134
866.662	20119
866.793	20088
866.924	20065
867.055	20092
867.186	20122
867.317	20092
867.448	20107
867.579	20046
867.71	20050
867.841	20016
867.972	20100
868.103	20103
868.233	20145
868.364	20107
868.495	20138
868.625	20336
868.756	20396
868.886	20301
869.017	20412
869.147	20571
869.278	20431
869.408	20446
869.539	20374
869.669	20377
869.799	20511
869.929	20499
870.06	20393
870.19	20701
870.32	20644
870.45	20743
870.58	20739
870.71	20921
870.84	20883
870.97	20621
871.1	20701
871.23	20910
871.36	20941
871.489	20876
871.619	20975
871.749	20975
871.879	20918
872.008	21119
872.138	20952
872.267	21077
872.397	20891
872.526	20914
872.656	20781
872.785	20933
872.915	20956
873.044	21085
873.173	21085
873.303	21066
873.432	21138
873.561	21089
873.69	20910
873.819	20998
873.948	21077
874.077	21009
874.206	21013
874.335	21036
874.464	21203
874.593	21207
874.722	21245
874.851	21321
874.979	21245
875.108	21348
875.237	21249
875.365	21138
875.494	21272
875.623	21306
875.751	21291
875.88	21336
876.008	21393
876.136	21511
876.265	21698
876.393	21774
876.521	21819
876.65	21686
876.778	21568
876.906	21561
877.034	21641
877.162	21614
877.29	21500
877.418	21618
877.546	21667
877.674	21629
877.802	21686
877.93	21618
878.058	21561
878.185	21473
878.313	21591
878.441	21675
878.568	21477
878.696	21557
878.824	21591
878.951	21698
879.079	21755
879.206	21941
879.333	21701
879.461	21553
879.588	21739
879.715	21705
879.842	21918
879.97	21679
880.097	21488
880.224	21317
880.351	21557
880.478	21420
880.605	21275
880.732	21389
880.859	21633
880.986	21439
881.112	21431
881.239	21291
881.366	21184
881.493	20929
881.619	20941
881.746	21028
881.872	20967
881.999	20872
882.125	20937
882.252	21089
882.378	20956
882.505	21108
882.631	20845
882.757	20823
882.883	20823
883.01	20727
883.136	20625
883.262	20590
883.388	20556
883.514	20800
883.64	20765
883.766	20549
883.892	20514
884.018	20568
884.143	20667
884.269	20758
884.395	20423
884.52	20400
884.646	20259
884.772	20271
884.897	20218
885.023	20313
885.148	20419
885.274	20537
885.399	20423
885.524	20412
885.65	20355
885.775	20457
885.9	20267
886.025	20492
886.15	20320
886.275	20294
886.4	20351
886.525	20240
886.65	20351
886.775	20233
886.9	20339
887.025	20579
887.149	20408
887.274	20164
887.399	20134
887.523	20134
887.648	20054
887.773	20107
887.897	20199
888.021	20164
888.146	20062
888.27	20267
888.395	20282
888.519	20183
888.643	20065
888.767	20164
888.891	20107
889.015	19974
889.139	19993
889.263	19982
889.387	20187
889.511	20103
889.635	19932
889.759	19959
889.883	19921
890.006	19955
890.13	19970
890.254	19845
890.377	19940
890.501	19750
890.624	19738
890.748	19784
890.871	19681
890.995	19468
891.118	19373
891.241	19666
891.364	19514
891.488	19685
891.611	19643
891.734	19365
891.857	19556
891.98	19510
892.103	19533
892.226	19540
892.349	19537
892.471	19365
892.594	19392
892.717	19586
892.839	19411
892.962	19468
893.085	19460
893.207	19445
893.33	19392
893.452	19411
893.575	19441
893.697	19491
893.819	19582
893.941	19563
894.064	19559
894.186	19354
894.308	19316
894.43	19529
894.552	19616
894.674	19491
894.796	19392
894.918	19415
895.04	19373
895.161	19571
895.283	19388
895.405	19487
895.526	19407
895.648	19438
895.769	19483
895.891	19518
896.012	19499
896.134	19468
896.255	19476
896.376	19369
896.498	19514
896.619	19480
896.74	19480
896.861	19533
896.982	19662
897.103	19868
897.224	19594
897.345	19597
897.466	19594
897.587	19647
897.708	19898
897.828	19750
897.949	19674
898.07	19586
898.19	19731
898.311	19795
898.431	19662
898.552	19696
898.672	19742
898.792	19715
898.913	19734
899.033	19582
899.153	19339
899.273	19377
899.393	19491
899.513	19483
899.633	19434
899.753	19506
899.873	19365
899.993	19571
900.113	19384
900.232	19343
900.352	19373
900.472	19282
900.591	19244
900.711	19247
900.83	19221
900.95	19263
901.069	19377
901.189	19114
901.308	18890
901.427	18935
901.546	18840
901.665	18840
901.784	18837
901.904	18726
902.023	18658
902.141	18334
902.26	18315
902.379	18460
902.498	18330
902.617	18342
902.735	18437
902.854	18273
902.973	18281
903.091	18022
903.21	17984
903.328	18060
903.446	17958
903.565	17836
903.683	17961
903.801	17783
903.919	17726
904.038	17714
904.156	17649
904.274	17665
904.392	17619
904.51	17672
904.627	17691
904.745	17592
904.863	17729
904.981	17474
905.098	17178
905.216	17364
905.334	17273
905.451	17299
905.569	17189
905.686	17227
905.803	17280
905.921	17121
906.038	17159
906.155	17216
906.272	17037
906.389	16957
906.506	16786
906.623	16824
906.74	16911
906.857	16717
906.974	16713
907.091	16938
907.208	16923
907.324	16877
907.441	16763
907.557	16637
907.674	16497
907.79	16413
907.907	16634
908.023	16584
908.139	16478
908.256	16466
908.372	16443
908.488	16436
908.604	16306
908.72	16257
908.836	16234
908.952	16284
909.068	16344
909.184	16409
909.3	16211
909.415	16299
909.531	16352
909.647	15972
909.762	15949
909.878	15888
909.993	15972
910.108	15918
910.224	15945
910.339	15991
910.454	15987
910.57	15823
910.685	15739
910.8	15941
910.915	16029
911.03	15766
911.145	15705
911.259	15625
911.374	15595
911.489	15587
911.604	15412
911.718	15306
911.833	15363
911.947	15294
912.062	15211
912.176	15332
912.291	15351
912.405	15431
912.519	15534
912.633	15507
912.748	15389
912.862	15332
912.976	15180
913.09	14967
913.204	15173
913.318	15169
913.431	15214
913.545	15233
913.659	15131
913.772	15093
913.886	15009
914	14944
914.113	15039
914.226	15001
914.34	15001
914.453	14815
914.566	15085
914.68	14921
914.793	14785
914.906	14632
915.019	14659
915.132	14522
915.245	14575
915.358	14686
915.47	14606
915.583	14659
915.696	14640
915.809	14765
915.921	14689
916.034	14507
916.146	14423
916.259	14499
916.371	14507
916.483	14488
916.595	14404
916.708	14438
916.82	14431
916.932	14415
917.044	14412
917.156	14339
917.268	14187
917.38	14191
917.491	14271
917.603	14332
917.715	14415
917.826	14385
917.938	14267
918.049	14164
918.161	14237
918.272	14317
918.384	14267
918.495	14290
918.606	14012
918.717	13997
918.828	14062
918.939	14077
919.05	13913
919.161	13993
919.272	13955
919.383	13986
919.494	14088
919.604	14263
919.715	13963
919.826	13849
919.936	13947
920.047	14073
920.157	14005
920.267	14233
920.378	14054
920.488	13940
920.598	14248
920.708	14309
920.818	14134
920.928	14088
921.038	14290
921.148	14191
921.258	14027
921.368	13841
921.477	13715
921.587	13761
921.697	13582
921.806	13742
921.916	13639
922.025	13464
922.134	13384
922.244	13339
922.353	13502
922.462	13324
922.571	13266
922.68	13042
922.789	13065
922.898	13084
923.007	13072
923.116	13061
923.224	12985
923.333	13107
923.442	12905
923.55	12867
923.659	12867
923.767	12875
923.876	12905
923.984	12905
924.092	12749
924.201	12844
924.309	12875
924.417	12779
924.525	12825
924.633	12810
924.741	13453
924.849	12525
924.956	12662
925.064	12509
925.172	12418
925.279	12422
925.387	12483
925.494	12521
925.602	12467
925.709	12570
925.816	12407
925.924	12410
926.031	12566
926.138	12441
926.245	12475
926.352	12399
926.459	12448
926.566	12467
926.673	12418
926.779	12342
926.886	12266
926.993	12220
927.099	12140
927.206	12057
927.312	12072
927.419	12125
927.525	12144
927.631	12205
927.737	11973
927.843	11931
927.95	11828
928.056	11908
928.162	11950
928.267	12011
928.373	12559
928.479	11996
928.585	11779
928.69	11946
928.796	11916
928.901	11745
929.007	11570
929.112	11843
929.218	11752
929.323	11623
929.428	11638
929.533	11775
929.638	11551
929.743	11547
929.848	11661
929.953	11638
930.058	11467
930.163	11318
930.267	11311
930.372	11562
930.477	11372
930.581	11463
930.685	11414
930.79	11269
930.894	11299
930.998	11181
931.103	11296
931.207	11018
931.311	10908
931.415	10900
931.519	10656
931.623	10618
