Data from test_V78500241_1386.txt Node
Date: Fri Mar 25 15:19:30 CST 2022
User: usil
Spectrometer: V785-0024
Trigger mode: 0
Integration Time (sec): 4.000000E-1
Scans to average: 1
Nonlinearity correction enabled: false
Boxcar width: 0
Storing dark spectrum: false
XAxis mode: Wavelengths
Number of Pixels in Spectrum: 1024
>>>>>Begin Spectral Data<<<<<
801.071	28223
801.214	28177
801.356	27869
801.499	27869
801.641	27850
801.783	27694
801.926	27705
802.068	27793
802.211	27720
802.353	27603
802.496	27420
802.638	27462
802.78	27332
802.923	27393
803.065	27336
803.208	27298
803.35	27416
803.492	27389
803.635	27561
803.777	27325
803.919	27637
804.061	27930
804.204	27694
804.346	27679
804.488	27504
804.63	27701
804.773	27526
804.915	27652
805.057	27751
805.199	27511
805.341	27705
805.483	27774
805.626	27778
805.768	27625
805.91	27728
806.052	27701
806.194	27660
806.336	27968
806.478	27876
806.62	27690
806.762	27835
806.904	28097
807.046	28443
807.188	28234
807.33	28154
807.472	28200
807.614	28029
807.756	28143
807.898	28036
808.04	27991
808.182	27987
808.324	27994
808.465	28124
808.607	28116
808.749	28401
808.891	28474
809.033	28478
809.174	28428
809.316	28367
809.458	28428
809.6	28337
809.741	28637
809.883	28531
810.025	28702
810.166	28645
810.308	28733
810.45	28641
810.591	28615
810.733	28417
810.875	28306
811.016	28344
811.158	28226
811.299	28531
811.441	28580
811.582	28538
811.724	28474
811.865	28440
812.007	28432
812.148	28466
812.29	28554
812.431	28618
812.573	28778
812.714	28854
812.855	28904
812.997	29018
813.138	29052
813.279	29003
813.421	29037
813.562	28987
813.703	28790
813.845	28630
813.986	28443
814.127	28265
814.268	28051
814.41	28249
814.551	28090
814.692	28150
814.833	28105
814.974	28093
815.115	28078
815.256	28097
815.397	28059
815.539	27968
815.68	27945
815.821	27949
815.962	27888
816.103	27880
816.244	27816
816.385	27660
816.526	27576
816.666	27492
816.807	27435
816.948	27564
817.089	27511
817.23	27496
817.371	27332
817.512	27523
817.653	27249
817.793	27264
817.934	27507
818.075	27420
818.216	27401
818.356	27359
818.497	27283
818.638	27214
818.778	27138
818.919	27131
819.06	27173
819.2	27268
819.341	27351
819.481	27492
819.622	27515
819.762	27831
819.903	27728
820.043	27526
820.184	27538
820.324	27526
820.465	27568
820.605	27557
820.746	27481
820.886	27443
821.026	27439
821.167	27504
821.307	27614
821.447	27488
821.588	27397
821.728	27218
821.868	27028
822.008	26933
822.149	26975
822.289	26830
822.429	26549
822.569	26556
822.709	26583
822.849	26590
822.99	26358
823.13	26374
823.27	26313
823.41	26221
823.55	26005
823.69	26180
823.83	26240
823.97	26180
824.11	25753
824.25	25913
824.389	26119
824.529	26225
824.669	26001
824.809	26233
824.949	26161
825.089	26229
825.228	26130
825.368	25909
825.508	25860
825.648	25833
825.787	26107
825.927	25951
826.067	26027
826.206	25974
826.346	26100
826.485	26096
826.625	25780
826.765	25982
826.904	25921
827.044	25685
827.183	25670
827.323	25670
827.462	25704
827.601	25685
827.741	25795
827.88	25613
828.02	25666
828.159	25518
828.298	25635
828.437	25681
828.577	25396
828.716	25750
828.855	25613
828.994	25331
829.134	25255
829.273	25244
829.412	25206
829.551	25377
829.69	25339
829.829	25194
829.968	25354
830.107	25285
830.246	25331
830.385	25107
830.524	25282
830.663	25145
830.802	25084
830.941	24935
831.08	24890
831.219	25027
831.357	25053
831.496	25168
831.635	24928
831.774	24859
831.913	24878
832.051	24654
832.19	24639
832.329	24642
832.467	24688
832.606	24559
832.744	24570
832.883	24608
833.022	24563
833.16	24502
833.299	24654
833.437	24566
833.576	24760
833.714	24719
833.852	24658
833.991	24772
834.129	24673
834.267	24741
834.406	24696
834.544	24635
834.682	24650
834.821	24502
834.959	24696
835.097	24502
835.235	24635
835.373	24608
835.511	24673
835.65	24433
835.788	24505
835.926	24380
836.064	24357
836.202	24372
836.34	24460
836.478	24608
836.615	24505
836.753	24445
836.891	24528
837.029	24494
837.167	24429
837.305	24372
837.443	24315
837.58	24315
837.718	24536
837.856	24433
837.993	24369
838.131	24376
838.269	24228
838.406	24232
838.544	24003
838.681	23908
838.819	24060
838.956	23710
839.094	23832
839.231	23779
839.369	24030
839.506	24262
839.643	23965
839.781	23783
839.918	23695
840.055	23855
840.193	23729
840.33	23657
840.467	23779
840.604	23813
840.742	24018
840.879	23570
841.016	23752
841.153	23573
841.29	23707
841.427	23570
841.564	23798
841.701	23657
841.838	23577
841.975	23482
842.112	23630
842.249	23459
842.385	23391
842.522	23695
842.659	23334
842.796	23444
842.933	23448
843.069	23592
843.206	23383
843.343	23455
843.479	23398
843.616	23421
843.752	23212
843.889	23280
844.025	23414
844.162	23159
844.298	23250
844.435	23242
844.571	23132
844.708	23185
844.844	23459
844.98	23239
845.117	23284
845.253	23178
845.389	23067
845.525	23132
845.661	22995
845.798	22995
845.934	23025
846.07	23025
846.206	22919
846.342	22953
846.478	22900
846.614	22805
846.75	22550
846.886	22664
847.022	22630
847.158	22725
847.294	22774
847.429	22698
847.565	22641
847.701	22881
847.837	22443
847.972	22489
848.108	22360
848.244	22516
848.379	22356
848.515	22234
848.65	22306
848.786	22147
848.921	22341
849.057	22424
849.192	22356
849.328	22337
849.463	22196
849.598	22188
849.734	22025
849.869	21987
850.004	21983
850.14	21945
850.275	22010
850.41	22025
850.545	21949
850.68	21960
850.815	22021
850.95	21968
851.085	22139
851.22	22188
851.355	21964
851.49	21953
851.625	21934
851.76	21987
851.895	21876
852.03	21956
852.165	21892
852.299	22040
852.434	22036
852.569	22002
852.703	22029
852.838	22112
852.973	22185
853.107	22078
853.242	21968
853.376	21808
853.511	21663
853.645	21739
853.78	21941
853.914	21846
854.048	21736
854.183	21899
854.317	21819
854.451	21945
854.585	21888
854.72	21857
854.854	21972
854.988	21838
855.122	21850
855.256	21713
855.39	21949
855.524	21941
855.658	21838
855.792	21789
855.926	21857
856.06	21800
856.194	21899
856.327	21861
856.461	21812
856.595	21759
856.729	21827
856.862	21838
856.996	21918
857.13	21915
857.263	21907
857.397	21899
857.53	21876
857.664	21835
857.797	21835
857.931	21979
858.064	21774
858.197	21895
858.331	21865
858.464	21800
858.597	21648
858.731	21869
858.864	21892
858.997	21865
859.13	21915
859.263	21861
859.396	21888
859.529	21774
859.662	21762
859.795	21781
859.928	21778
860.061	21907
860.194	22128
860.327	21979
860.46	21812
860.592	21964
860.725	21869
860.858	22032
860.99	21857
861.123	21739
861.256	21774
861.388	21979
861.521	22348
861.653	21667
861.786	21694
861.918	21690
862.05	21724
862.183	21724
862.315	21842
862.447	21876
862.58	21770
862.712	21667
862.844	21523
862.976	21504
863.108	21447
863.24	21823
863.372	21477
863.504	21530
863.636	21469
863.768	21671
863.9	21530
864.032	21538
864.164	21580
864.296	21667
864.428	21675
864.559	21603
864.691	21534
864.823	21447
864.954	21580
865.086	21568
865.217	21553
865.349	21500
865.48	21294
865.612	21393
865.743	21739
865.875	21488
866.006	21401
866.137	21428
866.269	21488
866.4	21416
866.531	21405
866.662	21386
866.793	21412
866.924	21291
867.055	21355
867.186	21348
867.317	21264
867.448	21291
867.579	21424
867.71	21218
867.841	21393
867.972	21378
868.103	21367
868.233	21416
868.364	21332
868.495	21485
868.625	21629
868.756	21641
868.886	21622
869.017	21572
869.147	21656
869.278	21656
869.408	21637
869.539	21637
869.669	21648
869.799	21690
869.929	21709
870.06	21793
870.19	21880
870.32	21869
870.45	21903
870.58	21926
870.71	22017
870.84	22048
870.97	22063
871.1	22013
871.23	22093
871.36	22181
871.489	22082
871.619	22382
871.749	22101
871.879	22169
872.008	22424
872.138	22242
872.267	22215
872.397	21998
872.526	21960
872.656	22029
872.785	21987
872.915	22166
873.044	22230
873.173	22169
873.303	22051
873.432	22188
873.561	22268
873.69	22177
873.819	22234
873.948	22322
874.077	22147
874.206	22097
874.335	22120
874.464	22211
874.593	22550
874.722	22489
874.851	22489
874.979	22550
875.108	22356
875.237	22379
875.365	22306
875.494	22329
875.623	22500
875.751	22352
875.88	22402
876.008	22436
876.136	22577
876.265	22835
876.393	22812
876.521	22866
876.65	22774
876.778	22877
876.906	22679
877.034	22809
877.162	22831
877.29	22759
877.418	22835
877.546	22854
877.674	22831
877.802	22847
877.93	22896
878.058	22649
878.185	22580
878.313	22805
878.441	22843
878.568	22672
878.696	22729
878.824	22729
878.951	22873
879.079	22934
879.206	23079
879.333	22908
879.461	22790
879.588	22774
879.715	22869
879.842	23170
879.97	22862
880.097	22630
880.224	22645
880.351	22744
880.478	22527
880.605	22569
880.732	22489
880.859	22801
880.986	22565
881.112	22599
881.239	22421
881.366	22310
881.493	22325
881.619	22131
881.746	22204
881.872	22219
881.999	22226
882.125	22116
882.252	22200
882.378	22162
882.505	22284
882.631	22006
882.757	21838
882.883	21926
883.01	21770
883.136	21789
883.262	21686
883.388	21770
883.514	21819
883.64	21797
883.766	21804
883.892	21523
884.018	21682
884.143	21781
884.269	21873
884.395	21583
884.52	21477
884.646	21348
884.772	21378
884.897	21431
885.023	21447
885.148	21591
885.274	21629
885.399	21545
885.524	21431
885.65	21564
885.775	21351
885.9	21447
886.025	21519
886.15	21561
886.275	21386
886.4	21370
886.525	21294
886.65	21325
886.775	21443
886.9	21599
887.025	21720
887.149	21431
887.274	21291
887.399	21264
887.523	21222
887.648	21283
887.773	21123
887.897	21458
888.021	21275
888.146	21211
888.27	21294
888.395	21302
888.519	21329
888.643	21378
888.767	21275
888.891	21119
889.015	21112
889.139	21161
889.263	21085
889.387	21077
889.511	21188
889.635	21184
889.759	20982
889.883	21020
890.006	21089
890.13	21131
890.254	20826
890.377	20986
890.501	20868
890.624	20811
890.748	20842
890.871	20667
890.995	20549
891.118	20503
891.241	20648
891.364	20598
891.488	20777
891.611	20640
891.734	20549
891.857	20621
891.98	20549
892.103	20750
892.226	20575
892.349	20541
892.471	20336
892.594	20374
892.717	20476
892.839	20454
892.962	20526
893.085	20514
893.207	20419
893.33	20564
893.452	20377
893.575	20507
893.697	20545
893.819	20590
893.941	20659
894.064	20556
894.186	20461
894.308	20389
894.43	20594
894.552	20583
894.674	20598
894.796	20400
894.918	20488
895.04	20457
895.161	20609
895.283	20621
895.405	20355
895.526	20434
895.648	20469
895.769	20492
895.891	20412
896.012	20537
896.134	20488
896.255	20537
896.376	20381
896.498	20499
896.619	20575
896.74	20431
896.861	20663
896.982	20815
897.103	20918
897.224	20785
897.345	20667
897.466	20625
897.587	20602
897.708	20731
897.828	20693
897.949	20651
898.07	20583
898.19	20636
898.311	20724
898.431	20712
898.552	20731
898.672	20804
898.792	20807
898.913	20701
899.033	20568
899.153	20450
899.273	20469
899.393	20446
899.513	20476
899.633	20431
899.753	20537
899.873	20294
899.993	20442
900.113	20412
900.232	20526
900.352	20355
900.472	20294
900.591	20176
900.711	20271
900.83	20229
900.95	20278
901.069	20332
901.189	19989
901.308	19963
901.427	19746
901.546	19795
901.665	19750
901.784	19795
901.904	19666
902.023	19590
902.141	19487
902.26	19369
902.379	19415
902.498	19308
902.617	19350
902.735	19324
902.854	19266
902.973	19202
903.091	19099
903.21	18966
903.328	18973
903.446	18928
903.565	18825
903.683	18886
903.801	18730
903.919	18798
904.038	18726
904.156	18635
904.274	18757
904.392	18521
904.51	18559
904.627	18635
904.745	18589
904.863	18585
904.981	18376
905.098	18262
905.216	18239
905.334	18205
905.451	18205
905.569	18163
905.686	18292
905.803	18205
905.921	18015
906.038	18129
906.155	18076
906.272	17870
906.389	17893
906.506	17752
906.623	17764
906.74	17786
906.857	17695
906.974	17680
907.091	17809
907.208	17927
907.324	17714
907.441	17653
907.557	17478
907.674	17490
907.79	17444
907.907	17463
908.023	17585
908.139	17497
908.256	17417
908.372	17429
908.488	17349
908.604	17239
908.72	17284
908.836	17307
908.952	17208
909.068	17105
909.184	17292
909.3	17197
909.415	17136
909.531	17170
909.647	17041
909.762	16904
909.878	16885
909.993	16919
910.108	16847
910.224	16866
910.339	16873
910.454	16786
910.57	16733
910.685	16687
910.8	16869
910.915	16908
911.03	16725
911.145	16561
911.259	16363
911.374	16523
911.489	16356
911.604	16386
911.718	16150
911.833	16363
911.947	16147
912.062	16021
912.176	16143
912.291	16204
912.405	16192
912.519	16428
912.633	16470
912.748	16261
912.862	16185
912.976	16101
913.09	15994
913.204	15949
913.318	16025
913.431	16074
913.545	16105
913.659	16150
913.772	16051
913.886	15857
914	15770
914.113	15972
914.226	15907
914.34	15850
914.453	15743
914.566	15857
914.68	15789
914.793	15671
914.906	15534
915.019	15424
915.132	15313
915.245	15382
915.358	15412
915.47	15412
915.583	15435
915.696	15439
915.809	15542
915.921	15568
916.034	15397
916.146	15336
916.259	15397
916.371	15393
916.483	15287
916.595	15230
916.708	15283
916.82	15252
916.932	15294
917.044	15211
917.156	15150
917.268	15047
917.38	15047
917.491	15024
917.603	15024
917.715	15100
917.826	15192
917.938	15013
918.049	14982
918.161	15001
918.272	15203
918.384	15161
918.495	14952
918.606	14902
918.717	14845
918.828	14842
918.939	14826
919.05	14811
919.161	14731
919.272	14644
919.383	14625
919.494	14834
919.604	15017
919.715	14823
919.826	14659
919.936	14765
920.047	14819
920.157	14758
920.267	14990
920.378	14838
920.488	14739
920.598	14895
920.708	15024
920.818	14986
920.928	14921
921.038	15074
921.148	15089
921.258	14838
921.368	14674
921.477	14492
921.587	14461
921.697	14476
921.806	14469
921.916	14412
922.025	14206
922.134	14180
922.244	14157
922.353	14248
922.462	14001
922.571	13890
922.68	13925
922.789	13757
922.898	13788
923.007	13742
923.116	13757
923.224	13845
923.333	13742
923.442	13662
923.55	13647
923.659	13578
923.767	13704
923.876	13586
923.984	13620
924.092	13521
924.201	13567
924.309	13529
924.417	13647
924.525	13506
924.633	13460
924.741	14233
924.849	13183
924.956	13381
925.064	13251
925.172	13206
925.279	13285
925.387	13217
925.494	13251
925.602	13285
925.709	13240
925.816	13019
925.924	13244
926.031	13190
926.138	13202
926.245	13213
926.352	13031
926.459	13202
926.566	13164
926.673	13065
926.779	12989
926.886	12993
926.993	12848
927.099	12760
927.206	12738
927.312	12662
927.419	12768
927.525	12795
927.631	12734
927.737	12574
927.843	12601
927.95	12414
928.056	12525
928.162	12536
928.267	12616
928.373	13225
928.479	12707
928.585	12410
928.69	12517
928.796	12578
928.901	12460
929.007	12281
929.112	12395
929.218	12464
929.323	12391
929.428	12251
929.533	12403
929.638	12289
929.743	12197
929.848	12228
929.953	12175
930.058	12171
930.163	11977
930.267	11977
930.372	12110
930.477	12003
930.581	12201
930.685	11961
930.79	11817
930.894	11897
930.998	11878
931.103	11931
931.207	11657
931.311	11478
931.415	11425
931.519	11239
931.623	11159
