Data from test_V78500241_3491.txt Node
Date: Fri Mar 25 15:34:10 CST 2022
User: usil
Spectrometer: V785-0024
Trigger mode: 0
Integration Time (sec): 4.000000E-1
Scans to average: 1
Nonlinearity correction enabled: false
Boxcar width: 0
Storing dark spectrum: false
XAxis mode: Wavelengths
Number of Pixels in Spectrum: 1024
>>>>>Begin Spectral Data<<<<<
801.071	27302
801.214	27226
801.356	26914
801.499	27058
801.641	26804
801.783	26708
801.926	26861
802.068	27055
802.211	26868
802.353	26788
802.496	26552
802.638	26453
802.78	26473
802.923	26343
803.065	26320
803.208	26355
803.35	26412
803.492	26609
803.635	26648
803.777	26415
803.919	26678
804.061	26868
804.204	26708
804.346	26465
804.488	26507
804.63	26648
804.773	26431
804.915	26648
805.057	26678
805.199	26632
805.341	26575
805.483	26636
805.626	26739
805.768	26617
805.91	26750
806.052	26598
806.194	26697
806.336	26940
806.478	26864
806.62	26705
806.762	26944
806.904	26902
807.046	27108
807.188	27154
807.33	27180
807.472	27119
807.614	27096
807.756	27142
807.898	27013
808.04	26883
808.182	27036
808.324	26979
808.465	26979
808.607	27020
808.749	27405
808.891	27408
809.033	27496
809.174	27424
809.316	27283
809.458	27199
809.6	27283
809.741	27291
809.883	27382
810.025	27447
810.166	27603
810.308	27462
810.45	27583
810.591	27378
810.733	27340
810.875	27222
811.016	27256
811.158	27211
811.299	27329
811.441	27367
811.582	27401
811.724	27279
811.865	27287
812.007	27211
812.148	27332
812.29	27256
812.431	27466
812.573	27553
812.714	27641
812.855	27880
812.997	27743
813.138	27991
813.279	27899
813.421	27884
813.562	27770
813.703	27572
813.845	27500
813.986	27233
814.127	26982
814.268	26944
814.41	26861
814.551	26963
814.692	27218
814.833	26902
814.974	26910
815.115	26899
815.256	26815
815.397	26765
815.539	26861
815.68	26655
815.821	26663
815.962	26708
816.103	26617
816.244	26697
816.385	26461
816.526	26389
816.666	26381
816.807	26088
816.948	26317
817.089	26317
817.23	26362
817.371	26134
817.512	26259
817.653	26221
817.793	26199
817.934	26191
818.075	26199
818.216	26244
818.356	26225
818.497	26050
818.638	25959
818.778	25830
818.919	26035
819.06	25982
819.2	26290
819.341	26145
819.481	26210
819.622	26286
819.762	26522
819.903	26347
820.043	26575
820.184	26172
820.324	26248
820.465	26465
820.605	26286
820.746	26199
820.886	26305
821.026	26229
821.167	26229
821.307	26324
821.447	26122
821.588	25974
821.728	25932
821.868	25704
822.008	25734
822.149	25666
822.289	25639
822.429	25400
822.569	25289
822.709	25373
822.849	25171
822.99	25232
823.13	25145
823.27	25126
823.41	24943
823.55	24802
823.69	24928
823.83	24901
823.97	24935
824.11	24795
824.25	24859
824.389	24852
824.529	24844
824.669	24760
824.809	24985
824.949	24817
825.089	24913
825.228	24844
825.368	24677
825.508	24604
825.648	24574
825.787	24745
825.927	24768
826.067	24726
826.206	24620
826.346	24802
826.485	24631
826.625	24631
826.765	24783
826.904	24665
827.044	24407
827.183	24418
827.323	24228
827.462	24232
827.601	24486
827.741	24372
827.88	24414
828.02	24338
828.159	24372
828.298	24292
828.437	24475
828.577	24342
828.716	24471
828.855	24346
828.994	24133
829.134	24045
829.273	24190
829.412	24079
829.551	24163
829.69	24110
829.829	24003
829.968	24182
830.107	24213
830.246	24060
830.385	24026
830.524	24110
830.663	23984
830.802	23817
830.941	23710
831.08	23748
831.219	23855
831.357	23817
831.496	23939
831.635	23771
831.774	23805
831.913	23589
832.051	23566
832.19	23566
832.329	23478
832.467	23535
832.606	23277
832.744	23402
832.883	23280
833.022	23288
833.16	23429
833.299	23486
833.437	23376
833.576	23421
833.714	23497
833.852	23482
833.991	23516
834.129	23657
834.267	23630
834.406	23486
834.544	23535
834.682	23562
834.821	23478
834.959	23764
835.097	23368
835.235	23398
835.373	23509
835.511	23395
835.65	23406
835.788	23326
835.926	23189
836.064	23315
836.202	23121
836.34	23311
836.478	23436
836.615	23345
836.753	23391
836.891	23349
837.029	23402
837.167	23231
837.305	23220
837.443	23258
837.58	23044
837.718	23379
837.856	23166
837.993	23250
838.131	23174
838.269	23071
838.406	23200
838.544	22995
838.681	22892
838.819	22862
838.956	22656
839.094	22641
839.231	22740
839.369	22778
839.506	22995
839.643	22896
839.781	22622
839.918	22584
840.055	22702
840.193	22637
840.33	22519
840.467	22622
840.604	22672
840.742	22812
840.879	22394
841.016	22485
841.153	22519
841.29	22733
841.427	22531
841.564	22615
841.701	22508
841.838	22611
841.975	22569
842.112	22485
842.249	22405
842.385	22428
842.522	22584
842.659	22322
842.796	22386
842.933	22314
843.069	22234
843.206	22299
843.343	22451
843.479	22261
843.616	22413
843.752	22188
843.889	22090
844.025	22306
844.162	22185
844.298	22234
844.435	22131
844.571	22025
844.708	22188
844.844	22272
844.98	22207
845.117	22352
845.253	22162
845.389	22006
845.525	22048
845.661	22025
845.798	21838
845.934	21972
846.07	21838
846.206	21774
846.342	21975
846.478	21865
846.614	21785
846.75	21526
846.886	21603
847.022	21686
847.158	21717
847.294	21587
847.429	21500
847.565	21511
847.701	21865
847.837	21313
847.972	21249
848.108	21477
848.244	21367
848.379	21142
848.515	21218
848.65	21161
848.786	21180
848.921	21180
849.057	21222
849.192	21275
849.328	21249
849.463	21207
849.598	21108
849.734	21062
849.869	21028
850.004	21051
850.14	21013
850.275	20948
850.41	20933
850.545	20823
850.68	20864
850.815	20891
850.95	20830
851.085	21070
851.22	20990
851.355	20960
851.49	20941
851.625	20944
851.76	20849
851.895	20845
852.03	20921
852.165	20864
852.299	21051
852.434	21039
852.569	21028
852.703	20979
852.838	21081
852.973	21116
853.107	21146
853.242	20975
853.376	20849
853.511	20678
853.645	20765
853.78	20830
853.914	20883
854.048	20731
854.183	20754
854.317	20804
854.451	21055
854.585	20693
854.72	20689
854.854	20956
854.988	20762
855.122	20788
855.256	20708
855.39	20796
855.524	20838
855.658	20982
855.792	20876
855.926	20796
856.06	20887
856.194	20807
856.327	20842
856.461	20663
856.595	20834
856.729	20735
856.862	20971
856.996	20800
857.13	20883
857.263	20853
857.397	20929
857.53	20746
857.664	20826
857.797	20902
857.931	20941
858.064	20735
858.197	20960
858.331	20845
858.464	20769
858.597	20743
858.731	20777
858.864	20670
858.997	20674
859.13	20826
859.263	20754
859.396	20845
859.529	20781
859.662	20845
859.795	20727
859.928	20853
860.061	20849
860.194	20979
860.327	20823
860.46	20758
860.592	20887
860.725	21001
860.858	20864
860.99	20788
861.123	20861
861.256	20724
861.388	20807
861.521	21519
861.653	20564
861.786	20651
861.918	20590
862.05	20762
862.183	20712
862.315	20765
862.447	20777
862.58	20689
862.712	20579
862.844	20442
862.976	20579
863.108	20678
863.24	21013
863.372	20457
863.504	20465
863.636	20495
863.768	20606
863.9	20431
864.032	20404
864.164	20552
864.296	20594
864.428	20518
864.559	20499
864.691	20541
864.823	20461
864.954	20587
865.086	20545
865.217	20358
865.349	20408
865.48	20336
865.612	20438
865.743	20526
865.875	20396
866.006	20377
866.137	20488
866.269	20442
866.4	20419
866.531	20370
866.662	20324
866.793	20362
866.924	20461
867.055	20434
867.186	20320
867.317	20275
867.448	20278
867.579	20457
867.71	20343
867.841	20294
867.972	20377
868.103	20381
868.233	20396
868.364	20324
868.495	20480
868.625	20560
868.756	20686
868.886	20594
869.017	20556
869.147	20667
869.278	20762
869.408	20537
869.539	20617
869.669	20663
869.799	20632
869.929	20727
870.06	20743
870.19	20906
870.32	20925
870.45	20975
870.58	20986
870.71	21058
870.84	21157
870.97	20963
871.1	20975
871.23	21222
871.36	21214
871.489	21135
871.619	21180
871.749	21119
871.879	21256
872.008	21344
872.138	21233
872.267	21173
872.397	21036
872.526	21116
872.656	21024
872.785	21055
872.915	21203
873.044	21264
873.173	21135
873.303	21272
873.432	21256
873.561	21397
873.69	21275
873.819	21222
873.948	21374
874.077	21222
874.206	21135
874.335	21157
874.464	21336
874.593	21412
874.722	21443
874.851	21466
874.979	21504
875.108	21511
875.237	21504
875.365	21389
875.494	21431
875.623	21526
875.751	21473
875.88	21542
876.008	21652
876.136	21660
876.265	21880
876.393	22010
876.521	21956
876.65	22006
876.778	21873
876.906	21880
877.034	21827
877.162	21800
877.29	21869
877.418	21808
877.546	21892
877.674	21709
877.802	21751
877.93	21873
878.058	21766
878.185	21736
878.313	21732
878.441	21622
878.568	21622
878.696	21709
878.824	21835
878.951	21937
879.079	22006
879.206	22025
879.333	21949
879.461	21823
879.588	21922
879.715	21953
879.842	22143
879.97	21937
880.097	21728
880.224	21705
880.351	21747
880.478	21618
880.605	21622
880.732	21652
880.859	21854
880.986	21629
881.112	21625
881.239	21450
881.366	21329
881.493	21336
881.619	21169
881.746	21188
881.872	21329
881.999	21032
882.125	21157
882.252	21192
882.378	21142
882.505	21275
882.631	21165
882.757	21032
882.883	20971
883.01	20990
883.136	20941
883.262	20830
883.388	20826
883.514	21028
883.64	20990
883.766	20883
883.892	20712
884.018	20765
884.143	20842
884.269	20906
884.395	20735
884.52	20594
884.646	20613
884.772	20518
884.897	20609
885.023	20689
885.148	20701
885.274	20670
885.399	20750
885.524	20617
885.65	20670
885.775	20568
885.9	20484
886.025	20514
886.15	20716
886.275	20552
886.4	20503
886.525	20526
886.65	20480
886.775	20560
886.9	20613
887.025	20697
887.149	20621
887.274	20454
887.399	20332
887.523	20336
887.648	20415
887.773	20252
887.897	20442
888.021	20358
888.146	20210
888.27	20385
888.395	20469
888.519	20408
888.643	20396
888.767	20339
888.891	20305
889.015	20347
889.139	20218
889.263	20092
889.387	20267
889.511	20229
889.635	20332
889.759	20054
889.883	20084
890.006	20218
890.13	20096
890.254	20153
890.377	20126
890.501	19871
890.624	19879
890.748	20035
890.871	19871
890.995	19689
891.118	19712
891.241	19909
891.364	19738
891.488	19830
891.611	19788
891.734	19643
891.857	19655
891.98	19731
892.103	19845
892.226	19727
892.349	19613
892.471	19518
892.594	19677
892.717	19731
892.839	19666
892.962	19613
893.085	19700
893.207	19635
893.33	19495
893.452	19537
893.575	19635
893.697	19639
893.819	19757
893.941	19807
894.064	19830
894.186	19544
894.308	19693
894.43	19731
894.552	19765
894.674	19811
894.796	19521
894.918	19468
895.04	19647
895.161	19757
895.283	19620
895.405	19601
895.526	19620
895.648	19628
895.769	19647
895.891	19719
896.012	19708
896.134	19845
896.255	19712
896.376	19693
896.498	19647
896.619	19731
896.74	19723
896.861	19696
896.982	19928
897.103	20096
897.224	19894
897.345	19955
897.466	19814
897.587	19925
897.708	19986
897.828	19879
897.949	19753
898.07	19658
898.19	19799
898.311	19963
898.431	19925
898.552	19856
898.672	19982
898.792	19970
898.913	19860
899.033	19765
899.153	19632
899.273	19499
899.393	19567
899.513	19746
899.633	19571
899.753	19662
899.873	19575
899.993	19651
900.113	19616
900.232	19586
900.352	19449
900.472	19491
900.591	19362
900.711	19434
900.83	19460
900.95	19563
901.069	19373
901.189	19343
901.308	19179
901.427	18916
901.546	18985
901.665	18920
901.784	19004
901.904	18848
902.023	18810
902.141	18646
902.26	18509
902.379	18623
902.498	18536
902.617	18460
902.735	18498
902.854	18547
902.973	18437
903.091	18220
903.21	18247
903.328	18262
903.446	18121
903.565	18041
903.683	18019
903.801	17904
903.919	18019
904.038	17939
904.156	17695
904.274	17855
904.392	17828
904.51	17718
904.627	17798
904.745	17832
904.863	17737
904.981	17558
905.098	17501
905.216	17387
905.334	17452
905.451	17387
905.569	17330
905.686	17649
905.803	17368
905.921	17181
906.038	17368
906.155	17235
906.272	17151
906.389	17105
906.506	16999
906.623	17045
906.74	16995
906.857	16927
906.974	16915
907.091	16976
907.208	17018
907.324	17022
907.441	16877
907.557	16713
907.674	16713
907.79	16675
907.907	16664
908.023	16748
908.139	16630
908.256	16618
908.372	16607
908.488	16630
908.604	16565
908.72	16405
908.836	16535
908.952	16329
909.068	16462
909.184	16573
909.3	16417
909.415	16443
909.531	16398
909.647	16131
909.762	16188
909.878	16135
909.993	16276
910.108	16120
910.224	16105
910.339	16032
910.454	16036
910.57	15975
910.685	15903
910.8	16219
910.915	16021
911.03	15972
911.145	15842
911.259	15793
911.374	15732
911.489	15751
911.604	15679
911.718	15469
911.833	15542
911.947	15500
912.062	15230
912.176	15496
912.291	15473
912.405	15492
912.519	15755
912.633	15759
912.748	15561
912.862	15443
912.976	15329
913.09	15237
913.204	15340
913.318	15325
913.431	15374
913.545	15443
913.659	15420
913.772	15249
913.886	15188
914	15070
914.113	15150
914.226	15226
914.34	15241
914.453	14963
914.566	15184
914.68	14982
914.793	15009
914.906	14864
915.019	14758
915.132	14720
915.245	14811
915.358	14739
915.47	14716
915.583	14754
915.696	14724
915.809	14857
915.921	14853
916.034	14644
916.146	14746
916.259	14590
916.371	14731
916.483	14769
916.595	14655
916.708	14629
916.82	14617
916.932	14495
917.044	14560
917.156	14381
917.268	14431
917.38	14385
917.491	14442
917.603	14400
917.715	14469
917.826	14484
917.938	14374
918.049	14309
918.161	14339
918.272	14511
918.384	14575
918.495	14358
918.606	14142
918.717	14153
918.828	14252
918.939	14176
919.05	14126
919.161	14164
919.272	13955
919.383	14008
919.494	14210
919.604	14442
919.715	14096
919.826	14031
919.936	13963
920.047	14153
920.157	14058
920.267	14324
920.378	14138
920.488	14111
920.598	14393
920.708	14457
920.818	14256
920.928	14320
921.038	14362
921.148	14385
921.258	14081
921.368	14020
921.477	13902
921.587	13898
921.697	13757
921.806	13860
921.916	13753
922.025	13628
922.134	13613
922.244	13472
922.353	13537
922.462	13430
922.571	13312
922.68	13202
922.789	13164
922.898	13270
923.007	13133
923.116	13331
923.224	13133
923.333	13091
923.442	13000
923.55	13034
923.659	13095
923.767	13137
923.876	13004
923.984	13107
924.092	12947
924.201	12989
924.309	12966
924.417	12947
924.525	12817
924.633	12901
924.741	13643
924.849	12726
924.956	12848
925.064	12646
925.172	12597
925.279	12627
925.387	12650
925.494	12677
925.602	12658
925.709	12669
925.816	12608
925.924	12597
926.031	12681
926.138	12585
926.245	12578
926.352	12418
926.459	12612
926.566	12616
926.673	12494
926.779	12380
926.886	12361
926.993	12201
927.099	12197
927.206	12205
927.312	12102
927.419	12247
927.525	12205
927.631	12296
927.737	12095
927.843	12106
927.95	11916
928.056	11961
928.162	12095
928.267	12102
928.373	12608
928.479	12129
928.585	11821
928.69	12053
928.796	11977
928.901	11920
929.007	11790
929.112	11878
929.218	11866
929.323	11885
929.428	11756
929.533	11851
929.638	11752
929.743	11665
929.848	11855
929.953	11714
930.058	11570
930.163	11467
930.267	11512
930.372	11634
930.477	11429
930.581	11672
930.685	11493
930.79	11360
930.894	11315
930.998	11322
931.103	11455
931.207	11071
931.311	11075
931.415	10923
931.519	10755
931.623	10660
