Data from test_V78500241_1499.txt Node
Date: Fri Mar 25 15:20:17 CST 2022
User: usil
Spectrometer: V785-0024
Trigger mode: 0
Integration Time (sec): 4.000000E-1
Scans to average: 1
Nonlinearity correction enabled: false
Boxcar width: 0
Storing dark spectrum: false
XAxis mode: Wavelengths
Number of Pixels in Spectrum: 1024
>>>>>Begin Spectral Data<<<<<
801.071	28215
801.214	27914
801.356	27854
801.499	27766
801.641	27671
801.783	27679
801.926	27717
802.068	27652
802.211	27606
802.353	27526
802.496	27325
802.638	27310
802.78	27226
802.923	27367
803.065	27298
803.208	27355
803.35	27344
803.492	27374
803.635	27542
803.777	27431
803.919	27504
804.061	27838
804.204	27720
804.346	27408
804.488	27466
804.63	27534
804.773	27439
804.915	27477
805.057	27610
805.199	27622
805.341	27637
805.483	27724
805.626	27698
805.768	27652
805.91	27545
806.052	27762
806.194	27481
806.336	27785
806.478	27739
806.62	27698
806.762	27713
806.904	27934
807.046	28177
807.188	28139
807.33	28166
807.472	28238
807.614	28021
807.756	28067
807.898	27892
808.04	28040
808.182	27914
808.324	28006
808.465	27937
808.607	28147
808.749	28413
808.891	28447
809.033	28519
809.174	28390
809.316	28310
809.458	28200
809.6	28287
809.741	28401
809.883	28489
810.025	28653
810.166	28626
810.308	28683
810.45	28577
810.591	28523
810.733	28390
810.875	28291
811.016	28223
811.158	28265
811.299	28386
811.441	28424
811.582	28447
811.724	28401
811.865	28314
812.007	28284
812.148	28333
812.29	28462
812.431	28489
812.573	28812
812.714	28843
812.855	28748
812.997	28854
813.138	29083
813.279	29060
813.421	28900
813.562	28949
813.703	28630
813.845	28428
813.986	28306
814.127	28299
814.268	28070
814.41	28105
814.551	27991
814.692	28131
814.833	28032
814.974	27960
815.115	28135
815.256	27937
815.397	28055
815.539	27914
815.68	27861
815.821	27770
815.962	28044
816.103	27816
816.244	27785
816.385	27591
816.526	27564
816.666	27340
816.807	27344
816.948	27359
817.089	27412
817.23	27370
817.371	27294
817.512	27245
817.653	27256
817.793	27260
817.934	27279
818.075	27389
818.216	27336
818.356	27348
818.497	27340
818.638	26883
818.778	26944
818.919	27089
819.06	27157
819.2	27192
819.341	27397
819.481	27439
819.622	27431
819.762	27671
819.903	27549
820.043	27427
820.184	27496
820.324	27401
820.465	27576
820.605	27450
820.746	27310
820.886	27199
821.026	27348
821.167	27386
821.307	27511
821.447	27386
821.588	27207
821.728	27138
821.868	26929
822.008	26777
822.149	26743
822.289	26746
822.429	26446
822.569	26511
822.709	26526
822.849	26385
822.99	26347
823.13	26339
823.27	26168
823.41	26202
823.55	26039
823.69	26046
823.83	26149
823.97	25989
824.11	25856
824.25	25769
824.389	25879
824.529	26001
824.669	26020
824.809	26081
824.949	26168
825.089	26001
825.228	26107
825.368	25890
825.508	25761
825.648	25757
825.787	25860
825.927	25795
826.067	25765
826.206	25776
826.346	25871
826.485	25772
826.625	25814
826.765	25864
826.904	25856
827.044	25613
827.183	25609
827.323	25556
827.462	25643
827.601	25620
827.741	25540
827.88	25559
828.02	25491
828.159	25540
828.298	25529
828.437	25521
828.577	25472
828.716	25613
828.855	25449
828.994	25263
829.134	25304
829.273	25354
829.412	25350
829.551	25137
829.69	25324
829.829	25301
829.968	25369
830.107	25304
830.246	25251
830.385	25164
830.524	25187
830.663	25027
830.802	25015
830.941	24935
831.08	24844
831.219	24920
831.357	25072
831.496	25141
831.635	24734
831.774	24848
831.913	24772
832.051	24768
832.19	24597
832.329	24631
832.467	24604
832.606	24433
832.744	24502
832.883	24551
833.022	24521
833.16	24505
833.299	24490
833.437	24521
833.576	24654
833.714	24612
833.852	24563
833.991	24525
834.129	24696
834.267	24719
834.406	24601
834.544	24547
834.682	24597
834.821	24601
834.959	24776
835.097	24578
835.235	24738
835.373	24612
835.511	24532
835.65	24445
835.788	24566
835.926	24308
836.064	24213
836.202	24391
836.34	24407
836.478	24475
836.615	24502
836.753	24201
836.891	24467
837.029	24395
837.167	24551
837.305	24330
837.443	24258
837.58	24239
837.718	24330
837.856	24216
837.993	24167
838.131	24178
838.269	24129
838.406	24144
838.544	23988
838.681	23855
838.819	23714
838.956	23646
839.094	23684
839.231	23714
839.369	23965
839.506	24091
839.643	23931
839.781	23714
839.918	23646
840.055	23752
840.193	23611
840.33	23615
840.467	23615
840.604	23611
840.742	23843
840.879	23463
841.016	23558
841.153	23482
841.29	23802
841.427	23592
841.564	23661
841.701	23493
841.838	23531
841.975	23558
842.112	23497
842.249	23379
842.385	23482
842.522	23501
842.659	23360
842.796	23353
842.933	23486
843.069	23330
843.206	23353
843.343	23379
843.479	23303
843.616	23383
843.752	23220
843.889	23261
844.025	23231
844.162	23185
844.298	23212
844.435	23102
844.571	23056
844.708	23166
844.844	23311
844.98	23315
845.117	23246
845.253	23105
845.389	23071
845.525	22942
845.661	23018
845.798	22801
845.934	22919
846.07	22831
846.206	22854
846.342	22877
846.478	22816
846.614	22706
846.75	22478
846.886	22542
847.022	22618
847.158	22664
847.294	22702
847.429	22717
847.565	22557
847.701	22869
847.837	22314
847.972	22306
848.108	22455
848.244	22557
848.379	22325
848.515	22284
848.65	22207
848.786	22185
848.921	22226
849.057	22318
849.192	22215
849.328	22303
849.463	22234
849.598	22147
849.734	22116
849.869	22051
850.004	21975
850.14	21979
850.275	21987
850.41	22021
850.545	21808
850.68	21880
850.815	22021
850.95	22002
851.085	22177
851.22	22070
851.355	22036
851.49	21998
851.625	21953
851.76	21869
851.895	21835
852.03	21842
852.165	22055
852.299	21972
852.434	22116
852.569	21975
852.703	21926
852.838	21979
852.973	22166
853.107	22078
853.242	21869
853.376	21869
853.511	21671
853.645	21797
853.78	21937
853.914	21789
854.048	21686
854.183	21743
854.317	21892
854.451	21922
854.585	21770
854.72	21698
854.854	21876
854.988	21717
855.122	21854
855.256	21648
855.39	21751
855.524	21861
855.658	21812
855.792	21793
855.926	21808
856.06	21876
856.194	21880
856.327	21778
856.461	21759
856.595	21728
856.729	21724
856.862	21895
856.996	21698
857.13	21823
857.263	21964
857.397	21926
857.53	21766
857.664	21686
857.797	21785
857.931	21892
858.064	21751
858.197	21869
858.331	21778
858.464	21720
858.597	21720
858.731	21778
858.864	21720
858.997	21701
859.13	21739
859.263	21880
859.396	21941
859.529	21698
859.662	21736
859.795	21728
859.928	21797
860.061	22105
860.194	22063
860.327	21812
860.46	21770
860.592	21831
860.725	21850
860.858	21903
860.99	21709
861.123	21720
861.256	21682
861.388	21755
861.521	22424
861.653	21576
861.786	21629
861.918	21549
862.05	21599
862.183	21747
862.315	21808
862.447	21637
862.58	21603
862.712	21473
862.844	21344
862.976	21462
863.108	21473
863.24	21960
863.372	21367
863.504	21420
863.636	21530
863.768	21595
863.9	21534
864.032	21431
864.164	21420
864.296	21576
864.428	21549
864.559	21504
864.691	21549
864.823	21507
864.954	21389
865.086	21504
865.217	21450
865.349	21348
865.48	21393
865.612	21393
865.743	21462
865.875	21428
866.006	21313
866.137	21363
866.269	21325
866.4	21420
866.531	21439
866.662	21241
866.793	21264
866.924	21264
867.055	21344
867.186	21275
867.317	21363
867.448	21279
867.579	21203
867.71	21203
867.841	21233
867.972	21161
868.103	21306
868.233	21241
868.364	21260
868.495	21374
868.625	21511
868.756	21736
868.886	21507
869.017	21492
869.147	21583
869.278	21629
869.408	21603
869.539	21557
869.669	21572
869.799	21591
869.929	21679
870.06	21671
870.19	21876
870.32	21762
870.45	21903
870.58	21831
870.71	21983
870.84	21987
870.97	21930
871.1	22032
871.23	22177
871.36	22173
871.489	22105
871.619	22097
871.749	22143
871.879	22162
872.008	22234
872.138	22048
872.267	22124
872.397	22029
872.526	21949
872.656	21861
872.785	21934
872.915	22181
873.044	22291
873.173	22158
873.303	22272
873.432	22226
873.561	22352
873.69	22055
873.819	22150
873.948	22200
874.077	22226
874.206	22105
874.335	22135
874.464	22173
874.593	22333
874.722	22329
874.851	22382
874.979	22421
875.108	22428
875.237	22333
875.365	22265
875.494	22375
875.623	22398
875.751	22333
875.88	22306
876.008	22436
876.136	22432
876.265	22759
876.393	22877
876.521	22820
876.65	22915
876.778	22843
876.906	22774
877.034	22771
877.162	22733
877.29	22763
877.418	22733
877.546	22767
877.674	22611
877.802	22622
877.93	22694
878.058	22710
878.185	22523
878.313	22679
878.441	22786
878.568	22516
878.696	22687
878.824	22744
878.951	22793
879.079	22755
879.206	22949
879.333	22923
879.461	22736
879.588	22767
879.715	22862
879.842	23018
879.97	22755
880.097	22565
880.224	22565
880.351	22626
880.478	22523
880.605	22527
880.732	22565
880.859	22801
880.986	22546
881.112	22485
881.239	22363
881.366	22363
881.493	22173
881.619	22109
881.746	22150
881.872	22109
881.999	22120
882.125	22135
882.252	22169
882.378	22097
882.505	22188
882.631	22010
882.757	21838
882.883	21812
883.01	21770
883.136	21747
883.262	21686
883.388	21679
883.514	21907
883.64	21873
883.766	21762
883.892	21549
884.018	21519
884.143	21675
884.269	21762
884.395	21443
884.52	21481
884.646	21435
884.772	21393
884.897	21382
885.023	21412
885.148	21447
885.274	21686
885.399	21477
885.524	21428
885.65	21416
885.775	21416
885.9	21439
886.025	21500
886.15	21519
886.275	21382
886.4	21420
886.525	21374
886.65	21306
886.775	21291
886.9	21477
887.025	21595
887.149	21477
887.274	21237
887.399	21230
887.523	21230
887.648	21108
887.773	21096
887.897	21336
888.021	21138
888.146	21077
888.27	21237
888.395	21184
888.519	21150
888.643	21207
888.767	21192
888.891	21093
889.015	20944
889.139	21135
889.263	20994
889.387	21043
889.511	21176
889.635	21108
889.759	21055
889.883	20937
890.006	21013
890.13	21070
890.254	20883
890.377	20994
890.501	20819
890.624	20625
890.748	20800
890.871	20587
890.995	20552
891.118	20511
891.241	20632
891.364	20537
891.488	20617
891.611	20571
891.734	20465
891.857	20651
891.98	20568
892.103	20522
892.226	20556
892.349	20415
892.471	20298
892.594	20488
892.717	20556
892.839	20446
892.962	20438
893.085	20465
893.207	20583
893.33	20385
893.452	20362
893.575	20419
893.697	20370
893.819	20564
893.941	20693
894.064	20621
894.186	20370
894.308	20263
894.43	20560
894.552	20434
894.674	20492
894.796	20339
894.918	20328
895.04	20374
895.161	20454
895.283	20473
895.405	20294
895.526	20400
895.648	20454
895.769	20446
895.891	20423
896.012	20469
896.134	20530
896.255	20450
896.376	20419
896.498	20438
896.619	20484
896.74	20431
896.861	20503
896.982	20868
897.103	20746
897.224	20598
897.345	20598
897.466	20587
897.587	20686
897.708	20792
897.828	20678
897.949	20670
898.07	20404
898.19	20571
898.311	20705
898.431	20579
898.552	20606
898.672	20632
898.792	20564
898.913	20663
899.033	20511
899.153	20396
899.273	20290
899.393	20396
899.513	20408
899.633	20408
899.753	20427
899.873	20412
899.993	20358
900.113	20290
900.232	20355
900.352	20313
900.472	20248
900.591	20168
900.711	20168
900.83	20130
900.95	20111
901.069	20320
901.189	20073
901.308	19811
901.427	19757
901.546	19715
901.665	19662
901.784	19723
901.904	19499
902.023	19586
902.141	19289
902.26	19327
902.379	19381
902.498	19194
902.617	19255
902.735	19274
902.854	19225
902.973	19129
903.091	18928
903.21	18981
903.328	18954
903.446	18848
903.565	18753
903.683	18677
903.801	18623
903.919	18795
904.038	18661
904.156	18521
904.274	18471
904.392	18365
904.51	18464
904.627	18475
904.745	18357
904.863	18498
904.981	18285
905.098	18197
905.216	18144
905.334	18106
905.451	18174
905.569	18228
905.686	18197
905.803	18106
905.921	17851
906.038	17931
906.155	17988
906.272	17824
906.389	17836
906.506	17642
906.623	17668
906.74	17668
906.857	17516
906.974	17619
907.091	17752
907.208	17764
907.324	17771
907.441	17604
907.557	17334
907.674	17391
907.79	17379
907.907	17353
908.023	17429
908.139	17395
908.256	17353
908.372	17220
908.488	17254
908.604	17117
908.72	17079
908.836	17121
908.952	17155
909.068	17064
909.184	17239
909.3	17033
909.415	17193
909.531	17143
909.647	16835
909.762	16812
909.878	16828
909.993	16729
910.108	16793
910.224	16748
910.339	16812
910.454	16618
910.57	16660
910.685	16580
910.8	16771
910.915	16816
911.03	16672
911.145	16386
911.259	16409
911.374	16443
911.489	16325
911.604	16314
911.718	16097
911.833	16200
911.947	16154
912.062	16078
912.176	16116
912.291	16090
912.405	16120
912.519	16306
912.633	16303
912.748	16207
912.862	16120
912.976	15926
913.09	15793
913.204	15949
913.318	15907
913.431	16010
913.545	16017
913.659	16067
913.772	15892
913.886	15857
914	15671
914.113	15838
914.226	15861
914.34	15816
914.453	15663
914.566	15739
914.68	15629
914.793	15663
914.906	15466
915.019	15359
915.132	15302
915.245	15317
915.358	15450
915.47	15306
915.583	15363
915.696	15405
915.809	15515
915.921	15530
916.034	15272
916.146	15268
916.259	15211
916.371	15374
916.483	15226
916.595	15184
916.708	15131
916.82	15245
916.932	15313
917.044	15127
917.156	15112
917.268	15028
917.38	15036
917.491	15047
917.603	15020
917.715	15017
917.826	15032
917.938	14906
918.049	14788
918.161	14914
918.272	14998
918.384	15017
918.495	14807
918.606	14842
918.717	14693
918.828	14701
918.939	14769
919.05	14693
919.161	14724
919.272	14457
919.383	14579
919.494	14769
919.604	14895
919.715	14781
919.826	14674
919.936	14727
920.047	14830
920.157	14674
920.267	14899
920.378	14655
920.488	14571
920.598	14838
920.708	15020
920.818	14800
920.928	14864
921.038	14956
921.148	15001
921.258	14632
921.368	14514
921.477	14438
921.587	14511
921.697	14244
921.806	14442
921.916	14298
922.025	14138
922.134	14050
922.244	14027
922.353	14111
922.462	13963
922.571	13890
922.68	13700
922.789	13658
922.898	13715
923.007	13719
923.116	13753
923.224	13624
923.333	13700
923.442	13540
923.55	13613
923.659	13590
923.767	13613
923.876	13499
923.984	13578
924.092	13457
924.201	13499
924.309	13396
924.417	13468
924.525	13365
924.633	13460
924.741	14092
924.849	13122
924.956	13263
925.064	13110
925.172	13069
925.279	13091
925.387	13179
925.494	13038
925.602	13206
925.709	13114
925.816	12993
925.924	13050
926.031	13156
926.138	13015
926.245	13126
926.352	13019
926.459	13004
926.566	13061
926.673	13027
926.779	12817
926.886	12848
926.993	12608
927.099	12688
927.206	12650
927.312	12593
927.419	12779
927.525	12612
927.631	12798
927.737	12681
927.843	12570
927.95	12369
928.056	12445
928.162	12547
928.267	12620
928.373	13126
928.479	12521
928.585	12361
928.69	12426
928.796	12464
928.901	12365
929.007	12152
929.112	12369
929.218	12281
929.323	12190
929.428	12228
929.533	12311
929.638	12129
929.743	12125
929.848	12289
929.953	12159
930.058	12068
930.163	11939
930.267	11855
930.372	12049
930.477	11866
930.581	12083
930.685	11977
930.79	11714
930.894	11824
930.998	11767
931.103	11908
931.207	11547
931.311	11478
931.415	11330
931.519	11185
931.623	11140
