Data from test_V78500241_1647.txt Node
Date: Fri Mar 25 15:21:19 CST 2022
User: usil
Spectrometer: V785-0024
Trigger mode: 0
Integration Time (sec): 4.000000E-1
Scans to average: 1
Nonlinearity correction enabled: false
Boxcar width: 0
Storing dark spectrum: false
XAxis mode: Wavelengths
Number of Pixels in Spectrum: 1024
>>>>>Begin Spectral Data<<<<<
801.071	27876
801.214	27907
801.356	27496
801.499	27561
801.641	27439
801.783	27336
801.926	27462
802.068	27439
802.211	27367
802.353	27188
802.496	27058
802.638	26982
802.78	26952
802.923	27036
803.065	26937
803.208	26929
803.35	27036
803.492	27218
803.635	27199
803.777	26994
803.919	27192
804.061	27561
804.204	27291
804.346	27310
804.488	27108
804.63	27203
804.773	27100
804.915	27150
805.057	27397
805.199	27192
805.341	27348
805.483	27359
805.626	27245
805.768	27252
805.91	27325
806.052	27408
806.194	27329
806.336	27458
806.478	27519
806.62	27332
806.762	27401
806.904	27644
807.046	27937
807.188	27888
807.33	27736
807.472	27880
807.614	27793
807.756	27854
807.898	27663
808.04	27587
808.182	27595
808.324	27637
808.465	27682
808.607	27895
808.749	27987
808.891	27991
809.033	28109
809.174	28082
809.316	27838
809.458	27907
809.6	27922
809.741	28036
809.883	28124
810.025	28314
810.166	28363
810.308	28131
810.45	28147
810.591	28055
810.733	27941
810.875	28006
811.016	27835
811.158	27789
811.299	27922
811.441	28188
811.582	28128
811.724	27998
811.865	27876
812.007	27880
812.148	27857
812.29	28006
812.431	28272
812.573	28413
812.714	28451
812.855	28481
812.997	28599
813.138	28778
813.279	28713
813.421	28516
813.562	28485
813.703	28261
813.845	28242
813.986	27911
814.127	27736
814.268	27656
814.41	27667
814.551	27572
814.692	27728
814.833	27656
814.974	27652
815.115	27648
815.256	27466
815.397	27564
815.539	27545
815.68	27405
815.821	27355
815.962	27496
816.103	27458
816.244	27230
816.385	27336
816.526	27123
816.666	27119
816.807	26861
816.948	26990
817.089	27028
817.23	26975
817.371	27017
817.512	26842
817.653	26880
817.793	26861
817.934	26902
818.075	27001
818.216	27032
818.356	26933
818.497	26731
818.638	26613
818.778	26670
818.919	26880
819.06	26739
819.2	26777
819.341	26948
819.481	26910
819.622	26982
819.762	27317
819.903	27294
820.043	27161
820.184	27074
820.324	27043
820.465	27009
820.605	27005
820.746	27020
820.886	26986
821.026	26963
821.167	26933
821.307	27066
821.447	26948
821.588	26750
821.728	26655
821.868	26533
822.008	26457
822.149	26621
822.289	26457
822.429	26282
822.569	26073
822.709	25966
822.849	25864
822.99	25986
823.13	25841
823.27	25883
823.41	25795
823.55	25757
823.69	25666
823.83	25830
823.97	25769
824.11	25567
824.25	25586
824.389	25628
824.529	25647
824.669	25651
824.809	25727
824.949	25738
825.089	25685
825.228	25605
825.368	25426
825.508	25343
825.648	25544
825.787	25426
825.927	25552
826.067	25403
826.206	25438
826.346	25597
826.485	25419
826.625	25449
826.765	25548
826.904	25472
827.044	25190
827.183	25206
827.323	25114
827.462	25175
827.601	25202
827.741	25148
827.88	25114
828.02	25080
828.159	25019
828.298	25099
828.437	25187
828.577	25065
828.716	25320
828.855	25038
828.994	24894
829.134	24886
829.273	24875
829.412	24867
829.551	24878
829.69	24837
829.829	24894
829.968	25034
830.107	25057
830.246	24791
830.385	24764
830.524	24848
830.663	24791
830.802	24551
830.941	24544
831.08	24441
831.219	24490
831.357	24403
831.496	24631
831.635	24475
831.774	24296
831.913	24323
832.051	24289
832.19	24091
832.329	24262
832.467	24155
832.606	23999
832.744	24155
832.883	24190
833.022	24060
833.16	24068
833.299	24076
833.437	24125
833.576	24262
833.714	24053
833.852	24361
833.991	24140
834.129	24384
834.267	24270
834.406	24205
834.544	24213
834.682	24277
834.821	24171
834.959	24403
835.097	24209
835.235	24365
835.373	24140
835.511	24273
835.65	24136
835.788	23984
835.926	23901
836.064	23958
836.202	23756
836.34	24102
836.478	24034
836.615	23927
836.753	24060
836.891	24049
837.029	24007
837.167	23984
837.305	23958
837.443	23950
837.58	23832
837.718	23950
837.856	23901
837.993	23809
838.131	23904
838.269	23699
838.406	23794
838.544	23752
838.681	23562
838.819	23581
838.956	23459
839.094	23353
839.231	23307
839.369	23455
839.506	23638
839.643	23608
839.781	23345
839.918	23368
840.055	23414
840.193	23299
840.33	23284
840.467	23231
840.604	23223
840.742	23535
840.879	23102
841.016	23261
841.153	23193
841.29	23356
841.427	23254
841.564	23345
841.701	23258
841.838	23246
841.975	23117
842.112	23132
842.249	22942
842.385	22961
842.522	23159
842.659	23064
842.796	22930
842.933	23132
843.069	22972
843.206	22972
843.343	23033
843.479	23064
843.616	22991
843.752	22824
843.889	22797
844.025	23010
844.162	22767
844.298	22774
844.435	22778
844.571	22733
844.708	22824
844.844	22919
844.98	22835
845.117	22869
845.253	22702
845.389	22752
845.525	22634
845.661	22626
845.798	22512
845.934	22531
846.07	22462
846.206	22489
846.342	22683
846.478	22417
846.614	22337
846.75	22177
846.886	22249
847.022	22348
847.158	22360
847.294	22348
847.429	22382
847.565	22234
847.701	22561
847.837	21983
847.972	21876
848.108	22063
848.244	21975
848.379	21865
848.515	21865
848.65	21899
848.786	21892
848.921	21968
849.057	21953
849.192	21895
849.328	21876
849.463	21842
849.598	21842
849.734	21835
849.869	21736
850.004	21667
850.14	21701
850.275	21629
850.41	21542
850.545	21542
850.68	21530
850.815	21580
850.95	21606
851.085	21713
851.22	21743
851.355	21622
851.49	21583
851.625	21660
851.76	21492
851.895	21530
852.03	21526
852.165	21618
852.299	21686
852.434	21724
852.569	21663
852.703	21633
852.838	21739
852.973	21831
853.107	21701
853.242	21660
853.376	21564
853.511	21397
853.645	21367
853.78	21557
853.914	21428
854.048	21325
854.183	21466
854.317	21473
854.451	21629
854.585	21424
854.72	21431
854.854	21580
854.988	21454
855.122	21466
855.256	21275
855.39	21439
855.524	21458
855.658	21591
855.792	21424
855.926	21538
856.06	21454
856.194	21534
856.327	21321
856.461	21431
856.595	21401
856.729	21420
856.862	21496
856.996	21424
857.13	21545
857.263	21507
857.397	21568
857.53	21500
857.664	21564
857.797	21485
857.931	21652
858.064	21454
858.197	21591
858.331	21386
858.464	21447
858.597	21542
858.731	21416
858.864	21310
858.997	21332
859.13	21424
859.263	21382
859.396	21564
859.529	21405
859.662	21523
859.795	21370
859.928	21481
860.061	21599
860.194	21709
860.327	21447
860.46	21523
860.592	21534
860.725	21648
860.858	21523
860.99	21526
861.123	21408
861.256	21469
861.388	21420
861.521	22177
861.653	21313
861.786	21252
861.918	21161
862.05	21344
862.183	21466
862.315	21344
862.447	21538
862.58	21283
862.712	21275
862.844	21001
862.976	21256
863.108	21291
863.24	21526
863.372	21119
863.504	21317
863.636	21138
863.768	21135
863.9	21199
864.032	21062
864.164	21077
864.296	21119
864.428	21306
864.559	21165
864.691	21256
864.823	21272
864.954	21150
865.086	21123
865.217	20990
865.349	21039
865.48	21036
865.612	21051
865.743	21108
865.875	21020
866.006	21009
866.137	21096
866.269	20956
866.4	21013
866.531	21028
866.662	20906
866.793	20971
866.924	20975
867.055	21066
867.186	20918
867.317	21005
867.448	21032
867.579	20883
867.71	20792
867.841	20823
867.972	21013
868.103	20921
868.233	20975
868.364	21036
868.495	21055
868.625	21226
868.756	21389
868.886	21169
869.017	21241
869.147	21363
869.278	21420
869.408	21211
869.539	21188
869.669	21374
869.799	21351
869.929	21302
870.06	21348
870.19	21488
870.32	21450
870.45	21538
870.58	21637
870.71	21694
870.84	21747
870.97	21652
871.1	21614
871.23	21641
871.36	21854
871.489	21686
871.619	21660
871.749	21808
871.879	21873
872.008	21922
872.138	21785
872.267	21903
872.397	21595
872.526	21720
872.656	21652
872.785	21656
872.915	21880
873.044	21964
873.173	21895
873.303	21888
873.432	21838
873.561	21983
873.69	21991
873.819	21793
873.948	21831
874.077	21732
874.206	21759
874.335	21915
874.464	21808
874.593	22021
874.722	21972
874.851	22044
874.979	21983
875.108	22120
875.237	22025
875.365	21972
875.494	22025
875.623	22078
875.751	21922
875.88	22029
876.008	22109
876.136	22261
876.265	22561
876.393	22596
876.521	22577
876.65	22607
876.778	22356
876.906	22443
877.034	22318
877.162	22390
877.29	22204
877.418	22329
877.546	22363
877.674	22451
877.802	22405
877.93	22337
878.058	22447
878.185	22303
878.313	22246
878.441	22554
878.568	22226
878.696	22322
878.824	22352
878.951	22504
879.079	22592
879.206	22660
879.333	22527
879.461	22478
879.588	22592
879.715	22565
879.842	22668
879.97	22333
880.097	22276
880.224	22128
880.351	22303
880.478	22230
880.605	22158
880.732	22207
880.859	22459
880.986	22219
881.112	22261
881.239	22192
881.366	21884
881.493	21876
881.619	21819
881.746	21915
881.872	21876
881.999	21812
882.125	21823
882.252	21869
882.378	21823
882.505	21854
882.631	21610
882.757	21591
882.883	21587
883.01	21580
883.136	21477
883.262	21447
883.388	21226
883.514	21416
883.64	21450
883.766	21401
883.892	21237
884.018	21264
884.143	21481
884.269	21530
884.395	21195
884.52	21180
884.646	21211
884.772	21032
884.897	21032
885.023	21218
885.148	21359
885.274	21310
885.399	21211
885.524	21157
885.65	21146
885.775	21157
885.9	21180
886.025	21237
886.15	21226
886.275	21112
886.4	21093
886.525	21077
886.65	21112
886.775	21077
886.9	21214
887.025	21313
887.149	21108
887.274	20971
887.399	20941
887.523	20895
887.648	20804
887.773	20670
887.897	20834
888.021	21001
888.146	20750
888.27	20941
888.395	21028
888.519	20876
888.643	20986
888.767	21093
888.891	20708
889.015	20678
889.139	20777
889.263	20583
889.387	20777
889.511	20792
889.635	20727
889.759	20609
889.883	20651
890.006	20663
890.13	20773
890.254	20613
890.377	20549
890.501	20492
890.624	20480
890.748	20465
890.871	20328
890.995	20267
891.118	20191
891.241	20248
891.364	20317
891.488	20351
891.611	20172
891.734	20317
891.857	20248
891.98	20412
892.103	20298
892.226	20240
892.349	20149
892.471	20058
892.594	20233
892.717	20218
892.839	20183
892.962	20195
893.085	20210
893.207	20161
893.33	20084
893.452	20134
893.575	20164
893.697	20115
893.819	20237
893.941	20240
894.064	20294
894.186	20130
894.308	20008
894.43	20370
894.552	20263
894.674	20191
894.796	20100
894.918	20195
895.04	20005
895.161	20294
895.283	20225
895.405	20084
895.526	20073
895.648	20191
895.769	20142
895.891	20100
896.012	20206
896.134	20210
896.255	20240
896.376	20191
896.498	20126
896.619	20195
896.74	20244
896.861	20126
896.982	20492
897.103	20621
897.224	20454
897.345	20389
897.466	20237
897.587	20324
897.708	20575
897.828	20438
897.949	20313
898.07	20126
898.19	20271
898.311	20560
898.431	20282
898.552	20488
898.672	20423
898.792	20530
898.913	20377
899.033	20339
899.153	20168
899.273	20180
899.393	20081
899.513	20058
899.633	20088
899.753	20122
899.873	20073
899.993	20206
900.113	20149
900.232	20058
900.352	20065
900.472	20088
900.591	19955
900.711	19856
900.83	19807
900.95	20062
901.069	20001
901.189	19738
901.308	19559
901.427	19525
901.546	19559
901.665	19354
901.784	19464
901.904	19407
902.023	19228
902.141	19050
902.26	19076
902.379	19133
902.498	19008
902.617	19072
902.735	19012
902.854	19008
902.973	18924
903.091	18589
903.21	18745
903.328	18688
903.446	18525
903.565	18540
903.683	18532
903.801	18270
903.919	18456
904.038	18353
904.156	18285
904.274	18300
904.392	18174
904.51	18159
904.627	18182
904.745	18266
904.863	18357
904.981	18045
905.098	17954
905.216	17908
905.334	17878
905.451	17786
905.569	17946
905.686	17969
905.803	17923
905.921	17687
906.038	17824
906.155	17653
906.272	17577
906.389	17589
906.506	17440
906.623	17425
906.74	17436
906.857	17315
906.974	17269
907.091	17406
907.208	17619
907.324	17433
907.441	17341
907.557	17124
907.674	17166
907.79	17094
907.907	17102
908.023	17083
908.139	17086
908.256	17075
908.372	16995
908.488	16987
908.604	16877
908.72	16820
908.836	16968
908.952	16911
909.068	16881
909.184	16919
909.3	16915
909.415	16889
909.531	16843
909.647	16618
909.762	16592
909.878	16611
909.993	16565
910.108	16538
910.224	16504
910.339	16500
910.454	16440
910.57	16428
910.685	16284
910.8	16580
910.915	16538
911.03	16306
911.145	16185
911.259	16223
911.374	16238
911.489	16124
911.604	16017
911.718	15945
911.833	15960
911.947	15720
912.062	15755
912.176	15934
912.291	15892
912.405	15797
912.519	16017
912.633	16082
912.748	15994
912.862	15808
912.976	15705
913.09	15694
913.204	15793
913.318	15793
913.431	15838
913.545	15747
913.659	15785
913.772	15686
913.886	15614
914	15542
914.113	15637
914.226	15671
914.34	15641
914.453	15515
914.566	15557
914.68	15454
914.793	15504
914.906	15222
915.019	15192
915.132	15097
915.245	15131
915.358	15207
915.47	15062
915.583	15188
915.696	15176
915.809	15275
915.921	15245
916.034	15055
916.146	15028
916.259	15017
916.371	15116
916.483	15100
916.595	15070
916.708	15032
916.82	15032
916.932	14895
917.044	14887
917.156	14967
917.268	14800
917.38	14887
917.491	14720
917.603	14777
917.715	14883
917.826	14910
917.938	14773
918.049	14697
918.161	14754
918.272	14823
918.384	14880
918.495	14754
918.606	14522
918.717	14499
918.828	14537
918.939	14594
919.05	14454
919.161	14492
919.272	14290
919.383	14351
919.494	14545
919.604	14777
919.715	14526
919.826	14419
919.936	14457
920.047	14568
920.157	14446
920.267	14731
920.378	14473
920.488	14446
920.598	14667
920.708	14769
920.818	14560
920.928	14651
921.038	14796
921.148	14746
921.258	14514
921.368	14400
921.477	14271
921.587	14225
921.697	14202
921.806	14221
921.916	14088
922.025	13875
922.134	13883
922.244	13917
922.353	13913
922.462	13830
922.571	13696
922.68	13552
922.789	13605
922.898	13434
923.007	13491
923.116	13533
923.224	13552
923.333	13567
923.442	13460
923.55	13407
923.659	13419
923.767	13457
923.876	13388
923.984	13365
924.092	13247
924.201	13297
924.309	13331
924.417	13240
924.525	13251
924.633	13270
924.741	14096
924.849	12993
924.956	13129
925.064	12939
925.172	12856
925.279	12973
925.387	12909
925.494	13008
925.602	13053
925.709	12962
925.816	12833
925.924	12981
926.031	13031
926.138	12798
926.245	12939
926.352	12825
926.459	12875
926.566	12920
926.673	12814
926.779	12768
926.886	12707
926.993	12623
927.099	12521
927.206	12483
927.312	12410
927.419	12547
927.525	12456
927.631	12536
927.737	12464
927.843	12388
927.95	12197
928.056	12372
928.162	12258
928.267	12369
928.373	12985
928.479	12376
928.585	12167
928.69	12277
928.796	12395
928.901	12163
929.007	12060
929.112	12114
929.218	12136
929.323	12030
929.428	12117
929.533	12182
929.638	12087
929.743	12007
929.848	12098
929.953	12053
930.058	11973
930.163	11688
930.267	11836
930.372	11942
930.477	11794
930.581	11980
930.685	11798
930.79	11573
930.894	11627
930.998	11547
931.103	11676
931.207	11448
931.311	11360
931.415	11208
931.519	10991
931.623	10987
