Data from test_V78500241_3301.txt Node
Date: Fri Mar 25 15:32:50 CST 2022
User: usil
Spectrometer: V785-0024
Trigger mode: 0
Integration Time (sec): 4.000000E-1
Scans to average: 1
Nonlinearity correction enabled: false
Boxcar width: 0
Storing dark spectrum: false
XAxis mode: Wavelengths
Number of Pixels in Spectrum: 1024
>>>>>Begin Spectral Data<<<<<
801.071	26921
801.214	27154
801.356	26834
801.499	26617
801.641	26617
801.783	26575
801.926	26686
802.068	26617
802.211	26632
802.353	26446
802.496	26514
802.638	26324
802.78	26328
802.923	26183
803.065	26210
803.208	26191
803.35	26355
803.492	26328
803.635	26370
803.777	26229
803.919	26465
804.061	26667
804.204	26545
804.346	26362
804.488	26282
804.63	26503
804.773	26298
804.915	26423
805.057	26453
805.199	26324
805.341	26469
805.483	26431
805.626	26419
805.768	26298
805.91	26473
806.052	26503
806.194	26389
806.336	26564
806.478	26503
806.62	26419
806.762	26571
806.904	26895
807.046	27055
807.188	26826
807.33	26861
807.472	26906
807.614	26887
807.756	27074
807.898	26765
808.04	26735
808.182	26651
808.324	26701
808.465	26648
808.607	26883
808.749	27032
808.891	27112
809.033	27321
809.174	27146
809.316	27077
809.458	27055
809.6	26982
809.741	27192
809.883	27135
810.025	27412
810.166	27241
810.308	27298
810.45	27245
810.591	27302
810.733	27150
810.875	27047
811.016	26952
811.158	26990
811.299	27226
811.441	27344
811.582	27207
811.724	27123
811.865	27165
812.007	27032
812.148	26864
812.29	26986
812.431	27161
812.573	27447
812.714	27519
812.855	27462
812.997	27435
813.138	27770
813.279	27698
813.421	27701
813.562	27545
813.703	27313
813.845	27336
813.986	26967
814.127	26800
814.268	26788
814.41	26758
814.551	26727
814.692	26853
814.833	26644
814.974	26507
815.115	26705
815.256	26453
815.397	26522
815.539	26564
815.68	26541
815.821	26427
815.962	26568
816.103	26343
816.244	26355
816.385	26164
816.526	26282
816.666	26058
816.807	26012
816.948	26065
817.089	26164
817.23	25955
817.371	25963
817.512	25997
817.653	25974
817.793	25803
817.934	25944
818.075	25982
818.216	25936
818.356	26027
818.497	25818
818.638	25597
818.778	25799
818.919	25746
819.06	25788
819.2	25898
819.341	25890
819.481	25989
819.622	26145
819.762	26332
819.903	26214
820.043	26259
820.184	26161
820.324	26149
820.465	26130
820.605	26107
820.746	25963
820.886	25932
821.026	26012
821.167	26050
821.307	26088
821.447	25936
821.588	25841
821.728	25681
821.868	25548
822.008	25400
822.149	25457
822.289	25407
822.429	25126
822.569	25080
822.709	25114
822.849	25031
822.99	24973
823.13	24863
823.27	24924
823.41	24700
823.55	24719
823.69	24711
823.83	24726
823.97	24654
824.11	24589
824.25	24429
824.389	24620
824.529	24650
824.669	24582
824.809	24646
824.949	24635
825.089	24665
825.228	24604
825.368	24418
825.508	24452
825.648	24399
825.787	24490
825.927	24555
826.067	24391
826.206	24475
826.346	24505
826.485	24471
826.625	24342
826.765	24540
826.904	24486
827.044	24300
827.183	24190
827.323	24140
827.462	24209
827.601	24144
827.741	24087
827.88	24258
828.02	23904
828.159	24197
828.298	24129
828.437	24266
828.577	24038
828.716	24174
828.855	24011
828.994	23783
829.134	23824
829.273	23973
829.412	23710
829.551	23897
829.69	23920
829.829	24038
829.968	23950
830.107	23836
830.246	23847
830.385	23775
830.524	23786
830.663	23665
830.802	23615
830.941	23493
831.08	23425
831.219	23623
831.357	23543
831.496	23726
831.635	23531
831.774	23395
831.913	23410
832.051	23254
832.19	23151
832.329	23318
832.467	23067
832.606	23090
832.744	23113
832.883	23204
833.022	23128
833.16	23117
833.299	23204
833.437	23162
833.576	23261
833.714	23102
833.852	23292
833.991	23372
834.129	23387
834.267	23318
834.406	23223
834.544	23258
834.682	23162
834.821	23185
834.959	23535
835.097	23208
835.235	23322
835.373	23318
835.511	23258
835.65	23094
835.788	23079
835.926	22946
836.064	22885
836.202	22961
836.34	23090
836.478	23185
836.615	22904
836.753	23151
836.891	23136
837.029	23128
837.167	23037
837.305	22881
837.443	22900
837.58	23014
837.718	22949
837.856	22869
837.993	22835
838.131	23033
838.269	22736
838.406	22900
838.544	22786
838.681	22672
838.819	22588
838.956	22557
839.094	22344
839.231	22459
839.369	22645
839.506	22755
839.643	22664
839.781	22367
839.918	22303
840.055	22394
840.193	22432
840.33	22398
840.467	22325
840.604	22519
840.742	22672
840.879	22325
841.016	22306
841.153	22261
841.29	22344
841.427	22379
841.564	22413
841.701	22360
841.838	22287
841.975	22356
842.112	22360
842.249	22112
842.385	22154
842.522	22379
842.659	22192
842.796	22154
842.933	22063
843.069	22051
843.206	22017
843.343	22211
843.479	22147
843.616	22135
843.752	21911
843.889	21922
844.025	22025
844.162	21930
844.298	21972
844.435	21846
844.571	21762
844.708	21785
844.844	22090
844.98	22093
845.117	21945
845.253	21865
845.389	21698
845.525	21846
845.661	21747
845.798	21564
845.934	21671
846.07	21583
846.206	21614
846.342	21739
846.478	21572
846.614	21488
846.75	21420
846.886	21412
847.022	21504
847.158	21557
847.294	21382
847.429	21481
847.565	21424
847.701	21515
847.837	21146
847.972	20994
848.108	21184
848.244	21116
848.379	20971
848.515	21005
848.65	20998
848.786	20952
848.921	21036
849.057	21028
849.192	20971
849.328	20933
849.463	20914
849.598	20990
849.734	20819
849.869	20880
850.004	20659
850.14	20842
850.275	20720
850.41	20590
850.545	20693
850.68	20785
850.815	20712
850.95	20621
851.085	20834
851.22	20838
851.355	20655
851.49	20667
851.625	20667
851.76	20735
851.895	20701
852.03	20659
852.165	20735
852.299	20648
852.434	20792
852.569	20807
852.703	20750
852.838	20796
852.973	20823
853.107	20864
853.242	20716
853.376	20712
853.511	20473
853.645	20541
853.78	20708
853.914	20659
854.048	20583
854.183	20590
854.317	20640
854.451	20758
854.585	20549
854.72	20545
854.854	20583
854.988	20446
855.122	20625
855.256	20393
855.39	20568
855.524	20678
855.658	20541
855.792	20583
855.926	20655
856.06	20621
856.194	20579
856.327	20598
856.461	20450
856.595	20560
856.729	20579
856.862	20609
856.996	20648
857.13	20518
857.263	20648
857.397	20663
857.53	20511
857.664	20617
857.797	20636
857.931	20644
858.064	20625
858.197	20613
858.331	20674
858.464	20617
858.597	20381
858.731	20568
858.864	20579
858.997	20606
859.13	20526
859.263	20537
859.396	20598
859.529	20583
859.662	20549
859.795	20480
859.928	20488
860.061	20705
860.194	20777
860.327	20655
860.46	20552
860.592	20629
860.725	20670
860.858	20773
860.99	20571
861.123	20415
861.256	20404
861.388	20575
861.521	21150
861.653	20396
861.786	20301
861.918	20404
862.05	20473
862.183	20480
862.315	20629
862.447	20526
862.58	20381
862.712	20278
862.844	20309
862.976	20454
863.108	20336
863.24	20769
863.372	20206
863.504	20313
863.636	20206
863.768	20317
863.9	20320
864.032	20100
864.164	20298
864.296	20252
864.428	20347
864.559	20442
864.691	20324
864.823	20233
864.954	20328
865.086	20248
865.217	20259
865.349	20248
865.48	20180
865.612	20176
865.743	20206
865.875	20172
866.006	20214
866.137	20164
866.269	20130
866.4	20157
866.531	20164
866.662	20176
866.793	19963
866.924	20084
867.055	20157
867.186	20214
867.317	20050
867.448	20077
867.579	20138
867.71	20142
867.841	19982
867.972	20046
868.103	20153
868.233	20077
868.364	20092
868.495	20301
868.625	20480
868.756	20419
868.886	20400
869.017	20237
869.147	20412
869.278	20473
869.408	20286
869.539	20377
869.669	20438
869.799	20431
869.929	20545
870.06	20473
870.19	20689
870.32	20670
870.45	20746
870.58	20800
870.71	20800
870.84	20918
870.97	20739
871.1	20705
871.23	20906
871.36	20895
871.489	20872
871.619	20963
871.749	20990
871.879	20990
872.008	20998
872.138	21055
872.267	21001
872.397	20876
872.526	20762
872.656	20823
872.785	20746
872.915	21005
873.044	21142
873.173	20979
873.303	20975
873.432	21028
873.561	21081
873.69	20960
873.819	20891
873.948	21001
874.077	21032
874.206	20921
874.335	21096
874.464	21142
874.593	21203
874.722	21176
874.851	21241
874.979	21222
875.108	21302
875.237	21321
875.365	21184
875.494	21279
875.623	21294
875.751	21138
875.88	21211
876.008	21405
876.136	21431
876.265	21720
876.393	21625
876.521	21641
876.65	21831
876.778	21637
876.906	21660
877.034	21682
877.162	21530
877.29	21542
877.418	21572
877.546	21705
877.674	21591
877.802	21538
877.93	21515
878.058	21557
878.185	21469
878.313	21496
878.441	21469
878.568	21367
878.696	21496
878.824	21469
878.951	21724
879.079	21804
879.206	21888
879.333	21720
879.461	21553
879.588	21641
879.715	21656
879.842	21804
879.97	21705
880.097	21481
880.224	21428
880.351	21523
880.478	21511
880.605	21374
880.732	21389
880.859	21519
880.986	21336
881.112	21435
881.239	21260
881.366	21268
881.493	21074
881.619	21055
881.746	21077
881.872	20990
881.999	20895
882.125	20845
882.252	21055
882.378	20956
882.505	21108
882.631	20982
882.757	20800
882.883	20807
883.01	20686
883.136	20625
883.262	20625
883.388	20541
883.514	20716
883.64	20705
883.766	20579
883.892	20609
884.018	20419
884.143	20583
884.269	20644
884.395	20438
884.52	20393
884.646	20240
884.772	20278
884.897	20301
885.023	20400
885.148	20503
885.274	20450
885.399	20419
885.524	20309
885.65	20396
885.775	20450
885.9	20385
886.025	20492
886.15	20488
886.275	20408
886.4	20370
886.525	20240
886.65	20324
886.775	20183
886.9	20438
887.025	20621
887.149	20446
887.274	20008
887.399	20081
887.523	20054
887.648	20081
887.773	20069
887.897	20161
888.021	20218
888.146	20016
888.27	20153
888.395	20256
888.519	20164
888.643	20142
888.767	20195
888.891	20142
889.015	19970
889.139	19849
889.263	19944
889.387	20107
889.511	20244
889.635	20012
889.759	19974
889.883	19917
890.006	19963
890.13	19932
890.254	19849
890.377	19788
890.501	19643
890.624	19719
890.748	19784
890.871	19567
890.995	19575
891.118	19464
891.241	19582
891.364	19460
891.488	19624
891.611	19639
891.734	19613
891.857	19510
891.98	19419
892.103	19559
892.226	19567
892.349	19430
892.471	19247
892.594	19533
892.717	19460
892.839	19396
892.962	19457
893.085	19582
893.207	19415
893.33	19362
893.452	19400
893.575	19460
893.697	19483
893.819	19594
893.941	19658
894.064	19575
894.186	19411
894.308	19255
894.43	19559
894.552	19616
894.674	19525
894.796	19339
894.918	19434
895.04	19468
895.161	19537
895.283	19468
895.405	19426
895.526	19343
895.648	19430
895.769	19464
895.891	19487
896.012	19563
896.134	19457
896.255	19472
896.376	19472
896.498	19426
896.619	19441
896.74	19373
896.861	19430
896.982	19788
897.103	19925
897.224	19685
897.345	19632
897.466	19578
897.587	19628
897.708	19814
897.828	19681
897.949	19700
898.07	19696
898.19	19655
898.311	19677
898.431	19681
898.552	19559
898.672	19757
898.792	19795
898.913	19712
899.033	19540
899.153	19544
899.273	19259
899.393	19556
899.513	19468
899.633	19400
899.753	19350
899.873	19308
899.993	19460
900.113	19335
900.232	19304
900.352	19335
900.472	19400
900.591	19187
900.711	19255
900.83	19110
900.95	19324
901.069	19407
901.189	19168
901.308	18985
901.427	18939
901.546	18817
901.665	18848
901.784	18920
901.904	18677
902.023	18623
902.141	18483
902.26	18380
902.379	18467
902.498	18448
902.617	18304
902.735	18384
902.854	18262
902.973	18292
903.091	18041
903.21	17977
903.328	18083
903.446	17992
903.565	17821
903.683	17836
903.801	17722
903.919	17729
904.038	17748
904.156	17630
904.274	17680
904.392	17505
904.51	17554
904.627	17532
904.745	17486
904.863	17661
904.981	17440
905.098	17379
905.216	17136
905.334	17379
905.451	17235
905.569	17208
905.686	17311
905.803	17273
905.921	16976
906.038	17056
906.155	17052
906.272	16942
906.389	17060
906.506	16866
906.623	16755
906.74	16752
906.857	16786
906.974	16828
907.091	16778
907.208	16930
907.324	16790
907.441	16767
907.557	16519
907.674	16500
907.79	16474
907.907	16481
908.023	16603
908.139	16443
908.256	16447
908.372	16356
908.488	16329
908.604	16261
908.72	16291
908.836	16211
908.952	16181
909.068	16344
909.184	16367
909.3	16253
909.415	16181
909.531	16192
909.647	16010
909.762	15899
909.878	15953
909.993	16040
910.108	15964
910.224	15903
910.339	15964
910.454	15903
910.57	15823
910.685	15774
910.8	15994
910.915	15892
911.03	15797
911.145	15610
911.259	15572
911.374	15564
911.489	15473
911.604	15454
911.718	15268
911.833	15386
911.947	15310
912.062	15169
912.176	15332
912.291	15336
912.405	15408
912.519	15485
912.633	15553
912.748	15363
912.862	15344
912.976	15142
913.09	15036
913.204	15043
913.318	15199
913.431	15233
913.545	15230
913.659	15302
913.772	15127
913.886	14990
914	14956
914.113	15173
914.226	15055
914.34	15036
914.453	14857
914.566	15013
914.68	14811
914.793	14792
914.906	14758
915.019	14663
915.132	14541
915.245	14541
915.358	14667
915.47	14571
915.583	14537
915.696	14606
915.809	14575
915.921	14750
916.034	14533
916.146	14427
916.259	14522
916.371	14575
916.483	14583
916.595	14507
916.708	14484
916.82	14404
916.932	14370
917.044	14389
917.156	14309
917.268	14229
917.38	14328
917.491	14317
917.603	14328
917.715	14389
917.826	14240
917.938	14218
918.049	14149
918.161	14263
918.272	14381
918.384	14298
918.495	14195
918.606	14027
918.717	13951
918.828	14202
918.939	14069
919.05	13879
919.161	13974
919.272	13856
919.383	13883
919.494	14054
919.604	14237
919.715	14077
919.826	13951
919.936	13997
920.047	14123
920.157	14031
920.267	14199
920.378	14046
920.488	14031
920.598	14298
920.708	14355
920.818	14134
920.928	14218
921.038	14400
921.148	14259
921.258	14077
921.368	13849
921.477	13837
921.587	13753
921.697	13594
921.806	13795
921.916	13689
922.025	13556
922.134	13468
922.244	13441
922.353	13441
922.462	13381
922.571	13301
922.68	13091
922.789	13072
922.898	13103
923.007	13000
923.116	13110
923.224	13088
923.333	13031
923.442	12958
923.55	12951
923.659	12928
923.767	12985
923.876	12913
923.984	12951
924.092	12741
924.201	12825
924.309	12916
924.417	12871
924.525	12814
924.633	12821
924.741	13734
924.849	12574
924.956	12684
925.064	12574
925.172	12376
925.279	12460
925.387	12517
925.494	12429
925.602	12635
925.709	12494
925.816	12407
925.924	12593
926.031	12597
926.138	12490
926.245	12513
926.352	12388
926.459	12517
926.566	12555
926.673	12372
926.779	12281
926.886	12270
926.993	12087
927.099	12155
927.206	12049
927.312	12011
927.419	12152
927.525	12079
927.631	12068
927.737	12007
927.843	11920
927.95	11904
928.056	11889
928.162	11920
928.267	12060
928.373	12528
928.479	12011
928.585	11760
928.69	11931
928.796	11893
928.901	11866
929.007	11596
929.112	11786
929.218	11726
929.323	11832
929.428	11653
929.533	11843
929.638	11611
929.743	11695
929.848	11634
929.953	11661
930.058	11570
930.163	11410
930.267	11349
930.372	11547
930.477	11318
930.581	11589
930.685	11406
930.79	11250
930.894	11334
930.998	11273
931.103	11299
931.207	10923
931.311	10889
931.415	10850
931.519	10725
931.623	10691
