Data from test_V78500241_1727.txt Node
Date: Fri Mar 25 15:21:52 CST 2022
User: usil
Spectrometer: V785-0024
Trigger mode: 0
Integration Time (sec): 4.000000E-1
Scans to average: 1
Nonlinearity correction enabled: false
Boxcar width: 0
Storing dark spectrum: false
XAxis mode: Wavelengths
Number of Pixels in Spectrum: 1024
>>>>>Begin Spectral Data<<<<<
801.071	27785
801.214	27736
801.356	27504
801.499	27260
801.641	27393
801.783	27237
801.926	27348
802.068	27180
802.211	27218
802.353	27142
802.496	27043
802.638	27013
802.78	26990
802.923	26952
803.065	26845
803.208	26940
803.35	26960
803.492	27089
803.635	27131
803.777	26918
803.919	27081
804.061	27306
804.204	27047
804.346	27009
804.488	27020
804.63	27062
804.773	27032
804.915	27233
805.057	27230
805.199	27123
805.341	27184
805.483	27348
805.626	27294
805.768	27112
805.91	27211
806.052	27310
806.194	27241
806.336	27367
806.478	27321
806.62	27306
806.762	27355
806.904	27660
807.046	27747
807.188	27694
807.33	27778
807.472	27698
807.614	27576
807.756	27667
807.898	27542
808.04	27431
808.182	27622
808.324	27667
808.465	27530
808.607	27694
808.749	27876
808.891	27892
809.033	28059
809.174	27926
809.316	27819
809.458	27789
809.6	27838
809.741	27892
809.883	28006
810.025	28242
810.166	28109
810.308	28291
810.45	28135
810.591	28074
810.733	27892
810.875	27816
811.016	27732
811.158	27660
811.299	27956
811.441	27972
811.582	27998
811.724	28021
811.865	27838
812.007	27926
812.148	27888
812.29	27892
812.431	28101
812.573	28253
812.714	28306
812.855	28390
812.997	28546
813.138	28584
813.279	28519
813.421	28325
813.562	28405
813.703	28109
813.845	28067
813.986	27838
814.127	27656
814.268	27606
814.41	27420
814.551	27633
814.692	27682
814.833	27603
814.974	27553
815.115	27720
815.256	27370
815.397	27458
815.539	27526
815.68	27397
815.821	27264
815.962	27389
816.103	27325
816.244	27302
816.385	27184
816.526	27096
816.666	26906
816.807	26815
816.948	26933
817.089	26910
817.23	26975
817.371	26940
817.512	26861
817.653	26823
817.793	26853
817.934	26834
818.075	26925
818.216	26868
818.356	26788
818.497	26830
818.638	26697
818.778	26549
818.919	26590
819.06	26724
819.2	26792
819.341	26762
819.481	26880
819.622	26948
819.762	27302
819.903	27237
820.043	27005
820.184	27028
820.324	26990
820.465	27051
820.605	26880
820.746	26853
820.886	26834
821.026	26948
821.167	26864
821.307	26940
821.447	26861
821.588	26807
821.728	26708
821.868	26396
822.008	26385
822.149	26347
822.289	26191
822.429	26214
822.569	26001
822.709	26035
822.849	25883
822.99	25879
823.13	25761
823.27	25772
823.41	25757
823.55	25590
823.69	25750
823.83	25734
823.97	25632
824.11	25449
824.25	25457
824.389	25472
824.529	25563
824.669	25529
824.809	25552
824.949	25628
825.089	25468
825.228	25537
825.368	25335
825.508	25369
825.648	25419
825.787	25422
825.927	25449
826.067	25247
826.206	25479
826.346	25392
826.485	25457
826.625	25228
826.765	25392
826.904	25373
827.044	25088
827.183	25038
827.323	24970
827.462	25080
827.601	25175
827.741	25057
827.88	25099
828.02	24947
828.159	25008
828.298	25023
828.437	25103
828.577	25023
828.716	25103
828.855	24852
828.994	24901
829.134	24856
829.273	24753
829.412	24764
829.551	24753
829.69	24779
829.829	24734
829.968	24859
830.107	24977
830.246	24707
830.385	24730
830.524	24642
830.663	24612
830.802	24460
830.941	24376
831.08	24300
831.219	24479
831.357	24509
831.496	24551
831.635	24273
831.774	24262
831.913	24273
832.051	24213
832.19	24247
832.329	24342
832.467	23980
832.606	23885
832.744	23958
832.883	24114
833.022	23961
833.16	24038
833.299	24030
833.437	24121
833.576	24201
833.714	24140
833.852	24083
833.991	24178
834.129	24251
834.267	24171
834.406	24174
834.544	24098
834.682	24213
834.821	24079
834.959	24308
835.097	24060
835.235	24167
835.373	24015
835.511	23958
835.65	24106
835.788	23927
835.926	23927
836.064	23752
836.202	23794
836.34	23950
836.478	24022
836.615	23923
836.753	23870
836.891	24087
837.029	23908
837.167	24007
837.305	23855
837.443	23775
837.58	23901
837.718	23847
837.856	23729
837.993	23805
838.131	23809
838.269	23726
838.406	23695
838.544	23665
838.681	23596
838.819	23433
838.956	23277
839.094	23326
839.231	23360
839.369	23440
839.506	23726
839.643	23467
839.781	23231
839.918	23162
840.055	23318
840.193	23296
840.33	23261
840.467	23178
840.604	23254
840.742	23497
840.879	23117
841.016	23193
841.153	23083
841.29	23269
841.427	23197
841.564	23235
841.701	23200
841.838	23174
841.975	23140
842.112	23170
842.249	22984
842.385	22900
842.522	23250
842.659	22980
842.796	23003
842.933	23022
843.069	22927
843.206	22767
843.343	22972
843.479	22946
843.616	22976
843.752	22862
843.889	22702
844.025	22843
844.162	22740
844.298	22790
844.435	22668
844.571	22786
844.708	22771
844.844	22862
844.98	22793
845.117	22812
845.253	22615
845.389	22508
845.525	22588
845.661	22470
845.798	22394
845.934	22523
846.07	22447
846.206	22432
846.342	22599
846.478	22375
846.614	22261
846.75	22204
846.886	22139
847.022	22200
847.158	22261
847.294	22284
847.429	22242
847.565	22249
847.701	22318
847.837	21956
847.972	21979
848.108	22040
848.244	22070
848.379	21892
848.515	21861
848.65	21766
848.786	21819
848.921	21930
849.057	21728
849.192	21895
849.328	21964
849.463	21770
849.598	21797
849.734	21667
849.869	21690
850.004	21519
850.14	21625
850.275	21553
850.41	21534
850.545	21416
850.68	21492
850.815	21557
850.95	21572
851.085	21686
851.22	21660
851.355	21610
851.49	21568
851.625	21363
851.76	21530
851.895	21549
852.03	21462
852.165	21469
852.299	21538
852.434	21622
852.569	21572
852.703	21496
852.838	21530
852.973	21644
853.107	21778
853.242	21428
853.376	21488
853.511	21283
853.645	21226
853.78	21348
853.914	21317
854.048	21367
854.183	21348
854.317	21367
854.451	21504
854.585	21378
854.72	21428
854.854	21462
854.988	21306
855.122	21466
855.256	21306
855.39	21412
855.524	21340
855.658	21389
855.792	21382
855.926	21473
856.06	21374
856.194	21370
856.327	21389
856.461	21275
856.595	21218
856.729	21363
856.862	21515
856.996	21386
857.13	21416
857.263	21519
857.397	21367
857.53	21317
857.664	21294
857.797	21389
857.931	21553
858.064	21367
858.197	21488
858.331	21321
858.464	21249
858.597	21279
858.731	21393
858.864	21367
858.997	21260
859.13	21325
859.263	21382
859.396	21435
859.529	21268
859.662	21374
859.795	21302
859.928	21378
860.061	21545
860.194	21625
860.327	21447
860.46	21389
860.592	21519
860.725	21439
860.858	21469
860.99	21386
861.123	21252
861.256	21302
861.388	21367
861.521	22131
861.653	21272
861.786	21024
861.918	21226
862.05	21275
862.183	21203
862.315	21310
862.447	21405
862.58	21211
862.712	21074
862.844	21093
862.976	21195
863.108	21123
863.24	21488
863.372	21055
863.504	21055
863.636	20971
863.768	21081
863.9	21138
864.032	21066
864.164	21089
864.296	21100
864.428	21226
864.559	21173
864.691	21169
864.823	21051
864.954	21039
865.086	21104
865.217	20918
865.349	20921
865.48	21001
865.612	20880
865.743	21119
865.875	21020
866.006	20918
866.137	20910
866.269	20910
866.4	20944
866.531	20815
866.662	20918
866.793	20891
866.924	20990
867.055	20861
867.186	20918
867.317	20876
867.448	20864
867.579	20952
867.71	20807
867.841	20902
867.972	21009
868.103	20785
868.233	21020
868.364	20975
868.495	20956
868.625	21180
868.756	21272
868.886	21150
869.017	21161
869.147	21218
869.278	21389
869.408	21108
869.539	20986
869.669	21085
869.799	21275
869.929	21279
870.06	21176
870.19	21606
870.32	21355
870.45	21477
870.58	21580
870.71	21500
870.84	21614
870.97	21519
871.1	21526
871.23	21701
871.36	21705
871.489	21644
871.619	21667
871.749	21717
871.879	21724
872.008	21842
872.138	21812
872.267	21724
872.397	21587
872.526	21507
872.656	21667
872.785	21420
872.915	21736
873.044	21774
873.173	21789
873.303	21850
873.432	21846
873.561	21899
873.69	21816
873.819	21800
873.948	21827
874.077	21728
874.206	21724
874.335	21778
874.464	21880
874.593	21915
874.722	21899
874.851	22158
874.979	22025
875.108	22082
875.237	22021
875.365	21838
875.494	21865
875.623	21979
875.751	21956
875.88	22059
876.008	22051
876.136	22150
876.265	22413
876.393	22569
876.521	22516
876.65	22443
876.778	22310
876.906	22356
877.034	22379
877.162	22421
877.29	22291
877.418	22322
877.546	22318
877.674	22360
877.802	22284
877.93	22379
878.058	22363
878.185	22299
878.313	22249
878.441	22329
878.568	22025
878.696	22272
878.824	22337
878.951	22462
879.079	22588
879.206	22618
879.333	22455
879.461	22272
879.588	22394
879.715	22538
879.842	22466
879.97	22436
880.097	22303
880.224	22188
880.351	22181
880.478	22169
880.605	22105
880.732	22105
880.859	22440
880.986	22120
881.112	22063
881.239	22090
881.366	21975
881.493	21804
881.619	21720
881.746	21724
881.872	21652
881.999	21736
882.125	21778
882.252	21808
882.378	21648
882.505	21846
882.631	21603
882.757	21374
882.883	21488
883.01	21435
883.136	21447
883.262	21275
883.388	21245
883.514	21443
883.64	21500
883.766	21302
883.892	21291
884.018	21294
884.143	21397
884.269	21363
884.395	21176
884.52	20998
884.646	21055
884.772	20982
884.897	21028
885.023	21214
885.148	21058
885.274	21184
885.399	21161
885.524	21131
885.65	21112
885.775	21028
885.9	21009
886.025	21184
886.15	21260
886.275	21081
886.4	21028
886.525	20921
886.65	20933
886.775	20918
886.9	21089
887.025	21184
887.149	21005
887.274	20933
887.399	20952
887.523	20906
887.648	20788
887.773	20792
887.897	20902
888.021	20864
888.146	20781
888.27	20899
888.395	20944
888.519	20815
888.643	20769
888.767	20887
888.891	20762
889.015	20705
889.139	20686
889.263	20636
889.387	20617
889.511	20743
889.635	20648
889.759	20648
889.883	20537
890.006	20804
890.13	20785
890.254	20545
890.377	20629
890.501	20408
890.624	20499
890.748	20442
890.871	20259
890.995	20237
891.118	20183
891.241	20294
891.364	20210
891.488	20339
891.611	20233
891.734	20145
891.857	20271
891.98	20218
892.103	20183
892.226	20263
892.349	20107
892.471	20005
892.594	20100
892.717	20172
892.839	20043
892.962	20103
893.085	20149
893.207	20107
893.33	20050
893.452	20092
893.575	20027
893.697	20020
893.819	20328
893.941	20317
894.064	20233
894.186	20065
894.308	20073
894.43	20191
894.552	20324
894.674	20130
894.796	19936
894.918	20107
895.04	19986
895.161	20134
895.283	20214
895.405	19986
895.526	20100
895.648	20039
895.769	20347
895.891	20062
896.012	20088
896.134	20062
896.255	20172
896.376	20077
896.498	20043
896.619	20225
896.74	20092
896.861	20168
896.982	20476
897.103	20602
897.224	20404
897.345	20278
897.466	20412
897.587	20427
897.708	20522
897.828	20282
897.949	20218
898.07	20294
898.19	20210
898.311	20324
898.431	20290
898.552	20362
898.672	20404
898.792	20347
898.913	20320
899.033	20130
899.153	20145
899.273	19944
899.393	20073
899.513	20187
899.633	20161
899.753	20115
899.873	20149
899.993	20092
900.113	20126
900.232	20001
900.352	20005
900.472	19818
900.591	19799
900.711	19928
900.83	19784
900.95	19925
901.069	19906
901.189	19742
901.308	19605
901.427	19460
901.546	19388
901.665	19419
901.784	19525
901.904	19217
902.023	19141
902.141	19076
902.26	19015
902.379	18951
902.498	19015
902.617	18890
902.735	19019
902.854	18840
902.973	18840
903.091	18650
903.21	18536
903.328	18589
903.446	18528
903.565	18486
903.683	18467
903.801	18361
903.919	18357
904.038	18407
904.156	18216
904.274	18395
904.392	18254
904.51	18148
904.627	18247
904.745	18346
904.863	18254
904.981	18049
905.098	17935
905.216	17813
905.334	17920
905.451	17813
905.569	17870
905.686	17794
905.803	17805
905.921	17665
906.038	17798
906.155	17672
906.272	17490
906.389	17726
906.506	17356
906.623	17353
906.74	17417
906.857	17296
906.974	17334
907.091	17376
907.208	17501
907.324	17471
907.441	17189
907.557	17223
907.674	17132
907.79	17010
907.907	17079
908.023	17075
908.139	17143
908.256	17056
908.372	17064
908.488	16915
908.604	16862
908.72	16919
908.836	16831
908.952	16740
909.068	16923
909.184	17075
909.3	16778
909.415	16752
909.531	16752
909.647	16523
909.762	16592
909.878	16592
909.993	16565
910.108	16455
910.224	16421
910.339	16577
910.454	16413
910.57	16451
910.685	16310
910.8	16485
910.915	16485
911.03	16280
911.145	16105
911.259	16147
911.374	16158
911.489	16078
911.604	15934
911.718	15816
911.833	15819
911.947	15766
912.062	15762
912.176	15819
912.291	15873
912.405	15838
912.519	15994
912.633	15945
912.748	15797
912.862	15873
912.976	15705
913.09	15641
913.204	15610
913.318	15682
913.431	15804
913.545	15751
913.659	15842
913.772	15633
913.886	15557
914	15481
914.113	15584
914.226	15622
914.34	15481
914.453	15306
914.566	15587
914.68	15401
914.793	15367
914.906	15192
915.019	15089
915.132	15036
915.245	15135
915.358	15081
915.47	15036
915.583	15112
915.696	15112
915.809	15268
915.921	15249
916.034	15058
916.146	14937
916.259	14944
916.371	14990
916.483	15032
916.595	14986
916.708	14967
916.82	14986
916.932	14872
917.044	14845
917.156	14868
917.268	14773
917.38	14754
917.491	14686
917.603	14765
917.715	14826
917.826	14815
917.938	14777
918.049	14655
918.161	14708
918.272	14800
918.384	14883
918.495	14708
918.606	14617
918.717	14480
918.828	14446
918.939	14450
919.05	14351
919.161	14526
919.272	14347
919.383	14370
919.494	14514
919.604	14670
919.715	14533
919.826	14400
919.936	14339
920.047	14560
920.157	14465
920.267	14610
920.378	14473
920.488	14419
920.598	14644
920.708	14777
920.818	14560
920.928	14564
921.038	14750
921.148	14712
921.258	14431
921.368	14385
921.477	14126
921.587	14199
921.697	14046
921.806	14271
921.916	14123
922.025	13959
922.134	13814
922.244	13784
922.353	13902
922.462	13700
922.571	13674
922.68	13518
922.789	13502
922.898	13586
923.007	13449
923.116	13422
923.224	13460
923.333	13396
923.442	13346
923.55	13343
923.659	13244
923.767	13396
923.876	13232
923.984	13320
924.092	13255
924.201	13255
924.309	13274
924.417	13263
924.525	13149
924.633	13171
924.741	13902
924.849	12966
924.956	13069
925.064	12947
925.172	12943
925.279	12981
925.387	12958
925.494	12966
925.602	13080
925.709	13069
925.816	12806
925.924	12837
926.031	12852
926.138	12856
926.245	12863
926.352	12795
926.459	12909
926.566	12962
926.673	12802
926.779	12642
926.886	12654
926.993	12559
927.099	12433
927.206	12395
927.312	12365
927.419	12437
927.525	12585
927.631	12467
927.737	12418
927.843	12346
927.95	12243
928.056	12380
928.162	12308
928.267	12372
928.373	12954
928.479	12357
928.585	12163
928.69	12254
928.796	12182
928.901	12201
929.007	12049
929.112	12102
929.218	12114
929.323	12030
929.428	12079
929.533	12152
929.638	11954
929.743	12034
929.848	11984
929.953	11984
930.058	11866
930.163	11707
930.267	11703
930.372	11824
930.477	11699
930.581	11973
930.685	11771
930.79	11551
930.894	11646
930.998	11551
931.103	11680
931.207	11318
931.311	11303
931.415	11147
931.519	10949
931.623	10968
