Data from test_V78500241_2593.txt Node
Date: Fri Mar 25 15:27:54 CST 2022
User: usil
Spectrometer: V785-0024
Trigger mode: 0
Integration Time (sec): 4.000000E-1
Scans to average: 1
Nonlinearity correction enabled: false
Boxcar width: 0
Storing dark spectrum: false
XAxis mode: Wavelengths
Number of Pixels in Spectrum: 1024
>>>>>Begin Spectral Data<<<<<
801.071	27211
801.214	27020
801.356	26929
801.499	26807
801.641	26735
801.783	26674
801.926	26739
802.068	26575
802.211	26568
802.353	26461
802.496	26343
802.638	26358
802.78	26381
802.923	26195
803.065	26161
803.208	26275
803.35	26225
803.492	26461
803.635	26457
803.777	26347
803.919	26545
804.061	26876
804.204	26556
804.346	26385
804.488	26427
804.63	26400
804.773	26389
804.915	26507
805.057	26541
805.199	26476
805.341	26514
805.483	26503
805.626	26511
805.768	26408
805.91	26556
806.052	26545
806.194	26537
806.336	26796
806.478	26522
806.62	26465
806.762	26606
806.904	26781
807.046	26937
807.188	26902
807.33	26940
807.472	27028
807.614	26777
807.756	26975
807.898	26914
808.04	26765
808.182	26686
808.324	26731
808.465	26880
808.607	27051
808.749	27211
808.891	27184
809.033	27336
809.174	27020
809.316	27077
809.458	27116
809.6	27024
809.741	27195
809.883	27313
810.025	27332
810.166	27351
810.308	27469
810.45	27412
810.591	27359
810.733	27001
810.875	27116
811.016	26910
811.158	27058
811.299	27260
811.441	27294
811.582	27317
811.724	27116
811.865	26960
812.007	27146
812.148	27112
812.29	27062
812.431	27355
812.573	27245
812.714	27572
812.855	27591
812.997	27656
813.138	27698
813.279	27759
813.421	27519
813.562	27660
813.703	27332
813.845	27344
813.986	26956
814.127	26880
814.268	26807
814.41	26876
814.551	26807
814.692	26830
814.833	26689
814.974	26743
815.115	26842
815.256	26556
815.397	26568
815.539	26697
815.68	26484
815.821	26374
815.962	26571
816.103	26457
816.244	26461
816.385	26412
816.526	26465
816.666	26164
816.807	25993
816.948	26092
817.089	26168
817.23	26229
817.371	26107
817.512	26092
817.653	25963
817.793	26024
817.934	26005
818.075	26046
818.216	26149
818.356	26035
818.497	25959
818.638	25906
818.778	25799
818.919	25746
819.06	25814
819.2	25902
819.341	25997
819.481	26069
819.622	26168
819.762	26415
819.903	26214
820.043	26092
820.184	26043
820.324	26191
820.465	26183
820.605	26081
820.746	26096
820.886	25955
821.026	26020
821.167	25917
821.307	26172
821.447	26008
821.588	25833
821.728	25750
821.868	25628
822.008	25620
822.149	25590
822.289	25476
822.429	25263
822.569	25145
822.709	25179
822.849	25080
822.99	24977
823.13	25012
823.27	24909
823.41	24951
823.55	24738
823.69	24840
823.83	24863
823.97	24776
824.11	24570
824.25	24673
824.389	24601
824.529	24741
824.669	24654
824.809	24646
824.949	24783
825.089	24669
825.228	24711
825.368	24528
825.508	24483
825.648	24627
825.787	24585
825.927	24505
826.067	24426
826.206	24521
826.346	24570
826.485	24673
826.625	24642
826.765	24566
826.904	24521
827.044	24243
827.183	24262
827.323	24365
827.462	24129
827.601	24239
827.741	24277
827.88	24186
828.02	24106
828.159	24220
828.298	24205
828.437	24399
828.577	24216
828.716	24338
828.855	24235
828.994	23980
829.134	23897
829.273	23988
829.412	23935
829.551	23904
829.69	23935
829.829	23931
829.968	23946
830.107	24186
830.246	23999
830.385	23927
830.524	23893
830.663	23748
830.802	23676
830.941	23528
831.08	23512
831.219	23581
831.357	23638
831.496	23767
831.635	23543
831.774	23528
831.913	23425
832.051	23311
832.19	23379
832.329	23364
832.467	23284
832.606	23273
832.744	23185
832.883	23235
833.022	23246
833.16	23242
833.299	23330
833.437	23345
833.576	23174
833.714	23284
833.852	23421
833.991	23402
834.129	23387
834.267	23349
834.406	23303
834.544	23364
834.682	23292
834.821	23174
834.959	23425
835.097	23155
835.235	23334
835.373	23383
835.511	23318
835.65	23235
835.788	23147
835.926	23102
836.064	22904
836.202	22991
836.34	23166
836.478	23341
836.615	23208
836.753	23117
836.891	23280
837.029	23178
837.167	23090
837.305	23121
837.443	23094
837.58	22942
837.718	23006
837.856	23102
837.993	23014
838.131	23064
838.269	22831
838.406	22869
838.544	22774
838.681	22653
838.819	22626
838.956	22500
839.094	22516
839.231	22535
839.369	22634
839.506	22927
839.643	22759
839.781	22466
839.918	22402
840.055	22447
840.193	22466
840.33	22443
840.467	22481
840.604	22527
840.742	22729
840.879	22329
841.016	22375
841.153	22386
841.29	22493
841.427	22432
841.564	22561
841.701	22398
841.838	22455
841.975	22352
842.112	22375
842.249	22295
842.385	22265
842.522	22413
842.659	22287
842.796	22257
842.933	22177
843.069	22211
843.206	22185
843.343	22207
843.479	22306
843.616	22284
843.752	22010
843.889	21850
844.025	22147
844.162	21918
844.298	22055
844.435	21895
844.571	21857
844.708	21968
844.844	22097
844.98	22131
845.117	22036
845.253	22051
845.389	21892
845.525	21854
845.661	21876
845.798	21690
845.934	21934
846.07	21530
846.206	21816
846.342	21762
846.478	21549
846.614	21519
846.75	21355
846.886	21450
847.022	21671
847.158	21428
847.294	21492
847.429	21553
847.565	21519
847.701	21679
847.837	21203
847.972	21245
848.108	21252
848.244	21306
848.379	21051
848.515	21001
848.65	21077
848.786	20956
848.921	21119
849.057	21062
849.192	21173
849.328	21104
849.463	21020
849.598	20963
849.734	20944
849.869	20857
850.004	20773
850.14	20883
850.275	20792
850.41	20743
850.545	20655
850.68	20750
850.815	20834
850.95	20792
851.085	20861
851.22	20800
851.355	20804
851.49	20811
851.625	20796
851.76	20693
851.895	20845
852.03	20678
852.165	20845
852.299	20880
852.434	20925
852.569	20918
852.703	20705
852.838	20800
852.973	20956
853.107	20872
853.242	20629
853.376	20697
853.511	20609
853.645	20522
853.78	20617
853.914	20590
854.048	20488
854.183	20606
854.317	20655
854.451	20781
854.585	20632
854.72	20606
854.854	20705
854.988	20518
855.122	20560
855.256	20442
855.39	20636
855.524	20625
855.658	20758
855.792	20640
855.926	20651
856.06	20693
856.194	20724
856.327	20606
856.461	20594
856.595	20503
856.729	20568
856.862	20731
856.996	20708
857.13	20663
857.263	20655
857.397	20777
857.53	20667
857.664	20667
857.797	20655
857.931	20663
858.064	20575
858.197	20750
858.331	20632
858.464	20629
858.597	20499
858.731	20655
858.864	20362
858.997	20492
859.13	20613
859.263	20667
859.396	20632
859.529	20648
859.662	20571
859.795	20419
859.928	20762
860.061	20758
860.194	20796
860.327	20781
860.46	20651
860.592	20891
860.725	20811
860.858	20781
860.99	20537
861.123	20609
861.256	20533
861.388	20621
861.521	21287
861.653	20446
861.786	20415
861.918	20446
862.05	20438
862.183	20629
862.315	20655
862.447	20606
862.58	20533
862.712	20461
862.844	20271
862.976	20423
863.108	20389
863.24	20864
863.372	20271
863.504	20294
863.636	20275
863.768	20454
863.9	20328
864.032	20415
864.164	20313
864.296	20309
864.428	20495
864.559	20381
864.691	20377
864.823	20282
864.954	20381
865.086	20336
865.217	20332
865.349	20176
865.48	20191
865.612	20240
865.743	20396
865.875	20263
866.006	20161
866.137	20244
866.269	20077
866.4	20263
866.531	20199
866.662	20088
866.793	20050
866.924	20111
867.055	20161
867.186	20187
867.317	20214
867.448	20062
867.579	20164
867.71	20069
867.841	20157
867.972	20149
868.103	20168
868.233	20267
868.364	20256
868.495	20332
868.625	20393
868.756	20583
868.886	20358
869.017	20530
869.147	20537
869.278	20484
869.408	20446
869.539	20507
869.669	20609
869.799	20473
869.929	20556
870.06	20492
870.19	20689
870.32	20629
870.45	20674
870.58	20811
870.71	20906
870.84	20960
870.97	20838
871.1	20887
871.23	20895
871.36	20979
871.489	20948
871.619	21055
871.749	21051
871.879	21017
872.008	21188
872.138	21096
872.267	20902
872.397	20826
872.526	20853
872.656	20891
872.785	20769
872.915	21005
873.044	21157
873.173	21001
873.303	21096
873.432	21116
873.561	21165
873.69	20998
873.819	21070
873.948	21058
874.077	21135
874.206	20834
874.335	21146
874.464	21169
874.593	21321
874.722	21195
874.851	21401
874.979	21245
875.108	21184
875.237	21222
875.365	21135
875.494	21268
875.623	21416
875.751	21192
875.88	21275
876.008	21492
876.136	21496
876.265	21648
876.393	21671
876.521	21854
876.65	21831
876.778	21667
876.906	21580
877.034	21694
877.162	21759
877.29	21530
877.418	21629
877.546	21606
877.674	21660
877.802	21614
877.93	21637
878.058	21625
878.185	21576
878.313	21724
878.441	21682
878.568	21466
878.696	21614
878.824	21641
878.951	21759
879.079	21724
879.206	21937
879.333	21819
879.461	21682
879.588	21778
879.715	21865
879.842	21823
879.97	21637
880.097	21587
880.224	21553
880.351	21568
880.478	21462
880.605	21424
880.732	21477
880.859	21656
880.986	21561
881.112	21572
881.239	21405
881.366	21291
881.493	21100
881.619	21119
881.746	21116
881.872	21039
881.999	21009
882.125	21001
882.252	21176
882.378	21066
882.505	21119
882.631	20944
882.757	20967
882.883	20861
883.01	20906
883.136	20674
883.262	20682
883.388	20594
883.514	20743
883.64	20830
883.766	20659
883.892	20545
884.018	20659
884.143	20621
884.269	20845
884.395	20564
884.52	20560
884.646	20328
884.772	20347
884.897	20336
885.023	20412
885.148	20408
885.274	20590
885.399	20454
885.524	20298
885.65	20446
885.775	20488
885.9	20427
886.025	20431
886.15	20587
886.275	20358
886.4	20381
886.525	20332
886.65	20332
886.775	20381
886.9	20606
887.025	20526
887.149	20374
887.274	20294
887.399	20187
887.523	20126
887.648	20069
887.773	20096
887.897	20218
888.021	20358
888.146	20103
888.27	20343
888.395	20225
888.519	20202
888.643	20202
888.767	20248
888.891	20077
889.015	20142
889.139	20107
889.263	20035
889.387	20043
889.511	20180
889.635	20210
889.759	20081
889.883	19925
890.006	20084
890.13	20107
890.254	19860
890.377	19898
890.501	19799
890.624	19772
890.748	19833
890.871	19662
890.995	19487
891.118	19540
891.241	19601
891.364	19563
891.488	19696
891.611	19533
891.734	19731
891.857	19715
891.98	19533
892.103	19658
892.226	19632
892.349	19491
892.471	19377
892.594	19514
892.717	19548
892.839	19529
892.962	19460
893.085	19594
893.207	19514
893.33	19422
893.452	19369
893.575	19594
893.697	19381
893.819	19715
893.941	19613
894.064	19601
894.186	19407
894.308	19521
894.43	19544
894.552	19575
894.674	19609
894.796	19350
894.918	19502
895.04	19468
895.161	19586
895.283	19556
895.405	19350
895.526	19441
895.648	19480
895.769	19419
895.891	19563
896.012	19571
896.134	19590
896.255	19666
896.376	19487
896.498	19419
896.619	19457
896.74	19525
896.861	19685
896.982	19791
897.103	20024
897.224	19784
897.345	19769
897.466	19655
897.587	19704
897.708	19788
897.828	19780
897.949	19681
898.07	19559
898.19	19582
898.311	19879
898.431	19594
898.552	19753
898.672	19807
898.792	19753
898.913	19776
899.033	19620
899.153	19544
899.273	19457
899.393	19506
899.513	19514
899.633	19460
899.753	19628
899.873	19449
899.993	19457
900.113	19445
900.232	19552
900.352	19434
900.472	19278
900.591	19251
900.711	19217
900.83	19320
900.95	19377
901.069	19312
901.189	19206
901.308	18981
901.427	18852
901.546	18798
901.665	18920
901.784	18852
901.904	18684
902.023	18692
902.141	18384
902.26	18357
902.379	18498
902.498	18467
902.617	18330
902.735	18509
902.854	18350
902.973	18311
903.091	18041
903.21	18045
903.328	18144
903.446	17908
903.565	17912
903.683	17878
903.801	17695
903.919	17916
904.038	17874
904.156	17676
904.274	17661
904.392	17642
904.51	17577
904.627	17646
904.745	17611
904.863	17760
904.981	17448
905.098	17330
905.216	17303
905.334	17410
905.451	17315
905.569	17326
905.686	17265
905.803	17296
905.921	17029
906.038	17239
906.155	17136
906.272	17105
906.389	17048
906.506	16858
906.623	16847
906.74	16908
906.857	16729
906.974	16759
907.091	16972
907.208	17014
907.324	16915
907.441	16797
907.557	16599
907.674	16580
907.79	16558
907.907	16523
908.023	16679
908.139	16592
908.256	16592
908.372	16459
908.488	16436
908.604	16230
908.72	16379
908.836	16322
908.952	16284
909.068	16352
909.184	16405
909.3	16261
909.415	16329
909.531	16329
909.647	16097
909.762	15998
909.878	16017
909.993	15831
910.108	15922
910.224	16006
910.339	16021
910.454	15827
910.57	15854
910.685	15842
910.8	16147
910.915	16044
911.03	15842
911.145	15705
911.259	15648
911.374	15576
911.489	15652
911.604	15492
911.718	15393
911.833	15317
911.947	15401
912.062	15294
912.176	15530
912.291	15431
912.405	15454
912.519	15606
912.633	15633
912.748	15389
912.862	15302
912.976	15230
913.09	15051
913.204	15169
913.318	15127
913.431	15272
913.545	15245
913.659	15329
913.772	15123
913.886	15043
914	15032
914.113	15157
914.226	15214
914.34	15138
914.453	14929
914.566	15085
914.68	14963
914.793	14914
914.906	14659
915.019	14629
915.132	14571
915.245	14636
915.358	14636
915.47	14511
915.583	14670
915.696	14632
915.809	14746
915.921	14632
916.034	14598
916.146	14629
916.259	14465
916.371	14602
916.483	14530
916.595	14492
916.708	14415
916.82	14518
916.932	14465
917.044	14381
917.156	14492
917.268	14309
917.38	14366
917.491	14275
917.603	14377
917.715	14362
917.826	14366
917.938	14180
918.049	14100
918.161	14278
918.272	14423
918.384	14446
918.495	14278
918.606	14237
918.717	14012
918.828	14103
918.939	14073
919.05	14012
919.161	14024
919.272	13909
919.383	13989
919.494	14092
919.604	14358
919.715	14157
919.826	13887
919.936	14039
920.047	14176
920.157	14035
920.267	14218
920.378	14081
920.488	13970
920.598	14305
920.708	14351
920.818	14187
920.928	14202
921.038	14320
921.148	14202
921.258	14016
921.368	13928
921.477	13776
921.587	13761
921.697	13636
921.806	13841
921.916	13647
922.025	13567
922.134	13426
922.244	13419
922.353	13514
922.462	13304
922.571	13213
922.68	13164
922.789	13057
922.898	13091
923.007	13050
923.116	13160
923.224	13084
923.333	13168
923.442	12962
923.55	12894
923.659	12935
923.767	12981
923.876	12913
923.984	12867
924.092	12886
924.201	12905
924.309	12924
924.417	12863
924.525	12856
924.633	12787
924.741	13666
924.849	12479
924.956	12700
925.064	12509
925.172	12517
925.279	12437
925.387	12467
925.494	12445
925.602	12578
925.709	12582
925.816	12437
925.924	12403
926.031	12570
926.138	12441
926.245	12498
926.352	12414
926.459	12608
926.566	12532
926.673	12422
926.779	12224
926.886	12228
926.993	12190
927.099	12121
927.206	12087
927.312	12015
927.419	12167
927.525	12117
927.631	12064
927.737	12003
927.843	11988
927.95	11897
928.056	11961
928.162	11939
928.267	12057
928.373	12498
928.479	11939
928.585	11722
928.69	11931
928.796	11954
928.901	11840
929.007	11657
929.112	11859
929.218	11855
929.323	11699
929.428	11691
929.533	11752
929.638	11707
929.743	11608
929.848	11741
929.953	11627
930.058	11524
930.163	11379
930.267	11448
930.372	11490
930.477	11368
930.581	11486
930.685	11379
930.79	11185
930.894	11299
930.998	11201
931.103	11387
931.207	10991
931.311	11045
931.415	10816
931.519	10641
931.623	10634
