Data from test_V78500241_354.txt Node
Date: Fri Mar 25 15:12:19 CST 2022
User: usil
Spectrometer: V785-0024
Trigger mode: 0
Integration Time (sec): 4.000000E-1
Scans to average: 1
Nonlinearity correction enabled: false
Boxcar width: 0
Storing dark spectrum: false
XAxis mode: Wavelengths
Number of Pixels in Spectrum: 1024
>>>>>Begin Spectral Data<<<<<
801.071	27081
801.214	27028
801.356	26834
801.499	26705
801.641	26663
801.783	26545
801.926	26564
802.068	26537
802.211	26511
802.353	26412
802.496	26320
802.638	26233
802.78	26351
802.923	26214
803.065	26081
803.208	26172
803.35	26259
803.492	26183
803.635	26362
803.777	26385
803.919	26377
804.061	26750
804.204	26328
804.346	26298
804.488	26355
804.63	26495
804.773	26317
804.915	26351
805.057	26450
805.199	26225
805.341	26362
805.483	26583
805.626	26431
805.768	26370
805.91	26530
806.052	26499
806.194	26389
806.336	26594
806.478	26606
806.62	26434
806.762	26644
806.904	26910
807.046	27055
807.188	26861
807.33	26701
807.472	26899
807.614	26906
807.756	26864
807.898	26640
808.04	26659
808.182	26727
808.324	26746
808.465	26800
808.607	26933
808.749	26998
808.891	27249
809.033	27237
809.174	27207
809.316	27043
809.458	27112
809.6	27017
809.741	27169
809.883	27241
810.025	27268
810.166	27241
810.308	27439
810.45	27272
810.591	27374
810.733	27279
810.875	27074
811.016	26872
811.158	26937
811.299	27127
811.441	27135
811.582	27188
811.724	27051
811.865	27062
812.007	27218
812.148	27070
812.29	27138
812.431	27184
812.573	27348
812.714	27504
812.855	27408
812.997	27694
813.138	27819
813.279	27682
813.421	27591
813.562	27591
813.703	27412
813.845	27241
813.986	26895
814.127	26933
814.268	26823
814.41	26834
814.551	26792
814.692	26777
814.833	26621
814.974	26716
815.115	26674
815.256	26590
815.397	26625
815.539	26625
815.68	26400
815.821	26495
815.962	26355
816.103	26526
816.244	26339
816.385	26176
816.526	26218
816.666	26153
816.807	26111
816.948	26084
817.089	26252
817.23	25997
817.371	26122
817.512	26035
817.653	25909
817.793	25845
817.934	26130
818.075	25989
818.216	26039
818.356	25906
818.497	25784
818.638	25818
818.778	25666
818.919	25826
819.06	25849
819.2	25856
819.341	25856
819.481	25902
819.622	26115
819.762	26252
819.903	26237
820.043	26111
820.184	26199
820.324	26259
820.465	26168
820.605	26088
820.746	26046
820.886	25936
821.026	26043
821.167	26012
821.307	26081
821.447	26065
821.588	25883
821.728	25765
821.868	25601
822.008	25422
822.149	25373
822.289	25426
822.429	25270
822.569	25160
822.709	25126
822.849	24871
822.99	25015
823.13	24977
823.27	24920
823.41	24783
823.55	24681
823.69	24654
823.83	24837
823.97	24715
824.11	24544
824.25	24601
824.389	24661
824.529	24703
824.669	24623
824.809	24715
824.949	24700
825.089	24726
825.228	24684
825.368	24445
825.508	24403
825.648	24376
825.787	24521
825.927	24418
826.067	24407
826.206	24410
826.346	24563
826.485	24601
826.625	24330
826.765	24505
826.904	24330
827.044	24228
827.183	24213
827.323	24182
827.462	24220
827.601	24159
827.741	24205
827.88	24159
828.02	24057
828.159	24098
828.298	24285
828.437	24224
828.577	24190
828.716	24209
828.855	24232
828.994	23984
829.134	23935
829.273	24041
829.412	23889
829.551	23722
829.69	23840
829.829	23821
829.968	23863
830.107	23992
830.246	23703
830.385	23832
830.524	23775
830.663	23695
830.802	23695
830.941	23436
831.08	23505
831.219	23417
831.357	23501
831.496	23722
831.635	23539
831.774	23379
831.913	23334
832.051	23334
832.19	23318
832.329	23296
832.467	23220
832.606	23155
832.744	23166
832.883	23124
833.022	23105
833.16	23204
833.299	23258
833.437	23181
833.576	23360
833.714	23360
833.852	23299
833.991	23330
834.129	23425
834.267	23250
834.406	23261
834.544	23265
834.682	23124
834.821	23311
834.959	23414
835.097	23166
835.235	23311
835.373	23208
835.511	23143
835.65	23159
835.788	23022
835.926	23018
836.064	22972
836.202	22908
836.34	23018
836.478	23246
836.615	23022
836.753	23086
836.891	23227
837.029	23056
837.167	23044
837.305	23147
837.443	23124
837.58	23025
837.718	23067
837.856	23071
837.993	22873
838.131	22889
838.269	22862
838.406	22839
838.544	22797
838.681	22497
838.819	22485
838.956	22436
839.094	22314
839.231	22565
839.369	22565
839.506	22908
839.643	22698
839.781	22428
839.918	22447
840.055	22535
840.193	22337
840.33	22398
840.467	22413
840.604	22428
840.742	22649
840.879	22154
841.016	22204
841.153	22253
841.29	22497
841.427	22265
841.564	22333
841.701	22451
841.838	22257
841.975	22295
842.112	22211
842.249	22109
842.385	22162
842.522	22314
842.659	22059
842.796	22120
842.933	22120
843.069	22013
843.206	22116
843.343	22150
843.479	22040
843.616	22196
843.752	21918
843.889	21949
844.025	22051
844.162	21911
844.298	22082
844.435	21888
844.571	21899
844.708	21987
844.844	22116
844.98	22036
845.117	21987
845.253	21838
845.389	21800
845.525	21827
845.661	21671
845.798	21648
845.934	21644
846.07	21583
846.206	21633
846.342	21709
846.478	21686
846.614	21367
846.75	21355
846.886	21485
847.022	21412
847.158	21481
847.294	21386
847.429	21420
847.565	21408
847.701	21564
847.837	21199
847.972	21077
848.108	21283
848.244	21176
848.379	20918
848.515	20804
848.65	20937
848.786	20982
848.921	20921
849.057	21127
849.192	20963
849.328	21005
849.463	20971
849.598	21036
849.734	20910
849.869	20868
850.004	20861
850.14	20705
850.275	20845
850.41	20788
850.545	20731
850.68	20739
850.815	20746
850.95	20731
851.085	20826
851.22	20876
851.355	20838
851.49	20648
851.625	20716
851.76	20682
851.895	20720
852.03	20674
852.165	20644
852.299	20777
852.434	20842
852.569	20769
852.703	20861
852.838	20857
852.973	20891
853.107	20727
853.242	20674
853.376	20594
853.511	20450
853.645	20621
853.78	20648
853.914	20613
854.048	20556
854.183	20560
854.317	20587
854.451	20781
854.585	20602
854.72	20518
854.854	20640
854.988	20518
855.122	20545
855.256	20469
855.39	20549
855.524	20617
855.658	20640
855.792	20507
855.926	20625
856.06	20621
856.194	20731
856.327	20590
856.461	20560
856.595	20602
856.729	20720
856.862	20670
856.996	20731
857.13	20686
857.263	20735
857.397	20640
857.53	20602
857.664	20545
857.797	20651
857.931	20629
858.064	20609
858.197	20754
858.331	20583
858.464	20590
858.597	20522
858.731	20659
858.864	20530
858.997	20629
859.13	20404
859.263	20526
859.396	20678
859.529	20495
859.662	20568
859.795	20446
859.928	20655
860.061	20785
860.194	20758
860.327	20545
860.46	20693
860.592	20705
860.725	20693
860.858	20773
860.99	20560
861.123	20465
861.256	20461
861.388	20629
861.521	21195
861.653	20492
861.786	20355
861.918	20450
862.05	20450
862.183	20473
862.315	20575
862.447	20701
862.58	20556
862.712	20313
862.844	20358
862.976	20305
863.108	20431
863.24	20785
863.372	20233
863.504	20275
863.636	20191
863.768	20271
863.9	20248
864.032	20237
864.164	20244
864.296	20259
864.428	20423
864.559	20195
864.691	20290
864.823	20347
864.954	20240
865.086	20332
865.217	20229
865.349	20172
865.48	20180
865.612	20206
865.743	20362
865.875	20347
866.006	20233
866.137	20199
866.269	20244
866.4	20107
866.531	20168
866.662	20111
866.793	20107
866.924	20100
867.055	20115
867.186	20153
867.317	20081
867.448	20145
867.579	20130
867.71	20050
867.841	20012
867.972	20142
868.103	20103
868.233	20180
868.364	20172
868.495	20267
868.625	20305
868.756	20427
868.886	20381
869.017	20366
869.147	20499
869.278	20598
869.408	20370
869.539	20442
869.669	20446
869.799	20484
869.929	20499
870.06	20537
870.19	20739
870.32	20625
870.45	20750
870.58	20750
870.71	20800
870.84	20967
870.97	20735
871.1	20735
871.23	20963
871.36	20979
871.489	20933
871.619	20944
871.749	21096
871.879	21017
872.008	21009
872.138	20956
872.267	20986
872.397	20773
872.526	20758
872.656	20849
872.785	20933
872.915	21036
873.044	21131
873.173	20880
873.303	21055
873.432	20921
873.561	21093
873.69	21051
873.819	20944
873.948	21096
874.077	21032
874.206	20948
874.335	21013
874.464	21028
874.593	21264
874.722	21359
874.851	21291
874.979	21287
875.108	21370
875.237	21192
875.365	21165
875.494	21241
875.623	21245
875.751	21192
875.88	21169
876.008	21447
876.136	21389
876.265	21568
876.393	21675
876.521	21698
876.65	21671
876.778	21595
876.906	21568
877.034	21568
877.162	21526
877.29	21538
877.418	21625
877.546	21610
877.674	21542
877.802	21595
877.93	21583
878.058	21675
878.185	21515
878.313	21545
878.441	21591
878.568	21443
878.696	21538
878.824	21603
878.951	21591
879.079	21789
879.206	21766
879.333	21876
879.461	21625
879.588	21709
879.715	21781
879.842	22059
879.97	21614
880.097	21370
880.224	21458
880.351	21401
880.478	21416
880.605	21393
880.732	21454
880.859	21774
880.986	21466
881.112	21382
881.239	21291
881.366	21154
881.493	21055
881.619	20933
881.746	21085
881.872	20971
881.999	21001
882.125	20929
882.252	20986
882.378	20952
882.505	21043
882.631	20849
882.757	20792
882.883	20823
883.01	20804
883.136	20705
883.262	20640
883.388	20450
883.514	20815
883.64	20811
883.766	20568
883.892	20412
884.018	20587
884.143	20731
884.269	20663
884.395	20480
884.52	20275
884.646	20400
884.772	20298
884.897	20221
885.023	20434
885.148	20503
885.274	20495
885.399	20480
885.524	20454
885.65	20362
885.775	20248
885.9	20263
886.025	20469
886.15	20393
886.275	20221
886.4	20183
886.525	20256
886.65	20385
886.775	20339
886.9	20454
887.025	20499
887.149	20332
887.274	20145
887.399	20092
887.523	20111
887.648	20058
887.773	20092
887.897	20259
888.021	20183
888.146	20065
888.27	20187
888.395	20313
888.519	20199
888.643	20134
888.767	20161
888.891	20073
889.015	20039
889.139	20012
889.263	19978
889.387	20100
889.511	20130
889.635	19993
889.759	19799
889.883	19852
890.006	19830
890.13	20001
890.254	19860
890.377	19868
890.501	19795
890.624	19811
890.748	19712
890.871	19559
890.995	19544
891.118	19373
891.241	19525
891.364	19594
891.488	19734
891.611	19495
891.734	19609
891.857	19533
891.98	19468
892.103	19533
892.226	19616
892.349	19407
892.471	19403
892.594	19472
892.717	19586
892.839	19464
892.962	19354
893.085	19563
893.207	19445
893.33	19228
893.452	19430
893.575	19480
893.697	19362
893.819	19495
893.941	19655
894.064	19537
894.186	19324
894.308	19343
894.43	19544
894.552	19609
894.674	19510
894.796	19304
894.918	19331
895.04	19384
895.161	19491
895.283	19407
895.405	19487
895.526	19403
895.648	19388
895.769	19480
895.891	19388
896.012	19392
896.134	19499
896.255	19594
896.376	19468
896.498	19510
896.619	19415
896.74	19426
896.861	19438
896.982	19731
897.103	19913
897.224	19818
897.345	19666
897.466	19529
897.587	19605
897.708	19807
897.828	19674
897.949	19662
898.07	19548
898.19	19700
898.311	19746
898.431	19700
898.552	19628
898.672	19791
898.792	19776
898.913	19784
899.033	19575
899.153	19460
899.273	19289
899.393	19388
899.513	19544
899.633	19480
899.753	19441
899.873	19266
899.993	19365
900.113	19449
900.232	19457
900.352	19358
900.472	19236
900.591	19240
900.711	19384
900.83	19137
900.95	19289
901.069	19202
901.189	19187
901.308	18798
901.427	18711
901.546	18837
901.665	18814
901.784	18814
901.904	18635
902.023	18513
902.141	18475
902.26	18410
902.379	18407
902.498	18372
902.617	18266
902.735	18357
902.854	18315
902.973	18289
903.091	17863
903.21	18015
903.328	18015
903.446	17927
903.565	17855
903.683	17760
903.801	17707
903.919	17851
904.038	17802
904.156	17577
904.274	17668
904.392	17551
904.51	17657
904.627	17676
904.745	17649
904.863	17646
904.981	17467
905.098	17330
905.216	17318
905.334	17311
905.451	17284
905.569	17273
905.686	17235
905.803	17261
905.921	17094
906.038	17220
906.155	17067
906.272	16987
906.389	16923
906.506	16885
906.623	16930
906.74	16805
906.857	16656
906.974	16721
907.091	16976
907.208	17014
907.324	16892
907.441	16558
907.557	16538
907.674	16607
907.79	16481
907.907	16531
908.023	16615
908.139	16489
908.256	16546
908.372	16382
908.488	16303
908.604	16386
908.72	16192
908.836	16265
908.952	16185
909.068	16249
909.184	16291
909.3	16215
909.415	16257
909.531	16253
909.647	16048
909.762	16036
909.878	15956
909.993	15994
910.108	15930
910.224	15964
910.339	15907
910.454	15770
910.57	15759
910.685	15835
910.8	16010
910.915	15937
911.03	15751
911.145	15705
911.259	15629
911.374	15599
911.489	15428
911.604	15439
911.718	15226
911.833	15351
911.947	15203
912.062	15093
912.176	15321
912.291	15378
912.405	15370
912.519	15488
912.633	15561
912.748	15389
912.862	15332
912.976	15104
913.09	15001
913.204	15161
913.318	15161
913.431	15287
913.545	15207
913.659	15249
913.772	15085
913.886	15017
914	14929
914.113	14963
914.226	15043
914.34	15017
914.453	14819
914.566	15017
914.68	14845
914.793	14804
914.906	14606
915.019	14632
915.132	14568
915.245	14621
915.358	14617
915.47	14644
915.583	14549
915.696	14697
915.809	14720
915.921	14785
916.034	14549
916.146	14480
916.259	14465
916.371	14541
916.483	14450
916.595	14446
916.708	14461
916.82	14480
916.932	14377
917.044	14446
917.156	14278
917.268	14267
917.38	14229
917.491	14221
917.603	14244
917.715	14286
917.826	14389
917.938	14267
918.049	14092
918.161	14275
918.272	14351
918.384	14366
918.495	14218
918.606	14024
918.717	13982
918.828	14119
918.939	14069
919.05	13963
919.161	13989
919.272	13795
919.383	13959
919.494	14065
919.604	14176
919.715	14050
919.826	13921
919.936	13986
920.047	14069
920.157	14092
920.267	14134
920.378	13963
920.488	14027
920.598	14206
920.708	14343
920.818	14149
920.928	14054
921.038	14393
921.148	14225
921.258	13925
921.368	13875
921.477	13830
921.587	13655
921.697	13578
921.806	13799
921.916	13510
922.025	13430
922.134	13377
922.244	13381
922.353	13407
922.462	13365
922.571	13152
922.68	12966
922.789	13012
922.898	13072
923.007	12958
923.116	13065
923.224	13069
923.333	13015
923.442	12947
923.55	12916
923.659	12882
923.767	13004
923.876	12833
923.984	12935
924.092	12776
924.201	12878
924.309	12783
924.417	12901
924.525	12802
924.633	12669
924.741	13476
924.849	12597
924.956	12669
925.064	12570
925.172	12464
925.279	12525
925.387	12517
925.494	12467
925.602	12608
925.709	12559
925.816	12414
925.924	12490
926.031	12544
926.138	12460
926.245	12547
926.352	12300
926.459	12467
926.566	12528
926.673	12388
926.779	12289
926.886	12235
926.993	12095
927.099	12049
927.206	12007
927.312	12007
927.419	12125
927.525	12110
927.631	12064
927.737	11958
927.843	11927
927.95	11756
928.056	11893
928.162	11927
928.267	12015
928.373	12528
928.479	12068
928.585	11737
928.69	11866
928.796	11927
928.901	11794
929.007	11680
929.112	11760
929.218	11771
929.323	11619
929.428	11611
929.533	11733
929.638	11562
929.743	11592
929.848	11684
929.953	11615
930.058	11493
930.163	11383
930.267	11326
930.372	11501
930.477	11311
930.581	11581
930.685	11452
930.79	11269
930.894	11239
930.998	11227
931.103	11349
931.207	11048
931.311	10938
931.415	10752
931.519	10626
931.623	10565
