Data from test_V78500241_3287.txt Node
Date: Fri Mar 25 15:32:44 CST 2022
User: usil
Spectrometer: V785-0024
Trigger mode: 0
Integration Time (sec): 4.000000E-1
Scans to average: 1
Nonlinearity correction enabled: false
Boxcar width: 0
Storing dark spectrum: false
XAxis mode: Wavelengths
Number of Pixels in Spectrum: 1024
>>>>>Begin Spectral Data<<<<<
801.071	27310
801.214	27233
801.356	27047
801.499	26998
801.641	26830
801.783	26910
801.926	26739
802.068	26925
802.211	26674
802.353	26800
802.496	26492
802.638	26625
802.78	26393
802.923	26328
803.065	26256
803.208	26389
803.35	26469
803.492	26648
803.635	26606
803.777	26461
803.919	26537
804.061	26982
804.204	26655
804.346	26598
804.488	26366
804.63	26507
804.773	26507
804.915	26602
805.057	26583
805.199	26514
805.341	26686
805.483	26773
805.626	26750
805.768	26568
805.91	26796
806.052	26629
806.194	26537
806.336	26872
806.478	26708
806.62	26773
806.762	26861
806.904	26891
807.046	27351
807.188	27207
807.33	27138
807.472	27233
807.614	27051
807.756	27070
807.898	27017
808.04	26868
808.182	26956
808.324	26902
808.465	27096
808.607	27184
808.749	27325
808.891	27488
809.033	27367
809.174	27214
809.316	27241
809.458	27412
809.6	27237
809.741	27420
809.883	27306
810.025	27610
810.166	27667
810.308	27603
810.45	27519
810.591	27458
810.733	27268
810.875	27336
811.016	27077
811.158	27355
811.299	27386
811.441	27443
811.582	27599
811.724	27332
811.865	27180
812.007	27142
812.148	27237
812.29	27332
812.431	27477
812.573	27523
812.714	27736
812.855	27717
812.997	27884
813.138	27888
813.279	28101
813.421	27865
813.562	27724
813.703	27580
813.845	27595
813.986	27203
814.127	27024
814.268	27009
814.41	26925
814.551	27051
814.692	27085
814.833	26906
814.974	26743
815.115	26887
815.256	26773
815.397	26857
815.539	26864
815.68	26655
815.821	26644
815.962	26754
816.103	26625
816.244	26564
816.385	26560
816.526	26693
816.666	26347
816.807	26202
816.948	26309
817.089	26294
817.23	26278
817.371	26225
817.512	26161
817.653	26256
817.793	26065
817.934	26126
818.075	26282
818.216	26187
818.356	26115
818.497	26043
818.638	25993
818.778	25959
818.919	26016
819.06	26111
819.2	26012
819.341	26153
819.481	26157
819.622	26298
819.762	26442
819.903	26370
820.043	26412
820.184	26290
820.324	26229
820.465	26385
820.605	26347
820.746	26248
820.886	26214
821.026	26248
821.167	26298
821.307	26328
821.447	26237
821.588	26157
821.728	25959
821.868	25761
822.008	25772
822.149	25674
822.289	25670
822.429	25392
822.569	25457
822.709	25331
822.849	25148
822.99	25285
823.13	25129
823.27	25145
823.41	24875
823.55	24798
823.69	24947
823.83	25004
823.97	24871
824.11	24825
824.25	24753
824.389	24776
824.529	24882
824.669	24905
824.809	24863
824.949	24825
825.089	25019
825.228	24996
825.368	24650
825.508	24677
825.648	24700
825.787	24734
825.927	24878
826.067	24684
826.206	24772
826.346	24787
826.485	24661
826.625	24821
826.765	24791
826.904	24783
827.044	24509
827.183	24620
827.323	24376
827.462	24342
827.601	24448
827.741	24422
827.88	24525
828.02	24353
828.159	24426
828.298	24471
828.437	24517
828.577	24532
828.716	24658
828.855	24330
828.994	24323
829.134	24254
829.273	24117
829.412	24114
829.551	24091
829.69	24110
829.829	24254
829.968	24114
830.107	24235
830.246	24190
830.385	24197
830.524	24053
830.663	23908
830.802	23950
830.941	23741
831.08	23718
831.219	23874
831.357	23863
831.496	24038
831.635	23935
831.774	23627
831.913	23764
832.051	23562
832.19	23551
832.329	23585
832.467	23547
832.606	23493
832.744	23345
832.883	23395
833.022	23414
833.16	23436
833.299	23490
833.437	23463
833.576	23520
833.714	23535
833.852	23570
833.991	23501
834.129	23722
834.267	23611
834.406	23573
834.544	23570
834.682	23474
834.821	23516
834.959	23687
835.097	23562
835.235	23528
835.373	23600
835.511	23486
835.65	23383
835.788	23398
835.926	23318
836.064	23235
836.202	23246
836.34	23383
836.478	23429
836.615	23341
836.753	23364
836.891	23482
837.029	23440
837.167	23292
837.305	23235
837.443	23254
837.58	23334
837.718	23341
837.856	23239
837.993	23197
838.131	23250
838.269	23124
838.406	23105
838.544	23056
838.681	22942
838.819	22934
838.956	22736
839.094	22634
839.231	22801
839.369	22866
839.506	23003
839.643	22915
839.781	22797
839.918	22653
840.055	22668
840.193	22771
840.33	22634
840.467	22675
840.604	22755
840.742	22877
840.879	22462
841.016	22588
841.153	22523
841.29	22797
841.427	22618
841.564	22786
841.701	22778
841.838	22516
841.975	22485
842.112	22596
842.249	22356
842.385	22386
842.522	22645
842.659	22546
842.796	22382
842.933	22447
843.069	22261
843.206	22341
843.343	22519
843.479	22363
843.616	22242
843.752	22207
843.889	22105
844.025	22181
844.162	22185
844.298	22246
844.435	22105
844.571	22131
844.708	22230
844.844	22303
844.98	22291
845.117	22333
845.253	22116
845.389	22010
845.525	22097
845.661	21884
845.798	21975
845.934	22002
846.07	21861
846.206	21930
846.342	21991
846.478	21831
846.614	21770
846.75	21587
846.886	21591
847.022	21766
847.158	21591
847.294	21625
847.429	21622
847.565	21568
847.701	21915
847.837	21351
847.972	21348
848.108	21355
848.244	21564
848.379	21291
848.515	21302
848.65	21180
848.786	21211
848.921	21192
849.057	21317
849.192	21287
849.328	21214
849.463	21279
849.598	21169
849.734	21165
849.869	21116
850.004	21001
850.14	20960
850.275	20986
850.41	20948
850.545	20876
850.68	20925
850.815	21005
850.95	20944
851.085	21100
851.22	21055
851.355	21043
851.49	20902
851.625	20876
851.76	20952
851.895	20853
852.03	20986
852.165	20876
852.299	20994
852.434	21135
852.569	21127
852.703	21055
852.838	21028
852.973	21123
853.107	21062
853.242	20921
853.376	20967
853.511	20815
853.645	20773
853.78	20845
853.914	20857
854.048	20868
854.183	20792
854.317	20823
854.451	20998
854.585	20986
854.72	20887
854.854	20906
854.988	20750
855.122	20765
855.256	20689
855.39	20819
855.524	20887
855.658	20819
855.792	20807
855.926	20853
856.06	20773
856.194	20845
856.327	20868
856.461	20682
856.595	20838
856.729	20697
856.862	20906
856.996	20838
857.13	20845
857.263	20895
857.397	20857
857.53	20853
857.664	20842
857.797	20902
857.931	20845
858.064	20800
858.197	20880
858.331	20743
858.464	20705
858.597	20625
858.731	20750
858.864	20845
858.997	20792
859.13	20705
859.263	20682
859.396	20834
859.529	20807
859.662	20712
859.795	20705
859.928	20746
860.061	20944
860.194	20929
860.327	20792
860.46	20868
860.592	21043
860.725	20914
860.858	21005
860.99	20826
861.123	20705
861.256	20750
861.388	20800
861.521	21458
861.653	20697
861.786	20530
861.918	20644
862.05	20743
862.183	20727
862.315	20716
862.447	20739
862.58	20769
862.712	20590
862.844	20530
862.976	20583
863.108	20724
863.24	20937
863.372	20450
863.504	20469
863.636	20621
863.768	20480
863.9	20625
864.032	20457
864.164	20564
864.296	20636
864.428	20587
864.559	20552
864.691	20583
864.823	20575
864.954	20495
865.086	20545
865.217	20552
865.349	20351
865.48	20454
865.612	20423
865.743	20613
865.875	20347
866.006	20343
866.137	20393
866.269	20423
866.4	20552
866.531	20381
866.662	20309
866.793	20301
866.924	20324
867.055	20366
867.186	20343
867.317	20275
867.448	20324
867.579	20271
867.71	20381
867.841	20256
867.972	20313
868.103	20404
868.233	20355
868.364	20511
868.495	20568
868.625	20640
868.756	20590
868.886	20556
869.017	20693
869.147	20819
869.278	20724
869.408	20556
869.539	20697
869.669	20686
869.799	20712
869.929	20579
870.06	20594
870.19	20823
870.32	20842
870.45	20880
870.58	21009
870.71	21142
870.84	21017
870.97	21051
871.1	21055
871.23	21135
871.36	21249
871.489	21066
871.619	21207
871.749	21279
871.879	21306
872.008	21344
872.138	21211
872.267	21173
872.397	21085
872.526	21089
872.656	20967
872.785	20994
872.915	21218
873.044	21264
873.173	21237
873.303	21275
873.432	21313
873.561	21416
873.69	21306
873.819	21252
873.948	21306
874.077	21283
874.206	21230
874.335	21321
874.464	21332
874.593	21408
874.722	21287
874.851	21466
874.979	21534
875.108	21534
875.237	21310
875.365	21492
875.494	21504
875.623	21439
875.751	21462
875.88	21507
876.008	21591
876.136	21698
876.265	21880
876.393	21983
876.521	21888
876.65	21915
876.778	21884
876.906	21850
877.034	21770
877.162	21956
877.29	21831
877.418	21899
877.546	21888
877.674	21926
877.802	21850
877.93	21736
878.058	21800
878.185	21686
878.313	21698
878.441	21762
878.568	21694
878.696	21899
878.824	21861
878.951	21747
879.079	21987
879.206	22048
879.333	21964
879.461	21922
879.588	21838
879.715	22219
879.842	22158
879.97	21949
880.097	21804
880.224	21625
880.351	21770
880.478	21663
880.605	21568
880.732	21732
880.859	21861
880.986	21724
881.112	21682
881.239	21515
881.366	21302
881.493	21313
881.619	21230
881.746	21325
881.872	21222
881.999	21222
882.125	21222
882.252	21207
882.378	21199
882.505	21344
882.631	21070
882.757	20986
882.883	21070
883.01	20895
883.136	20849
883.262	20731
883.388	20727
883.514	20967
883.64	20914
883.766	20849
883.892	20792
884.018	20712
884.143	20845
884.269	20895
884.395	20716
884.52	20602
884.646	20670
884.772	20495
884.897	20473
885.023	20617
885.148	20640
885.274	20693
885.399	20689
885.524	20602
885.65	20564
885.775	20602
885.9	20552
886.025	20739
886.15	20606
886.275	20511
886.4	20503
886.525	20648
886.65	20454
886.775	20564
886.9	20609
887.025	20880
887.149	20579
887.274	20419
887.399	20396
887.523	20259
887.648	20237
887.773	20358
887.897	20495
888.021	20381
888.146	20309
888.27	20473
888.395	20507
888.519	20328
888.643	20351
888.767	20385
888.891	20240
889.015	20161
889.139	20191
889.263	20237
889.387	20294
889.511	20408
889.635	20282
889.759	20157
889.883	20229
890.006	20252
890.13	20263
890.254	20157
890.377	20126
890.501	20012
890.624	20043
890.748	19871
890.871	19807
890.995	19719
891.118	19670
891.241	19791
891.364	19723
891.488	19826
891.611	19795
891.734	19830
891.857	19791
891.98	19765
892.103	19723
892.226	19833
892.349	19681
892.471	19655
892.594	19674
892.717	19655
892.839	19601
892.962	19742
893.085	19700
893.207	19677
893.33	19578
893.452	19502
893.575	19594
893.697	19578
893.819	19845
893.941	19807
894.064	19769
894.186	19693
894.308	19670
894.43	19776
894.552	19784
894.674	19757
894.796	19567
894.918	19670
895.04	19601
895.161	19769
895.283	19731
895.405	19632
895.526	19620
895.648	19605
895.769	19594
895.891	19578
896.012	19803
896.134	19670
896.255	19662
896.376	19582
896.498	19590
896.619	19624
896.74	19681
896.861	19689
896.982	19963
897.103	20046
897.224	20008
897.345	19944
897.466	19830
897.587	19788
897.708	20039
897.828	20031
897.949	19818
898.07	19727
898.19	19734
898.311	19978
898.431	19879
898.552	19898
898.672	19986
898.792	20103
898.913	19837
899.033	19742
899.153	19674
899.273	19597
899.393	19605
899.513	19712
899.633	19559
899.753	19518
899.873	19548
899.993	19662
900.113	19567
900.232	19662
900.352	19552
900.472	19419
900.591	19369
900.711	19552
900.83	19339
900.95	19487
901.069	19525
901.189	19312
901.308	19053
901.427	19046
901.546	19084
901.665	19023
901.784	19034
901.904	18798
902.023	18783
902.141	18661
902.26	18509
902.379	18631
902.498	18585
902.617	18464
902.735	18570
902.854	18646
902.973	18471
903.091	18216
903.21	18178
903.328	18205
903.446	18102
903.565	17996
903.683	17935
903.801	17870
903.919	18106
904.038	17912
904.156	17805
904.274	17840
904.392	17767
904.51	17756
904.627	17760
904.745	17794
904.863	17809
904.981	17535
905.098	17463
905.216	17417
905.334	17535
905.451	17436
905.569	17410
905.686	17493
905.803	17398
905.921	17292
906.038	17265
906.155	17337
906.272	17162
906.389	17181
906.506	17033
906.623	17121
906.74	17079
906.857	16881
906.974	16847
907.091	17041
907.208	17102
907.324	16965
907.441	16957
907.557	16710
907.674	16744
907.79	16691
907.907	16672
908.023	16824
908.139	16702
908.256	16683
908.372	16535
908.488	16618
908.604	16470
908.72	16356
908.836	16440
908.952	16413
909.068	16489
909.184	16577
909.3	16512
909.415	16394
909.531	16440
909.647	16223
909.762	16185
909.878	16223
909.993	16143
910.108	16116
910.224	16013
910.339	16207
910.454	16025
910.57	15934
910.685	15884
910.8	16143
910.915	16154
911.03	15968
911.145	15804
911.259	15800
911.374	15743
911.489	15778
911.604	15606
911.718	15576
911.833	15545
911.947	15515
912.062	15408
912.176	15488
912.291	15584
912.405	15538
912.519	15633
912.633	15656
912.748	15568
912.862	15488
912.976	15389
913.09	15214
913.204	15386
913.318	15351
913.431	15355
913.545	15351
913.659	15420
913.772	15252
913.886	15093
914	15146
914.113	15180
914.226	15279
914.34	15222
914.453	14986
914.566	15176
914.68	14998
914.793	14979
914.906	14819
915.019	14758
915.132	14724
915.245	14743
915.358	14754
915.47	14765
915.583	14724
915.696	14952
915.809	14937
915.921	14800
916.034	14727
916.146	14587
916.259	14617
916.371	14708
916.483	14731
916.595	14621
916.708	14560
916.82	14602
916.932	14575
917.044	14476
917.156	14552
917.268	14423
917.38	14469
917.491	14457
917.603	14400
917.715	14526
917.826	14450
917.938	14351
918.049	14210
918.161	14396
918.272	14442
918.384	14446
918.495	14511
918.606	14164
918.717	14142
918.828	14256
918.939	14176
919.05	14092
919.161	14096
919.272	13875
919.383	13989
919.494	14187
919.604	14351
919.715	14256
919.826	13963
919.936	14039
920.047	14187
920.157	14138
920.267	14286
920.378	14191
920.488	14096
920.598	14408
920.708	14438
920.818	14202
920.928	14240
921.038	14385
921.148	14370
921.258	14054
921.368	14100
921.477	13902
921.587	13917
921.697	13814
921.806	13864
921.916	13826
922.025	13548
922.134	13601
922.244	13468
922.353	13559
922.462	13434
922.571	13422
922.68	13221
922.789	13179
922.898	13293
923.007	13107
923.116	13327
923.224	13137
923.333	13160
923.442	13034
923.55	13019
923.659	12973
923.767	13095
923.876	12962
923.984	13012
924.092	12916
924.201	12939
924.309	12989
924.417	12897
924.525	12909
924.633	12935
924.741	13761
924.849	12601
924.956	12749
925.064	12646
925.172	12635
925.279	12536
925.387	12688
925.494	12593
925.602	12719
925.709	12616
925.816	12551
925.924	12525
926.031	12646
926.138	12646
926.245	12627
926.352	12433
926.459	12623
926.566	12662
926.673	12498
926.779	12346
926.886	12369
926.993	12247
927.099	12175
927.206	12144
927.312	12213
927.419	12224
927.525	12262
927.631	12182
927.737	12129
927.843	12049
927.95	11973
928.056	11973
928.162	12068
928.267	12057
928.373	12684
928.479	12076
928.585	11916
928.69	11977
928.796	12030
928.901	11942
929.007	11790
929.112	11931
929.218	11817
929.323	11775
929.428	11783
929.533	11809
929.638	11627
929.743	11764
929.848	11752
929.953	11726
930.058	11699
930.163	11436
930.267	11452
930.372	11566
930.477	11356
930.581	11646
930.685	11543
930.79	11330
930.894	11387
930.998	11311
931.103	11524
931.207	11121
931.311	11029
931.415	10885
931.519	10774
931.623	10767
