Data from test_V78500241_1659.txt Node
Date: Fri Mar 25 15:21:24 CST 2022
User: usil
Spectrometer: V785-0024
Trigger mode: 0
Integration Time (sec): 4.000000E-1
Scans to average: 1
Nonlinearity correction enabled: false
Boxcar width: 0
Storing dark spectrum: false
XAxis mode: Wavelengths
Number of Pixels in Spectrum: 1024
>>>>>Begin Spectral Data<<<<<
801.071	27937
801.214	27922
801.356	27804
801.499	27557
801.641	27633
801.783	27519
801.926	27580
802.068	27507
802.211	27443
802.353	27302
802.496	27252
802.638	27230
802.78	27184
802.923	27275
803.065	27039
803.208	26960
803.35	27100
803.492	27195
803.635	27367
803.777	27226
803.919	27336
804.061	27545
804.204	27466
804.346	27317
804.488	27344
804.63	27268
804.773	27222
804.915	27329
805.057	27477
805.199	27283
805.341	27321
805.483	27667
805.626	27458
805.768	27355
805.91	27481
806.052	27382
806.194	27553
806.336	27545
806.478	27386
806.62	27576
806.762	27732
806.904	27884
807.046	28017
807.188	27911
807.33	27934
807.472	28029
807.614	27827
807.756	27827
807.898	27888
808.04	27778
808.182	27808
808.324	27732
808.465	27778
808.607	28021
808.749	28173
808.891	28211
809.033	28242
809.174	28067
809.316	28036
809.458	28131
809.6	28306
809.741	28455
809.883	28299
810.025	28440
810.166	28352
810.308	28352
810.45	28417
810.591	28272
810.733	28128
810.875	28226
811.016	28086
811.158	27956
811.299	28139
811.441	28200
811.582	28272
811.724	28169
811.865	28181
812.007	28185
812.148	28032
812.29	28074
812.431	28363
812.573	28386
812.714	28603
812.855	28649
812.997	28771
813.138	28790
813.279	28721
813.421	28691
813.562	28767
813.703	28531
813.845	28424
813.986	28029
814.127	27994
814.268	27854
814.41	27991
814.551	27838
814.692	28010
814.833	27781
814.974	27800
815.115	27739
815.256	27675
815.397	27732
815.539	27633
815.68	27587
815.821	27671
815.962	27557
816.103	27622
816.244	27507
816.385	27534
816.526	27272
816.666	27207
816.807	27116
816.948	27051
817.089	27222
817.23	27176
817.371	27131
817.512	27058
817.653	27062
817.793	27131
817.934	27036
818.075	27211
818.216	27249
818.356	27036
818.497	27005
818.638	26769
818.778	26887
818.919	26830
819.06	26895
819.2	26948
819.341	27127
819.481	27085
819.622	27241
819.762	27427
819.903	27351
820.043	27401
820.184	27313
820.324	27230
820.465	27348
820.605	27214
820.746	27138
820.886	27100
821.026	27180
821.167	27108
821.307	27249
821.447	27108
821.588	27096
821.728	26948
821.868	26663
822.008	26583
822.149	26476
822.289	26545
822.429	26305
822.569	26301
822.709	26259
822.849	26221
822.99	26134
823.13	26069
823.27	25963
823.41	25875
823.55	25727
823.69	25856
823.83	25746
823.97	26020
824.11	25776
824.25	25731
824.389	25674
824.529	25822
824.669	25803
824.809	25849
824.949	25841
825.089	25822
825.228	25955
825.368	25655
825.508	25582
825.648	25601
825.787	25647
825.927	25658
826.067	25563
826.206	25666
826.346	25734
826.485	25632
826.625	25518
826.765	25719
826.904	25491
827.044	25320
827.183	25339
827.323	25282
827.462	25392
827.601	25453
827.741	25350
827.88	25358
828.02	25050
828.159	25331
828.298	25339
828.437	25407
828.577	25324
828.716	25445
828.855	25187
828.994	24943
829.134	25008
829.273	24992
829.412	25027
829.551	24962
829.69	24992
829.829	25046
829.968	25206
830.107	25042
830.246	24924
830.385	24939
830.524	24916
830.663	24795
830.802	24601
830.941	24692
831.08	24532
831.219	24753
831.357	24665
831.496	24707
831.635	24593
831.774	24509
831.913	24410
832.051	24502
832.19	24593
832.329	24483
832.467	24292
832.606	24289
832.744	24308
832.883	24289
833.022	24357
833.16	24391
833.299	24277
833.437	24422
833.576	24292
833.714	24467
833.852	24384
833.991	24403
834.129	24456
834.267	24456
834.406	24369
834.544	24403
834.682	24410
834.821	24372
834.959	24479
835.097	24330
835.235	24270
835.373	24426
835.511	24281
835.65	24163
835.788	24262
835.926	24144
836.064	24030
836.202	23996
836.34	24235
836.478	24201
836.615	24159
836.753	24174
836.891	24254
837.029	24182
837.167	24194
837.305	24091
837.443	24133
837.58	24083
837.718	23946
837.856	24205
837.993	24072
838.131	23977
838.269	23847
838.406	24030
838.544	24015
838.681	23771
838.819	23695
838.956	23402
839.094	23433
839.231	23703
839.369	23760
839.506	23767
839.643	23733
839.781	23455
839.918	23463
840.055	23448
840.193	23501
840.33	23379
840.467	23376
840.604	23444
840.742	23676
840.879	23280
841.016	23436
841.153	23189
841.29	23455
841.427	23345
841.564	23425
841.701	23334
841.838	23250
841.975	23303
842.112	23326
842.249	23231
842.385	23140
842.522	23383
842.659	23128
842.796	23132
842.933	23208
843.069	23181
843.206	23029
843.343	23204
843.479	23143
843.616	23292
843.752	22968
843.889	23056
844.025	23003
844.162	22866
844.298	23018
844.435	22999
844.571	22892
844.708	22835
844.844	23140
844.98	23174
845.117	22949
845.253	22835
845.389	22702
845.525	22930
845.661	22873
845.798	22748
845.934	22793
846.07	22615
846.206	22729
846.342	22744
846.478	22656
846.614	22554
846.75	22413
846.886	22466
847.022	22432
847.158	22382
847.294	22436
847.429	22386
847.565	22394
847.701	22672
847.837	22158
847.972	22051
848.108	22166
848.244	22291
848.379	22078
848.515	22032
848.65	21922
848.786	22036
848.921	22090
849.057	22139
849.192	21987
849.328	22040
849.463	22223
849.598	21934
849.734	21968
849.869	22006
850.004	21797
850.14	21679
850.275	21728
850.41	21679
850.545	21736
850.68	21728
850.815	21816
850.95	21846
851.085	21873
851.22	21804
851.355	21937
851.49	21755
851.625	21759
851.76	21709
851.895	21614
852.03	21568
852.165	21781
852.299	21892
852.434	21827
852.569	21816
852.703	21766
852.838	21895
852.973	21854
853.107	21983
853.242	21720
853.376	21622
853.511	21595
853.645	21644
853.78	21717
853.914	21644
854.048	21580
854.183	21641
854.317	21682
854.451	21720
854.585	21561
854.72	21580
854.854	21705
854.988	21545
855.122	21603
855.256	21389
855.39	21618
855.524	21743
855.658	21561
855.792	21564
855.926	21576
856.06	21732
856.194	21804
856.327	21557
856.461	21549
856.595	21515
856.729	21500
856.862	21679
856.996	21595
857.13	21656
857.263	21682
857.397	21732
857.53	21576
857.664	21755
857.797	21759
857.931	21739
858.064	21682
858.197	21660
858.331	21572
858.464	21564
858.597	21667
858.731	21629
858.864	21606
858.997	21504
859.13	21660
859.263	21583
859.396	21804
859.529	21576
859.662	21500
859.795	21568
859.928	21709
860.061	21854
860.194	21808
860.327	21686
860.46	21633
860.592	21789
860.725	21762
860.858	21679
860.99	21618
861.123	21557
861.256	21610
861.388	21545
861.521	22272
861.653	21488
861.786	21431
861.918	21462
862.05	21504
862.183	21458
862.315	21545
862.447	21690
862.58	21500
862.712	21256
862.844	21214
862.976	21332
863.108	21344
863.24	21698
863.372	21264
863.504	21401
863.636	21241
863.768	21397
863.9	21355
864.032	21302
864.164	21302
864.296	21332
864.428	21428
864.559	21428
864.691	21351
864.823	21325
864.954	21344
865.086	21332
865.217	21226
865.349	21203
865.48	21157
865.612	21195
865.743	21420
865.875	21279
866.006	21245
866.137	21218
866.269	21180
866.4	21165
866.531	21138
866.662	21028
866.793	21165
866.924	21157
867.055	21157
867.186	21272
867.317	21089
867.448	21028
867.579	20994
867.71	21131
867.841	21150
867.972	21135
868.103	21138
868.233	21081
868.364	21249
868.495	21192
868.625	21287
868.756	21477
868.886	21374
869.017	21458
869.147	21359
869.278	21367
869.408	21405
869.539	21359
869.669	21435
869.799	21458
869.929	21553
870.06	21462
870.19	21682
870.32	21675
870.45	21728
870.58	21797
870.71	21808
870.84	21816
870.97	21705
871.1	21838
871.23	21945
871.36	21930
871.489	21808
871.619	21903
871.749	22029
871.879	21926
872.008	22143
872.138	21873
872.267	22063
872.397	21991
872.526	21736
872.656	21713
872.785	21846
872.915	21907
873.044	22032
873.173	22002
873.303	21975
873.432	22059
873.561	22173
873.69	21968
873.819	21968
873.948	22082
874.077	22017
874.206	21873
874.335	22097
874.464	22101
874.593	22284
874.722	22177
874.851	22314
874.979	22356
875.108	22265
875.237	22196
875.365	22055
875.494	22188
875.623	22166
875.751	22196
875.88	22280
876.008	22344
876.136	22360
876.265	22637
876.393	22824
876.521	22725
876.65	22706
876.778	22607
876.906	22641
877.034	22519
877.162	22466
877.29	22348
877.418	22656
877.546	22596
877.674	22428
877.802	22561
877.93	22550
878.058	22443
878.185	22519
878.313	22424
878.441	22443
878.568	22318
878.696	22508
878.824	22660
878.951	22797
879.079	22630
879.206	22866
879.333	22729
879.461	22508
879.588	22702
879.715	22755
879.842	22763
879.97	22493
880.097	22447
880.224	22356
880.351	22398
880.478	22352
880.605	22314
880.732	22333
880.859	22592
880.986	22455
881.112	22344
881.239	22223
881.366	22070
881.493	21964
881.619	21975
881.746	22040
881.872	21934
881.999	21945
882.125	21831
882.252	22078
882.378	21983
882.505	21949
882.631	21739
882.757	21701
882.883	21785
883.01	21606
883.136	21595
883.262	21564
883.388	21557
883.514	21724
883.64	21819
883.766	21633
883.892	21329
884.018	21374
884.143	21580
884.269	21679
884.395	21363
884.52	21211
884.646	21378
884.772	21180
884.897	21245
885.023	21245
885.148	21359
885.274	21454
885.399	21294
885.524	21260
885.65	21252
885.775	21389
885.9	21405
886.025	21355
886.15	21458
886.275	21184
886.4	21123
886.525	21272
886.65	21161
886.775	21116
886.9	21462
887.025	21443
887.149	21066
887.274	21138
887.399	20956
887.523	21096
887.648	21062
887.773	20902
887.897	21195
888.021	21165
888.146	20975
888.27	21081
888.395	21001
888.519	21085
888.643	20982
888.767	21146
888.891	20975
889.015	20777
889.139	20925
889.263	20743
889.387	20937
889.511	21154
889.635	20967
889.759	20807
889.883	20800
890.006	20705
890.13	20876
890.254	20739
890.377	20705
890.501	20617
890.624	20609
890.748	20735
890.871	20400
890.995	20488
891.118	20240
891.241	20552
891.364	20374
891.488	20526
891.611	20484
891.734	20366
891.857	20488
891.98	20419
892.103	20522
892.226	20461
892.349	20332
892.471	20107
892.594	20393
892.717	20374
892.839	20298
892.962	20317
893.085	20385
893.207	20237
893.33	20218
893.452	20282
893.575	20324
893.697	20286
893.819	20556
893.941	20564
894.064	20454
894.186	20176
894.308	20259
894.43	20476
894.552	20404
894.674	20400
894.796	20187
894.918	20237
895.04	20275
895.161	20450
895.283	20263
895.405	20187
895.526	20332
895.648	20256
895.769	20320
895.891	20271
896.012	20389
896.134	20275
896.255	20298
896.376	20324
896.498	20202
896.619	20339
896.74	20286
896.861	20461
896.982	20598
897.103	20746
897.224	20648
897.345	20556
897.466	20499
897.587	20590
897.708	20670
897.828	20545
897.949	20419
898.07	20358
898.19	20370
898.311	20598
898.431	20457
898.552	20518
898.672	20503
898.792	20419
898.913	20377
899.033	20347
899.153	20267
899.273	20111
899.393	20221
899.513	20339
899.633	20180
899.753	20168
899.873	20183
899.993	20214
900.113	20195
900.232	20134
900.352	20153
900.472	20031
900.591	19978
900.711	20088
900.83	19811
900.95	20126
901.069	20164
901.189	19967
901.308	19689
901.427	19635
901.546	19609
901.665	19658
901.784	19639
901.904	19540
902.023	19244
902.141	19164
902.26	19137
902.379	19099
902.498	19194
902.617	19027
902.735	19057
902.854	19122
902.973	19103
903.091	18890
903.21	18878
903.328	18703
903.446	18707
903.565	18707
903.683	18627
903.801	18525
903.919	18547
904.038	18460
904.156	18445
904.274	18384
904.392	18441
904.51	18353
904.627	18342
904.745	18422
904.863	18369
904.981	18125
905.098	18076
905.216	18007
905.334	18072
905.451	18053
905.569	18026
905.686	18019
905.803	17977
905.921	17680
906.038	17882
906.155	17771
906.272	17718
906.389	17718
906.506	17570
906.623	17592
906.74	17756
906.857	17410
906.974	17444
907.091	17497
907.208	17646
907.324	17429
907.441	17474
907.557	17284
907.674	17322
907.79	17216
907.907	17273
908.023	17174
908.139	17356
908.256	17132
908.372	17227
908.488	17204
908.604	17060
908.72	16980
908.836	16984
908.952	16991
909.068	17033
909.184	17159
909.3	16938
909.415	16927
909.531	17010
909.647	16668
909.762	16740
909.878	16637
909.993	16729
910.108	16626
910.224	16626
910.339	16694
910.454	16554
910.57	16599
910.685	16341
910.8	16706
910.915	16607
911.03	16474
911.145	16367
911.259	16299
911.374	16379
911.489	16181
911.604	16223
911.718	16097
911.833	16021
911.947	15842
912.062	15964
912.176	15975
912.291	16025
912.405	16032
912.519	16230
912.633	16158
912.748	16025
912.862	16116
912.976	15793
913.09	15660
913.204	15698
913.318	15846
913.431	15873
913.545	15892
913.659	15945
913.772	15842
913.886	15671
914	15561
914.113	15709
914.226	15789
914.34	15686
914.453	15549
914.566	15599
914.68	15523
914.793	15545
914.906	15317
915.019	15230
915.132	15245
915.245	15245
915.358	15279
915.47	15298
915.583	15272
915.696	15412
915.809	15344
915.921	15412
916.034	15192
916.146	15119
916.259	15123
916.371	15260
916.483	15237
916.595	14982
916.708	15104
916.82	15062
916.932	15028
917.044	15097
917.156	14948
917.268	14880
917.38	14830
917.491	14849
917.603	14861
917.715	14902
917.826	14956
917.938	14925
918.049	14777
918.161	14887
918.272	14880
918.384	14952
918.495	14887
918.606	14773
918.717	14724
918.828	14731
918.939	14621
919.05	14549
919.161	14682
919.272	14408
919.383	14522
919.494	14678
919.604	14762
919.715	14629
919.826	14564
919.936	14507
920.047	14731
920.157	14674
920.267	14792
920.378	14590
920.488	14514
920.598	14811
920.708	14998
920.818	14769
920.928	14743
921.038	14902
921.148	14948
921.258	14606
921.368	14507
921.477	14355
921.587	14362
921.697	14298
921.806	14374
921.916	14164
922.025	13967
922.134	13967
922.244	13894
922.353	13951
922.462	13841
922.571	13757
922.68	13662
922.789	13643
922.898	13750
923.007	13563
923.116	13594
923.224	13525
923.333	13559
923.442	13487
923.55	13472
923.659	13457
923.767	13624
923.876	13377
923.984	13506
924.092	13384
924.201	13411
924.309	13407
924.417	13426
924.525	13266
924.633	13247
924.741	14012
924.849	13027
924.956	13247
925.064	13110
925.172	12981
925.279	12954
925.387	13061
925.494	13061
925.602	13263
925.709	13031
925.816	12890
925.924	13019
926.031	12924
926.138	12993
926.245	13034
926.352	12909
926.459	13103
926.566	13038
926.673	12867
926.779	12772
926.886	12772
926.993	12665
927.099	12734
927.206	12585
927.312	12566
927.419	12662
927.525	12627
927.631	12597
927.737	12502
927.843	12452
927.95	12380
928.056	12429
928.162	12486
928.267	12403
928.373	13050
928.479	12506
928.585	12277
928.69	12388
928.796	12426
928.901	12281
929.007	12095
929.112	12270
929.218	12167
929.323	12186
929.428	12125
929.533	12258
929.638	12064
929.743	12072
929.848	12121
929.953	12022
930.058	11958
930.163	11836
930.267	11786
930.372	12011
930.477	11737
930.581	12011
930.685	11859
930.79	11676
930.894	11786
930.998	11726
931.103	11866
931.207	11414
931.311	11440
931.415	11337
931.519	11128
931.623	11079
