Data from test_V78500241_1234.txt Node
Date: Fri Mar 25 15:18:26 CST 2022
User: usil
Spectrometer: V785-0024
Trigger mode: 0
Integration Time (sec): 4.000000E-1
Scans to average: 1
Nonlinearity correction enabled: false
Boxcar width: 0
Storing dark spectrum: false
XAxis mode: Wavelengths
Number of Pixels in Spectrum: 1024
>>>>>Begin Spectral Data<<<<<
801.071	28226
801.214	28147
801.356	27884
801.499	27812
801.641	27701
801.783	27679
801.926	27732
802.068	27667
802.211	27625
802.353	27568
802.496	27431
802.638	27378
802.78	27348
802.923	27344
803.065	27233
803.208	27252
803.35	27294
803.492	27447
803.635	27427
803.777	27462
803.919	27454
804.061	27880
804.204	27534
804.346	27408
804.488	27408
804.63	27485
804.773	27526
804.915	27553
805.057	27694
805.199	27686
805.341	27686
805.483	27644
805.626	27580
805.768	27564
805.91	27675
806.052	27709
806.194	27637
806.336	27797
806.478	27629
806.62	27766
806.762	27812
806.904	27876
807.046	28105
807.188	28029
807.33	28059
807.472	28196
807.614	28063
807.756	28067
807.898	28112
808.04	27892
808.182	27934
808.324	28074
808.465	28032
808.607	28306
808.749	28322
808.891	28352
809.033	28599
809.174	28432
809.316	28352
809.458	28325
809.6	28329
809.741	28535
809.883	28569
810.025	28615
810.166	28538
810.308	28744
810.45	28637
810.591	28573
810.733	28554
810.875	28363
811.016	28352
811.158	28131
811.299	28459
811.441	28626
811.582	28561
811.724	28337
811.865	28306
812.007	28261
812.148	28375
812.29	28413
812.431	28577
812.573	28694
812.714	28782
812.855	28927
812.997	28968
813.138	28984
813.279	28972
813.421	28961
813.562	28896
813.703	28763
813.845	28710
813.986	28363
814.127	28169
814.268	28154
814.41	28112
814.551	27926
814.692	28169
814.833	27998
814.974	28150
815.115	27937
815.256	27941
815.397	27934
815.539	28017
815.68	27918
815.821	27770
815.962	27903
816.103	27861
816.244	27603
816.385	27762
816.526	27652
816.666	27439
816.807	27408
816.948	27549
817.089	27519
817.23	27374
817.371	27325
817.512	27462
817.653	27363
817.793	27340
817.934	27367
818.075	27370
818.216	27298
818.356	27348
818.497	27283
818.638	26998
818.778	27226
818.919	27222
819.06	27222
819.2	27230
819.341	27374
819.481	27359
819.622	27458
819.762	27762
819.903	27698
820.043	27599
820.184	27359
820.324	27599
820.465	27492
820.605	27363
820.746	27466
820.886	27450
821.026	27557
821.167	27477
821.307	27374
821.447	27443
821.588	27180
821.728	27188
821.868	27074
822.008	26960
822.149	26899
822.289	26826
822.429	26609
822.569	26503
822.709	26507
822.849	26355
822.99	26469
823.13	26358
823.27	26275
823.41	26142
823.55	26077
823.69	26157
823.83	26218
823.97	26069
824.11	26107
824.25	25928
824.389	26058
824.529	26195
824.669	26069
824.809	26187
824.949	26031
825.089	26031
825.228	26062
825.368	25868
825.508	25913
825.648	26020
825.787	26039
825.927	25871
826.067	25887
826.206	25879
826.346	26005
826.485	25887
826.625	25944
826.765	25944
826.904	25871
827.044	25674
827.183	25639
827.323	25655
827.462	25704
827.601	25487
827.741	25472
827.88	25731
828.02	25403
828.159	25582
828.298	25578
828.437	25628
828.577	25540
828.716	25651
828.855	25499
828.994	25339
829.134	25320
829.273	25301
829.412	25373
829.551	25293
829.69	25327
829.829	25483
829.968	25460
830.107	25453
830.246	25282
830.385	25331
830.524	25202
830.663	25133
830.802	25027
830.941	24924
831.08	24894
831.219	25110
831.357	24882
831.496	25141
831.635	24954
831.774	24905
831.913	24928
832.051	24665
832.19	24783
832.329	24745
832.467	24661
832.606	24604
832.744	24517
832.883	24692
833.022	24475
833.16	24730
833.299	24829
833.437	24753
833.576	24791
833.714	24776
833.852	24726
833.991	24650
834.129	24802
834.267	24730
834.406	24661
834.544	24848
834.682	24795
834.821	24707
834.959	24825
835.097	24574
835.235	24817
835.373	24715
835.511	24635
835.65	24593
835.788	24635
835.926	24509
836.064	24426
836.202	24410
836.34	24570
836.478	24715
836.615	24517
836.753	24532
836.891	24532
837.029	24566
837.167	24498
837.305	24395
837.443	24448
837.58	24475
837.718	24505
837.856	24391
837.993	24350
838.131	24376
838.269	24232
838.406	24445
838.544	24220
838.681	23980
838.819	23980
838.956	23916
839.094	23893
839.231	23878
839.369	24102
839.506	24159
839.643	24038
839.781	23786
839.918	23798
840.055	23863
840.193	23771
840.33	23699
840.467	23741
840.604	23832
840.742	24079
840.879	23672
841.016	23710
841.153	23608
841.29	23718
841.427	23665
841.564	23703
841.701	23889
841.838	23684
841.975	23589
842.112	23710
842.249	23558
842.385	23505
842.522	23737
842.659	23539
842.796	23440
842.933	23630
843.069	23585
843.206	23554
843.343	23455
843.479	23600
843.616	23524
843.752	23235
843.889	23341
844.025	23379
844.162	23181
844.298	23376
844.435	23376
844.571	23330
844.708	23501
844.844	23436
844.98	23543
845.117	23261
845.253	23288
845.389	23288
845.525	23220
845.661	23170
845.798	23117
845.934	23060
846.07	22885
846.206	22915
846.342	23136
846.478	22972
846.614	22816
846.75	22725
846.886	22767
847.022	22946
847.158	22790
847.294	22793
847.429	22805
847.565	22679
847.701	22972
847.837	22557
847.972	22478
848.108	22538
848.244	22672
848.379	22440
848.515	22398
848.65	22348
848.786	22234
848.921	22356
849.057	22462
849.192	22402
849.328	22440
849.463	22261
849.598	22318
849.734	22242
849.869	22181
850.004	22150
850.14	22211
850.275	22143
850.41	22154
850.545	21941
850.68	22116
850.815	22074
850.95	22166
851.085	22268
851.22	22223
851.355	22116
851.49	22097
851.625	21972
851.76	22120
851.895	21983
852.03	22040
852.165	22097
852.299	22063
852.434	22074
852.569	22090
852.703	22109
852.838	22268
852.973	22246
853.107	22230
853.242	21922
853.376	21998
853.511	21850
853.645	21949
853.78	22166
853.914	21964
854.048	21945
854.183	21975
854.317	21911
854.451	22063
854.585	22040
854.72	21991
854.854	22036
854.988	21895
855.122	21934
855.256	21755
855.39	22002
855.524	22036
855.658	22032
855.792	21945
855.926	21846
856.06	21968
856.194	21945
856.327	21880
856.461	21884
856.595	21941
856.729	21892
856.862	21945
856.996	22017
857.13	22017
857.263	22036
857.397	21960
857.53	21865
857.664	22109
857.797	21994
857.931	22048
858.064	21968
858.197	22105
858.331	21915
858.464	21854
858.597	21827
858.731	21941
858.864	21964
858.997	21876
859.13	21945
859.263	21918
859.396	21975
859.529	21884
859.662	21865
859.795	21816
859.928	22006
860.061	22124
860.194	22036
860.327	21972
860.46	21903
860.592	22086
860.725	22021
860.858	22021
860.99	21895
861.123	21781
861.256	21888
861.388	21922
861.521	22634
861.653	21812
861.786	21610
861.918	21823
862.05	21926
862.183	21899
862.315	21869
862.447	21994
862.58	21831
862.712	21739
862.844	21633
862.976	21732
863.108	21652
863.24	22036
863.372	21625
863.504	21603
863.636	21603
863.768	21728
863.9	21671
864.032	21591
864.164	21641
864.296	21561
864.428	21641
864.559	21781
864.691	21751
864.823	21694
864.954	21606
865.086	21443
865.217	21633
865.349	21439
865.48	21519
865.612	21515
865.743	21755
865.875	21462
866.006	21370
866.137	21580
866.269	21466
866.4	21526
866.531	21458
866.662	21496
866.793	21504
866.924	21488
867.055	21462
867.186	21523
867.317	21382
867.448	21367
867.579	21382
867.71	21287
867.841	21325
867.972	21412
868.103	21374
868.233	21416
868.364	21454
868.495	21603
868.625	21595
868.756	21751
868.886	21580
869.017	21701
869.147	21793
869.278	21751
869.408	21705
869.539	21648
869.669	21701
869.799	21701
869.929	21785
870.06	21823
870.19	22032
870.32	22010
870.45	22074
870.58	22063
870.71	22177
870.84	22215
870.97	21880
871.1	22105
871.23	22299
871.36	22234
871.489	22131
871.619	22204
871.749	22143
871.879	22238
872.008	22382
872.138	22268
872.267	22249
872.397	22204
872.526	22051
872.656	22101
872.785	22181
872.915	22143
873.044	22356
873.173	22291
873.303	22272
873.432	22394
873.561	22405
873.69	22295
873.819	22200
873.948	22310
874.077	22356
874.206	22272
874.335	22367
874.464	22516
874.593	22432
874.722	22493
874.851	22455
874.979	22527
875.108	22519
875.237	22379
875.365	22344
875.494	22421
875.623	22554
875.751	22390
875.88	22523
876.008	22516
876.136	22634
876.265	22835
876.393	23029
876.521	22984
876.65	22946
876.778	22953
876.906	22828
877.034	22774
877.162	22862
877.29	22828
877.418	22904
877.546	22930
877.674	22843
877.802	22820
877.93	22934
878.058	22820
878.185	22767
878.313	22900
878.441	22908
878.568	22618
878.696	22778
878.824	23003
878.951	22965
879.079	23121
879.206	23178
879.333	23018
879.461	22839
879.588	22980
879.715	23033
879.842	23102
879.97	22904
880.097	22752
880.224	22653
880.351	22733
880.478	22630
880.605	22592
880.732	22752
880.859	22968
880.986	22729
881.112	22717
881.239	22523
881.366	22512
881.493	22284
881.619	22276
881.746	22192
881.872	22211
881.999	22070
882.125	22154
882.252	22268
882.378	22200
882.505	22432
882.631	22169
882.757	21972
882.883	22093
883.01	21915
883.136	22010
883.262	21846
883.388	21827
883.514	21922
883.64	22025
883.766	21857
883.892	21675
884.018	21728
884.143	21675
884.269	21922
884.395	21766
884.52	21587
884.646	21591
884.772	21492
884.897	21587
885.023	21538
885.148	21656
885.274	21671
885.399	21629
885.524	21549
885.65	21644
885.775	21545
885.9	21576
886.025	21618
886.15	21675
886.275	21462
886.4	21439
886.525	21545
886.65	21359
886.775	21405
886.9	21652
887.025	21743
887.149	21614
887.274	21405
887.399	21348
887.523	21359
887.648	21268
887.773	21264
887.897	21378
888.021	21344
888.146	21245
888.27	21355
888.395	21435
888.519	21382
888.643	21317
888.767	21294
888.891	21226
889.015	20994
889.139	21169
889.263	21230
889.387	21256
889.511	21207
889.635	21279
889.759	21085
889.883	21108
890.006	21138
890.13	21249
890.254	21024
890.377	21089
890.501	20796
890.624	20811
890.748	20918
890.871	20750
890.995	20678
891.118	20689
891.241	20651
891.364	20625
891.488	20823
891.611	20788
891.734	20667
891.857	20674
891.98	20785
892.103	20804
892.226	20579
892.349	20648
892.471	20499
892.594	20590
892.717	20686
892.839	20552
892.962	20473
893.085	20670
893.207	20564
893.33	20374
893.452	20522
893.575	20648
893.697	20613
893.819	20594
893.941	20785
894.064	20701
894.186	20511
894.308	20454
894.43	20590
894.552	20716
894.674	20609
894.796	20511
894.918	20598
895.04	20655
895.161	20655
895.283	20507
895.405	20461
895.526	20556
895.648	20568
895.769	20609
895.891	20617
896.012	20686
896.134	20530
896.255	20602
896.376	20575
896.498	20549
896.619	20495
896.74	20640
896.861	20564
896.982	20868
897.103	21062
897.224	20792
897.345	20746
897.466	20743
897.587	20750
897.708	20883
897.828	20823
897.949	20743
898.07	20480
898.19	20743
898.311	20746
898.431	20769
898.552	20739
898.672	20842
898.792	20853
898.913	20754
899.033	20701
899.153	20632
899.273	20549
899.393	20461
899.513	20518
899.633	20454
899.753	20476
899.873	20495
899.993	20579
900.113	20362
900.232	20530
900.352	20408
900.472	20294
900.591	20259
900.711	20320
900.83	20115
900.95	20389
901.069	20381
901.189	20103
901.308	19986
901.427	19776
901.546	19822
901.665	19807
901.784	19841
901.904	19677
902.023	19704
902.141	19430
902.26	19362
902.379	19472
902.498	19415
902.617	19285
902.735	19369
902.854	19403
902.973	19228
903.091	19065
903.21	19008
903.328	19050
903.446	18859
903.565	18867
903.683	18871
903.801	18711
903.919	18768
904.038	18829
904.156	18540
904.274	18673
904.392	18574
904.51	18532
904.627	18597
904.745	18696
904.863	18760
904.981	18475
905.098	18323
905.216	18353
905.334	18262
905.451	18254
905.569	18239
905.686	18308
905.803	18148
905.921	18007
906.038	18174
906.155	18106
906.272	18038
906.389	18034
906.506	17687
906.623	17847
906.74	17828
906.857	17817
906.974	17752
907.091	17863
907.208	17923
907.324	17817
907.441	17680
907.557	17668
907.674	17482
907.79	17406
907.907	17543
908.023	17558
908.139	17604
908.256	17421
908.372	17391
908.488	17376
908.604	17239
908.72	17223
908.836	17250
908.952	17204
909.068	17307
909.184	17273
909.3	17181
909.415	17265
909.531	17204
909.647	16980
909.762	17041
909.878	16911
909.993	16968
910.108	16911
910.224	16999
910.339	16972
910.454	16816
910.57	16706
910.685	16664
910.8	17060
910.915	16946
911.03	16805
911.145	16637
911.259	16535
911.374	16599
911.489	16432
911.604	16421
911.718	16257
911.833	16329
911.947	16112
912.062	16124
912.176	16207
912.291	16242
912.405	16257
912.519	16424
912.633	16402
912.748	16299
912.862	16230
912.976	16112
913.09	16013
913.204	16143
913.318	16131
913.431	16242
913.545	16112
913.659	16196
913.772	16059
913.886	15857
914	15854
914.113	15960
914.226	15945
914.34	15979
914.453	15835
914.566	15861
914.68	15728
914.793	15698
914.906	15466
915.019	15538
915.132	15424
915.245	15492
915.358	15488
915.47	15519
915.583	15500
915.696	15515
915.809	15629
915.921	15587
916.034	15466
916.146	15447
916.259	15412
916.371	15443
916.483	15488
916.595	15275
916.708	15374
916.82	15135
916.932	15233
917.044	15245
917.156	15298
917.268	15123
917.38	15157
917.491	15058
917.603	15085
917.715	15218
917.826	15241
917.938	15043
918.049	14971
918.161	14990
918.272	15207
918.384	15150
918.495	15127
918.606	14929
918.717	14727
918.828	14982
918.939	14861
919.05	14800
919.161	14845
919.272	14571
919.383	14724
919.494	14982
919.604	14990
919.715	14788
919.826	14750
919.936	14842
920.047	14902
920.157	14788
920.267	15009
920.378	14921
920.488	14823
920.598	14975
920.708	15089
920.818	14975
920.928	14952
921.038	15146
921.148	15100
921.258	14899
921.368	14720
921.477	14617
921.587	14484
921.697	14370
921.806	14545
921.916	14385
922.025	14187
922.134	14259
922.244	14107
922.353	14275
922.462	14084
922.571	13959
922.68	13830
922.789	13784
922.898	13845
923.007	13738
923.116	13879
923.224	13887
923.333	13803
923.442	13605
923.55	13655
923.659	13662
923.767	13738
923.876	13586
923.984	13700
924.092	13586
924.201	13620
924.309	13616
924.417	13616
924.525	13480
924.633	13445
924.741	14168
924.849	13293
924.956	13438
925.064	13301
925.172	13187
925.279	13244
925.387	13209
925.494	13209
925.602	13381
925.709	13324
925.816	13145
925.924	13110
926.031	13285
926.138	13209
926.245	13187
926.352	13038
926.459	13209
926.566	13301
926.673	13152
926.779	12932
926.886	12989
926.993	12810
927.099	12776
927.206	12730
927.312	12779
927.419	12749
927.525	12871
927.631	12757
927.737	12650
927.843	12646
927.95	12540
928.056	12677
928.162	12631
928.267	12662
928.373	13217
928.479	12692
928.585	12483
928.69	12559
928.796	12631
928.901	12456
929.007	12311
929.112	12452
929.218	12464
929.323	12292
929.428	12346
929.533	12357
929.638	12228
929.743	12315
929.848	12304
929.953	12273
930.058	12144
930.163	11999
930.267	12034
930.372	12190
930.477	11977
930.581	12197
930.685	11980
930.79	11878
930.894	12003
930.998	11783
931.103	11996
931.207	11592
931.311	11554
931.415	11448
931.519	11254
931.623	11296
