Data from test_V78500241_3166.txt Node
Date: Fri Mar 25 15:31:54 CST 2022
User: usil
Spectrometer: V785-0024
Trigger mode: 0
Integration Time (sec): 4.000000E-1
Scans to average: 1
Nonlinearity correction enabled: false
Boxcar width: 0
Storing dark spectrum: false
XAxis mode: Wavelengths
Number of Pixels in Spectrum: 1024
>>>>>Begin Spectral Data<<<<<
801.071	27150
801.214	27093
801.356	26830
801.499	26731
801.641	26743
801.783	26552
801.926	26682
802.068	26629
802.211	26640
802.353	26537
802.496	26370
802.638	26286
802.78	26282
802.923	26199
803.065	26351
803.208	26221
803.35	26271
803.492	26412
803.635	26465
803.777	26202
803.919	26389
804.061	26758
804.204	26446
804.346	26358
804.488	26252
804.63	26450
804.773	26290
804.915	26450
805.057	26442
805.199	26385
805.341	26434
805.483	26526
805.626	26389
805.768	26301
805.91	26480
806.052	26575
806.194	26465
806.336	26617
806.478	26590
806.62	26556
806.762	26587
806.904	26902
807.046	27032
807.188	27017
807.33	26910
807.472	26940
807.614	26830
807.756	26887
807.898	26735
808.04	26731
808.182	26682
808.324	26788
808.465	26811
808.607	26994
808.749	26994
808.891	27294
809.033	27279
809.174	27279
809.316	27089
809.458	27096
809.6	26967
809.741	27207
809.883	27252
810.025	27321
810.166	27374
810.308	27397
810.45	27363
810.591	27332
810.733	27119
810.875	27264
811.016	27020
811.158	27005
811.299	27294
811.441	27355
811.582	27279
811.724	27154
811.865	26918
812.007	27142
812.148	27085
812.29	27116
812.431	27249
812.573	27473
812.714	27447
812.855	27682
812.997	27793
813.138	27747
813.279	27793
813.421	27545
813.562	27622
813.703	27477
813.845	27252
813.986	27058
814.127	26982
814.268	26826
814.41	26720
814.551	26655
814.692	26834
814.833	26674
814.974	26773
815.115	26933
815.256	26716
815.397	26678
815.539	26670
815.68	26575
815.821	26385
815.962	26621
816.103	26571
816.244	26442
816.385	26336
816.526	26396
816.666	26176
816.807	26020
816.948	26100
817.089	26012
817.23	26054
817.371	25898
817.512	25944
817.653	26096
817.793	25997
817.934	26084
818.075	26016
818.216	26107
818.356	25959
818.497	25856
818.638	25742
818.778	25715
818.919	25666
819.06	25662
819.2	25925
819.341	26054
819.481	25978
819.622	26161
819.762	26267
819.903	26119
820.043	26168
820.184	26233
820.324	26077
820.465	26275
820.605	26168
820.746	26039
820.886	25883
821.026	25974
821.167	25963
821.307	26031
821.447	25993
821.588	25974
821.728	25738
821.868	25738
822.008	25457
822.149	25594
822.289	25396
822.429	25251
822.569	25129
822.709	25164
822.849	25038
822.99	25042
823.13	25065
823.27	24939
823.41	24734
823.55	24745
823.69	24791
823.83	24840
823.97	24787
824.11	24642
824.25	24642
824.389	24563
824.529	24665
824.669	24715
824.809	24658
824.949	24741
825.089	24696
825.228	24688
825.368	24426
825.508	24380
825.648	24597
825.787	24494
825.927	24494
826.067	24490
826.206	24452
826.346	24612
826.485	24517
826.625	24452
826.765	24582
826.904	24502
827.044	24304
827.183	24330
827.323	24106
827.462	24152
827.601	24136
827.741	24262
827.88	24182
828.02	24057
828.159	24186
828.298	24190
828.437	24262
828.577	24057
828.716	24235
828.855	24133
828.994	23942
829.134	23927
829.273	23916
829.412	23855
829.551	23840
829.69	23916
829.829	24045
829.968	24018
830.107	23973
830.246	23942
830.385	23950
830.524	23794
830.663	23783
830.802	23668
830.941	23661
831.08	23474
831.219	23691
831.357	23577
831.496	23733
831.635	23395
831.774	23463
831.913	23307
832.051	23273
832.19	23387
832.329	23280
832.467	23204
832.606	23098
832.744	23246
832.883	23258
833.022	23181
833.16	23200
833.299	23208
833.437	23128
833.576	23258
833.714	23162
833.852	23349
833.991	23398
834.129	23417
834.267	23356
834.406	23242
834.544	23379
834.682	23330
834.821	23200
834.959	23459
835.097	23273
835.235	23147
835.373	23364
835.511	23273
835.65	23105
835.788	23132
835.926	22987
836.064	22930
836.202	23083
836.34	23113
836.478	23372
836.615	23170
836.753	23159
836.891	23136
837.029	23178
837.167	22991
837.305	22919
837.443	22938
837.58	22984
837.718	22938
837.856	22987
837.993	22946
838.131	22995
838.269	22873
838.406	22801
838.544	22729
838.681	22668
838.819	22713
838.956	22493
839.094	22512
839.231	22474
839.369	22611
839.506	22881
839.643	22733
839.781	22455
839.918	22379
840.055	22436
840.193	22344
840.33	22367
840.467	22402
840.604	22344
840.742	22630
840.879	22329
841.016	22318
841.153	22325
841.29	22542
841.427	22398
841.564	22459
841.701	22379
841.838	22390
841.975	22284
842.112	22291
842.249	22276
842.385	22207
842.522	22386
842.659	22223
842.796	22116
842.933	22196
843.069	22150
843.206	22040
843.343	22169
843.479	22143
843.616	22120
843.752	21960
843.889	21979
844.025	22002
844.162	21835
844.298	21968
844.435	21998
844.571	21812
844.708	21983
844.844	22025
844.98	21994
845.117	22093
845.253	21789
845.389	21751
845.525	21827
845.661	21660
845.798	21614
845.934	21747
846.07	21682
846.206	21736
846.342	21873
846.478	21572
846.614	21473
846.75	21268
846.886	21481
847.022	21481
847.158	21401
847.294	21401
847.429	21412
847.565	21351
847.701	21648
847.837	21131
847.972	21058
848.108	21222
848.244	21211
848.379	20929
848.515	20994
848.65	20891
848.786	20880
848.921	20979
849.057	21036
849.192	21108
849.328	21005
849.463	20948
849.598	20864
849.734	20864
849.869	20857
850.004	20739
850.14	20788
850.275	20815
850.41	20648
850.545	20750
850.68	20731
850.815	20746
850.95	20788
851.085	21005
851.22	20868
851.355	20769
851.49	20629
851.625	20705
851.76	20735
851.895	20575
852.03	20670
852.165	20800
852.299	20663
852.434	20735
852.569	20819
852.703	20686
852.838	20754
852.973	20781
853.107	20948
853.242	20777
853.376	20636
853.511	20457
853.645	20560
853.78	20735
853.914	20667
854.048	20530
854.183	20530
854.317	20674
854.451	20667
854.585	20594
854.72	20552
854.854	20434
854.988	20522
855.122	20530
855.256	20465
855.39	20518
855.524	20659
855.658	20575
855.792	20549
855.926	20560
856.06	20689
856.194	20617
856.327	20545
856.461	20427
856.595	20518
856.729	20461
856.862	20712
856.996	20594
857.13	20636
857.263	20648
857.397	20609
857.53	20461
857.664	20644
857.797	20606
857.931	20686
858.064	20522
858.197	20651
858.331	20598
858.464	20590
858.597	20522
858.731	20590
858.864	20530
858.997	20473
859.13	20537
859.263	20701
859.396	20598
859.529	20446
859.662	20670
859.795	20469
859.928	20541
860.061	20629
860.194	20735
860.327	20705
860.46	20636
860.592	20712
860.725	20674
860.858	20731
860.99	20613
861.123	20469
861.256	20415
861.388	20606
861.521	21104
861.653	20450
861.786	20419
861.918	20461
862.05	20423
862.183	20446
862.315	20568
862.447	20514
862.58	20404
862.712	20271
862.844	20286
862.976	20336
863.108	20469
863.24	20674
863.372	20301
863.504	20358
863.636	20233
863.768	20328
863.9	20267
864.032	20218
864.164	20324
864.296	20317
864.428	20355
864.559	20351
864.691	20377
864.823	20317
864.954	20248
865.086	20263
865.217	20225
865.349	20191
865.48	20115
865.612	20202
865.743	20400
865.875	20161
866.006	20164
866.137	20259
866.269	20191
866.4	20229
866.531	20073
866.662	20134
866.793	20218
866.924	20126
867.055	20229
867.186	20210
867.317	20084
867.448	20031
867.579	20168
867.71	19967
867.841	20077
867.972	20107
868.103	20119
868.233	20164
868.364	20195
868.495	20157
868.625	20366
868.756	20651
868.886	20324
869.017	20351
869.147	20427
869.278	20480
869.408	20454
869.539	20442
869.669	20514
869.799	20427
869.929	20560
870.06	20488
870.19	20765
870.32	20727
870.45	20716
870.58	20773
870.71	20838
870.84	20880
870.97	20849
871.1	20674
871.23	20979
871.36	21013
871.489	20883
871.619	20963
871.749	20979
871.879	21039
872.008	21123
872.138	21135
872.267	21058
872.397	20868
872.526	20906
872.656	20800
872.785	20792
872.915	21017
873.044	21066
873.173	21001
873.303	21127
873.432	21055
873.561	21039
873.69	21096
873.819	20971
873.948	21043
874.077	20998
874.206	20963
874.335	21119
874.464	21123
874.593	21218
874.722	21272
874.851	21287
874.979	21359
875.108	21317
875.237	21272
875.365	21192
875.494	21214
875.623	21275
875.751	21233
875.88	21294
876.008	21332
876.136	21332
876.265	21686
876.393	21793
876.521	21720
876.65	21694
876.778	21720
876.906	21587
877.034	21606
877.162	21561
877.29	21648
877.418	21637
877.546	21641
877.674	21667
877.802	21564
877.93	21587
878.058	21500
878.185	21519
878.313	21553
878.441	21686
878.568	21386
878.696	21553
878.824	21591
878.951	21747
879.079	21819
879.206	21819
879.333	21838
879.461	21671
879.588	21698
879.715	21812
879.842	21926
879.97	21675
880.097	21443
880.224	21386
880.351	21447
880.478	21450
880.605	21473
880.732	21454
880.859	21629
880.986	21439
881.112	21557
881.239	21317
881.366	21146
881.493	21157
881.619	20998
881.746	21127
881.872	20975
881.999	21051
882.125	20979
882.252	21089
882.378	21070
882.505	21264
882.631	20876
882.757	20670
882.883	20804
883.01	20746
883.136	20739
883.262	20560
883.388	20587
883.514	20724
883.64	20697
883.766	20594
883.892	20415
884.018	20545
884.143	20659
884.269	20781
884.395	20408
884.52	20328
884.646	20396
884.772	20301
884.897	20259
885.023	20374
885.148	20526
885.274	20621
885.399	20488
885.524	20317
885.65	20275
885.775	20336
885.9	20366
886.025	20396
886.15	20419
886.275	20431
886.4	20252
886.525	20370
886.65	20332
886.775	20263
886.9	20457
887.025	20461
887.149	20336
887.274	20183
887.399	20221
887.523	20138
887.648	20096
887.773	20065
887.897	20240
888.021	20191
888.146	20054
888.27	20218
888.395	20229
888.519	20195
888.643	20202
888.767	20180
888.891	19982
889.015	20031
889.139	19989
889.263	20077
889.387	20046
889.511	20168
889.635	20016
889.759	19913
889.883	19879
890.006	19822
890.13	19997
890.254	19852
890.377	19879
890.501	19780
890.624	19651
890.748	19685
890.871	19693
890.995	19571
891.118	19480
891.241	19601
891.364	19457
891.488	19677
891.611	19487
891.734	19635
891.857	19578
891.98	19510
892.103	19537
892.226	19468
892.349	19468
892.471	19304
892.594	19559
892.717	19483
892.839	19373
892.962	19480
893.085	19533
893.207	19426
893.33	19392
893.452	19362
893.575	19460
893.697	19358
893.819	19609
893.941	19727
894.064	19651
894.186	19441
894.308	19343
894.43	19518
894.552	19544
894.674	19601
894.796	19438
894.918	19499
895.04	19457
895.161	19605
895.283	19529
895.405	19533
895.526	19529
895.648	19445
895.769	19563
895.891	19403
896.012	19449
896.134	19544
896.255	19468
896.376	19460
896.498	19441
896.619	19506
896.74	19441
896.861	19544
896.982	19852
897.103	19970
897.224	19898
897.345	19700
897.466	19632
897.587	19807
897.708	19746
897.828	19620
897.949	19670
898.07	19601
898.19	19746
898.311	19772
898.431	19670
898.552	19753
898.672	19674
898.792	19769
898.913	19704
899.033	19559
899.153	19578
899.273	19346
899.393	19464
899.513	19392
899.633	19487
899.753	19460
899.873	19419
899.993	19499
900.113	19460
900.232	19358
900.352	19396
900.472	19293
900.591	19198
900.711	19236
900.83	19164
900.95	19350
901.069	19278
901.189	19095
901.308	18928
901.427	18817
901.546	18935
901.665	18890
901.784	18852
901.904	18703
902.023	18616
902.141	18346
902.26	18353
902.379	18460
902.498	18361
902.617	18205
902.735	18471
902.854	18380
902.973	18296
903.091	18098
903.21	18072
903.328	18087
903.446	17927
903.565	17843
903.683	17809
903.801	17699
903.919	17802
904.038	17779
904.156	17619
904.274	17665
904.392	17627
904.51	17703
904.627	17581
904.745	17646
904.863	17665
904.981	17459
905.098	17383
905.216	17261
905.334	17349
905.451	17254
905.569	17189
905.686	17296
905.803	17311
905.921	16999
906.038	17204
906.155	17204
906.272	17045
906.389	17060
906.506	16839
906.623	16900
906.74	16866
906.857	16634
906.974	16778
907.091	16904
907.208	16927
907.324	16862
907.441	16763
907.557	16645
907.674	16645
907.79	16550
907.907	16634
908.023	16569
908.139	16603
908.256	16519
908.372	16363
908.488	16367
908.604	16280
908.72	16196
908.836	16272
908.952	16287
909.068	16443
909.184	16367
909.3	16280
909.415	16242
909.531	16325
909.647	15934
909.762	16055
909.878	16013
909.993	15968
910.108	16002
910.224	15850
910.339	15937
910.454	15838
910.57	15789
910.685	15804
910.8	15899
910.915	15876
911.03	15736
911.145	15625
911.259	15690
911.374	15549
911.489	15534
911.604	15420
911.718	15401
911.833	15401
911.947	15336
912.062	15249
912.176	15386
912.291	15374
912.405	15397
912.519	15595
912.633	15545
912.748	15405
912.862	15401
912.976	15211
913.09	14956
913.204	15104
913.318	15252
913.431	15214
913.545	15203
913.659	15283
913.772	15093
913.886	15013
914	14975
914.113	14963
914.226	15116
914.34	15070
914.453	14994
914.566	14971
914.68	14834
914.793	14834
914.906	14579
915.019	14568
915.132	14552
915.245	14537
915.358	14693
915.47	14640
915.583	14655
915.696	14575
915.809	14705
915.921	14727
916.034	14571
916.146	14552
916.259	14446
916.371	14579
916.483	14511
916.595	14465
916.708	14434
916.82	14469
916.932	14484
917.044	14400
917.156	14320
917.268	14343
917.38	14275
917.491	14225
917.603	14278
917.715	14324
917.826	14290
917.938	14218
918.049	14088
918.161	14271
918.272	14366
918.384	14366
918.495	14267
918.606	14164
918.717	14073
918.828	13940
918.939	14054
919.05	13928
919.161	14062
919.272	13791
919.383	14001
919.494	13955
919.604	14176
919.715	14046
919.826	13811
919.936	13890
920.047	14084
920.157	14096
920.267	14229
920.378	14031
920.488	13993
920.598	14168
920.708	14358
920.818	14176
920.928	14161
921.038	14278
921.148	14240
921.258	13947
921.368	13887
921.477	13765
921.587	13681
921.697	13578
921.806	13822
921.916	13613
922.025	13525
922.134	13350
922.244	13335
922.353	13453
922.462	13316
922.571	13289
922.68	13179
922.789	13004
922.898	13088
923.007	13015
923.116	13118
923.224	13061
923.333	13038
923.442	12996
923.55	12928
923.659	12981
923.767	12954
923.876	12852
923.984	12966
924.092	12783
924.201	12848
924.309	12829
924.417	12802
924.525	12730
924.633	12844
924.741	13643
924.849	12513
924.956	12620
925.064	12582
925.172	12506
925.279	12471
925.387	12380
925.494	12506
925.602	12639
925.709	12578
925.816	12407
925.924	12399
926.031	12509
926.138	12437
926.245	12536
926.352	12338
926.459	12513
926.566	12540
926.673	12369
926.779	12308
926.886	12285
926.993	12045
927.099	12091
927.206	12053
927.312	12057
927.419	12133
927.525	12083
927.631	12068
927.737	12083
927.843	12011
927.95	11760
928.056	11908
928.162	11916
928.267	11984
928.373	12582
928.479	11992
928.585	11752
928.69	11843
928.796	11904
928.901	11798
929.007	11634
929.112	11756
929.218	11741
929.323	11661
929.428	11600
929.533	11756
929.638	11608
929.743	11596
929.848	11630
929.953	11585
930.058	11444
930.163	11341
930.267	11284
930.372	11463
930.477	11292
930.581	11619
930.685	11436
930.79	11201
930.894	11239
930.998	11128
931.103	11334
931.207	11060
931.311	10938
931.415	10835
931.519	10622
931.623	10622
