Data from test_V78500241_1684.txt Node
Date: Fri Mar 25 15:21:34 CST 2022
User: usil
Spectrometer: V785-0024
Trigger mode: 0
Integration Time (sec): 4.000000E-1
Scans to average: 1
Nonlinearity correction enabled: false
Boxcar width: 0
Storing dark spectrum: false
XAxis mode: Wavelengths
Number of Pixels in Spectrum: 1024
>>>>>Begin Spectral Data<<<<<
801.071	28070
801.214	27949
801.356	27660
801.499	27736
801.641	27386
801.783	27690
801.926	27720
802.068	27534
802.211	27427
802.353	27443
802.496	27176
802.638	27180
802.78	27241
802.923	27077
803.065	27135
803.208	26998
803.35	27116
803.492	27287
803.635	27351
803.777	27093
803.919	27401
804.061	27717
804.204	27629
804.346	27367
804.488	27397
804.63	27481
804.773	27195
804.915	27397
805.057	27526
805.199	27408
805.341	27485
805.483	27599
805.626	27542
805.768	27386
805.91	27492
806.052	27660
806.194	27492
806.336	27629
806.478	27682
806.62	27561
806.762	27629
806.904	27770
807.046	27987
807.188	27987
807.33	28070
807.472	27987
807.614	27880
807.756	27930
807.898	27930
808.04	27838
808.182	27705
808.324	27930
808.465	27888
808.607	27991
808.749	28272
808.891	28230
809.033	28337
809.174	28246
809.316	28154
809.458	28128
809.6	28226
809.741	28329
809.883	28322
810.025	28527
810.166	28523
810.308	28466
810.45	28398
810.591	28314
810.733	28158
810.875	28105
811.016	28139
811.158	28192
811.299	28363
811.441	28394
811.582	28295
811.724	28295
811.865	28268
812.007	28040
812.148	28219
812.29	28105
812.431	28443
812.573	28432
812.714	28588
812.855	28687
812.997	28694
813.138	28888
813.279	28896
813.421	28653
813.562	28820
813.703	28527
813.845	28481
813.986	28192
814.127	27956
814.268	27816
814.41	27949
814.551	27808
814.692	28063
814.833	27838
814.974	27709
815.115	27884
815.256	27850
815.397	27800
815.539	27701
815.68	27557
815.821	27751
815.962	27823
816.103	27622
816.244	27561
816.385	27447
816.526	27416
816.666	27351
816.807	27256
816.948	27180
817.089	27268
817.23	27173
817.371	27180
817.512	27157
817.653	27066
817.793	27077
817.934	27108
818.075	27195
818.216	27214
818.356	27165
818.497	27047
818.638	26864
818.778	27020
818.919	26960
819.06	27032
819.2	27096
819.341	27077
819.481	27241
819.622	27393
819.762	27622
819.903	27431
820.043	27401
820.184	27351
820.324	27264
820.465	27351
820.605	27249
820.746	27233
820.886	27161
821.026	27207
821.167	27150
821.307	27325
821.447	27336
821.588	27173
821.728	26880
821.868	26861
822.008	26804
822.149	26655
822.289	26590
822.429	26415
822.569	26362
822.709	26358
822.849	26122
822.99	26275
823.13	26065
823.27	26115
823.41	25944
823.55	25909
823.69	26005
823.83	25928
823.97	25966
824.11	25715
824.25	25871
824.389	25875
824.529	25841
824.669	25936
824.809	25875
824.949	25917
825.089	25951
825.228	25887
825.368	25750
825.508	25693
825.648	25788
825.787	25772
825.927	25715
826.067	25613
826.206	25624
826.346	25814
826.485	25677
826.625	25685
826.765	25799
826.904	25708
827.044	25460
827.183	25594
827.323	25396
827.462	25464
827.601	25331
827.741	25533
827.88	25426
828.02	25289
828.159	25449
828.298	25510
828.437	25449
828.577	25232
828.716	25479
828.855	25251
828.994	25160
829.134	25137
829.273	25198
829.412	25122
829.551	25046
829.69	25095
829.829	25038
829.968	25145
830.107	25225
830.246	25114
830.385	25084
830.524	24916
830.663	24791
830.802	24954
830.941	24703
831.08	24669
831.219	24722
831.357	24798
831.496	24897
831.635	24753
831.774	24582
831.913	24589
832.051	24525
832.19	24441
832.329	24528
832.467	24551
832.606	24376
832.744	24338
832.883	24334
833.022	24308
833.16	24410
833.299	24509
833.437	24471
833.576	24372
833.714	24361
833.852	24494
833.991	24521
834.129	24559
834.267	24445
834.406	24498
834.544	24559
834.682	24490
834.821	24464
834.959	24574
835.097	24281
835.235	24566
835.373	24433
835.511	24315
835.65	24407
835.788	24353
835.926	24205
836.064	24026
836.202	24209
836.34	24224
836.478	24327
836.615	24254
836.753	24350
836.891	24308
837.029	24460
837.167	24292
837.305	24270
837.443	24213
837.58	24053
837.718	24239
837.856	24152
837.993	24133
838.131	24281
838.269	23988
838.406	23939
838.544	24057
838.681	23851
838.819	23714
838.956	23554
839.094	23608
839.231	23748
839.369	23863
839.506	24015
839.643	23832
839.781	23646
839.918	23543
840.055	23634
840.193	23722
840.33	23414
840.467	23372
840.604	23543
840.742	23630
840.879	23402
841.016	23395
841.153	23440
841.29	23539
841.427	23539
841.564	23493
841.701	23406
841.838	23448
841.975	23474
842.112	23402
842.249	23395
842.385	23136
842.522	23474
842.659	23246
842.796	23315
842.933	23292
843.069	23292
843.206	23220
843.343	23356
843.479	23242
843.616	23292
843.752	23060
843.889	23056
844.025	23071
844.162	23010
844.298	23155
844.435	22946
844.571	22980
844.708	23029
844.844	23025
844.98	23261
845.117	23162
845.253	22877
845.389	22869
845.525	22881
845.661	22831
845.798	22854
845.934	22923
846.07	22752
846.206	22805
846.342	22767
846.478	22793
846.614	22557
846.75	22512
846.886	22390
847.022	22672
847.158	22607
847.294	22485
847.429	22611
847.565	22379
847.701	22759
847.837	22344
847.972	22234
848.108	22341
848.244	22303
848.379	22090
848.515	22169
848.65	22131
848.786	22090
848.921	22078
849.057	22166
849.192	22284
849.328	22090
849.463	22150
849.598	22154
849.734	21968
849.869	22036
850.004	21903
850.14	21857
850.275	21888
850.41	21785
850.545	21846
850.68	21907
850.815	21956
850.95	21823
851.085	22101
851.22	21968
851.355	21831
851.49	21835
851.625	21804
851.76	21759
851.895	21774
852.03	21800
852.165	21911
852.299	21922
852.434	21934
852.569	21762
852.703	21899
852.838	21865
852.973	21937
853.107	21994
853.242	21857
853.376	21667
853.511	21523
853.645	21526
853.78	21675
853.914	21770
854.048	21606
854.183	21610
854.317	21713
854.451	21918
854.585	21641
854.72	21553
854.854	21701
854.988	21599
855.122	21705
855.256	21530
855.39	21709
855.524	21838
855.658	21614
855.792	21679
855.926	21572
856.06	21660
856.194	21789
856.327	21648
856.461	21530
856.595	21599
856.729	21599
856.862	21888
856.996	21808
857.13	21766
857.263	21728
857.397	21876
857.53	21694
857.664	21717
857.797	21751
857.931	21774
858.064	21614
858.197	21861
858.331	21671
858.464	21595
858.597	21576
858.731	21534
858.864	21850
858.997	21671
859.13	21599
859.263	21633
859.396	21644
859.529	21656
859.662	21641
859.795	21679
859.928	21629
860.061	21812
860.194	21907
860.327	21701
860.46	21625
860.592	21755
860.725	21846
860.858	21918
860.99	21694
861.123	21660
861.256	21656
861.388	21739
861.521	22276
861.653	21549
861.786	21466
861.918	21530
862.05	21576
862.183	21587
862.315	21595
862.447	21660
862.58	21557
862.712	21435
862.844	21420
862.976	21370
863.108	21504
863.24	21633
863.372	21325
863.504	21405
863.636	21370
863.768	21386
863.9	21424
864.032	21310
864.164	21245
864.296	21405
864.428	21401
864.559	21416
864.691	21416
864.823	21389
864.954	21374
865.086	21344
865.217	21370
865.349	21119
865.48	21165
865.612	21237
865.743	21473
865.875	21310
866.006	21203
866.137	21310
866.269	21203
866.4	21173
866.531	21214
866.662	21161
866.793	21165
866.924	21161
867.055	21192
867.186	21233
867.317	21207
867.448	21226
867.579	21222
867.71	21252
867.841	21161
867.972	21245
868.103	21241
868.233	21268
868.364	21176
868.495	21264
868.625	21252
868.756	21515
868.886	21416
869.017	21420
869.147	21466
869.278	21599
869.408	21511
869.539	21408
869.669	21469
869.799	21523
869.929	21507
870.06	21515
870.19	21717
870.32	21770
870.45	21797
870.58	21724
870.71	21998
870.84	21846
870.97	21865
871.1	21884
871.23	22032
871.36	21964
871.489	21892
871.619	21934
871.749	22021
871.879	22131
872.008	22181
872.138	22002
872.267	22036
872.397	21979
872.526	21968
872.656	21835
872.785	21755
872.915	22101
873.044	22036
873.173	22074
873.303	21953
873.432	22169
873.561	22188
873.69	22010
873.819	22017
873.948	22086
874.077	22223
874.206	21975
874.335	21979
874.464	22204
874.593	22337
874.722	22215
874.851	22287
874.979	22390
875.108	22242
875.237	22154
875.365	22192
875.494	22348
875.623	22226
875.751	22295
875.88	22268
876.008	22341
876.136	22596
876.265	22622
876.393	22828
876.521	22721
876.65	22713
876.778	22691
876.906	22550
877.034	22618
877.162	22554
877.29	22462
877.418	22615
877.546	22512
877.674	22630
877.802	22577
877.93	22508
878.058	22569
878.185	22573
878.313	22599
878.441	22557
878.568	22394
878.696	22580
878.824	22588
878.951	22698
879.079	22786
879.206	22839
879.333	22672
879.461	22615
879.588	22713
879.715	22778
879.842	22892
879.97	22634
880.097	22481
880.224	22577
880.351	22478
880.478	22382
880.605	22409
880.732	22440
880.859	22755
880.986	22379
881.112	22310
881.239	22360
881.366	22162
881.493	22036
881.619	21987
881.746	22002
881.872	22063
881.999	21945
882.125	21930
882.252	21937
882.378	22078
882.505	22128
882.631	21911
882.757	21831
882.883	21743
883.01	21766
883.136	21766
883.262	21633
883.388	21481
883.514	21732
883.64	21793
883.766	21549
883.892	21496
884.018	21443
884.143	21587
884.269	21656
884.395	21477
884.52	21363
884.646	21363
884.772	21291
884.897	21260
885.023	21477
885.148	21378
885.274	21511
885.399	21382
885.524	21348
885.65	21363
885.775	21275
885.9	21207
886.025	21348
886.15	21386
886.275	21294
886.4	21245
886.525	21447
886.65	21211
886.775	21283
886.9	21374
887.025	21507
887.149	21268
887.274	21055
887.399	21047
887.523	21081
887.648	21123
887.773	21024
887.897	21268
888.021	21173
888.146	21005
888.27	21249
888.395	21317
888.519	21096
888.643	21085
888.767	21169
888.891	21036
889.015	20967
889.139	20902
889.263	20914
889.387	21032
889.511	21104
889.635	21058
889.759	20941
889.883	20872
890.006	20963
890.13	20994
890.254	20861
890.377	20891
890.501	20724
890.624	20579
890.748	20746
890.871	20587
890.995	20480
891.118	20492
891.241	20484
891.364	20503
891.488	20583
891.611	20454
891.734	20469
891.857	20537
891.98	20351
892.103	20419
892.226	20571
892.349	20450
892.471	20248
892.594	20347
892.717	20419
892.839	20461
892.962	20469
893.085	20419
893.207	20298
893.33	20229
893.452	20275
893.575	20271
893.697	20362
893.819	20674
893.941	20552
894.064	20431
894.186	20427
894.308	20278
894.43	20400
894.552	20408
894.674	20583
894.796	20218
894.918	20450
895.04	20309
895.161	20434
895.283	20336
895.405	20229
895.526	20305
895.648	20225
895.769	20404
895.891	20377
896.012	20514
896.134	20431
896.255	20408
896.376	20305
896.498	20320
896.619	20396
896.74	20351
896.861	20317
896.982	20648
897.103	20902
897.224	20530
897.345	20583
897.466	20511
897.587	20564
897.708	20746
897.828	20587
897.949	20446
898.07	20446
898.19	20446
898.311	20594
898.431	20446
898.552	20446
898.672	20598
898.792	20632
898.913	20621
899.033	20533
899.153	20362
899.273	20248
899.393	20355
899.513	20244
899.633	20252
899.753	20370
899.873	20259
899.993	20313
900.113	20195
900.232	20278
900.352	20301
900.472	20202
900.591	20024
900.711	20199
900.83	20119
900.95	20210
901.069	20225
901.189	20008
901.308	19689
901.427	19655
901.546	19689
901.665	19685
901.784	19643
901.904	19400
902.023	19571
902.141	19088
902.26	19270
902.379	19244
902.498	19107
902.617	19023
902.735	19251
902.854	19008
902.973	19129
903.091	18837
903.21	18856
903.328	18833
903.446	18730
903.565	18661
903.683	18665
903.801	18536
903.919	18536
904.038	18582
904.156	18357
904.274	18456
904.392	18323
904.51	18445
904.627	18338
904.745	18498
904.863	18441
904.981	18152
905.098	18079
905.216	18083
905.334	18087
905.451	17996
905.569	18060
905.686	18098
905.803	18144
905.921	17961
906.038	17958
906.155	17980
906.272	17775
906.389	17741
906.506	17592
906.623	17524
906.74	17554
906.857	17532
906.974	17558
907.091	17615
907.208	17752
907.324	17592
907.441	17459
907.557	17265
907.674	17337
907.79	17223
907.907	17303
908.023	17265
908.139	17277
908.256	17208
908.372	17178
908.488	17185
908.604	17132
908.72	17079
908.836	17166
908.952	17060
909.068	17064
909.184	17121
909.3	17079
909.415	17025
909.531	16980
909.647	16889
909.762	16763
909.878	16755
909.993	16801
910.108	16733
910.224	16713
910.339	16683
910.454	16512
910.57	16615
910.685	16451
910.8	16793
910.915	16694
911.03	16558
911.145	16478
911.259	16341
911.374	16379
911.489	16226
911.604	16135
911.718	16090
911.833	16029
911.947	16078
912.062	15945
912.176	16078
912.291	16124
912.405	15994
912.519	16249
912.633	16276
912.748	16040
912.862	16082
912.976	15998
913.09	15774
913.204	15869
913.318	15930
913.431	15926
913.545	16025
913.659	15876
913.772	15823
913.886	15762
914	15671
914.113	15751
914.226	15842
914.34	15728
914.453	15622
914.566	15724
914.68	15656
914.793	15637
914.906	15393
915.019	15291
915.132	15169
915.245	15237
915.358	15291
915.47	15211
915.583	15283
915.696	15336
915.809	15393
915.921	15485
916.034	15218
916.146	15211
916.259	15184
916.371	15329
916.483	15214
916.595	15169
916.708	15036
916.82	15074
916.932	15066
917.044	15119
917.156	15138
917.268	14876
917.38	14937
917.491	14895
917.603	14979
917.715	14971
917.826	15036
917.938	14925
918.049	14716
918.161	14883
918.272	15020
918.384	14963
918.495	14815
918.606	14724
918.717	14708
918.828	14762
918.939	14724
919.05	14625
919.161	14678
919.272	14518
919.383	14507
919.494	14826
919.604	14845
919.715	14659
919.826	14583
919.936	14678
920.047	14697
920.157	14727
920.267	14895
920.378	14667
920.488	14610
920.598	14811
920.708	15020
920.818	14781
920.928	14773
921.038	14971
921.148	14891
921.258	14613
921.368	14579
921.477	14324
921.587	14400
921.697	14328
921.806	14374
921.916	14225
922.025	14126
922.134	13986
922.244	13917
922.353	14126
922.462	13906
922.571	13807
922.68	13719
922.789	13655
922.898	13647
923.007	13632
923.116	13677
923.224	13693
923.333	13674
923.442	13533
923.55	13480
923.659	13453
923.767	13700
923.876	13453
923.984	13578
924.092	13308
924.201	13457
924.309	13365
924.417	13365
924.525	13396
924.633	13384
924.741	14081
924.849	13126
924.956	13263
925.064	13149
925.172	13103
925.279	12985
925.387	13095
925.494	13015
925.602	13240
925.709	13038
925.816	13000
925.924	13004
926.031	13091
926.138	12939
926.245	13080
926.352	12924
926.459	13038
926.566	13088
926.673	12894
926.779	12882
926.886	12916
926.993	12719
927.099	12639
927.206	12612
927.312	12547
927.419	12734
927.525	12669
927.631	12623
927.737	12566
927.843	12506
927.95	12330
928.056	12410
928.162	12494
928.267	12494
928.373	12993
928.479	12486
928.585	12342
928.69	12414
928.796	12441
928.901	12338
929.007	12216
929.112	12342
929.218	12350
929.323	12190
929.428	12148
929.533	12304
929.638	12175
929.743	12057
929.848	12167
929.953	12171
930.058	11992
930.163	11897
930.267	11851
930.372	11946
930.477	11817
930.581	12022
930.685	11908
930.79	11691
930.894	11828
930.998	11737
931.103	11836
931.207	11551
931.311	11410
931.415	11345
931.519	11083
931.623	11136
