Data from test_V78500241_1544.txt Node
Date: Fri Mar 25 15:20:36 CST 2022
User: usil
Spectrometer: V785-0024
Trigger mode: 0
Integration Time (sec): 4.000000E-1
Scans to average: 1
Nonlinearity correction enabled: false
Boxcar width: 0
Storing dark spectrum: false
XAxis mode: Wavelengths
Number of Pixels in Spectrum: 1024
>>>>>Begin Spectral Data<<<<<
801.071	28093
801.214	28074
801.356	27751
801.499	27755
801.641	27606
801.783	27701
801.926	27644
802.068	27705
802.211	27534
802.353	27507
802.496	27412
802.638	27374
802.78	27275
802.923	27214
803.065	27119
803.208	27047
803.35	27157
803.492	27313
803.635	27370
803.777	27355
803.919	27370
804.061	27747
804.204	27648
804.346	27401
804.488	27401
804.63	27526
804.773	27439
804.915	27462
805.057	27568
805.199	27488
805.341	27614
805.483	27610
805.626	27736
805.768	27504
805.91	27568
806.052	27447
806.194	27568
806.336	27660
806.478	27603
806.62	27656
806.762	27751
806.904	27937
807.046	28192
807.188	28036
807.33	27918
807.472	27994
807.614	27937
807.756	27991
807.898	27930
808.04	27880
808.182	27781
808.324	27888
808.465	27926
808.607	28135
808.749	28150
808.891	28375
809.033	28409
809.174	28223
809.316	28230
809.458	28169
809.6	28382
809.741	28360
809.883	28580
810.025	28599
810.166	28519
810.308	28527
810.45	28440
810.591	28394
810.733	28276
810.875	28166
811.016	28112
811.158	28196
811.299	28276
811.441	28493
811.582	28443
811.724	28306
811.865	28242
812.007	28226
812.148	28238
812.29	28204
812.431	28546
812.573	28538
812.714	28649
812.855	28835
812.997	28900
813.138	29064
813.279	28999
813.421	28923
813.562	28740
813.703	28527
813.845	28363
813.986	28207
814.127	28116
814.268	27911
814.41	27964
814.551	28029
814.692	28055
814.833	28021
814.974	27968
815.115	28067
815.256	27846
815.397	27873
815.539	27857
815.68	27850
815.821	27709
815.962	27865
816.103	27736
816.244	27633
816.385	27690
816.526	27511
816.666	27363
816.807	27138
816.948	27412
817.089	27363
817.23	27329
817.371	27283
817.512	27226
817.653	27237
817.793	27188
817.934	27203
818.075	27294
818.216	27298
818.356	27249
818.497	27085
818.638	26880
818.778	27032
818.919	26986
819.06	26956
819.2	27135
819.341	27268
819.481	27195
819.622	27412
819.762	27728
819.903	27473
820.043	27424
820.184	27500
820.324	27154
820.465	27439
820.605	27329
820.746	27378
820.886	27310
821.026	27264
821.167	27416
821.307	27504
821.447	27340
821.588	27176
821.728	27169
821.868	26880
822.008	26796
822.149	26629
822.289	26724
822.429	26438
822.569	26404
822.709	26423
822.849	26176
822.99	26263
823.13	26278
823.27	26187
823.41	26126
823.55	25890
823.69	26065
823.83	26142
823.97	25928
824.11	25750
824.25	25696
824.389	25951
824.529	25883
824.669	25970
824.809	26027
824.949	25970
825.089	25951
825.228	25944
825.368	25681
825.508	25655
825.648	25753
825.787	25795
825.927	25830
826.067	25700
826.206	25772
826.346	25769
826.485	25746
826.625	25776
826.765	25852
826.904	25765
827.044	25506
827.183	25415
827.323	25426
827.462	25548
827.601	25575
827.741	25510
827.88	25597
828.02	25434
828.159	25472
828.298	25476
828.437	25472
828.577	25369
828.716	25422
828.855	25415
828.994	25236
829.134	25110
829.273	25282
829.412	25008
829.551	25031
829.69	25122
829.829	25114
829.968	25266
830.107	25194
830.246	25304
830.385	24932
830.524	24875
830.663	24939
830.802	24905
830.941	24741
831.08	24730
831.219	24810
831.357	24875
831.496	24954
831.635	24787
831.774	24673
831.913	24608
832.051	24555
832.19	24528
832.329	24521
832.467	24547
832.606	24357
832.744	24273
832.883	24380
833.022	24452
833.16	24429
833.299	24338
833.437	24426
833.576	24353
833.714	24601
833.852	24471
833.991	24490
834.129	24593
834.267	24471
834.406	24437
834.544	24684
834.682	24391
834.821	24445
834.959	24726
835.097	24327
835.235	24536
835.373	24410
835.511	24467
835.65	24197
835.788	24414
835.926	24209
836.064	24102
836.202	24197
836.34	24277
836.478	24422
836.615	24205
836.753	24403
836.891	24319
837.029	24247
837.167	24087
837.305	24239
837.443	24186
837.58	24110
837.718	24125
837.856	24133
837.993	23977
838.131	23992
838.269	24045
838.406	23954
838.544	23965
838.681	23714
838.819	23824
838.956	23676
839.094	23710
839.231	23741
839.369	23703
839.506	24087
839.643	23885
839.781	23630
839.918	23421
840.055	23577
840.193	23455
840.33	23592
840.467	23509
840.604	23611
840.742	23699
840.879	23292
841.016	23337
841.153	23330
841.29	23558
841.427	23547
841.564	23493
841.701	23410
841.838	23463
841.975	23376
842.112	23345
842.249	23254
842.385	23349
842.522	23490
842.659	23349
842.796	23265
842.933	23143
843.069	23277
843.206	23277
843.343	23364
843.479	23189
843.616	23143
843.752	23109
843.889	23052
844.025	23200
844.162	22911
844.298	23067
844.435	23022
844.571	23052
844.708	23212
844.844	23227
844.98	23189
845.117	23094
845.253	22984
845.389	22889
845.525	22927
845.661	22949
845.798	22915
845.934	22828
846.07	22702
846.206	22877
846.342	22957
846.478	22630
846.614	22698
846.75	22436
846.886	22459
847.022	22577
847.158	22474
847.294	22527
847.429	22546
847.565	22516
847.701	22721
847.837	22177
847.972	22249
848.108	22329
848.244	22280
848.379	22192
848.515	22082
848.65	22067
848.786	22036
848.921	22139
849.057	22219
849.192	22211
849.328	22196
849.463	22036
849.598	22036
849.734	22055
849.869	22010
850.004	21831
850.14	22029
850.275	21835
850.41	21720
850.545	21800
850.68	21827
850.815	21846
850.95	21770
851.085	22067
851.22	21953
851.355	21823
851.49	21880
851.625	21724
851.76	21720
851.895	21709
852.03	21755
852.165	21949
852.299	21838
852.434	21888
852.569	21956
852.703	21865
852.838	21907
852.973	21934
853.107	21899
853.242	21747
853.376	21713
853.511	21557
853.645	21686
853.78	21789
853.914	21732
854.048	21690
854.183	21690
854.317	21633
854.451	21781
854.585	21682
854.72	21629
854.854	21827
854.988	21614
855.122	21641
855.256	21644
855.39	21709
855.524	21739
855.658	21603
855.792	21686
855.926	21728
856.06	21694
856.194	21690
856.327	21572
856.461	21542
856.595	21576
856.729	21549
856.862	21743
856.996	21629
857.13	21766
857.263	21861
857.397	21694
857.53	21728
857.664	21766
857.797	21823
857.931	21778
858.064	21698
858.197	21774
858.331	21690
858.464	21557
858.597	21648
858.731	21553
858.864	21568
858.997	21526
859.13	21652
859.263	21766
859.396	21774
859.529	21770
859.662	21690
859.795	21656
859.928	21690
860.061	21751
860.194	21819
860.327	21713
860.46	21660
860.592	21762
860.725	21797
860.858	21770
860.99	21679
861.123	21606
861.256	21603
861.388	21633
861.521	22325
861.653	21416
861.786	21553
861.918	21439
862.05	21561
862.183	21622
862.315	21663
862.447	21667
862.58	21473
862.712	21435
862.844	21405
862.976	21523
863.108	21488
863.24	21804
863.372	21401
863.504	21412
863.636	21283
863.768	21401
863.9	21382
864.032	21367
864.164	21237
864.296	21359
864.428	21405
864.559	21530
864.691	21439
864.823	21287
864.954	21302
865.086	21275
865.217	21222
865.349	21116
865.48	21302
865.612	21260
865.743	21420
865.875	21298
866.006	21272
866.137	21192
866.269	21245
866.4	21108
866.531	21272
866.662	21199
866.793	21161
866.924	21116
867.055	21195
867.186	21150
867.317	21264
867.448	21017
867.579	21214
867.71	21077
867.841	21058
867.972	21207
868.103	21283
868.233	21275
868.364	21237
868.495	21329
868.625	21447
868.756	21523
868.886	21340
869.017	21272
869.147	21488
869.278	21447
869.408	21488
869.539	21469
869.669	21477
869.799	21481
869.929	21416
870.06	21690
870.19	21629
870.32	21701
870.45	21724
870.58	21793
870.71	21812
870.84	21869
870.97	21911
871.1	21857
871.23	22063
871.36	22055
871.489	21915
871.619	22006
871.749	22010
871.879	22090
872.008	22128
872.138	21960
872.267	21979
872.397	21975
872.526	21759
872.656	21941
872.785	21888
872.915	22002
873.044	22086
873.173	22029
873.303	22055
873.432	22055
873.561	22150
873.69	21998
873.819	22173
873.948	22090
874.077	22120
874.206	21983
874.335	22078
874.464	22128
874.593	22272
874.722	22234
874.851	22413
874.979	22295
875.108	22295
875.237	22215
875.365	22249
875.494	22200
875.623	22341
875.751	22185
875.88	22272
876.008	22398
876.136	22398
876.265	22698
876.393	22782
876.521	22744
876.65	22694
876.778	22702
876.906	22474
877.034	22565
877.162	22603
877.29	22554
877.418	22592
877.546	22535
877.674	22466
877.802	22645
877.93	22573
878.058	22611
878.185	22447
878.313	22550
878.441	22546
878.568	22348
878.696	22611
878.824	22618
878.951	22603
879.079	22717
879.206	22953
879.333	22702
879.461	22523
879.588	22630
879.715	22805
879.842	22831
879.97	22706
880.097	22443
880.224	22382
880.351	22622
880.478	22466
880.605	22440
880.732	22398
880.859	22634
880.986	22440
881.112	22497
881.239	22204
881.366	22150
881.493	22010
881.619	21865
881.746	22147
881.872	21903
881.999	22036
882.125	21880
882.252	22013
882.378	21880
882.505	22063
882.631	21736
882.757	21679
882.883	21869
883.01	21732
883.136	21633
883.262	21606
883.388	21545
883.514	21690
883.64	21720
883.766	21568
883.892	21389
884.018	21519
884.143	21618
884.269	21774
884.395	21401
884.52	21321
884.646	21340
884.772	21226
884.897	21173
885.023	21367
885.148	21370
885.274	21351
885.399	21450
885.524	21291
885.65	21336
885.775	21344
885.9	21370
886.025	21435
886.15	21355
886.275	21268
886.4	21230
886.525	21378
886.65	21207
886.775	21268
886.9	21416
887.025	21511
887.149	21344
887.274	21230
887.399	21123
887.523	21119
887.648	21081
887.773	20994
887.897	21131
888.021	21119
888.146	21001
888.27	21074
888.395	21207
888.519	21154
888.643	21043
888.767	21184
888.891	20941
889.015	20982
889.139	20967
889.263	20785
889.387	20986
889.511	21005
889.635	21066
889.759	20857
889.883	20765
890.006	20861
890.13	20971
890.254	20765
890.377	20887
890.501	20667
890.624	20568
890.748	20689
890.871	20598
890.995	20545
891.118	20385
891.241	20465
891.364	20560
891.488	20579
891.611	20286
891.734	20522
891.857	20541
891.98	20454
892.103	20404
892.226	20507
892.349	20446
892.471	20358
892.594	20347
892.717	20366
892.839	20263
892.962	20415
893.085	20362
893.207	20434
893.33	20248
893.452	20294
893.575	20404
893.697	20457
893.819	20469
893.941	20511
894.064	20503
894.186	20290
894.308	20218
894.43	20423
894.552	20533
894.674	20423
894.796	20286
894.918	20370
895.04	20336
895.161	20454
895.283	20385
895.405	20294
895.526	20419
895.648	20332
895.769	20355
895.891	20259
896.012	20370
896.134	20347
896.255	20305
896.376	20332
896.498	20286
896.619	20389
896.74	20294
896.861	20434
896.982	20678
897.103	20807
897.224	20727
897.345	20579
897.466	20590
897.587	20564
897.708	20705
897.828	20549
897.949	20381
898.07	20393
898.19	20575
898.311	20625
898.431	20446
898.552	20549
898.672	20545
898.792	20602
898.913	20533
899.033	20465
899.153	20408
899.273	20149
899.393	20370
899.513	20404
899.633	20332
899.753	20374
899.873	20233
899.993	20389
900.113	20237
900.232	20172
900.352	20271
900.472	20210
900.591	20096
900.711	20119
900.83	20065
900.95	20122
901.069	20119
901.189	19932
901.308	19769
901.427	19719
901.546	19693
901.665	19639
901.784	19658
901.904	19460
902.023	19464
902.141	19354
902.26	19263
902.379	19282
902.498	19168
902.617	19160
902.735	19255
902.854	19099
902.973	19133
903.091	18894
903.21	18817
903.328	18798
903.446	18684
903.565	18696
903.683	18715
903.801	18604
903.919	18521
904.038	18650
904.156	18418
904.274	18380
904.392	18544
904.51	18414
904.627	18460
904.745	18334
904.863	18270
904.981	18205
905.098	18102
905.216	18110
905.334	18136
905.451	18125
905.569	18053
905.686	18148
905.803	18034
905.921	17805
906.038	17882
906.155	17973
906.272	17767
906.389	17672
906.506	17585
906.623	17596
906.74	17585
906.857	17463
906.974	17558
907.091	17646
907.208	17699
907.324	17638
907.441	17600
907.557	17345
907.674	17414
907.79	17235
907.907	17349
908.023	17299
908.139	17391
908.256	17254
908.372	17155
908.488	17105
908.604	17143
908.72	16984
908.836	16896
908.952	17064
909.068	17033
909.184	17140
909.3	17041
909.415	17098
909.531	16980
909.647	16755
909.762	16809
909.878	16710
909.993	16672
910.108	16679
910.224	16603
910.339	16752
910.454	16592
910.57	16519
910.685	16550
910.8	16748
910.915	16729
911.03	16622
911.145	16341
911.259	16261
911.374	16325
911.489	16306
911.604	16200
911.718	16059
911.833	16116
911.947	15964
912.062	15865
912.176	16048
912.291	16071
912.405	16006
912.519	16242
912.633	16253
912.748	16063
912.862	15987
912.976	15880
913.09	15785
913.204	15812
913.318	15922
913.431	15964
913.545	15972
913.659	16032
913.772	15759
913.886	15660
914	15698
914.113	15770
914.226	15762
914.34	15770
914.453	15572
914.566	15682
914.68	15587
914.793	15458
914.906	15367
915.019	15283
915.132	15348
915.245	15245
915.358	15401
915.47	15195
915.583	15245
915.696	15287
915.809	15340
915.921	15454
916.034	15226
916.146	15275
916.259	15199
916.371	15268
916.483	15192
916.595	15119
916.708	15039
916.82	15150
916.932	15020
917.044	15188
917.156	14963
917.268	14998
917.38	14906
917.491	14895
917.603	14941
917.715	14929
917.826	15043
917.938	14880
918.049	14788
918.161	14941
918.272	15036
918.384	14948
918.495	14811
918.606	14686
918.717	14598
918.828	14689
918.939	14754
919.05	14499
919.161	14705
919.272	14495
919.383	14503
919.494	14697
919.604	14963
919.715	14678
919.826	14590
919.936	14693
920.047	14705
920.157	14583
920.267	14853
920.378	14746
920.488	14625
920.598	14849
920.708	15020
920.818	14735
920.928	14804
921.038	14876
921.148	14895
921.258	14674
921.368	14530
921.477	14495
921.587	14465
921.697	14286
921.806	14351
921.916	14294
922.025	14126
922.134	14092
922.244	13909
922.353	14069
922.462	13909
922.571	13837
922.68	13613
922.789	13719
922.898	13670
923.007	13540
923.116	13624
923.224	13677
923.333	13605
923.442	13533
923.55	13499
923.659	13472
923.767	13529
923.876	13464
923.984	13533
924.092	13480
924.201	13369
924.309	13411
924.417	13460
924.525	13297
924.633	13213
924.741	14092
924.849	13187
924.956	13240
925.064	13107
925.172	13046
925.279	13034
925.387	13149
925.494	13023
925.602	13141
925.709	13118
925.816	12939
925.924	13046
926.031	13126
926.138	13004
926.245	12996
926.352	12894
926.459	13065
926.566	13015
926.673	12825
926.779	12840
926.886	12700
926.993	12650
927.099	12665
927.206	12604
927.312	12490
927.419	12650
927.525	12589
927.631	12658
927.737	12555
927.843	12426
927.95	12426
928.056	12494
928.162	12399
928.267	12502
928.373	13156
928.479	12589
928.585	12281
928.69	12395
928.796	12384
928.901	12338
929.007	12232
929.112	12262
929.218	12224
929.323	12209
929.428	12228
929.533	12395
929.638	12106
929.743	12102
929.848	12251
929.953	12083
930.058	12133
930.163	11832
930.267	11874
930.372	12060
930.477	11786
930.581	12045
930.685	11866
930.79	11733
930.894	11840
930.998	11672
931.103	11870
931.207	11493
931.311	11398
931.415	11292
931.519	11170
931.623	11124
