Data from test_V78500241_78.txt Node
Date: Fri Mar 25 15:10:24 CST 2022
User: usil
Spectrometer: V785-0024
Trigger mode: 0
Integration Time (sec): 4.000000E-1
Scans to average: 1
Nonlinearity correction enabled: false
Boxcar width: 0
Storing dark spectrum: false
XAxis mode: Wavelengths
Number of Pixels in Spectrum: 1024
>>>>>Begin Spectral Data<<<<<
801.071	28611
801.214	28478
801.356	28333
801.499	28287
801.641	28070
801.783	28059
801.926	28185
802.068	28093
802.211	27987
802.353	27998
802.496	27759
802.638	27759
802.78	27671
802.923	27656
803.065	27739
803.208	27534
803.35	27637
803.492	27743
803.635	27823
803.777	27660
803.919	27895
804.061	28044
804.204	27888
804.346	27660
804.488	27648
804.63	27732
804.773	27648
804.915	27793
805.057	27888
805.199	27751
805.341	27736
805.483	27854
805.626	27804
805.768	27789
805.91	27663
806.052	27930
806.194	27766
806.336	28078
806.478	27854
806.62	27884
806.762	27937
806.904	28013
807.046	28333
807.188	28219
807.33	28329
807.472	28181
807.614	28051
807.756	28173
807.898	28025
808.04	27960
808.182	28006
808.324	28040
808.465	28074
808.607	28006
808.749	28432
808.891	28344
809.033	28516
809.174	28375
809.316	28352
809.458	28204
809.6	28325
809.741	28394
809.883	28459
810.025	28489
810.166	28546
810.308	28489
810.45	28599
810.591	28603
810.733	28417
810.875	28417
811.016	28044
811.158	28150
811.299	28207
811.441	28447
811.582	28459
811.724	28379
811.865	28211
812.007	28363
812.148	28219
812.29	28188
812.431	28356
812.573	28603
812.714	28744
812.855	28847
812.997	28862
813.138	29003
813.279	28828
813.421	28660
813.562	28729
813.703	28588
813.845	28451
813.986	28280
814.127	28158
814.268	28013
814.41	28051
814.551	27857
814.692	27922
814.833	27838
814.974	27842
815.115	27804
815.256	27770
815.397	27770
815.539	27701
815.68	27568
815.821	27591
815.962	27614
816.103	27580
816.244	27450
816.385	27492
816.526	27435
816.666	27272
816.807	27013
816.948	26906
817.089	27081
817.23	27093
817.371	27062
817.512	26971
817.653	26883
817.793	26819
817.934	27028
818.075	27043
818.216	26880
818.356	26842
818.497	26883
818.638	26777
818.778	26731
818.919	26834
819.06	26731
819.2	26864
819.341	27020
819.481	27032
819.622	27036
819.762	27294
819.903	27214
820.043	27237
820.184	27013
820.324	27043
820.465	27169
820.605	27047
820.746	27013
820.886	26788
821.026	26967
821.167	26868
821.307	27138
821.447	26838
821.588	26823
821.728	26697
821.868	26522
822.008	26400
822.149	26259
822.289	26419
822.429	26054
822.569	26024
822.709	26024
822.849	25909
822.99	25925
823.13	25906
823.27	25791
823.41	25677
823.55	25616
823.69	25658
823.83	25628
823.97	25529
824.11	25415
824.25	25350
824.389	25441
824.529	25472
824.669	25453
824.809	25544
824.949	25434
825.089	25422
825.228	25468
825.368	25175
825.508	25179
825.648	25213
825.787	25255
825.927	25244
826.067	25183
826.206	25255
826.346	25274
826.485	25247
826.625	25171
826.765	25293
826.904	25316
827.044	24962
827.183	25012
827.323	24871
827.462	24989
827.601	24810
827.741	24886
827.88	24871
828.02	24681
828.159	24798
828.298	24848
828.437	24749
828.577	24814
828.716	24951
828.855	24817
828.994	24661
829.134	24730
829.273	24475
829.412	24578
829.551	24494
829.69	24563
829.829	24525
829.968	24570
830.107	24726
830.246	24460
830.385	24441
830.524	24399
830.663	24281
830.802	24213
830.941	24076
831.08	24117
831.219	24296
831.357	24194
831.496	24338
831.635	24186
831.774	23958
831.913	23889
832.051	23836
832.19	23912
832.329	23851
832.467	23779
832.606	23726
832.744	23573
832.883	23714
833.022	23665
833.16	23756
833.299	23748
833.437	23729
833.576	23855
833.714	23805
833.852	23718
833.991	23745
834.129	23870
834.267	23710
834.406	23874
834.544	23653
834.682	23737
834.821	23630
834.959	23726
835.097	23684
835.235	23733
835.373	23634
835.511	23646
835.65	23543
835.788	23566
835.926	23395
836.064	23391
836.202	23398
836.34	23680
836.478	23726
836.615	23661
836.753	23653
836.891	23615
837.029	23566
837.167	23398
837.305	23512
837.443	23364
837.58	23299
837.718	23535
837.856	23497
837.993	23326
838.131	23379
838.269	23254
838.406	23235
838.544	23083
838.681	23090
838.819	22961
838.956	22824
839.094	22782
839.231	22858
839.369	22968
839.506	23105
839.643	23010
839.781	22702
839.918	22706
840.055	22687
840.193	22740
840.33	22634
840.467	22717
840.604	22793
840.742	23033
840.879	22573
841.016	22573
841.153	22634
841.29	22729
841.427	22782
841.564	22679
841.701	22683
841.838	22653
841.975	22618
842.112	22478
842.249	22508
842.385	22356
842.522	22561
842.659	22333
842.796	22333
842.933	22325
843.069	22344
843.206	22428
843.343	22436
843.479	22314
843.616	22398
843.752	22162
843.889	22105
844.025	22200
844.162	22006
844.298	22188
844.435	22112
844.571	22070
844.708	22276
844.844	22196
844.98	22234
845.117	22230
845.253	22116
845.389	21998
845.525	21892
845.661	21953
845.798	21899
845.934	21972
846.07	21751
846.206	21831
846.342	21968
846.478	21846
846.614	21622
846.75	21515
846.886	21629
847.022	21576
847.158	21549
847.294	21629
847.429	21576
847.565	21595
847.701	21739
847.837	21325
847.972	21233
848.108	21351
848.244	21367
848.379	21085
848.515	21074
848.65	21058
848.786	21165
848.921	21188
849.057	21233
849.192	21222
849.328	21142
849.463	21222
849.598	21062
849.734	20933
849.869	20971
850.004	20887
850.14	20777
850.275	20811
850.41	20724
850.545	20868
850.68	20785
850.815	20861
850.95	20712
851.085	21119
851.22	21009
851.355	20819
851.49	20727
851.625	20815
851.76	20720
851.895	20792
852.03	20609
852.165	20864
852.299	20861
852.434	20781
852.569	20815
852.703	20830
852.838	20868
852.973	20895
853.107	20891
853.242	20811
853.376	20670
853.511	20518
853.645	20606
853.78	20750
853.914	20678
854.048	20499
854.183	20701
854.317	20712
854.451	20842
854.585	20602
854.72	20602
854.854	20689
854.988	20556
855.122	20598
855.256	20526
855.39	20655
855.524	20785
855.658	20625
855.792	20511
855.926	20587
856.06	20632
856.194	20568
856.327	20663
856.461	20621
856.595	20560
856.729	20655
856.862	20682
856.996	20636
857.13	20686
857.263	20758
857.397	20587
857.53	20552
857.664	20537
857.797	20621
857.931	20762
858.064	20648
858.197	20636
858.331	20571
858.464	20381
858.597	20446
858.731	20583
858.864	20492
858.997	20480
859.13	20571
859.263	20579
859.396	20625
859.529	20640
859.662	20488
859.795	20507
859.928	20609
860.061	20674
860.194	20712
860.327	20541
860.46	20522
860.592	20594
860.725	20678
860.858	20632
860.99	20537
861.123	20480
861.256	20442
861.388	20583
861.521	21039
861.653	20324
861.786	20427
861.918	20328
862.05	20571
862.183	20617
862.315	20644
862.447	20621
862.58	20518
862.712	20389
862.844	20187
862.976	20423
863.108	20313
863.24	20735
863.372	20298
863.504	20252
863.636	20313
863.768	20294
863.9	20343
864.032	20115
864.164	20119
864.296	20320
864.428	20404
864.559	20240
864.691	20214
864.823	20248
864.954	20164
865.086	20157
865.217	20157
865.349	20164
865.48	20027
865.612	20180
865.743	20252
865.875	20161
866.006	20084
866.137	20218
866.269	20187
866.4	20100
866.531	20081
866.662	20096
866.793	20035
866.924	20054
867.055	20115
867.186	20168
867.317	20043
867.448	19921
867.579	20043
867.71	19997
867.841	19989
867.972	20008
868.103	20031
868.233	20218
868.364	20084
868.495	20206
868.625	20271
868.756	20332
868.886	20202
869.017	20218
869.147	20374
869.278	20358
869.408	20385
869.539	20347
869.669	20286
869.799	20339
869.929	20450
870.06	20404
870.19	20575
870.32	20598
870.45	20587
870.58	20674
870.71	20849
870.84	20845
870.97	20800
871.1	20667
871.23	20811
871.36	21013
871.489	20861
871.619	20872
871.749	20887
871.879	20880
872.008	21077
872.138	20990
872.267	20826
872.397	20826
872.526	20750
872.656	20705
872.785	20644
872.915	20990
873.044	20891
873.173	20998
873.303	20944
873.432	20921
873.561	21001
873.69	21005
873.819	20960
873.948	20921
874.077	20963
874.206	20937
874.335	20910
874.464	21028
874.593	21275
874.722	20979
874.851	21275
874.979	21192
875.108	21188
875.237	21169
875.365	21062
875.494	21195
875.623	21237
875.751	21150
875.88	21310
876.008	21370
876.136	21325
876.265	21538
876.393	21774
876.521	21644
876.65	21633
876.778	21652
876.906	21481
877.034	21618
877.162	21473
877.29	21519
877.418	21591
877.546	21458
877.674	21428
877.802	21511
877.93	21564
878.058	21477
878.185	21393
878.313	21618
878.441	21641
878.568	21477
878.696	21374
878.824	21572
878.951	21698
879.079	21629
879.206	21873
879.333	21717
879.461	21511
879.588	21717
879.715	21774
879.842	21816
879.97	21572
880.097	21466
880.224	21329
880.351	21439
880.478	21496
880.605	21416
880.732	21332
880.859	21599
880.986	21378
881.112	21469
881.239	21294
881.366	21218
881.493	21024
881.619	20910
881.746	21039
881.872	20941
881.999	20979
882.125	20864
882.252	20975
882.378	20979
882.505	21013
882.631	20899
882.757	20781
882.883	20777
883.01	20678
883.136	20674
883.262	20526
883.388	20545
883.514	20659
883.64	20731
883.766	20549
883.892	20446
884.018	20454
884.143	20602
884.269	20845
884.395	20408
884.52	20298
884.646	20377
884.772	20225
884.897	20282
885.023	20442
885.148	20434
885.274	20488
885.399	20499
885.524	20370
885.65	20305
885.775	20377
885.9	20282
886.025	20305
886.15	20499
886.275	20332
886.4	20221
886.525	20267
886.65	20187
886.775	20263
886.9	20419
887.025	20663
887.149	20370
887.274	20058
887.399	20092
887.523	20126
887.648	19997
887.773	19875
887.897	20172
888.021	20039
888.146	20031
888.27	20130
888.395	20100
888.519	20130
888.643	20088
888.767	20005
888.891	19909
889.015	19902
889.139	20012
889.263	19830
889.387	20024
889.511	20020
889.635	20024
889.759	19833
889.883	19742
890.006	19887
890.13	19947
890.254	19658
890.377	19597
890.501	19582
890.624	19613
890.748	19693
890.871	19605
890.995	19483
891.118	19312
891.241	19567
891.364	19518
891.488	19529
891.611	19506
891.734	19483
891.857	19556
891.98	19586
892.103	19533
892.226	19358
892.349	19449
892.471	19308
892.594	19403
892.717	19434
892.839	19559
892.962	19480
893.085	19449
893.207	19362
893.33	19301
893.452	19339
893.575	19388
893.697	19324
893.819	19487
893.941	19559
894.064	19434
894.186	19324
894.308	19396
894.43	19502
894.552	19548
894.674	19559
894.796	19301
894.918	19388
895.04	19411
895.161	19400
895.283	19438
895.405	19350
895.526	19400
895.648	19339
895.769	19415
895.891	19392
896.012	19422
896.134	19434
896.255	19499
896.376	19388
896.498	19483
896.619	19472
896.74	19403
896.861	19533
896.982	19875
897.103	19944
897.224	19700
897.345	19575
897.466	19552
897.587	19712
897.708	19841
897.828	19658
897.949	19582
898.07	19457
898.19	19552
898.311	19651
898.431	19525
898.552	19658
898.672	19677
898.792	19616
898.913	19597
899.033	19514
899.153	19411
899.273	19236
899.393	19263
899.513	19373
899.633	19396
899.753	19331
899.873	19304
899.993	19476
900.113	19381
900.232	19343
900.352	19324
900.472	19198
900.591	19065
900.711	19171
900.83	19053
900.95	19232
901.069	19270
901.189	19053
901.308	18844
901.427	18894
901.546	18601
901.665	18871
901.784	18795
901.904	18696
902.023	18608
902.141	18334
902.26	18270
902.379	18353
902.498	18125
902.617	18235
902.735	18247
902.854	18334
902.973	18114
903.091	17927
903.21	17863
903.328	17843
903.446	17870
903.565	17699
903.683	17779
903.801	17570
903.919	17642
904.038	17665
904.156	17467
904.274	17573
904.392	17551
904.51	17448
904.627	17524
904.745	17547
904.863	17535
904.981	17284
905.098	17094
905.216	17105
905.334	17200
905.451	17124
905.569	17132
905.686	17227
905.803	17162
905.921	16957
906.038	17018
906.155	17033
906.272	16915
906.389	16873
906.506	16744
906.623	16797
906.74	16710
906.857	16584
906.974	16660
907.091	16782
907.208	16793
907.324	16721
907.441	16577
907.557	16375
907.674	16386
907.79	16348
907.907	16402
908.023	16417
908.139	16363
908.256	16333
908.372	16451
908.488	16207
908.604	16074
908.72	16044
908.836	16036
908.952	16067
909.068	16139
909.184	16211
909.3	16021
909.415	16101
909.531	16048
909.647	15854
909.762	15793
909.878	15759
909.993	15804
910.108	15770
910.224	15717
910.339	15732
910.454	15599
910.57	15515
910.685	15477
910.8	15827
910.915	15785
911.03	15561
911.145	15439
911.259	15348
911.374	15249
911.489	15298
911.604	15287
911.718	15138
911.833	15161
911.947	14994
912.062	14914
912.176	15077
912.291	15176
912.405	15074
912.519	15195
912.633	15218
912.748	15241
912.862	15047
912.976	14944
913.09	14807
913.204	14804
913.318	14982
913.431	14933
913.545	14971
913.659	15001
913.772	14960
913.886	14708
914	14769
914.113	14769
914.226	14811
914.34	14705
914.453	14644
914.566	14777
914.68	14693
914.793	14533
914.906	14469
915.019	14370
915.132	14339
915.245	14286
915.358	14412
915.47	14351
915.583	14351
915.696	14473
915.809	14549
915.921	14629
916.034	14317
916.146	14298
916.259	14271
916.371	14507
916.483	14374
916.595	14199
916.708	14244
916.82	14233
916.932	14100
917.044	14206
917.156	14157
917.268	13921
917.38	14043
917.491	14096
917.603	14111
917.715	14130
917.826	14119
917.938	14073
918.049	13989
918.161	13989
918.272	14142
918.384	14031
918.495	13974
918.606	13875
918.717	13826
918.828	13757
918.939	13928
919.05	13799
919.161	13750
919.272	13594
919.383	13651
919.494	13871
919.604	13978
919.715	13761
919.826	13700
919.936	13677
920.047	13803
920.157	13826
920.267	13967
920.378	13818
920.488	13685
920.598	13925
920.708	14012
920.818	13944
920.928	13932
921.038	14157
921.148	13997
921.258	13742
921.368	13708
921.477	13559
921.587	13438
921.697	13403
921.806	13445
921.916	13362
922.025	13247
922.134	13164
922.244	13126
922.353	13251
922.462	12989
922.571	12890
922.68	12768
922.789	12837
922.898	12776
923.007	12692
923.116	12878
923.224	12715
923.333	12749
923.442	12623
923.55	12642
923.659	12684
923.767	12734
923.876	12627
923.984	12593
924.092	12528
924.201	12639
924.309	12532
924.417	12528
924.525	12361
924.633	12490
924.741	13259
924.849	12342
924.956	12471
925.064	12209
925.172	12201
925.279	12178
925.387	12346
925.494	12296
925.602	12372
925.709	12270
925.816	12239
925.924	12209
926.031	12338
926.138	12129
926.245	12296
926.352	12175
926.459	12182
926.566	12296
926.673	12121
926.779	12083
926.886	11980
926.993	11885
927.099	11824
927.206	11794
927.312	11752
927.419	11912
927.525	11767
927.631	11859
927.737	11726
927.843	11638
927.95	11573
928.056	11638
928.162	11661
928.267	11745
928.373	12285
928.479	11783
928.585	11467
928.69	11585
928.796	11680
928.901	11566
929.007	11299
929.112	11649
929.218	11478
929.323	11482
929.428	11334
929.533	11539
929.638	11326
929.743	11318
929.848	11429
929.953	11345
930.058	11307
930.163	11121
930.267	11117
930.372	11235
930.477	11124
930.581	11254
930.685	11174
930.79	11071
930.894	11045
930.998	10934
931.103	11121
931.207	10771
931.311	10641
931.415	10599
931.519	10360
931.623	10329
