Data from test_V78500241_3407.txt Node
Date: Fri Mar 25 15:33:35 CST 2022
User: usil
Spectrometer: V785-0024
Trigger mode: 0
Integration Time (sec): 4.000000E-1
Scans to average: 1
Nonlinearity correction enabled: false
Boxcar width: 0
Storing dark spectrum: false
XAxis mode: Wavelengths
Number of Pixels in Spectrum: 1024
>>>>>Begin Spectral Data<<<<<
801.071	27397
801.214	27066
801.356	27089
801.499	26880
801.641	26796
801.783	26868
801.926	26857
802.068	26792
802.211	26731
802.353	26682
802.496	26484
802.638	26457
802.78	26484
802.923	26320
803.065	26286
803.208	26431
803.35	26385
803.492	26571
803.635	26773
803.777	26598
803.919	26663
804.061	26872
804.204	26785
804.346	26579
804.488	26374
804.63	26533
804.773	26442
804.915	26724
805.057	26758
805.199	26636
805.341	26651
805.483	26724
805.626	26667
805.768	26495
805.91	26724
806.052	26670
806.194	26606
806.336	26815
806.478	26674
806.62	26727
806.762	26857
806.904	27017
807.046	27184
807.188	27077
807.33	27062
807.472	27214
807.614	27020
807.756	27165
807.898	26921
808.04	26857
808.182	26880
808.324	26906
808.465	26861
808.607	27199
808.749	27287
808.891	27203
809.033	27443
809.174	27252
809.316	27241
809.458	27313
809.6	27241
809.741	27302
809.883	27389
810.025	27606
810.166	27526
810.308	27629
810.45	27481
810.591	27515
810.733	27439
810.875	27359
811.016	27131
811.158	27344
811.299	27447
811.441	27473
811.582	27462
811.724	27306
811.865	27241
812.007	27355
812.148	27268
812.29	27317
812.431	27336
812.573	27507
812.714	27747
812.855	27835
812.997	28013
813.138	28059
813.279	27892
813.421	27808
813.562	27747
813.703	27545
813.845	27427
813.986	27252
814.127	27100
814.268	26940
814.41	27032
814.551	26876
814.692	27104
814.833	26876
814.974	26838
815.115	27001
815.256	26788
815.397	26838
815.539	26876
815.68	26674
815.821	26621
815.962	26792
816.103	26735
816.244	26583
816.385	26457
816.526	26313
816.666	26320
816.807	26199
816.948	26271
817.089	26408
817.23	26320
817.371	26168
817.512	26164
817.653	26206
817.793	26282
817.934	26183
818.075	26282
818.216	26263
818.356	26157
818.497	26058
818.638	25982
818.778	25864
818.919	26008
819.06	25959
819.2	26157
819.341	26065
819.481	26214
819.622	26240
819.762	26689
819.903	26423
820.043	26313
820.184	26358
820.324	26244
820.465	26328
820.605	26339
820.746	26202
820.886	26176
821.026	26278
821.167	26168
821.307	26259
821.447	26161
821.588	26149
821.728	26024
821.868	25780
822.008	25727
822.149	25559
822.289	25628
822.429	25445
822.569	25510
822.709	25491
822.849	25236
822.99	25164
823.13	25282
823.27	25118
823.41	25069
823.55	24837
823.69	24992
823.83	24951
823.97	24970
824.11	24741
824.25	24760
824.389	24802
824.529	24894
824.669	24738
824.809	24856
824.949	24878
825.089	24806
825.228	24688
825.368	24661
825.508	24498
825.648	24696
825.787	24825
825.927	24711
826.067	24669
826.206	24734
826.346	24684
826.485	24768
826.625	24616
826.765	24772
826.904	24795
827.044	24479
827.183	24445
827.323	24338
827.462	24410
827.601	24486
827.741	24403
827.88	24467
828.02	24330
828.159	24323
828.298	24350
828.437	24445
828.577	24285
828.716	24627
828.855	24308
828.994	24098
829.134	24121
829.273	24228
829.412	24148
829.551	24034
829.69	24243
829.829	24270
829.968	24262
830.107	24262
830.246	24087
830.385	24213
830.524	24152
830.663	23931
830.802	23878
830.941	23695
831.08	23802
831.219	23676
831.357	23813
831.496	23973
831.635	23859
831.774	23611
831.913	23687
832.051	23608
832.19	23570
832.329	23535
832.467	23398
832.606	23284
832.744	23296
832.883	23471
833.022	23436
833.16	23414
833.299	23417
833.437	23379
833.576	23395
833.714	23493
833.852	23486
833.991	23425
834.129	23718
834.267	23558
834.406	23509
834.544	23562
834.682	23425
834.821	23600
834.959	23604
835.097	23551
835.235	23516
835.373	23551
835.511	23547
835.65	23372
835.788	23349
835.926	23261
836.064	23200
836.202	23193
836.34	23330
836.478	23414
836.615	23250
836.753	23315
836.891	23433
837.029	23296
837.167	23231
837.305	23284
837.443	23341
837.58	23147
837.718	23334
837.856	23178
837.993	23231
838.131	23170
838.269	23128
838.406	23121
838.544	23006
838.681	22885
838.819	22740
838.956	22801
839.094	22580
839.231	22797
839.369	22835
839.506	23048
839.643	22877
839.781	22790
839.918	22618
840.055	22744
840.193	22538
840.33	22542
840.467	22516
840.604	22599
840.742	22885
840.879	22531
841.016	22535
841.153	22561
841.29	22649
841.427	22599
841.564	22569
841.701	22702
841.838	22577
841.975	22398
842.112	22432
842.249	22554
842.385	22356
842.522	22535
842.659	22550
842.796	22432
842.933	22333
843.069	22341
843.206	22276
843.343	22405
843.479	22310
843.616	22333
843.752	22284
843.889	22173
844.025	22306
844.162	22162
844.298	22154
844.435	22135
844.571	21964
844.708	22169
844.844	22181
844.98	22242
845.117	22261
845.253	22067
845.389	21994
845.525	22029
845.661	22093
845.798	21873
845.934	21911
846.07	21762
846.206	21869
846.342	21964
846.478	21850
846.614	21770
846.75	21519
846.886	21652
847.022	21622
847.158	21660
847.294	21599
847.429	21682
847.565	21595
847.701	21873
847.837	21389
847.972	21351
848.108	21443
848.244	21374
848.379	21275
848.515	21150
848.65	21154
848.786	21260
848.921	21264
849.057	21321
849.192	21294
849.328	21287
849.463	21154
849.598	21199
849.734	21150
849.869	21058
850.004	21066
850.14	20933
850.275	20952
850.41	21036
850.545	20925
850.68	20880
850.815	21013
850.95	20994
851.085	21192
851.22	21112
851.355	20937
851.49	20967
851.625	21005
851.76	20941
851.895	20724
852.03	20785
852.165	20914
852.299	20960
852.434	21039
852.569	21020
852.703	20967
852.838	21001
852.973	21017
853.107	21211
853.242	20914
853.376	20731
853.511	20724
853.645	20762
853.78	20960
853.914	20720
854.048	20807
854.183	20629
854.317	20686
854.451	21032
854.585	20880
854.72	20693
854.854	20857
854.988	20746
855.122	20807
855.256	20743
855.39	20842
855.524	20929
855.658	20819
855.792	20796
855.926	20815
856.06	20914
856.194	20861
856.327	20746
856.461	20689
856.595	20815
856.729	20857
856.862	20895
856.996	20914
857.13	20834
857.263	20937
857.397	20864
857.53	20777
857.664	20849
857.797	20887
857.931	20830
858.064	20785
858.197	20872
858.331	20785
858.464	20815
858.597	20777
858.731	20743
858.864	20762
858.997	20697
859.13	20724
859.263	20788
859.396	20796
859.529	20727
859.662	20651
859.795	20792
859.928	20861
860.061	20971
860.194	20986
860.327	20838
860.46	20842
860.592	20876
860.725	20899
860.858	20804
860.99	20777
861.123	20800
861.256	20739
861.388	20785
861.521	21428
861.653	20651
861.786	20484
861.918	20632
862.05	20727
862.183	20697
862.315	20621
862.447	20743
862.58	20686
862.712	20450
862.844	20469
862.976	20476
863.108	20556
863.24	21020
863.372	20511
863.504	20423
863.636	20545
863.768	20492
863.9	20560
864.032	20370
864.164	20461
864.296	20480
864.428	20609
864.559	20568
864.691	20689
864.823	20514
864.954	20465
865.086	20461
865.217	20343
865.349	20294
865.48	20408
865.612	20419
865.743	20689
865.875	20259
866.006	20461
866.137	20305
866.269	20518
866.4	20313
866.531	20389
866.662	20355
866.793	20362
866.924	20290
867.055	20324
867.186	20415
867.317	20358
867.448	20256
867.579	20347
867.71	20366
867.841	20267
867.972	20389
868.103	20320
868.233	20320
868.364	20278
868.495	20454
868.625	20499
868.756	20682
868.886	20488
869.017	20541
869.147	20602
869.278	20663
869.408	20613
869.539	20454
869.669	20648
869.799	20625
869.929	20697
870.06	20606
870.19	20990
870.32	20861
870.45	20982
870.58	20906
870.71	21089
870.84	21089
870.97	20982
871.1	21032
871.23	21074
871.36	21184
871.489	21150
871.619	21226
871.749	21367
871.879	21203
872.008	21287
872.138	21188
872.267	21211
872.397	21154
872.526	21039
872.656	21028
872.785	21085
872.915	21203
873.044	21378
873.173	21138
873.303	21241
873.432	21275
873.561	21279
873.69	21214
873.819	21184
873.948	21230
874.077	21351
874.206	21127
874.335	21116
874.464	21355
874.593	21496
874.722	21466
874.851	21454
874.979	21485
875.108	21515
875.237	21523
875.365	21329
875.494	21287
875.623	21443
875.751	21454
875.88	21466
876.008	21576
876.136	21641
876.265	21812
876.393	22021
876.521	21979
876.65	21922
876.778	21808
876.906	21751
877.034	21797
877.162	21857
877.29	21751
877.418	21831
877.546	21926
877.674	21827
877.802	21728
877.93	21835
878.058	21892
878.185	21599
878.313	21850
878.441	21854
878.568	21572
878.696	21694
878.824	21873
878.951	21873
879.079	22105
879.206	22124
879.333	21903
879.461	21915
879.588	21983
879.715	21979
879.842	22086
879.97	21808
880.097	21667
880.224	21606
880.351	21595
880.478	21629
880.605	21530
880.732	21599
880.859	21804
880.986	21686
881.112	21629
881.239	21564
881.366	21336
881.493	21275
881.619	21310
881.746	21226
881.872	21116
881.999	21192
882.125	21192
882.252	21252
882.378	21066
882.505	21256
882.631	21127
882.757	20925
882.883	21036
883.01	20971
883.136	20788
883.262	20788
883.388	20667
883.514	20941
883.64	20994
883.766	20861
883.892	20750
884.018	20686
884.143	20868
884.269	20941
884.395	20743
884.52	20575
884.646	20533
884.772	20541
884.897	20393
885.023	20484
885.148	20663
885.274	20537
885.399	20655
885.524	20533
885.65	20583
885.775	20640
885.9	20549
886.025	20617
886.15	20663
886.275	20465
886.4	20473
886.525	20674
886.65	20526
886.775	20480
886.9	20716
887.025	20788
887.149	20552
887.274	20484
887.399	20328
887.523	20309
887.648	20374
887.773	20229
887.897	20408
888.021	20294
888.146	20309
888.27	20374
888.395	20415
888.519	20408
888.643	20381
888.767	20412
888.891	20275
889.015	20256
889.139	20199
889.263	20191
889.387	20202
889.511	20313
889.635	20328
889.759	20145
889.883	20096
890.006	20214
890.13	20298
890.254	20130
890.377	20183
890.501	19963
890.624	19833
890.748	19928
890.871	19772
890.995	19689
891.118	19738
891.241	19864
891.364	19818
891.488	19814
891.611	19723
891.734	19643
891.857	19803
891.98	19826
892.103	19677
892.226	19731
892.349	19708
892.471	19544
892.594	19696
892.717	19765
892.839	19635
892.962	19639
893.085	19727
893.207	19510
893.33	19696
893.452	19613
893.575	19761
893.697	19651
893.819	19776
893.941	19845
894.064	19750
894.186	19590
894.308	19521
894.43	19757
894.552	19784
894.674	19750
894.796	19563
894.918	19575
895.04	19533
895.161	19643
895.283	19715
895.405	19658
895.526	19700
895.648	19807
895.769	19685
895.891	19719
896.012	19791
896.134	19693
896.255	19639
896.376	19647
896.498	19681
896.619	19757
896.74	19628
896.861	19750
896.982	20027
897.103	20092
897.224	20005
897.345	19890
897.466	19761
897.587	19871
897.708	19906
897.828	19928
897.949	19818
898.07	19639
898.19	19864
898.311	19944
898.431	19780
898.552	19906
898.672	19993
898.792	19993
898.913	19833
899.033	19769
899.153	19632
899.273	19563
899.393	19651
899.513	19578
899.633	19655
899.753	19635
899.873	19647
899.993	19704
900.113	19620
900.232	19693
900.352	19441
900.472	19487
900.591	19362
900.711	19449
900.83	19346
900.95	19548
901.069	19514
901.189	19320
901.308	19103
901.427	19034
901.546	19031
901.665	19012
901.784	19004
901.904	18886
902.023	18810
902.141	18620
902.26	18623
902.379	18681
902.498	18559
902.617	18563
902.735	18620
902.854	18456
902.973	18448
903.091	18292
903.21	18216
903.328	18270
903.446	18152
903.565	18072
903.683	18076
903.801	17908
903.919	17973
904.038	17958
904.156	17908
904.274	18003
904.392	17748
904.51	17718
904.627	17764
904.745	17760
904.863	17847
904.981	17589
905.098	17512
905.216	17486
905.334	17497
905.451	17474
905.569	17444
905.686	17482
905.803	17459
905.921	17258
906.038	17337
906.155	17356
906.272	17109
906.389	17174
906.506	16995
906.623	17105
906.74	17003
906.857	16915
906.974	16965
907.091	17098
907.208	17166
907.324	17025
907.441	16915
907.557	16698
907.674	16736
907.79	16694
907.907	16706
908.023	16816
908.139	16687
908.256	16660
908.372	16668
908.488	16691
908.604	16565
908.72	16558
908.836	16436
908.952	16489
909.068	16478
909.184	16519
909.3	16519
909.415	16386
909.531	16451
909.647	16204
909.762	16147
909.878	16158
909.993	16219
910.108	16128
910.224	16059
910.339	16181
910.454	16055
910.57	15907
910.685	15918
910.8	16230
910.915	16044
911.03	15876
911.145	15835
911.259	15850
911.374	15808
911.489	15720
911.604	15644
911.718	15599
911.833	15519
911.947	15401
912.062	15340
912.176	15523
912.291	15606
912.405	15637
912.519	15641
912.633	15660
912.748	15580
912.862	15496
912.976	15526
913.09	15245
913.204	15340
913.318	15245
913.431	15416
913.545	15530
913.659	15412
913.772	15370
913.886	15230
914	15142
914.113	15218
914.226	15222
914.34	15275
914.453	15024
914.566	15135
914.68	15112
914.793	14982
914.906	14819
915.019	14743
915.132	14708
915.245	14735
915.358	14872
915.47	14716
915.583	14754
915.696	14853
915.809	14864
915.921	14933
916.034	14659
916.146	14659
916.259	14625
916.371	14765
916.483	14678
916.595	14537
916.708	14640
916.82	14564
916.932	14522
917.044	14484
917.156	14526
917.268	14450
917.38	14530
917.491	14393
917.603	14492
917.715	14507
917.826	14610
917.938	14473
918.049	14244
918.161	14465
918.272	14511
918.384	14374
918.495	14503
918.606	14225
918.717	14275
918.828	14271
918.939	14309
919.05	14225
919.161	14214
919.272	13925
919.383	14016
919.494	14263
919.604	14454
919.715	14176
919.826	14123
919.936	14172
920.047	14267
920.157	14161
920.267	14320
920.378	14168
920.488	14039
920.598	14336
920.708	14530
920.818	14339
920.928	14332
921.038	14461
921.148	14454
921.258	14191
921.368	13974
921.477	13925
921.587	13913
921.697	13780
921.806	13932
921.916	13799
922.025	13632
922.134	13590
922.244	13552
922.353	13556
922.462	13476
922.571	13411
922.68	13308
922.789	13304
922.898	13213
923.007	13152
923.116	13327
923.224	13141
923.333	13164
923.442	13031
923.55	13012
923.659	13076
923.767	13156
923.876	12947
923.984	13015
924.092	12958
924.201	12947
924.309	13012
924.417	12939
924.525	12894
924.633	12863
924.741	13864
924.849	12749
924.956	12935
925.064	12601
925.172	12555
925.279	12726
925.387	12582
925.494	12566
925.602	12764
925.709	12741
925.816	12540
925.924	12662
926.031	12715
926.138	12658
926.245	12700
926.352	12471
926.459	12677
926.566	12696
926.673	12502
926.779	12357
926.886	12380
926.993	12311
927.099	12224
927.206	12182
927.312	12167
927.419	12232
927.525	12194
927.631	12235
927.737	12152
927.843	12015
927.95	12011
928.056	12038
928.162	12049
928.267	12064
928.373	12574
928.479	12114
928.585	11893
928.69	12045
928.796	12087
928.901	11889
929.007	11794
929.112	11939
929.218	11851
929.323	11790
929.428	11676
929.533	11954
929.638	11783
929.743	11760
929.848	11893
929.953	11695
930.058	11661
930.163	11532
930.267	11509
930.372	11596
930.477	11486
930.581	11764
930.685	11497
930.79	11326
930.894	11387
930.998	11341
931.103	11532
931.207	11132
931.311	11113
931.415	10995
931.519	10812
931.623	10755
