Data from test_V78500241_859.txt Node
Date: Fri Mar 25 15:15:50 CST 2022
User: usil
Spectrometer: V785-0024
Trigger mode: 0
Integration Time (sec): 4.000000E-1
Scans to average: 1
Nonlinearity correction enabled: false
Boxcar width: 0
Storing dark spectrum: false
XAxis mode: Wavelengths
Number of Pixels in Spectrum: 1024
>>>>>Begin Spectral Data<<<<<
801.071	28207
801.214	28196
801.356	27895
801.499	28017
801.641	27934
801.783	27743
801.926	27800
802.068	27667
802.211	27667
802.353	27618
802.496	27386
802.638	27481
802.78	27431
802.923	27405
803.065	27496
803.208	27397
803.35	27481
803.492	27386
803.635	27523
803.777	27488
803.919	27603
804.061	27903
804.204	27724
804.346	27648
804.488	27561
804.63	27572
804.773	27564
804.915	27660
805.057	27800
805.199	27553
805.341	27854
805.483	27956
805.626	27770
805.768	27641
805.91	27720
806.052	27823
806.194	27827
806.336	27972
806.478	27751
806.62	27884
806.762	27907
806.904	28044
807.046	28314
807.188	28234
807.33	28109
807.472	28158
807.614	28128
807.756	28177
807.898	28051
808.04	28032
808.182	28044
808.324	28070
808.465	28093
808.607	28253
808.749	28512
808.891	28466
809.033	28512
809.174	28390
809.316	28508
809.458	28538
809.6	28550
809.741	28577
809.883	28542
810.025	28664
810.166	28763
810.308	28675
810.45	28634
810.591	28687
810.733	28554
810.875	28386
811.016	28363
811.158	28341
811.299	28535
811.441	28546
811.582	28557
811.724	28371
811.865	28390
812.007	28455
812.148	28504
812.29	28443
812.431	28512
812.573	28797
812.714	28873
812.855	28900
812.997	29109
813.138	29235
813.279	29170
813.421	29064
813.562	28961
813.703	28904
813.845	28569
813.986	28516
814.127	28200
814.268	28238
814.41	28306
814.551	28055
814.692	28135
814.833	27979
814.974	28112
815.115	28238
815.256	27998
815.397	28173
815.539	28074
815.68	27983
815.821	27968
815.962	28013
816.103	27911
816.244	27789
816.385	27892
816.526	27812
816.666	27515
816.807	27496
816.948	27485
817.089	27526
817.23	27542
817.371	27606
817.512	27519
817.653	27488
817.793	27488
817.934	27481
818.075	27443
818.216	27462
818.356	27405
818.497	27401
818.638	27325
818.778	27264
818.919	27195
819.06	27268
819.2	27511
819.341	27462
819.481	27507
819.622	27538
819.762	27819
819.903	27648
820.043	27694
820.184	27599
820.324	27500
820.465	27675
820.605	27511
820.746	27667
820.886	27500
821.026	27557
821.167	27667
821.307	27526
821.447	27538
821.588	27386
821.728	27256
821.868	27184
822.008	26990
822.149	26937
822.289	26925
822.429	26807
822.569	26644
822.709	26590
822.849	26511
822.99	26415
823.13	26465
823.27	26480
823.41	26263
823.55	26020
823.69	26191
823.83	26157
823.97	26077
824.11	26001
824.25	26054
824.389	26130
824.529	26115
824.669	26081
824.809	26339
824.949	26221
825.089	26252
825.228	26206
825.368	25947
825.508	25959
825.648	26073
825.787	25879
825.927	25982
826.067	25970
826.206	25978
826.346	26111
826.485	26024
826.625	25970
826.765	25989
826.904	26016
827.044	25731
827.183	25795
827.323	25712
827.462	25788
827.601	25712
827.741	25647
827.88	25616
828.02	25563
828.159	25826
828.298	25712
828.437	25849
828.577	25651
828.716	25738
828.855	25738
828.994	25479
829.134	25453
829.273	25415
829.412	25392
829.551	25381
829.69	25354
829.829	25499
829.968	25499
830.107	25468
830.246	25403
830.385	25308
830.524	25259
830.663	25312
830.802	25118
830.941	24867
831.08	24947
831.219	25019
831.357	24996
831.496	25327
831.635	25000
831.774	25034
831.913	24909
832.051	24814
832.19	24783
832.329	24795
832.467	24852
832.606	24711
832.744	24604
832.883	24726
833.022	24677
833.16	24722
833.299	24829
833.437	24875
833.576	24741
833.714	24722
833.852	24897
833.991	24798
834.129	24920
834.267	24821
834.406	24783
834.544	24810
834.682	24734
834.821	24810
834.959	24844
835.097	24726
835.235	24787
835.373	24722
835.511	24749
835.65	24566
835.788	24612
835.926	24604
836.064	24258
836.202	24376
836.34	24494
836.478	24730
836.615	24566
836.753	24604
836.891	24681
837.029	24448
837.167	24623
837.305	24342
837.443	24422
837.58	24334
837.718	24547
837.856	24464
837.993	24338
838.131	24437
838.269	24258
838.406	24350
838.544	24350
838.681	24007
838.819	24018
838.956	23958
839.094	23840
839.231	23950
839.369	24091
839.506	24357
839.643	24038
839.781	23904
839.918	23840
840.055	23935
840.193	23771
840.33	23687
840.467	23722
840.604	23699
840.742	23965
840.879	23687
841.016	23718
841.153	23699
841.29	23912
841.427	23748
841.564	23798
841.701	23828
841.838	23638
841.975	23687
842.112	23729
842.249	23554
842.385	23627
842.522	23756
842.659	23611
842.796	23581
842.933	23516
843.069	23551
843.206	23448
843.343	23668
843.479	23474
843.616	23509
843.752	23330
843.889	23402
844.025	23406
844.162	23330
844.298	23189
844.435	23254
844.571	23349
844.708	23372
844.844	23471
844.98	23501
845.117	23474
845.253	23299
845.389	23121
845.525	23212
845.661	23174
845.798	23067
845.934	23067
846.07	22873
846.206	23170
846.342	23079
846.478	22911
846.614	22866
846.75	22736
846.886	22805
847.022	22797
847.158	22805
847.294	22755
847.429	22736
847.565	22771
847.701	23010
847.837	22596
847.972	22459
848.108	22653
848.244	22531
848.379	22493
848.515	22318
848.65	22367
848.786	22333
848.921	22402
849.057	22519
849.192	22386
849.328	22341
849.463	22405
849.598	22375
849.734	22211
849.869	22158
850.004	22257
850.14	22173
850.275	22131
850.41	22044
850.545	22097
850.68	21941
850.815	22101
850.95	22154
851.085	22306
851.22	22158
851.355	22272
851.49	22166
851.625	22067
851.76	22078
851.895	22006
852.03	21972
852.165	22124
852.299	22207
852.434	22120
852.569	22044
852.703	22139
852.838	22173
852.973	22200
853.107	22291
853.242	22211
853.376	22017
853.511	21922
853.645	21968
853.78	22032
853.914	22032
854.048	21941
854.183	21987
854.317	21861
854.451	22131
854.585	21899
854.72	21915
854.854	22101
854.988	21865
855.122	22013
855.256	21911
855.39	21911
855.524	22029
855.658	21994
855.792	22070
855.926	21880
856.06	21945
856.194	21979
856.327	21945
856.461	21937
856.595	21793
856.729	21922
856.862	21994
856.996	22017
857.13	21960
857.263	22147
857.397	22063
857.53	21991
857.664	21941
857.797	22097
857.931	22017
858.064	22021
858.197	21930
858.331	21987
858.464	21827
858.597	21857
858.731	21819
858.864	21934
858.997	21785
859.13	21949
859.263	21930
859.396	21911
859.529	21892
859.662	21865
859.795	21808
859.928	21964
860.061	21937
860.194	22131
860.327	22025
860.46	21949
860.592	22116
860.725	22040
860.858	22112
860.99	21956
861.123	21854
861.256	21789
861.388	21827
861.521	22721
861.653	21808
861.786	21797
861.918	21800
862.05	21797
862.183	21736
862.315	21956
862.447	21915
862.58	21804
862.712	21709
862.844	21667
862.976	21656
863.108	21698
863.24	21987
863.372	21557
863.504	21736
863.636	21637
863.768	21663
863.9	21618
864.032	21603
864.164	21564
864.296	21656
864.428	21846
864.559	21717
864.691	21652
864.823	21679
864.954	21701
865.086	21580
865.217	21538
865.349	21511
865.48	21583
865.612	21557
865.743	21603
865.875	21599
866.006	21481
866.137	21405
866.269	21557
866.4	21504
866.531	21428
866.662	21412
866.793	21450
866.924	21363
867.055	21439
867.186	21507
867.317	21336
867.448	21386
867.579	21401
867.71	21355
867.841	21291
867.972	21351
868.103	21538
868.233	21435
868.364	21408
868.495	21622
868.625	21728
868.756	21842
868.886	21557
869.017	21660
869.147	21732
869.278	21930
869.408	21759
869.539	21652
869.669	21709
869.799	21591
869.929	21720
870.06	21846
870.19	21930
870.32	22036
870.45	22097
870.58	22188
870.71	22139
870.84	22234
870.97	22063
871.1	22070
871.23	22314
871.36	22246
871.489	22181
871.619	22173
871.749	22200
871.879	22257
872.008	22253
872.138	22337
872.267	22306
872.397	22150
872.526	22044
872.656	22063
872.785	22070
872.915	22223
873.044	22295
873.173	22310
873.303	22265
873.432	22344
873.561	22470
873.69	22333
873.819	22303
873.948	22394
874.077	22371
874.206	22287
874.335	22246
874.464	22375
874.593	22504
874.722	22500
874.851	22584
874.979	22424
875.108	22550
875.237	22417
875.365	22398
875.494	22424
875.623	22493
875.751	22523
875.88	22538
876.008	22607
876.136	22733
876.265	22782
876.393	22965
876.521	23029
876.65	23010
876.778	22809
876.906	22873
877.034	22820
877.162	22831
877.29	22687
877.418	22873
877.546	22824
877.674	22812
877.802	22869
877.93	22915
878.058	22740
878.185	22713
878.313	22774
878.441	22953
878.568	22694
878.696	22691
878.824	22862
878.951	22938
879.079	22946
879.206	23147
879.333	23018
879.461	22885
879.588	22892
879.715	23044
879.842	23128
879.97	22968
880.097	22828
880.224	22702
880.351	22596
880.478	22721
880.605	22512
880.732	22744
880.859	22965
880.986	22736
881.112	22702
881.239	22592
881.366	22382
881.493	22382
881.619	22325
881.746	22226
881.872	22257
881.999	22360
882.125	22249
882.252	22265
882.378	22200
882.505	22394
882.631	22109
882.757	21884
882.883	22036
883.01	21945
883.136	21953
883.262	21793
883.388	21759
883.514	21975
883.64	21895
883.766	21922
883.892	21652
884.018	21717
884.143	21876
884.269	21903
884.395	21686
884.52	21530
884.646	21587
884.772	21500
884.897	21473
885.023	21481
885.148	21618
885.274	21808
885.399	21564
885.524	21519
885.65	21629
885.775	21545
885.9	21435
886.025	21652
886.15	21679
886.275	21625
886.4	21526
886.525	21603
886.65	21530
886.775	21412
886.9	21564
887.025	21637
887.149	21473
887.274	21317
887.399	21450
887.523	21321
887.648	21325
887.773	21233
887.897	21363
888.021	21378
888.146	21370
888.27	21462
888.395	21435
888.519	21344
888.643	21325
888.767	21306
888.891	21184
889.015	21195
889.139	21150
889.263	21154
889.387	21119
889.511	21226
889.635	21321
889.759	21150
889.883	21169
890.006	21138
890.13	21313
890.254	21028
890.377	21036
890.501	20868
890.624	20960
890.748	20910
890.871	20769
890.995	20701
891.118	20613
891.241	20750
891.364	20746
891.488	20891
891.611	20648
891.734	20754
891.857	20815
891.98	20716
892.103	20720
892.226	20788
892.349	20564
892.471	20473
892.594	20632
892.717	20598
892.839	20613
892.962	20537
893.085	20594
893.207	20461
893.33	20499
893.452	20587
893.575	20609
893.697	20537
893.819	20720
893.941	20788
894.064	20712
894.186	20575
894.308	20454
894.43	20640
894.552	20781
894.674	20731
894.796	20450
894.918	20678
895.04	20560
895.161	20705
895.283	20667
895.405	20492
895.526	20587
895.648	20507
895.769	20541
895.891	20613
896.012	20606
896.134	20629
896.255	20469
896.376	20522
896.498	20648
896.619	20594
896.74	20514
896.861	20579
896.982	20773
897.103	20990
897.224	20785
897.345	20781
897.466	20731
897.587	20762
897.708	20933
897.828	20815
897.949	20621
898.07	20720
898.19	20602
898.311	20800
898.431	20781
898.552	20811
898.672	20769
898.792	20929
898.913	20842
899.033	20590
899.153	20514
899.273	20511
899.393	20499
899.513	20541
899.633	20503
899.753	20693
899.873	20438
899.993	20423
900.113	20355
900.232	20526
900.352	20454
900.472	20358
900.591	20332
900.711	20233
900.83	20210
900.95	20427
901.069	20332
901.189	20191
901.308	19955
901.427	19917
901.546	19898
901.665	19978
901.784	19951
901.904	19731
902.023	19670
902.141	19571
902.26	19373
902.379	19384
902.498	19388
902.617	19346
902.735	19396
902.854	19343
902.973	19285
903.091	19183
903.21	18989
903.328	19053
903.446	18852
903.565	18890
903.683	18814
903.801	18684
903.919	18745
904.038	18734
904.156	18578
904.274	18620
904.392	18547
904.51	18585
904.627	18601
904.745	18669
904.863	18646
904.981	18471
905.098	18285
905.216	18319
905.334	18277
905.451	18395
905.569	18330
905.686	18228
905.803	18174
905.921	18095
906.038	18148
906.155	18117
906.272	17980
906.389	17992
906.506	17939
906.623	17783
906.74	17741
906.857	17672
906.974	17695
907.091	17882
907.208	17904
907.324	17817
907.441	17680
907.557	17570
907.674	17562
907.79	17482
907.907	17417
908.023	17585
908.139	17604
908.256	17547
908.372	17326
908.488	17478
908.604	17318
908.72	17246
908.836	17326
908.952	17235
909.068	17326
909.184	17311
909.3	17368
909.415	17265
909.531	17280
909.647	17006
909.762	16961
909.878	16908
909.993	16904
910.108	16972
910.224	16831
910.339	16965
910.454	16778
910.57	16801
910.685	16672
910.8	17010
910.915	16915
911.03	16649
911.145	16573
911.259	16508
911.374	16535
911.489	16489
911.604	16325
911.718	16200
911.833	16246
911.947	16261
912.062	16032
912.176	16211
912.291	16276
912.405	16188
912.519	16424
912.633	16478
912.748	16318
912.862	16158
912.976	16128
913.09	15930
913.204	16036
913.318	16071
913.431	16246
913.545	16082
913.659	16154
913.772	16071
913.886	15838
914	15895
914.113	15960
914.226	16017
914.34	15869
914.453	15774
914.566	15991
914.68	15842
914.793	15720
914.906	15603
915.019	15519
915.132	15393
915.245	15408
915.358	15462
915.47	15500
915.583	15481
915.696	15450
915.809	15462
915.921	15584
916.034	15408
916.146	15348
916.259	15355
916.371	15481
916.483	15462
916.595	15283
916.708	15287
916.82	15306
916.932	15283
917.044	15264
917.156	15233
917.268	15245
917.38	15127
917.491	15108
917.603	15066
917.715	15249
917.826	15237
917.938	15047
918.049	14963
918.161	15013
918.272	15268
918.384	15119
918.495	14948
918.606	14887
918.717	14769
918.828	14891
918.939	14857
919.05	14750
919.161	14815
919.272	14678
919.383	14670
919.494	14910
919.604	14899
919.715	14842
919.826	14777
919.936	14891
920.047	14937
920.157	14758
920.267	15017
920.378	14880
920.488	14750
920.598	15001
920.708	15184
920.818	15074
920.928	14933
921.038	15085
921.148	15051
921.258	14708
921.368	14583
921.477	14594
921.587	14503
921.697	14446
921.806	14590
921.916	14454
922.025	14252
922.134	14164
922.244	14134
922.353	14244
922.462	14062
922.571	14016
922.68	13868
922.789	13757
922.898	13811
923.007	13784
923.116	13856
923.224	13795
923.333	13753
923.442	13655
923.55	13689
923.659	13632
923.767	13685
923.876	13670
923.984	13647
924.092	13540
924.201	13636
924.309	13605
924.417	13643
924.525	13445
924.633	13495
924.741	14237
924.849	13308
924.956	13365
925.064	13293
925.172	13209
925.279	13225
925.387	13259
925.494	13221
925.602	13324
925.709	13282
925.816	13141
925.924	13164
926.031	13225
926.138	13198
926.245	13274
926.352	13171
926.459	13137
926.566	13331
926.673	13084
926.779	12916
926.886	12878
926.993	12916
927.099	12833
927.206	12749
927.312	12726
927.419	12890
927.525	12867
927.631	12817
927.737	12654
927.843	12662
927.95	12486
928.056	12623
928.162	12677
928.267	12620
928.373	13202
928.479	12677
928.585	12460
928.69	12570
928.796	12658
928.901	12433
929.007	12369
929.112	12528
929.218	12414
929.323	12391
929.428	12239
929.533	12483
929.638	12300
929.743	12247
929.848	12365
929.953	12300
930.058	12106
930.163	11958
930.267	11999
930.372	12083
930.477	11931
930.581	12171
930.685	12038
930.79	11859
930.894	11939
930.998	11863
931.103	12003
931.207	11585
931.311	11486
931.415	11482
931.519	11296
931.623	11265
