Data from test_V78500241_472.txt Node
Date: Fri Mar 25 15:13:08 CST 2022
User: usil
Spectrometer: V785-0024
Trigger mode: 0
Integration Time (sec): 4.000000E-1
Scans to average: 1
Nonlinearity correction enabled: false
Boxcar width: 0
Storing dark spectrum: false
XAxis mode: Wavelengths
Number of Pixels in Spectrum: 1024
>>>>>Begin Spectral Data<<<<<
801.071	27264
801.214	27367
801.356	27070
801.499	27184
801.641	27028
801.783	26986
801.926	27066
802.068	26872
802.211	26933
802.353	26746
802.496	26667
802.638	26670
802.78	26583
802.923	26632
803.065	26571
803.208	26609
803.35	26727
803.492	26750
803.635	26788
803.777	26522
803.919	26781
804.061	26960
804.204	26735
804.346	26689
804.488	26655
804.63	26792
804.773	26773
804.915	26674
805.057	26796
805.199	26800
805.341	26914
805.483	26963
805.626	26823
805.768	26826
805.91	26804
806.052	26796
806.194	26788
806.336	27074
806.478	26845
806.62	26868
806.762	26861
806.904	27100
807.046	27405
807.188	27321
807.33	27348
807.472	27393
807.614	27230
807.756	27233
807.898	27032
808.04	27005
808.182	27020
808.324	27195
808.465	27146
808.607	27298
808.749	27275
808.891	27610
809.033	27667
809.174	27477
809.316	27530
809.458	27473
809.6	27469
809.741	27496
809.883	27523
810.025	27770
810.166	27793
810.308	27713
810.45	27648
810.591	27774
810.733	27564
810.875	27557
811.016	27412
811.158	27477
811.299	27656
811.441	27568
811.582	27686
811.724	27424
811.865	27496
812.007	27420
812.148	27397
812.29	27462
812.431	27606
812.573	27781
812.714	27835
812.855	28063
812.997	28105
813.138	28238
813.279	28204
813.421	28090
813.562	27953
813.703	27899
813.845	27751
813.986	27549
814.127	27237
814.268	27226
814.41	27100
814.551	27089
814.692	27233
814.833	27001
814.974	27077
815.115	27096
815.256	26990
815.397	27119
815.539	27108
815.68	26933
815.821	26902
815.962	26929
816.103	27017
816.244	26925
816.385	26667
816.526	26735
816.666	26469
816.807	26377
816.948	26393
817.089	26629
817.23	26503
817.371	26484
817.512	26549
817.653	26332
817.793	26252
817.934	26412
818.075	26446
818.216	26446
818.356	26336
818.497	26275
818.638	26199
818.778	26210
818.919	26130
819.06	26301
819.2	26256
819.341	26408
819.481	26434
819.622	26609
819.762	26788
819.903	26606
820.043	26541
820.184	26651
820.324	26560
820.465	26495
820.605	26552
820.746	26537
820.886	26415
821.026	26438
821.167	26355
821.307	26511
821.447	26370
821.588	26358
821.728	26069
821.868	26119
822.008	25860
822.149	25826
822.289	25864
822.429	25784
822.569	25681
822.709	25514
822.849	25400
822.99	25301
823.13	25460
823.27	25297
823.41	25198
823.55	25137
823.69	25145
823.83	25141
823.97	25137
824.11	24954
824.25	25088
824.389	25057
824.529	25084
824.669	25107
824.809	25023
824.949	25175
825.089	24958
825.228	25050
825.368	24863
825.508	24901
825.648	24863
825.787	24928
825.927	25069
826.067	24829
826.206	24791
826.346	24913
826.485	25015
826.625	24776
826.765	25004
826.904	24916
827.044	24612
827.183	24654
827.323	24441
827.462	24597
827.601	24559
827.741	24688
827.88	24654
828.02	24426
828.159	24498
828.298	24597
828.437	24661
828.577	24505
828.716	24658
828.855	24589
828.994	24361
829.134	24391
829.273	24285
829.412	24346
829.551	24311
829.69	24323
829.829	24376
829.968	24509
830.107	24391
830.246	24251
830.385	24296
830.524	24213
830.663	24079
830.802	23984
830.941	24011
831.08	23901
831.219	24041
831.357	24015
831.496	24197
831.635	23859
831.774	23901
831.913	23809
832.051	23676
832.19	23589
832.329	23733
832.467	23611
832.606	23573
832.744	23535
832.883	23608
833.022	23634
833.16	23592
833.299	23764
833.437	23539
833.576	23653
833.714	23779
833.852	23684
833.991	23836
834.129	23748
834.267	23691
834.406	23714
834.544	23726
834.682	23604
834.821	23638
834.959	23847
835.097	23684
835.235	23726
835.373	23630
835.511	23657
835.65	23585
835.788	23630
835.926	23452
836.064	23280
836.202	23326
836.34	23554
836.478	23493
836.615	23581
836.753	23509
836.891	23638
837.029	23600
837.167	23467
837.305	23585
837.443	23406
837.58	23402
837.718	23440
837.856	23421
837.993	23356
838.131	23402
838.269	23311
838.406	23318
838.544	23132
838.681	22987
838.819	23132
838.956	23052
839.094	22881
839.231	22805
839.369	22987
839.506	23299
839.643	23181
839.781	22892
839.918	22820
840.055	22946
840.193	22801
840.33	22782
840.467	22679
840.604	22831
840.742	23094
840.879	22759
841.016	22725
841.153	22675
841.29	22968
841.427	22873
841.564	22885
841.701	22782
841.838	22801
841.975	22755
842.112	22774
842.249	22713
842.385	22626
842.522	22733
842.659	22588
842.796	22516
842.933	22478
843.069	22405
843.206	22512
843.343	22542
843.479	22497
843.616	22599
843.752	22352
843.889	22474
844.025	22542
844.162	22417
844.298	22398
844.435	22375
844.571	22322
844.708	22333
844.844	22508
844.98	22352
845.117	22481
845.253	22139
845.389	22188
845.525	22360
845.661	22215
845.798	22063
845.934	22032
846.07	22013
846.206	22173
846.342	22131
846.478	22036
846.614	21869
846.75	21812
846.886	21808
847.022	21956
847.158	21751
847.294	21835
847.429	21865
847.565	21724
847.701	21930
847.837	21530
847.972	21408
848.108	21694
848.244	21686
848.379	21450
848.515	21389
848.65	21306
848.786	21363
848.921	21374
849.057	21523
849.192	21351
849.328	21382
849.463	21458
849.598	21363
849.734	21336
849.869	21142
850.004	21108
850.14	21283
850.275	21127
850.41	21036
850.545	21184
850.68	21100
850.815	21165
850.95	21214
851.085	21313
851.22	21233
851.355	21100
851.49	21150
851.625	21096
851.76	21138
851.895	21043
852.03	21055
852.165	21169
852.299	21165
852.434	21157
852.569	21142
852.703	21154
852.838	21047
852.973	21310
853.107	21154
853.242	21112
853.376	21005
853.511	20864
853.645	21005
853.78	21074
853.914	20982
854.048	20925
854.183	20910
854.317	20933
854.451	21138
854.585	21123
854.72	20925
854.854	21032
854.988	20956
855.122	21005
855.256	20823
855.39	20910
855.524	20975
855.658	20994
855.792	21036
855.926	21062
856.06	21001
856.194	21047
856.327	21032
856.461	20975
856.595	20830
856.729	20876
856.862	20929
856.996	21066
857.13	20948
857.263	21135
857.397	20998
857.53	21096
857.664	21024
857.797	21096
857.931	21154
858.064	21020
858.197	21039
858.331	20845
858.464	20963
858.597	20876
858.731	21051
858.864	20910
858.997	20849
859.13	21020
859.263	20918
859.396	21058
859.529	20910
859.662	20994
859.795	20948
859.928	20921
860.061	21127
860.194	21138
860.327	21173
860.46	20933
860.592	21024
860.725	21013
860.858	21089
860.99	20975
861.123	20834
861.256	20929
861.388	20967
861.521	21804
861.653	20769
861.786	20796
861.918	20861
862.05	20876
862.183	20826
862.315	20872
862.447	20956
862.58	20887
862.712	20731
862.844	20613
862.976	20861
863.108	20686
863.24	21154
863.372	20689
863.504	20670
863.636	20636
863.768	20826
863.9	20705
864.032	20602
864.164	20663
864.296	20724
864.428	20834
864.559	20781
864.691	20746
864.823	20670
864.954	20609
865.086	20632
865.217	20545
865.349	20488
865.48	20552
865.612	20518
865.743	20750
865.875	20613
866.006	20606
866.137	20629
866.269	20571
866.4	20545
866.531	20609
866.662	20473
866.793	20514
866.924	20533
867.055	20473
867.186	20533
867.317	20549
867.448	20351
867.579	20442
867.71	20480
867.841	20427
867.972	20408
868.103	20507
868.233	20518
868.364	20461
868.495	20644
868.625	20724
868.756	20842
868.886	20712
869.017	20720
869.147	20895
869.278	20857
869.408	20853
869.539	20876
869.669	20842
869.799	20910
869.929	20750
870.06	20861
870.19	20982
870.32	21058
870.45	21104
870.58	21089
870.71	21272
870.84	21283
870.97	21169
871.1	21184
871.23	21161
871.36	21435
871.489	21355
871.619	21302
871.749	21260
871.879	21439
872.008	21538
872.138	21568
872.267	21287
872.397	21214
872.526	21252
872.656	21173
872.785	21241
872.915	21439
873.044	21386
873.173	21336
873.303	21424
873.432	21336
873.561	21397
873.69	21340
873.819	21249
873.948	21496
874.077	21279
874.206	21268
874.335	21412
874.464	21469
874.593	21694
874.722	21488
874.851	21686
874.979	21530
875.108	21724
875.237	21625
875.365	21587
875.494	21633
875.623	21564
875.751	21389
875.88	21709
876.008	21667
876.136	21926
876.265	21899
876.393	22162
876.521	22078
876.65	22063
876.778	21907
876.906	22025
877.034	21983
877.162	21975
877.29	21934
877.418	21998
877.546	22101
877.674	21960
877.802	21895
877.93	22017
878.058	21918
878.185	21918
878.313	21972
878.441	21979
878.568	21739
878.696	21831
878.824	21975
878.951	21968
879.079	22105
879.206	22284
879.333	22131
879.461	22036
879.588	22090
879.715	22086
879.842	22325
879.97	22010
880.097	21835
880.224	21827
880.351	21831
880.478	21850
880.605	21732
880.732	21724
880.859	21983
880.986	21800
881.112	21850
881.239	21622
881.366	21557
881.493	21473
881.619	21443
881.746	21416
881.872	21393
881.999	21374
882.125	21260
882.252	21431
882.378	21313
882.505	21485
882.631	21207
882.757	21192
882.883	21135
883.01	21047
883.136	21123
883.262	20998
883.388	20830
883.514	21047
883.64	21093
883.766	21089
883.892	20891
884.018	20933
884.143	20971
884.269	20998
884.395	20765
884.52	20697
884.646	20727
884.772	20629
884.897	20617
885.023	20689
885.148	20826
885.274	20982
885.399	20746
885.524	20564
885.65	20727
885.775	20765
885.9	20769
886.025	20811
886.15	20716
886.275	20785
886.4	20625
886.525	20617
886.65	20602
886.775	20648
886.9	20781
887.025	20929
887.149	20746
887.274	20537
887.399	20507
887.523	20480
887.648	20343
887.773	20278
887.897	20667
888.021	20560
888.146	20518
888.27	20629
888.395	20583
888.519	20495
888.643	20518
888.767	20476
888.891	20339
889.015	20309
889.139	20381
889.263	20237
889.387	20358
889.511	20568
889.635	20469
889.759	20313
889.883	20336
890.006	20202
890.13	20423
890.254	20172
890.377	20252
890.501	19989
890.624	20020
890.748	20054
890.871	20043
890.995	19845
891.118	19871
891.241	19913
891.364	19890
891.488	19921
891.611	19883
891.734	19947
891.857	19955
891.98	19780
892.103	20024
892.226	19913
892.349	19814
892.471	19651
892.594	19734
892.717	19849
892.839	19837
892.962	19814
893.085	19841
893.207	19788
893.33	19639
893.452	19769
893.575	19860
893.697	19784
893.819	19925
893.941	19967
894.064	19917
894.186	19723
894.308	19742
894.43	19811
894.552	20001
894.674	19830
894.796	19594
894.918	19723
895.04	19757
895.161	19868
895.283	19864
895.405	19750
895.526	19734
895.648	19731
895.769	19788
895.891	19833
896.012	19830
896.134	19807
896.255	19875
896.376	19818
896.498	19841
896.619	19811
896.74	19639
896.861	19776
896.982	20008
897.103	20172
897.224	20050
897.345	20005
897.466	19951
897.587	20050
897.708	20115
897.828	20016
897.949	19887
898.07	19921
898.19	19849
898.311	20103
898.431	19887
898.552	20005
898.672	19932
898.792	20100
898.913	19978
899.033	19913
899.153	19738
899.273	19639
899.393	19887
899.513	19913
899.633	19708
899.753	19723
899.873	19689
899.993	19772
900.113	19616
900.232	19689
900.352	19666
900.472	19552
900.591	19510
900.711	19559
900.83	19510
900.95	19533
901.069	19571
901.189	19362
901.308	19308
901.427	19088
901.546	19019
901.665	19141
901.784	19084
901.904	19038
902.023	18924
902.141	18703
902.26	18608
902.379	18753
902.498	18711
902.617	18608
902.735	18715
902.854	18585
902.973	18525
903.091	18296
903.21	18224
903.328	18323
903.446	18209
903.565	18133
903.683	18129
903.801	18034
903.919	18022
904.038	18011
904.156	17920
904.274	17916
904.392	17897
904.51	17897
904.627	17866
904.745	17885
904.863	17965
904.981	17722
905.098	17604
905.216	17665
905.334	17672
905.451	17566
905.569	17611
905.686	17558
905.803	17611
905.921	17284
906.038	17414
906.155	17478
906.272	17273
906.389	17311
906.506	17048
906.623	17143
906.74	17090
906.857	16972
906.974	17060
907.091	17124
907.208	17273
907.324	17128
907.441	17033
907.557	16862
907.674	16850
907.79	16828
907.907	16790
908.023	16873
908.139	16782
908.256	16744
908.372	16797
908.488	16717
908.604	16523
908.72	16531
908.836	16535
908.952	16603
909.068	16542
909.184	16622
909.3	16580
909.415	16603
909.531	16481
909.647	16390
909.762	16409
909.878	16291
909.993	16272
910.108	16253
910.224	16128
910.339	16280
910.454	16071
910.57	16101
910.685	15983
910.8	16272
910.915	16223
911.03	16109
911.145	15789
911.259	15964
911.374	15812
911.489	15922
911.604	15717
911.718	15633
911.833	15576
911.947	15450
912.062	15439
912.176	15530
912.291	15690
912.405	15584
912.519	15747
912.633	15793
912.748	15618
912.862	15591
912.976	15397
913.09	15310
913.204	15439
913.318	15408
913.431	15454
913.545	15416
913.659	15515
913.772	15355
913.886	15317
914	15218
914.113	15298
914.226	15294
914.34	15203
914.453	15116
914.566	15192
914.68	15100
914.793	15093
914.906	14902
915.019	14899
915.132	14735
915.245	14769
915.358	14834
915.47	14842
915.583	14948
915.696	14918
915.809	15047
915.921	14941
916.034	14762
916.146	14788
916.259	14815
916.371	14716
916.483	14788
916.595	14720
916.708	14773
916.82	14682
916.932	14640
917.044	14587
917.156	14587
917.268	14568
917.38	14556
917.491	14552
917.603	14556
917.715	14545
917.826	14556
917.938	14434
918.049	14480
918.161	14355
918.272	14606
918.384	14526
918.495	14404
918.606	14298
918.717	14176
918.828	14317
918.939	14317
919.05	14252
919.161	14271
919.272	14005
919.383	14069
919.494	14336
919.604	14362
919.715	14278
919.826	14240
919.936	14218
920.047	14290
920.157	14256
920.267	14446
920.378	14183
920.488	14259
920.598	14446
920.708	14499
920.818	14347
920.928	14286
921.038	14511
921.148	14469
921.258	14195
921.368	14062
921.477	13997
921.587	14020
921.697	13909
921.806	14012
921.916	13887
922.025	13704
922.134	13632
922.244	13567
922.353	13655
922.462	13514
922.571	13460
922.68	13316
922.789	13308
922.898	13244
923.007	13232
923.116	13251
923.224	13255
923.333	13255
923.442	13240
923.55	13171
923.659	13027
923.767	13263
923.876	13061
923.984	13175
924.092	13050
924.201	13107
924.309	13012
924.417	13008
924.525	12939
924.633	12932
924.741	13989
924.849	12734
924.956	12985
925.064	12730
925.172	12662
925.279	12726
925.387	12745
925.494	12703
925.602	12840
925.709	12772
925.816	12585
925.924	12650
926.031	12673
926.138	12734
926.245	12673
926.352	12578
926.459	12760
926.566	12802
926.673	12593
926.779	12437
926.886	12509
926.993	12372
927.099	12239
927.206	12148
927.312	12155
927.419	12323
927.525	12334
927.631	12327
927.737	12167
927.843	12125
927.95	11996
928.056	12110
928.162	12117
928.267	12178
928.373	12825
928.479	12136
928.585	11942
928.69	12019
928.796	12064
928.901	12022
929.007	11874
929.112	11961
929.218	11908
929.323	11916
929.428	11851
929.533	11969
929.638	11851
929.743	11855
929.848	11874
929.953	11798
930.058	11657
930.163	11509
930.267	11516
930.372	11703
930.477	11505
930.581	11764
930.685	11562
930.79	11364
930.894	11490
930.998	11372
931.103	11615
931.207	11185
931.311	11060
931.415	11025
931.519	10858
931.623	10771
