Data from test_V78500241_2270.txt Node
Date: Fri Mar 25 15:25:39 CST 2022
User: usil
Spectrometer: V785-0024
Trigger mode: 0
Integration Time (sec): 4.000000E-1
Scans to average: 1
Nonlinearity correction enabled: false
Boxcar width: 0
Storing dark spectrum: false
XAxis mode: Wavelengths
Number of Pixels in Spectrum: 1024
>>>>>Begin Spectral Data<<<<<
801.071	27595
801.214	27557
801.356	27317
801.499	27389
801.641	27135
801.783	27176
801.926	27237
802.068	27199
802.211	27173
802.353	27024
802.496	26880
802.638	26769
802.78	26914
802.923	26758
803.065	26712
803.208	26758
803.35	26769
803.492	26864
803.635	26963
803.777	26788
803.919	26963
804.061	27249
804.204	27039
804.346	26960
804.488	26857
804.63	27001
804.773	26918
804.915	26979
805.057	26963
805.199	26944
805.341	27104
805.483	27116
805.626	27077
805.768	27116
805.91	26960
806.052	27249
806.194	27058
806.336	27268
806.478	27096
806.62	27138
806.762	27218
806.904	27325
807.046	27485
807.188	27545
807.33	27454
807.472	27496
807.614	27416
807.756	27500
807.898	27351
808.04	27298
808.182	27306
808.324	27359
808.465	27511
808.607	27682
808.749	27732
808.891	27838
809.033	27835
809.174	27751
809.316	27576
809.458	27766
809.6	27580
809.741	27717
809.883	27895
810.025	27987
810.166	27918
810.308	27998
810.45	27869
810.591	27888
810.733	27603
810.875	27682
811.016	27500
811.158	27622
811.299	27622
811.441	27846
811.582	27823
811.724	27660
811.865	27679
812.007	27648
812.148	27701
812.29	27694
812.431	28025
812.573	27949
812.714	28192
812.855	28226
812.997	28234
813.138	28485
813.279	28363
813.421	28337
813.562	28116
813.703	28013
813.845	27819
813.986	27652
814.127	27485
814.268	27424
814.41	27557
814.551	27370
814.692	27272
814.833	27355
814.974	27504
815.115	27389
815.256	27203
815.397	27275
815.539	27199
815.68	27222
815.821	27077
815.962	27047
816.103	27264
816.244	26940
816.385	27001
816.526	26952
816.666	26811
816.807	26575
816.948	26667
817.089	26651
817.23	26785
817.371	26617
817.512	26693
817.653	26716
817.793	26412
817.934	26640
818.075	26739
818.216	26480
818.356	26674
818.497	26526
818.638	26282
818.778	26309
818.919	26286
819.06	26385
819.2	26575
819.341	26488
819.481	26583
819.622	26792
819.762	26967
819.903	26864
820.043	26914
820.184	26807
820.324	26727
820.465	26906
820.605	26804
820.746	26712
820.886	26560
821.026	26697
821.167	26705
821.307	26773
821.447	26712
821.588	26602
821.728	26442
821.868	26164
822.008	26138
822.149	26020
822.289	26073
822.429	25776
822.569	25753
822.709	25784
822.849	25544
822.99	25685
823.13	25624
823.27	25597
823.41	25468
823.55	25350
823.69	25544
823.83	25415
823.97	25499
824.11	25198
824.25	25244
824.389	25114
824.529	25297
824.669	25190
824.809	25502
824.949	25388
825.089	25426
825.228	25175
825.368	25133
825.508	25080
825.648	25152
825.787	25213
825.927	25023
826.067	25065
826.206	25152
826.346	25110
826.485	25141
826.625	25129
826.765	25202
826.904	25069
827.044	24890
827.183	24905
827.323	24734
827.462	24913
827.601	24913
827.741	24798
827.88	24943
828.02	24787
828.159	24787
828.298	24871
828.437	24810
828.577	24722
828.716	24989
828.855	24726
828.994	24483
829.134	24498
829.273	24532
829.412	24464
829.551	24498
829.69	24441
829.829	24494
829.968	24582
830.107	24483
830.246	24498
830.385	24372
830.524	24509
830.663	24235
830.802	24235
830.941	24182
831.08	24015
831.219	24209
831.357	24121
831.496	24395
831.635	24144
831.774	23950
831.913	23988
832.051	23916
832.19	23999
832.329	24015
832.467	23805
832.606	23821
832.744	23741
832.883	23790
833.022	23737
833.16	23794
833.299	23882
833.437	23843
833.576	23870
833.714	23851
833.852	23786
833.991	23954
834.129	23961
834.267	24003
834.406	23809
834.544	23988
834.682	23904
834.821	23813
834.959	24087
835.097	23703
835.235	23798
835.373	23840
835.511	23752
835.65	23630
835.788	23668
835.926	23562
836.064	23497
836.202	23520
836.34	23703
836.478	23931
836.615	23623
836.753	23638
836.891	23695
837.029	23600
837.167	23710
837.305	23547
837.443	23611
837.58	23528
837.718	23562
837.856	23497
837.993	23433
838.131	23539
838.269	23501
838.406	23433
838.544	23444
838.681	23155
838.819	23136
838.956	22942
839.094	22953
839.231	22942
839.369	23239
839.506	23299
839.643	23216
839.781	22972
839.918	23113
840.055	22984
840.193	23071
840.33	22847
840.467	22831
840.604	22953
840.742	23280
840.879	22831
841.016	22904
841.153	22733
841.29	23041
841.427	22934
841.564	22854
841.701	22889
841.838	22850
841.975	22694
842.112	22755
842.249	22744
842.385	22569
842.522	22843
842.659	22592
842.796	22596
842.933	22698
843.069	22649
843.206	22774
843.343	22790
843.479	22626
843.616	22596
843.752	22398
843.889	22470
844.025	22634
844.162	22459
844.298	22592
844.435	22481
844.571	22405
844.708	22554
844.844	22580
844.98	22630
845.117	22588
845.253	22432
845.389	22116
845.525	22291
845.661	22257
845.798	22219
845.934	22325
846.07	22105
846.206	22200
846.342	22162
846.478	22070
846.614	22006
846.75	21857
846.886	21945
847.022	21934
847.158	21918
847.294	21888
847.429	21994
847.565	21960
847.701	22074
847.837	21717
847.972	21538
848.108	21747
848.244	21778
848.379	21504
848.515	21523
848.65	21519
848.786	21538
848.921	21477
849.057	21545
849.192	21637
849.328	21587
849.463	21450
849.598	21416
849.734	21443
849.869	21488
850.004	21310
850.14	21462
850.275	21310
850.41	21222
850.545	21283
850.68	21256
850.815	21226
850.95	21272
851.085	21363
851.22	21374
851.355	21287
851.49	21264
851.625	21268
851.76	21233
851.895	21112
852.03	21154
852.165	21192
852.299	21252
852.434	21325
852.569	21313
852.703	21294
852.838	21332
852.973	21367
853.107	21355
853.242	21211
853.376	21024
853.511	21001
853.645	21100
853.78	21252
853.914	21100
854.048	20960
854.183	21001
854.317	21165
854.451	21203
854.585	21112
854.72	21188
854.854	21104
854.988	21005
855.122	21066
855.256	20971
855.39	21020
855.524	21195
855.658	21104
855.792	21104
855.926	21070
856.06	21074
856.194	21157
856.327	21074
856.461	21077
856.595	20944
856.729	20967
856.862	21203
856.996	21093
857.13	21135
857.263	21150
857.397	21131
857.53	21074
857.664	21055
857.797	21138
857.931	21070
858.064	21131
858.197	21157
858.331	21112
858.464	21047
858.597	21055
858.731	21055
858.864	20933
858.997	21058
859.13	21028
859.263	21176
859.396	21161
859.529	21104
859.662	21131
859.795	21001
859.928	21085
860.061	21252
860.194	21283
860.327	21207
860.46	21093
860.592	21245
860.725	21272
860.858	21146
860.99	21150
861.123	20960
861.256	21081
861.388	21028
861.521	21945
861.653	20902
861.786	20910
861.918	20845
862.05	20967
862.183	21055
862.315	21001
862.447	20948
862.58	21043
862.712	20895
862.844	20788
862.976	20975
863.108	20834
863.24	21184
863.372	20701
863.504	20788
863.636	20906
863.768	20739
863.9	20792
864.032	20834
864.164	20682
864.296	20826
864.428	20830
864.559	20796
864.691	20883
864.823	20819
864.954	20834
865.086	20720
865.217	20598
865.349	20575
865.48	20743
865.612	20705
865.743	20838
865.875	20724
866.006	20708
866.137	20731
866.269	20769
866.4	20632
866.531	20743
866.662	20621
866.793	20568
866.924	20651
867.055	20602
867.186	20632
867.317	20549
867.448	20575
867.579	20613
867.71	20400
867.841	20552
867.972	20743
868.103	20648
868.233	20648
868.364	20716
868.495	20727
868.625	20754
868.756	21017
868.886	20807
869.017	20807
869.147	20868
869.278	20891
869.408	20910
869.539	20929
869.669	20899
869.799	20941
869.929	20982
870.06	20960
870.19	21180
870.32	21138
870.45	21195
870.58	21329
870.71	21359
870.84	21287
870.97	21374
871.1	21222
871.23	21435
871.36	21386
871.489	21511
871.619	21363
871.749	21416
871.879	21507
872.008	21625
872.138	21443
872.267	21447
872.397	21321
872.526	21351
872.656	21237
872.785	21408
872.915	21488
873.044	21462
873.173	21504
873.303	21511
873.432	21473
873.561	21564
873.69	21469
873.819	21477
873.948	21549
874.077	21564
874.206	21435
874.335	21420
874.464	21572
874.593	21739
874.722	21705
874.851	21751
874.979	21679
875.108	21888
875.237	21675
875.365	21591
875.494	21682
875.623	21755
875.751	21564
875.88	21724
876.008	21873
876.136	21994
876.265	22173
876.393	22280
876.521	22131
876.65	22070
876.778	22124
876.906	22036
877.034	22101
877.162	21934
877.29	22036
877.418	21945
877.546	22135
877.674	22109
877.802	22116
877.93	22086
878.058	22006
878.185	21949
878.313	22010
878.441	21918
878.568	21960
878.696	21987
878.824	21994
878.951	22124
879.079	22257
879.206	22303
879.333	22173
879.461	21915
879.588	22207
879.715	22261
879.842	22291
879.97	22097
880.097	21835
880.224	21903
880.351	21968
880.478	21850
880.605	21831
880.732	21850
880.859	22162
880.986	21953
881.112	21941
881.239	21751
881.366	21736
881.493	21583
881.619	21431
881.746	21336
881.872	21466
881.999	21515
882.125	21416
882.252	21386
882.378	21408
882.505	21492
882.631	21332
882.757	21230
882.883	21382
883.01	21165
883.136	21017
883.262	21112
883.388	20971
883.514	21096
883.64	21195
883.766	21207
883.892	20956
884.018	20960
884.143	21081
884.269	21142
884.395	20998
884.52	20708
884.646	20708
884.772	20697
884.897	20765
885.023	20880
885.148	20823
885.274	20895
885.399	20899
885.524	20842
885.65	20834
885.775	20910
885.9	20602
886.025	20902
886.15	20842
886.275	20712
886.4	20670
886.525	20701
886.65	20727
886.775	20765
886.9	20906
887.025	21013
887.149	20777
887.274	20530
887.399	20511
887.523	20648
887.648	20613
887.773	20465
887.897	20705
888.021	20579
888.146	20583
888.27	20613
888.395	20629
888.519	20552
888.643	20613
888.767	20724
888.891	20530
889.015	20355
889.139	20488
889.263	20412
889.387	20488
889.511	20648
889.635	20438
889.759	20415
889.883	20431
890.006	20351
890.13	20366
890.254	20336
890.377	20290
890.501	20134
890.624	20172
890.748	20225
890.871	20122
890.995	19959
891.118	19883
891.241	20046
891.364	19959
891.488	20115
891.611	19936
891.734	19974
891.857	20039
891.98	19925
892.103	20016
892.226	19959
892.349	19894
892.471	19807
892.594	19879
892.717	19963
892.839	19890
892.962	19738
893.085	19830
893.207	19811
893.33	19795
893.452	19849
893.575	19890
893.697	19788
893.819	19974
893.941	20054
894.064	20008
894.186	19868
894.308	19765
894.43	19902
894.552	20065
894.674	19799
894.796	19788
894.918	19894
895.04	19818
895.161	19967
895.283	19811
895.405	19833
895.526	19898
895.648	19925
895.769	19769
895.891	19845
896.012	20039
896.134	19913
896.255	19868
896.376	19833
896.498	19765
896.619	19875
896.74	19753
896.861	19906
896.982	20122
897.103	20259
897.224	20294
897.345	20043
897.466	19951
897.587	20134
897.708	20252
897.828	20180
897.949	20081
898.07	20039
898.19	20122
898.311	20111
898.431	20027
898.552	20164
898.672	20027
898.792	20240
898.913	20111
899.033	19898
899.153	20027
899.273	19731
899.393	19879
899.513	19811
899.633	19765
899.753	19864
899.873	19795
899.993	19909
900.113	19860
900.232	19742
900.352	19875
900.472	19685
900.591	19685
900.711	19674
900.83	19590
900.95	19742
901.069	19734
901.189	19556
901.308	19343
901.427	19179
901.546	19198
901.665	19308
901.784	19240
901.904	19057
902.023	18981
902.141	18795
902.26	18711
902.379	18916
902.498	18715
902.617	18760
902.735	18711
902.854	18658
902.973	18669
903.091	18426
903.21	18445
903.328	18502
903.446	18353
903.565	18205
903.683	18213
903.801	18038
903.919	18121
904.038	18121
904.156	18030
904.274	18003
904.392	17958
904.51	17946
904.627	17996
904.745	17908
904.863	18007
904.981	17752
905.098	17649
905.216	17630
905.334	17722
905.451	17718
905.569	17573
905.686	17642
905.803	17657
905.921	17440
906.038	17589
906.155	17524
906.272	17410
906.389	17395
906.506	17193
906.623	17208
906.74	17162
906.857	17124
906.974	17216
907.091	17204
907.208	17277
907.324	17170
907.441	17109
907.557	16900
907.674	16862
907.79	16793
907.907	16850
908.023	16889
908.139	16987
908.256	16889
908.372	16839
908.488	16801
908.604	16603
908.72	16637
908.836	16687
908.952	16603
909.068	16653
909.184	16664
909.3	16592
909.415	16607
909.531	16493
909.647	16447
909.762	16291
909.878	16371
909.993	16344
910.108	16242
910.224	16249
910.339	16291
910.454	16177
910.57	16185
910.685	16025
910.8	16344
910.915	16257
911.03	16093
911.145	15907
911.259	15865
911.374	15903
911.489	15831
911.604	15808
911.718	15667
911.833	15667
911.947	15500
912.062	15538
912.176	15591
912.291	15568
912.405	15606
912.519	15869
912.633	15827
912.748	15751
912.862	15629
912.976	15515
913.09	15542
913.204	15511
913.318	15477
913.431	15591
913.545	15553
913.659	15610
913.772	15504
913.886	15344
914	15264
914.113	15477
914.226	15416
914.34	15363
914.453	15100
914.566	15401
914.68	15188
914.793	15104
914.906	14956
915.019	14883
915.132	14785
915.245	14868
915.358	14910
915.47	14891
915.583	14918
915.696	14891
915.809	15070
915.921	14979
916.034	14807
916.146	14754
916.259	14777
916.371	14883
916.483	14910
916.595	14720
916.708	14807
916.82	14792
916.932	14705
917.044	14769
917.156	14629
917.268	14575
917.38	14492
917.491	14518
917.603	14514
917.715	14663
917.826	14651
917.938	14530
918.049	14412
918.161	14598
918.272	14625
918.384	14708
918.495	14480
918.606	14469
918.717	14282
918.828	14328
918.939	14366
919.05	14180
919.161	14347
919.272	14145
919.383	14290
919.494	14290
919.604	14541
919.715	14339
919.826	14286
919.936	14256
920.047	14419
920.157	14343
920.267	14537
920.378	14202
920.488	14233
920.598	14434
920.708	14594
920.818	14484
920.928	14423
921.038	14579
921.148	14560
921.258	14225
921.368	14172
921.477	13986
921.587	14012
921.697	13860
921.806	14073
921.916	13921
922.025	13753
922.134	13674
922.244	13620
922.353	13689
922.462	13601
922.571	13472
922.68	13350
922.789	13381
922.898	13304
923.007	13301
923.116	13354
923.224	13373
923.333	13251
923.442	13190
923.55	13160
923.659	13110
923.767	13251
923.876	13046
923.984	13247
924.092	13053
924.201	13145
924.309	12973
924.417	13168
924.525	12993
924.633	13023
924.741	13811
924.849	12848
924.956	12954
925.064	12856
925.172	12711
925.279	12783
925.387	12806
925.494	12741
925.602	12848
925.709	12833
925.816	12623
925.924	12673
926.031	12833
926.138	12696
926.245	12772
926.352	12563
926.459	12779
926.566	12760
926.673	12578
926.779	12509
926.886	12513
926.993	12437
927.099	12353
927.206	12357
927.312	12304
927.419	12418
927.525	12334
927.631	12365
927.737	12194
927.843	12144
927.95	12106
928.056	12117
928.162	12251
928.267	12201
928.373	12764
928.479	12292
928.585	12057
928.69	12087
928.796	12140
928.901	12148
929.007	11893
929.112	12015
929.218	11882
929.323	11866
929.428	11916
929.533	12102
929.638	11874
929.743	11916
929.848	11847
929.953	11824
930.058	11695
930.163	11570
930.267	11566
930.372	11653
930.477	11585
930.581	11859
930.685	11554
930.79	11539
930.894	11493
930.998	11463
931.103	11547
931.207	11273
931.311	11159
931.415	11102
931.519	10915
931.623	10790
