Data from test_V78500241_840.txt Node
Date: Fri Mar 25 15:15:42 CST 2022
User: usil
Spectrometer: V785-0024
Trigger mode: 0
Integration Time (sec): 4.000000E-1
Scans to average: 1
Nonlinearity correction enabled: false
Boxcar width: 0
Storing dark spectrum: false
XAxis mode: Wavelengths
Number of Pixels in Spectrum: 1024
>>>>>Begin Spectral Data<<<<<
801.071	28242
801.214	28025
801.356	27949
801.499	27949
801.641	27930
801.783	27842
801.926	27835
802.068	27819
802.211	27663
802.353	27549
802.496	27447
802.638	27523
802.78	27545
802.923	27420
803.065	27515
803.208	27435
803.35	27481
803.492	27587
803.635	27732
803.777	27561
803.919	27652
804.061	27972
804.204	27724
804.346	27557
804.488	27572
804.63	27656
804.773	27553
804.915	27675
805.057	27717
805.199	27709
805.341	27766
805.483	27907
805.626	27850
805.768	27816
805.91	27743
806.052	27728
806.194	27701
806.336	27975
806.478	27876
806.62	27747
806.762	27911
806.904	27972
807.046	28371
807.188	28257
807.33	28257
807.472	28150
807.614	28128
807.756	28249
807.898	28086
808.04	28120
808.182	28147
808.324	28265
808.465	28173
808.607	28238
808.749	28398
808.891	28584
809.033	28679
809.174	28500
809.316	28432
809.458	28390
809.6	28577
809.741	28672
809.883	28801
810.025	28839
810.166	28809
810.308	28866
810.45	28706
810.591	28888
810.733	28577
810.875	28443
811.016	28329
811.158	28276
811.299	28447
811.441	28580
811.582	28729
811.724	28478
811.865	28447
812.007	28508
812.148	28363
812.29	28390
812.431	28527
812.573	28847
812.714	28972
812.855	29052
812.997	29162
813.138	29261
813.279	29185
813.421	29060
813.562	29067
813.703	28831
813.845	28767
813.986	28421
814.127	28257
814.268	28188
814.41	28173
814.551	28230
814.692	28470
814.833	28249
814.974	28211
815.115	28413
815.256	28196
815.397	28135
815.539	28059
815.68	27941
815.821	28048
815.962	27941
816.103	28044
816.244	27926
816.385	27854
816.526	27797
816.666	27545
816.807	27458
816.948	27671
817.089	27580
817.23	27504
817.371	27538
817.512	27701
817.653	27587
817.793	27473
817.934	27485
818.075	27583
818.216	27622
818.356	27542
818.497	27412
818.638	27275
818.778	27329
818.919	27154
819.06	27401
819.2	27492
819.341	27443
819.481	27606
819.622	27694
819.762	27907
819.903	27778
820.043	27812
820.184	27682
820.324	27591
820.465	27720
820.605	27625
820.746	27675
820.886	27492
821.026	27583
821.167	27606
821.307	27667
821.447	27466
821.588	27466
821.728	27329
821.868	27169
822.008	27051
822.149	26971
822.289	26918
822.429	26602
822.569	26682
822.709	26629
822.849	26427
822.99	26568
823.13	26530
823.27	26469
823.41	26320
823.55	26298
823.69	26366
823.83	26275
823.97	26233
824.11	26233
824.25	26062
824.389	26062
824.529	26164
824.669	26252
824.809	26233
824.949	26301
825.089	26081
825.228	26221
825.368	26069
825.508	26020
825.648	26058
825.787	26058
825.927	26161
826.067	26088
826.206	26065
826.346	26077
826.485	26062
826.625	25932
826.765	26305
826.904	26016
827.044	25822
827.183	25772
827.323	25700
827.462	25871
827.601	25750
827.741	25708
827.88	25742
828.02	25635
828.159	25746
828.298	25769
828.437	25826
828.577	25662
828.716	25750
828.855	25731
828.994	25491
829.134	25354
829.273	25381
829.412	25396
829.551	25449
829.69	25537
829.829	25479
829.968	25529
830.107	25514
830.246	25453
830.385	25441
830.524	25373
830.663	25285
830.802	25148
830.941	25213
831.08	24928
831.219	25156
831.357	25160
831.496	25209
831.635	24924
831.774	24943
831.913	24951
832.051	24878
832.19	24913
832.329	24981
832.467	24821
832.606	24574
832.744	24677
832.883	24856
833.022	24760
833.16	24597
833.299	24734
833.437	24802
833.576	24776
833.714	24924
833.852	24932
833.991	24909
834.129	24973
834.267	24859
834.406	24867
834.544	24901
834.682	24791
834.821	24661
834.959	24928
835.097	24673
835.235	24772
835.373	24650
835.511	24764
835.65	24597
835.788	24669
835.926	24388
836.064	24521
836.202	24555
836.34	24528
836.478	24711
836.615	24574
836.753	24464
836.891	24684
837.029	24677
837.167	24665
837.305	24467
837.443	24623
837.58	24414
837.718	24544
837.856	24505
837.993	24471
838.131	24418
838.269	24224
838.406	24311
838.544	24327
838.681	24190
838.819	24190
838.956	23904
839.094	23946
839.231	24034
839.369	24125
839.506	24262
839.643	24251
839.781	24034
839.918	23942
840.055	23965
840.193	23882
840.33	23836
840.467	23920
840.604	23904
840.742	24133
840.879	23684
841.016	23897
841.153	23794
841.29	23790
841.427	23882
841.564	23901
841.701	23809
841.838	23783
841.975	23684
842.112	23642
842.249	23695
842.385	23535
842.522	23756
842.659	23703
842.796	23543
842.933	23649
843.069	23566
843.206	23505
843.343	23619
843.479	23615
843.616	23444
843.752	23246
843.889	23330
844.025	23512
844.162	23318
844.298	23486
844.435	23258
844.571	23265
844.708	23482
844.844	23528
844.98	23566
845.117	23474
845.253	23261
845.389	23265
845.525	23147
845.661	23254
845.798	23075
845.934	23181
846.07	23185
846.206	23265
846.342	23242
846.478	23185
846.614	22900
846.75	22744
846.886	22759
847.022	22949
847.158	22858
847.294	22858
847.429	22763
847.565	22805
847.701	22999
847.837	22637
847.972	22550
848.108	22641
848.244	22603
848.379	22402
848.515	22432
848.65	22413
848.786	22436
848.921	22459
849.057	22512
849.192	22550
849.328	22394
849.463	22363
849.598	22382
849.734	22443
849.869	22325
850.004	22261
850.14	22139
850.275	22219
850.41	22200
850.545	21960
850.68	22093
850.815	22196
850.95	22158
851.085	22318
851.22	22261
851.355	22268
851.49	22150
851.625	22048
851.76	22120
851.895	22040
852.03	22070
852.165	22177
852.299	22162
852.434	22314
852.569	22253
852.703	22112
852.838	22097
852.973	22261
853.107	22246
853.242	22044
853.376	22090
853.511	21934
853.645	21998
853.78	22070
853.914	22059
854.048	22055
854.183	21918
854.317	22067
854.451	22162
854.585	21888
854.72	21907
854.854	22010
854.988	21960
855.122	22002
855.256	21816
855.39	22029
855.524	22006
855.658	22017
855.792	21960
855.926	22006
856.06	22067
856.194	22086
856.327	22002
856.461	22040
856.595	21991
856.729	21899
856.862	22067
856.996	22055
857.13	22029
857.263	22253
857.397	22135
857.53	22048
857.664	22040
857.797	22078
857.931	22185
858.064	21972
858.197	22131
858.331	22032
858.464	21918
858.597	21770
858.731	21930
858.864	21892
858.997	21793
859.13	21975
859.263	21964
859.396	22169
859.529	21899
859.662	21945
859.795	21899
859.928	21922
860.061	22143
860.194	22230
860.327	22048
860.46	21945
860.592	22139
860.725	22139
860.858	22078
860.99	22059
861.123	21880
861.256	21964
861.388	22090
861.521	22793
861.653	21766
861.786	21755
861.918	21861
862.05	21884
862.183	21972
862.315	21991
862.447	21926
862.58	21979
862.712	21774
862.844	21679
862.976	21686
863.108	21732
863.24	22063
863.372	21644
863.504	21614
863.636	21732
863.768	21778
863.9	21785
864.032	21663
864.164	21614
864.296	21724
864.428	21838
864.559	21663
864.691	21751
864.823	21568
864.954	21667
865.086	21633
865.217	21549
865.349	21603
865.48	21564
865.612	21568
865.743	21705
865.875	21561
866.006	21439
866.137	21420
866.269	21538
866.4	21606
866.531	21454
866.662	21466
866.793	21496
866.924	21515
867.055	21572
867.186	21542
867.317	21507
867.448	21485
867.579	21507
867.71	21439
867.841	21363
867.972	21473
868.103	21511
868.233	21420
868.364	21462
868.495	21595
868.625	21800
868.756	21907
868.886	21660
869.017	21717
869.147	21838
869.278	21854
869.408	21759
869.539	21679
869.669	21850
869.799	21808
869.929	21861
870.06	21934
870.19	22021
870.32	22021
870.45	22128
870.58	22253
870.71	22265
870.84	22303
870.97	22226
871.1	22154
871.23	22185
871.36	22310
871.489	22101
871.619	22333
871.749	22272
871.879	22284
872.008	22421
872.138	22379
872.267	22291
872.397	22253
872.526	22074
872.656	22166
872.785	22253
872.915	22417
873.044	22405
873.173	22447
873.303	22424
873.432	22394
873.561	22409
873.69	22360
873.819	22295
873.948	22409
874.077	22367
874.206	22306
874.335	22234
874.464	22554
874.593	22542
874.722	22538
874.851	22580
874.979	22630
875.108	22592
875.237	22527
875.365	22493
875.494	22569
875.623	22527
875.751	22569
875.88	22679
876.008	22668
876.136	22858
876.265	22900
876.393	23083
876.521	22881
876.65	23044
876.778	22911
876.906	22915
877.034	22900
877.162	22968
877.29	22877
877.418	22991
877.546	22866
877.674	22885
877.802	22919
877.93	22999
878.058	22733
878.185	22831
878.313	22938
878.441	22843
878.568	22668
878.696	22755
878.824	22782
878.951	22949
879.079	23056
879.206	23143
879.333	23025
879.461	22850
879.588	22885
879.715	22999
879.842	23151
879.97	22930
880.097	22702
880.224	22713
880.351	22862
880.478	22786
880.605	22660
880.732	22710
880.859	23006
880.986	22744
881.112	22679
881.239	22637
881.366	22512
881.493	22272
881.619	22398
881.746	22284
881.872	22322
881.999	22344
882.125	22207
882.252	22238
882.378	22196
882.505	22462
882.631	22215
882.757	22090
882.883	22070
883.01	22040
883.136	22082
883.262	21770
883.388	21804
883.514	21945
883.64	22048
883.766	21922
883.892	21800
884.018	21778
884.143	21865
884.269	22036
884.395	21789
884.52	21549
884.646	21625
884.772	21580
884.897	21515
885.023	21553
885.148	21835
885.274	21679
885.399	21724
885.524	21618
885.65	21667
885.775	21557
885.9	21496
886.025	21785
886.15	21781
886.275	21603
886.4	21553
886.525	21599
886.65	21473
886.775	21473
886.9	21663
887.025	21732
887.149	21717
887.274	21344
887.399	21363
887.523	21424
887.648	21321
887.773	21348
887.897	21310
888.021	21378
888.146	21302
888.27	21515
888.395	21477
888.519	21466
888.643	21252
888.767	21462
888.891	21329
889.015	21260
889.139	21272
889.263	21256
889.387	21329
889.511	21363
889.635	21317
889.759	21146
889.883	21123
890.006	21165
890.13	21188
890.254	21119
890.377	21135
890.501	20929
890.624	20838
890.748	20963
890.871	20826
890.995	20689
891.118	20674
891.241	20762
891.364	20720
891.488	20910
891.611	20682
891.734	20788
891.857	20830
891.98	20796
892.103	20777
892.226	20792
892.349	20621
892.471	20488
892.594	20708
892.717	20644
892.839	20682
892.962	20629
893.085	20689
893.207	20575
893.33	20613
893.452	20442
893.575	20686
893.697	20606
893.819	20724
893.941	20754
894.064	20686
894.186	20537
894.308	20480
894.43	20731
894.552	20648
894.674	20682
894.796	20564
894.918	20579
895.04	20640
895.161	20674
895.283	20613
895.405	20594
895.526	20590
895.648	20590
895.769	20476
895.891	20587
896.012	20632
896.134	20693
896.255	20697
896.376	20587
896.498	20590
896.619	20583
896.74	20488
896.861	20590
896.982	20891
897.103	21043
897.224	20918
897.345	20910
897.466	20781
897.587	20963
897.708	20902
897.828	20838
897.949	20796
898.07	20667
898.19	20731
898.311	20861
898.431	20632
898.552	20864
898.672	20826
898.792	20944
898.913	20842
899.033	20682
899.153	20739
899.273	20579
899.393	20560
899.513	20644
899.633	20549
899.753	20556
899.873	20473
899.993	20507
900.113	20556
900.232	20461
900.352	20438
900.472	20438
900.591	20454
900.711	20282
900.83	20286
900.95	20488
901.069	20533
901.189	20206
901.308	19970
901.427	19970
901.546	19947
901.665	19978
901.784	19879
901.904	19811
902.023	19700
902.141	19468
902.26	19388
902.379	19525
902.498	19430
902.617	19457
902.735	19460
902.854	19365
902.973	19426
903.091	19050
903.21	19118
903.328	19053
903.446	19057
903.565	18871
903.683	18890
903.801	18738
903.919	18837
904.038	18894
904.156	18566
904.274	18757
904.392	18547
904.51	18559
904.627	18601
904.745	18612
904.863	18764
904.981	18391
905.098	18262
905.216	18410
905.334	18292
905.451	18422
905.569	18300
905.686	18277
905.803	18319
905.921	18224
906.038	18125
906.155	18159
906.272	17977
906.389	18064
906.506	17798
906.623	17908
906.74	17802
906.857	17748
906.974	17802
907.091	17984
907.208	17939
907.324	17904
907.441	17771
907.557	17501
907.674	17566
907.79	17501
907.907	17619
908.023	17551
908.139	17589
908.256	17562
908.372	17391
908.488	17345
908.604	17311
908.72	17143
908.836	17292
908.952	17193
909.068	17223
909.184	17277
909.3	17216
909.415	17353
909.531	17303
909.647	16942
909.762	17022
909.878	16984
909.993	17098
910.108	16946
910.224	16869
910.339	16965
910.454	16862
910.57	16755
910.685	16725
910.8	16976
910.915	16858
911.03	16755
911.145	16702
911.259	16569
911.374	16618
911.489	16485
911.604	16390
911.718	16284
911.833	16356
911.947	16211
912.062	16097
912.176	16284
912.291	16223
912.405	16253
912.519	16451
912.633	16447
912.748	16322
912.862	16352
912.976	16185
913.09	16021
913.204	16128
913.318	16044
913.431	16200
913.545	16268
913.659	16238
913.772	16044
913.886	15987
914	15945
914.113	15941
914.226	16040
914.34	15987
914.453	15861
914.566	15945
914.68	15850
914.793	15732
914.906	15576
915.019	15458
915.132	15477
915.245	15481
915.358	15564
915.47	15584
915.583	15534
915.696	15538
915.809	15637
915.921	15660
916.034	15439
916.146	15431
916.259	15431
916.371	15542
916.483	15515
916.595	15279
916.708	15367
916.82	15313
916.932	15184
917.044	15199
917.156	15211
917.268	15146
917.38	15138
917.491	15108
917.603	15180
917.715	15214
917.826	15241
917.938	15047
918.049	15036
918.161	15066
918.272	15138
918.384	15173
918.495	15036
918.606	14910
918.717	14861
918.828	14933
918.939	14872
919.05	14807
919.161	14933
919.272	14815
919.383	14693
919.494	14971
919.604	15093
919.715	14830
919.826	14845
919.936	14899
920.047	14956
920.157	14804
920.267	14944
920.378	14826
920.488	14830
920.598	14982
920.708	15146
920.818	14914
920.928	14956
921.038	15199
921.148	15169
921.258	14762
921.368	14758
921.477	14507
921.587	14594
921.697	14495
921.806	14579
921.916	14408
922.025	14252
922.134	14244
922.244	14206
922.353	14317
922.462	14039
922.571	14084
922.68	13936
922.789	13898
922.898	13795
923.007	13795
923.116	13970
923.224	13856
923.333	13765
923.442	13803
923.55	13693
923.659	13689
923.767	13715
923.876	13731
923.984	13696
924.092	13624
924.201	13590
924.309	13647
924.417	13616
924.525	13403
924.633	13426
924.741	14431
924.849	13339
924.956	13346
925.064	13312
925.172	13129
925.279	13240
925.387	13327
925.494	13293
925.602	13331
925.709	13377
925.816	13160
925.924	13213
926.031	13282
926.138	13114
926.245	13232
926.352	13103
926.459	13278
926.566	13244
926.673	13088
926.779	13004
926.886	13050
926.993	12833
927.099	12882
927.206	12730
927.312	12821
927.419	12817
927.525	12776
927.631	12825
927.737	12692
927.843	12597
927.95	12547
928.056	12642
928.162	12623
928.267	12658
928.373	13278
928.479	12673
928.585	12426
928.69	12616
928.796	12604
928.901	12483
929.007	12361
929.112	12422
929.218	12376
929.323	12376
929.428	12346
929.533	12486
929.638	12262
929.743	12311
929.848	12270
929.953	12270
930.058	12155
930.163	12038
930.267	12011
930.372	12095
930.477	11965
930.581	12144
930.685	11988
930.79	11863
930.894	11863
930.998	11954
931.103	12057
931.207	11619
931.311	11547
931.415	11452
931.519	11311
931.623	11185
