Data from test_V78500241_3282.txt Node
Date: Fri Mar 25 15:32:42 CST 2022
User: usil
Spectrometer: V785-0024
Trigger mode: 0
Integration Time (sec): 4.000000E-1
Scans to average: 1
Nonlinearity correction enabled: false
Boxcar width: 0
Storing dark spectrum: false
XAxis mode: Wavelengths
Number of Pixels in Spectrum: 1024
>>>>>Begin Spectral Data<<<<<
801.071	27230
801.214	27161
801.356	26982
801.499	26826
801.641	26716
801.783	26739
801.926	26792
802.068	26819
802.211	26804
802.353	26727
802.496	26552
802.638	26480
802.78	26408
802.923	26210
803.065	26278
803.208	26305
803.35	26396
803.492	26503
803.635	26564
803.777	26385
803.919	26511
804.061	26792
804.204	26602
804.346	26488
804.488	26442
804.63	26465
804.773	26400
804.915	26606
805.057	26678
805.199	26526
805.341	26579
805.483	26727
805.626	26705
805.768	26602
805.91	26670
806.052	26651
806.194	26545
806.336	26842
806.478	26689
806.62	26667
806.762	26819
806.904	26804
807.046	27260
807.188	27058
807.33	26986
807.472	27108
807.614	27017
807.756	27066
807.898	26838
808.04	26887
808.182	26731
808.324	26960
808.465	26933
808.607	27192
808.749	27249
808.891	27363
809.033	27340
809.174	27439
809.316	27184
809.458	27291
809.6	27169
809.741	27279
809.883	27370
810.025	27564
810.166	27542
810.308	27606
810.45	27458
810.591	27443
810.733	27279
810.875	27165
811.016	27116
811.158	27085
811.299	27268
811.441	27515
811.582	27321
811.724	27351
811.865	27256
812.007	27374
812.148	27351
812.29	27329
812.431	27443
812.573	27599
812.714	27713
812.855	27762
812.997	27835
813.138	28017
813.279	27694
813.421	27770
813.562	27671
813.703	27610
813.845	27485
813.986	27252
814.127	27077
814.268	26979
814.41	27028
814.551	26861
814.692	27005
814.833	26815
814.974	26804
815.115	26887
815.256	26842
815.397	26750
815.539	26880
815.68	26716
815.821	26670
815.962	26667
816.103	26670
816.244	26541
816.385	26419
816.526	26541
816.666	26336
816.807	26050
816.948	26122
817.089	26423
817.23	26180
817.371	26252
817.512	26100
817.653	26069
817.793	26096
817.934	26214
818.075	26400
818.216	26282
818.356	26054
818.497	26103
818.638	25936
818.778	25871
818.919	25917
819.06	25928
819.2	26020
819.341	26077
819.481	26199
819.622	26206
819.762	26324
819.903	26431
820.043	26328
820.184	26385
820.324	26298
820.465	26423
820.605	26271
820.746	26237
820.886	26119
821.026	26191
821.167	26202
821.307	26229
821.447	26221
821.588	26001
821.728	25890
821.868	25791
822.008	25639
822.149	25632
822.289	25502
822.429	25324
822.569	25236
822.709	25255
822.849	25168
822.99	25095
823.13	25183
823.27	25110
823.41	24913
823.55	24935
823.69	24992
823.83	24970
823.97	24894
824.11	24734
824.25	24673
824.389	24741
824.529	24894
824.669	24707
824.809	24791
824.949	24779
825.089	24821
825.228	24749
825.368	24639
825.508	24700
825.648	24650
825.787	24654
825.927	24658
826.067	24658
826.206	24783
826.346	24734
826.485	24642
826.625	24760
826.765	24753
826.904	24681
827.044	24498
827.183	24429
827.323	24308
827.462	24490
827.601	24346
827.741	24300
827.88	24505
828.02	24304
828.159	24353
828.298	24254
828.437	24422
828.577	24258
828.716	24414
828.855	24266
828.994	24087
829.134	24098
829.273	24121
829.412	24114
829.551	24060
829.69	24060
829.829	24068
829.968	24057
830.107	24102
830.246	24011
830.385	24076
830.524	23950
830.663	23889
830.802	23790
830.941	23687
831.08	23551
831.219	23805
831.357	23916
831.496	23889
831.635	23767
831.774	23558
831.913	23543
832.051	23505
832.19	23455
832.329	23539
832.467	23353
832.606	23212
832.744	23345
832.883	23444
833.022	23395
833.16	23345
833.299	23463
833.437	23318
833.576	23455
833.714	23440
833.852	23452
833.991	23543
834.129	23562
834.267	23566
834.406	23353
834.544	23463
834.682	23414
834.821	23387
834.959	23570
835.097	23345
835.235	23433
835.373	23562
835.511	23402
835.65	23292
835.788	23204
835.926	23181
836.064	23189
836.202	23083
836.34	23307
836.478	23467
836.615	23372
836.753	23265
836.891	23200
837.029	23322
837.167	23235
837.305	23250
837.443	23159
837.58	22965
837.718	23223
837.856	23159
837.993	23121
838.131	23147
838.269	22968
838.406	23083
838.544	22987
838.681	22869
838.819	22767
838.956	22596
839.094	22706
839.231	22653
839.369	22729
839.506	23071
839.643	22908
839.781	22622
839.918	22588
840.055	22447
840.193	22561
840.33	22489
840.467	22417
840.604	22713
840.742	22744
840.879	22436
841.016	22573
841.153	22424
841.29	22717
841.427	22516
841.564	22694
841.701	22554
841.838	22516
841.975	22493
842.112	22519
842.249	22398
842.385	22390
842.522	22679
842.659	22428
842.796	22386
842.933	22242
843.069	22196
843.206	22223
843.343	22379
843.479	22314
843.616	22318
843.752	22086
843.889	22040
844.025	22341
844.162	22166
844.298	22219
844.435	21994
844.571	21953
844.708	22223
844.844	22154
844.98	22211
845.117	22204
845.253	22048
845.389	21907
845.525	21953
845.661	22002
845.798	21800
845.934	21922
846.07	21857
846.206	21892
846.342	21907
846.478	21800
846.614	21682
846.75	21633
846.886	21538
847.022	21625
847.158	21538
847.294	21454
847.429	21603
847.565	21538
847.701	21778
847.837	21317
847.972	21348
848.108	21462
848.244	21340
848.379	21214
848.515	21154
848.65	21058
848.786	21142
848.921	21093
849.057	21207
849.192	21051
849.328	21268
849.463	21055
849.598	21192
849.734	21032
849.869	21020
850.004	20933
850.14	20952
850.275	20948
850.41	20830
850.545	20895
850.68	20891
850.815	20941
850.95	20902
851.085	21127
851.22	20982
851.355	20994
851.49	20883
851.625	20899
851.76	20933
851.895	20834
852.03	20910
852.165	20891
852.299	21024
852.434	21062
852.569	20982
852.703	20842
852.838	20956
852.973	21028
853.107	21116
853.242	20830
853.376	20739
853.511	20655
853.645	20731
853.78	20868
853.914	20800
854.048	20693
854.183	20705
854.317	20750
854.451	20937
854.585	20804
854.72	20731
854.854	20826
854.988	20823
855.122	20788
855.256	20583
855.39	20754
855.524	20861
855.658	20735
855.792	20857
855.926	20750
856.06	20777
856.194	20864
856.327	20735
856.461	20693
856.595	20746
856.729	20636
856.862	20845
856.996	20754
857.13	20826
857.263	20876
857.397	20792
857.53	20632
857.664	20746
857.797	20933
857.931	20891
858.064	20883
858.197	20815
858.331	20686
858.464	20785
858.597	20617
858.731	20659
858.864	20705
858.997	20731
859.13	20743
859.263	20735
859.396	20815
859.529	20689
859.662	20682
859.795	20648
859.928	20792
860.061	20956
860.194	20941
860.327	20792
860.46	20830
860.592	20861
860.725	20910
860.858	20861
860.99	20788
861.123	20579
861.256	20583
861.388	20708
861.521	21325
861.653	20606
861.786	20522
861.918	20655
862.05	20598
862.183	20743
862.315	20705
862.447	20731
862.58	20655
862.712	20514
862.844	20488
862.976	20629
863.108	20423
863.24	21051
863.372	20385
863.504	20393
863.636	20495
863.768	20469
863.9	20511
864.032	20339
864.164	20442
864.296	20389
864.428	20598
864.559	20522
864.691	20514
864.823	20503
864.954	20408
865.086	20404
865.217	20355
865.349	20400
865.48	20396
865.612	20355
865.743	20545
865.875	20377
866.006	20309
866.137	20358
866.269	20286
866.4	20332
866.531	20305
866.662	20317
866.793	20298
866.924	20412
867.055	20336
867.186	20259
867.317	20336
867.448	20195
867.579	20374
867.71	20149
867.841	20229
867.972	20351
868.103	20286
868.233	20229
868.364	20408
868.495	20305
868.625	20613
868.756	20651
868.886	20492
869.017	20419
869.147	20762
869.278	20629
869.408	20549
869.539	20537
869.669	20667
869.799	20541
869.929	20693
870.06	20503
870.19	20883
870.32	20823
870.45	20834
870.58	20906
870.71	21123
870.84	21081
870.97	20994
871.1	20921
871.23	21135
871.36	21138
871.489	21062
871.619	21096
871.749	21226
871.879	21104
872.008	21317
872.138	21119
872.267	21081
872.397	21020
872.526	20944
872.656	21074
872.785	21028
872.915	21192
873.044	21214
873.173	21100
873.303	21211
873.432	21264
873.561	21313
873.69	21374
873.819	21192
873.948	21252
874.077	21226
874.206	21066
874.335	21180
874.464	21294
874.593	21526
874.722	21408
874.851	21488
874.979	21530
875.108	21572
875.237	21374
875.365	21363
875.494	21405
875.623	21492
875.751	21374
875.88	21614
876.008	21583
876.136	21644
876.265	21972
876.393	21998
876.521	21899
876.65	21930
876.778	21781
876.906	21793
877.034	21682
877.162	21915
877.29	21793
877.418	21774
877.546	21831
877.674	21808
877.802	21679
877.93	21728
878.058	21892
878.185	21724
878.313	21690
878.441	21781
878.568	21564
878.696	21652
878.824	21743
878.951	21781
879.079	21915
879.206	22086
879.333	21884
879.461	21983
879.588	21895
879.715	21850
879.842	21953
879.97	21747
880.097	21656
880.224	21652
880.351	21728
880.478	21663
880.605	21656
880.732	21580
880.859	21774
880.986	21568
881.112	21576
881.239	21507
881.366	21294
881.493	21302
881.619	21188
881.746	21218
881.872	21329
881.999	21161
882.125	21173
882.252	21188
882.378	21195
882.505	21294
882.631	21195
882.757	20941
882.883	21020
883.01	20830
883.136	20944
883.262	20781
883.388	20712
883.514	20819
883.64	20868
883.766	20857
883.892	20693
884.018	20621
884.143	20838
884.269	20861
884.395	20655
884.52	20533
884.646	20552
884.772	20469
884.897	20469
885.023	20476
885.148	20648
885.274	20720
885.399	20644
885.524	20499
885.65	20514
885.775	20636
885.9	20492
886.025	20686
886.15	20629
886.275	20419
886.4	20431
886.525	20526
886.65	20393
886.775	20454
886.9	20606
887.025	20667
887.149	20560
887.274	20358
887.399	20317
887.523	20290
887.648	20294
887.773	20119
887.897	20385
888.021	20298
888.146	20134
888.27	20366
888.395	20423
888.519	20256
888.643	20393
888.767	20339
888.891	20370
889.015	20077
889.139	20244
889.263	20081
889.387	20301
889.511	20347
889.635	20320
889.759	20138
889.883	20054
890.006	20168
890.13	20142
890.254	20016
890.377	20062
890.501	19856
890.624	19970
890.748	19917
890.871	19811
890.995	19715
891.118	19571
891.241	19658
891.364	19742
891.488	19841
891.611	19704
891.734	19681
891.857	19723
891.98	19723
892.103	19788
892.226	19613
892.349	19696
892.471	19571
892.594	19597
892.717	19609
892.839	19620
892.962	19586
893.085	19681
893.207	19514
893.33	19472
893.452	19518
893.575	19712
893.697	19674
893.819	19715
893.941	19868
894.064	19731
894.186	19571
894.308	19415
894.43	19746
894.552	19791
894.674	19540
894.796	19407
894.918	19567
895.04	19571
895.161	19765
895.283	19628
895.405	19540
895.526	19632
895.648	19525
895.769	19590
895.891	19616
896.012	19719
896.134	19681
896.255	19556
896.376	19422
896.498	19590
896.619	19632
896.74	19609
896.861	19601
896.982	19928
897.103	19913
897.224	19772
897.345	19868
897.466	19712
897.587	19906
897.708	20031
897.828	19845
897.949	19761
898.07	19609
898.19	19750
898.311	19887
898.431	19753
898.552	19898
898.672	19807
898.792	19932
898.913	19772
899.033	19731
899.153	19525
899.273	19552
899.393	19529
899.513	19552
899.633	19575
899.753	19674
899.873	19506
899.993	19639
900.113	19605
900.232	19681
900.352	19491
900.472	19365
900.591	19282
900.711	19388
900.83	19255
900.95	19575
901.069	19487
901.189	19278
901.308	19164
901.427	18882
901.546	19061
901.665	19088
901.784	19095
901.904	18837
902.023	18749
902.141	18540
902.26	18498
902.379	18601
902.498	18502
902.617	18483
902.735	18391
902.854	18437
902.973	18334
903.091	18110
903.21	18182
903.328	18243
903.446	18087
903.565	18019
903.683	17939
903.801	17916
903.919	18041
904.038	17863
904.156	17737
904.274	17824
904.392	17767
904.51	17672
904.627	17722
904.745	17741
904.863	17794
904.981	17573
905.098	17387
905.216	17414
905.334	17436
905.451	17474
905.569	17379
905.686	17429
905.803	17379
905.921	17151
906.038	17330
906.155	17391
906.272	17090
906.389	17105
906.506	16976
906.623	16991
906.74	16968
906.857	16816
906.974	16801
907.091	17010
907.208	17098
907.324	17003
907.441	16828
907.557	16755
907.674	16774
907.79	16584
907.907	16664
908.023	16664
908.139	16790
908.256	16615
908.372	16637
908.488	16546
908.604	16402
908.72	16341
908.836	16432
908.952	16382
909.068	16462
909.184	16470
909.3	16421
909.415	16360
909.531	16493
909.647	16177
909.762	16090
909.878	16010
909.993	16200
910.108	16147
910.224	16040
910.339	16143
910.454	16090
910.57	15926
910.685	15880
910.8	16135
910.915	16112
911.03	15888
911.145	15770
911.259	15762
911.374	15789
911.489	15637
911.604	15606
911.718	15549
911.833	15424
911.947	15397
912.062	15351
912.176	15424
912.291	15614
912.405	15549
912.519	15679
912.633	15690
912.748	15534
912.862	15523
912.976	15272
913.09	15180
913.204	15329
913.318	15344
913.431	15378
913.545	15302
913.659	15397
913.772	15249
913.886	15214
914	15169
914.113	15131
914.226	15272
914.34	15093
914.453	14960
914.566	15093
914.68	14986
914.793	14902
914.906	14830
915.019	14686
915.132	14705
915.245	14739
915.358	14724
915.47	14746
915.583	14731
915.696	14743
915.809	14777
915.921	14876
916.034	14739
916.146	14530
916.259	14587
916.371	14712
916.483	14632
916.595	14571
916.708	14590
916.82	14537
916.932	14629
917.044	14438
917.156	14503
917.268	14355
917.38	14427
917.491	14324
917.603	14454
917.715	14473
917.826	14370
917.938	14355
918.049	14275
918.161	14381
918.272	14492
918.384	14522
918.495	14358
918.606	14138
918.717	14119
918.828	14164
918.939	14172
919.05	14111
919.161	14164
919.272	13982
919.383	13974
919.494	14187
919.604	14320
919.715	14130
919.826	14024
919.936	14054
920.047	14202
920.157	14142
920.267	14290
920.378	14103
920.488	14005
920.598	14263
920.708	14457
920.818	14351
920.928	14218
921.038	14362
921.148	14404
921.258	14180
921.368	14008
921.477	13928
921.587	13845
921.697	13712
921.806	13894
921.916	13742
922.025	13582
922.134	13586
922.244	13487
922.353	13613
922.462	13400
922.571	13358
922.68	13274
922.789	13202
922.898	13274
923.007	13095
923.116	13084
923.224	13149
923.333	13171
923.442	12985
923.55	13031
923.659	13023
923.767	13012
923.876	12951
923.984	13129
924.092	12890
924.201	12863
924.309	12894
924.417	12985
924.525	12768
924.633	12856
924.741	13788
924.849	12582
924.956	12734
925.064	12684
925.172	12650
925.279	12521
925.387	12589
925.494	12669
925.602	12673
925.709	12616
925.816	12460
925.924	12547
926.031	12566
926.138	12547
926.245	12563
926.352	12445
926.459	12559
926.566	12639
926.673	12464
926.779	12395
926.886	12350
926.993	12175
927.099	12182
927.206	12190
927.312	12148
927.419	12209
927.525	12186
927.631	12186
927.737	12053
927.843	12076
927.95	11870
928.056	12064
928.162	11999
928.267	12015
928.373	12608
928.479	12064
928.585	11828
928.69	11954
928.796	12057
928.901	11882
929.007	11790
929.112	11931
929.218	11866
929.323	11779
929.428	11729
929.533	11855
929.638	11699
929.743	11714
929.848	11688
929.953	11764
930.058	11573
930.163	11356
930.267	11539
930.372	11539
930.477	11395
930.581	11634
930.685	11512
930.79	11296
930.894	11376
930.998	11231
931.103	11433
931.207	11109
931.311	11014
931.415	10938
931.519	10710
931.623	10691
