Data from test_V78500241_1864.txt Node
Date: Fri Mar 25 15:22:50 CST 2022
User: usil
Spectrometer: V785-0024
Trigger mode: 0
Integration Time (sec): 4.000000E-1
Scans to average: 1
Nonlinearity correction enabled: false
Boxcar width: 0
Storing dark spectrum: false
XAxis mode: Wavelengths
Number of Pixels in Spectrum: 1024
>>>>>Begin Spectral Data<<<<<
801.071	27838
801.214	27835
801.356	27435
801.499	27534
801.641	27359
801.783	27298
801.926	27431
802.068	27408
802.211	27291
802.353	27112
802.496	27047
802.638	27047
802.78	26880
802.923	27017
803.065	26944
803.208	26906
803.35	26952
803.492	27142
803.635	27214
803.777	27009
803.919	27173
804.061	27382
804.204	27188
804.346	27055
804.488	27062
804.63	27104
804.773	27116
804.915	27214
805.057	27275
805.199	27161
805.341	27325
805.483	27268
805.626	27367
805.768	27161
805.91	27340
806.052	27302
806.194	27241
806.336	27416
806.478	27469
806.62	27302
806.762	27519
806.904	27561
807.046	27766
807.188	27568
807.33	27823
807.472	27739
807.614	27675
807.756	27736
807.898	27629
808.04	27637
808.182	27507
808.324	27614
808.465	27481
808.607	27797
808.749	27968
808.891	27934
809.033	28048
809.174	28082
809.316	27895
809.458	27895
809.6	27949
809.741	28040
809.883	28093
810.025	28390
810.166	28272
810.308	28215
810.45	28032
810.591	28010
810.733	27926
810.875	27838
811.016	27823
811.158	27580
811.299	27968
811.441	28048
811.582	27975
811.724	27823
811.865	27907
812.007	27854
812.148	27819
812.29	27998
812.431	28063
812.573	28261
812.714	28386
812.855	28607
812.997	28577
813.138	28675
813.279	28538
813.421	28421
813.562	28432
813.703	28226
813.845	28131
813.986	27922
814.127	27937
814.268	27709
814.41	27595
814.551	27545
814.692	27842
814.833	27644
814.974	27511
815.115	27739
815.256	27568
815.397	27526
815.539	27671
815.68	27447
815.821	27256
815.962	27272
816.103	27469
816.244	27332
816.385	27241
816.526	27203
816.666	27039
816.807	26937
816.948	26975
817.089	26975
817.23	26880
817.371	26914
817.512	26937
817.653	26800
817.793	26823
817.934	26838
818.075	27024
818.216	26944
818.356	26902
818.497	26849
818.638	26629
818.778	26686
818.919	26674
819.06	26659
819.2	26830
819.341	26667
819.481	26796
819.622	27116
819.762	27317
819.903	27017
820.043	27142
820.184	26982
820.324	27055
820.465	26982
820.605	26975
820.746	27058
820.886	26743
821.026	27047
821.167	26925
821.307	26975
821.447	27017
821.588	26876
821.728	26636
821.868	26640
822.008	26396
822.149	26442
822.289	26343
822.429	26180
822.569	26084
822.709	26027
822.849	26005
822.99	25883
823.13	25928
823.27	25826
823.41	25715
823.55	25556
823.69	25750
823.83	25689
823.97	25548
824.11	25556
824.25	25533
824.389	25487
824.529	25746
824.669	25571
824.809	25681
824.949	25529
825.089	25510
825.228	25586
825.368	25369
825.508	25533
825.648	25419
825.787	25392
825.927	25445
826.067	25449
826.206	25476
826.346	25525
826.485	25510
826.625	25373
826.765	25483
826.904	25521
827.044	25118
827.183	25236
827.323	25152
827.462	25270
827.601	25095
827.741	24947
827.88	25118
828.02	24989
828.159	25084
828.298	24981
828.437	25137
828.577	25042
828.716	25114
828.855	25012
828.994	24646
829.134	24829
829.273	24878
829.412	24798
829.551	24768
829.69	24791
829.829	24833
829.968	24882
830.107	24913
830.246	24776
830.385	24719
830.524	24810
830.663	24730
830.802	24639
830.941	24479
831.08	24441
831.219	24642
831.357	24525
831.496	24536
831.635	24475
831.774	24479
831.913	24266
832.051	24167
832.19	24041
832.329	24277
832.467	24133
832.606	24034
832.744	24083
832.883	24152
833.022	24163
833.16	24254
833.299	24213
833.437	24174
833.576	24330
833.714	24194
833.852	24304
833.991	24159
834.129	24266
834.267	24369
834.406	24201
834.544	24228
834.682	24235
834.821	24205
834.959	24254
835.097	24110
835.235	24235
835.373	24220
835.511	24209
835.65	24011
835.788	24011
835.926	23908
836.064	23771
836.202	23840
836.34	24091
836.478	24159
836.615	23980
836.753	24045
836.891	24026
837.029	24038
837.167	23992
837.305	23923
837.443	23999
837.58	23817
837.718	23942
837.856	23771
837.993	23668
838.131	23885
838.269	23680
838.406	23813
838.544	23695
838.681	23528
838.819	23482
838.956	23356
839.094	23383
839.231	23512
839.369	23634
839.506	23638
839.643	23585
839.781	23288
839.918	23261
840.055	23486
840.193	23429
840.33	23269
840.467	23307
840.604	23296
840.742	23566
840.879	23204
841.016	23254
841.153	23189
841.29	23307
841.427	23284
841.564	23395
841.701	23197
841.838	23128
841.975	23147
842.112	23296
842.249	23033
842.385	23052
842.522	23200
842.659	23033
842.796	22976
842.933	23105
843.069	22942
843.206	22873
843.343	23113
843.479	23083
843.616	23029
843.752	22854
843.889	22869
844.025	22812
844.162	22828
844.298	22942
844.435	22835
844.571	22869
844.708	22809
844.844	23037
844.98	22915
845.117	22816
845.253	22763
845.389	22729
845.525	22759
845.661	22634
845.798	22455
845.934	22668
846.07	22493
846.206	22653
846.342	22622
846.478	22542
846.614	22291
846.75	22234
846.886	22272
847.022	22348
847.158	22329
847.294	22341
847.429	22284
847.565	22158
847.701	22466
847.837	22044
847.972	21918
848.108	22048
848.244	22013
848.379	21987
848.515	21911
848.65	21895
848.786	21876
848.921	21972
849.057	21922
849.192	21994
849.328	21781
849.463	21842
849.598	21869
849.734	21755
849.869	21599
850.004	21641
850.14	21724
850.275	21629
850.41	21504
850.545	21595
850.68	21488
850.815	21663
850.95	21580
851.085	21827
851.22	21793
851.355	21606
851.49	21595
851.625	21591
851.76	21515
851.895	21519
852.03	21466
852.165	21637
852.299	21732
852.434	21720
852.569	21705
852.703	21648
852.838	21675
852.973	21812
853.107	21709
853.242	21603
853.376	21412
853.511	21310
853.645	21435
853.78	21504
853.914	21534
854.048	21310
854.183	21393
854.317	21580
854.451	21618
854.585	21428
854.72	21424
854.854	21458
854.988	21344
855.122	21447
855.256	21351
855.39	21481
855.524	21431
855.658	21526
855.792	21405
855.926	21504
856.06	21507
856.194	21500
856.327	21420
856.461	21336
856.595	21325
856.729	21447
856.862	21488
856.996	21428
857.13	21549
857.263	21591
857.397	21583
857.53	21363
857.664	21568
857.797	21401
857.931	21481
858.064	21336
858.197	21507
858.331	21481
858.464	21332
858.597	21351
858.731	21473
858.864	21367
858.997	21382
859.13	21485
859.263	21553
859.396	21439
859.529	21435
859.662	21351
859.795	21363
859.928	21458
860.061	21701
860.194	21523
860.327	21462
860.46	21408
860.592	21553
860.725	21629
860.858	21591
860.99	21336
861.123	21317
861.256	21351
861.388	21439
861.521	22219
861.653	21275
861.786	21089
861.918	21340
862.05	21264
862.183	21370
862.315	21237
862.447	21485
862.58	21355
862.712	21089
862.844	21123
862.976	21340
863.108	21283
863.24	21492
863.372	21085
863.504	21169
863.636	21096
863.768	21127
863.9	21146
864.032	21112
864.164	21017
864.296	21317
864.428	21268
864.559	21116
864.691	21214
864.823	21233
864.954	21135
865.086	21146
865.217	21009
865.349	21036
865.48	21017
865.612	21112
865.743	21104
865.875	21001
866.006	21039
866.137	21017
866.269	21112
866.4	20948
866.531	21036
866.662	20933
866.793	20883
866.924	20990
867.055	20982
867.186	21074
867.317	20921
867.448	20819
867.579	20998
867.71	20929
867.841	20883
867.972	21142
868.103	20925
868.233	20925
868.364	21001
868.495	21051
868.625	21131
868.756	21370
868.886	21169
869.017	21146
869.147	21256
869.278	21321
869.408	21275
869.539	21188
869.669	21207
869.799	21233
869.929	21359
870.06	21233
870.19	21492
870.32	21583
870.45	21466
870.58	21561
870.71	21690
870.84	21679
870.97	21587
871.1	21511
871.23	21774
871.36	21892
871.489	21523
871.619	21816
871.749	21747
871.879	21937
872.008	21888
872.138	21736
872.267	21789
872.397	21717
872.526	21770
872.656	21656
872.785	21538
872.915	21736
873.044	21823
873.173	21823
873.303	21812
873.432	21926
873.561	22013
873.69	21850
873.819	21854
873.948	21979
874.077	21846
874.206	21892
874.335	21823
874.464	21968
874.593	21994
874.722	22078
874.851	21956
874.979	22021
875.108	22147
875.237	22040
875.365	21937
875.494	21964
875.623	22162
875.751	22063
875.88	22086
876.008	22249
876.136	22242
876.265	22451
876.393	22523
876.521	22497
876.65	22440
876.778	22455
876.906	22500
877.034	22402
877.162	22386
877.29	22428
877.418	22409
877.546	22500
877.674	22421
877.802	22466
877.93	22344
878.058	22204
878.185	22177
878.313	22257
878.441	22405
878.568	22215
878.696	22314
878.824	22508
878.951	22500
879.079	22481
879.206	22687
879.333	22649
879.461	22508
879.588	22436
879.715	22508
879.842	22713
879.97	22493
880.097	22200
880.224	22131
880.351	22207
880.478	22181
880.605	22223
880.732	22314
880.859	22489
880.986	22268
881.112	22261
881.239	22017
881.366	21918
881.493	21884
881.619	21846
881.746	21918
881.872	21808
881.999	21701
882.125	21789
882.252	21739
882.378	21641
882.505	21816
882.631	21583
882.757	21469
882.883	21610
883.01	21538
883.136	21332
883.262	21272
883.388	21363
883.514	21477
883.64	21466
883.766	21488
883.892	21268
884.018	21275
884.143	21485
884.269	21477
884.395	21222
884.52	20963
884.646	21104
884.772	21036
884.897	21028
885.023	21161
885.148	21218
885.274	21363
885.399	21131
885.524	21241
885.65	21176
885.775	21230
885.9	20994
886.025	21348
886.15	21222
886.275	21176
886.4	20975
886.525	21135
886.65	21039
886.775	21096
886.9	21260
887.025	21359
887.149	21241
887.274	20804
887.399	20792
887.523	20910
887.648	20804
887.773	20773
887.897	20861
888.021	20861
888.146	20819
888.27	21036
888.395	21020
888.519	20781
888.643	20971
888.767	20929
888.891	20720
889.015	20796
889.139	20777
889.263	20712
889.387	20785
889.511	20963
889.635	20823
889.759	20743
889.883	20655
890.006	20868
890.13	20754
890.254	20587
890.377	20602
890.501	20396
890.624	20381
890.748	20575
890.871	20377
890.995	20290
891.118	20161
891.241	20305
891.364	20336
891.488	20343
891.611	20309
891.734	20267
891.857	20339
891.98	20252
892.103	20271
892.226	20240
892.349	20206
892.471	20039
892.594	20218
892.717	20145
892.839	20081
892.962	20149
893.085	20180
893.207	20126
893.33	20088
893.452	20103
893.575	20286
893.697	20298
893.819	20320
893.941	20351
894.064	20317
894.186	20008
894.308	19982
894.43	20259
894.552	20347
894.674	20240
894.796	20100
894.918	20199
895.04	20145
895.161	20332
895.283	20115
895.405	20111
895.526	20309
895.648	20206
895.769	20176
895.891	20149
896.012	20107
896.134	20210
896.255	20107
896.376	20164
896.498	20012
896.619	20210
896.74	20145
896.861	20153
896.982	20526
897.103	20632
897.224	20511
897.345	20301
897.466	20358
897.587	20362
897.708	20533
897.828	20370
897.949	20290
898.07	20202
898.19	20248
898.311	20343
898.431	20320
898.552	20389
898.672	20366
898.792	20370
898.913	20408
899.033	20214
899.153	20161
899.273	20088
899.393	20126
899.513	20111
899.633	20115
899.753	20119
899.873	20100
899.993	20081
900.113	20020
900.232	20240
900.352	20062
900.472	19902
900.591	19963
900.711	19902
900.83	19864
900.95	19883
901.069	20016
901.189	19700
901.308	19601
901.427	19525
901.546	19563
901.665	19472
901.784	19510
901.904	19411
902.023	19324
902.141	19122
902.26	18947
902.379	19126
902.498	18985
902.617	18989
902.735	18981
902.854	19000
902.973	18970
903.091	18722
903.21	18646
903.328	18719
903.446	18532
903.565	18551
903.683	18452
903.801	18376
903.919	18372
904.038	18437
904.156	18243
904.274	18353
904.392	18220
904.51	18220
904.627	18178
904.745	18292
904.863	18361
904.981	18038
905.098	17889
905.216	18045
905.334	17885
905.451	17916
905.569	17923
905.686	17935
905.803	17969
905.921	17707
906.038	17828
906.155	17790
906.272	17627
906.389	17539
906.506	17459
906.623	17440
906.74	17471
906.857	17288
906.974	17402
907.091	17501
907.208	17490
907.324	17398
907.441	17349
907.557	17189
907.674	17185
907.79	17060
907.907	17132
908.023	17242
908.139	17159
908.256	17037
908.372	17105
908.488	16930
908.604	16816
908.72	16889
908.836	16938
908.952	16873
909.068	16892
909.184	17041
909.3	16915
909.415	16774
909.531	16866
909.647	16649
909.762	16580
909.878	16607
909.993	16599
910.108	16622
910.224	16523
910.339	16603
910.454	16428
910.57	16280
910.685	16291
910.8	16615
910.915	16500
911.03	16402
911.145	16234
911.259	16249
911.374	16253
911.489	16120
911.604	16078
911.718	15903
911.833	15903
911.947	15835
912.062	15720
912.176	15922
912.291	15911
912.405	15903
912.519	16097
912.633	16067
912.748	15876
912.862	15949
912.976	15793
913.09	15622
913.204	15652
913.318	15736
913.431	15831
913.545	15861
913.659	15854
913.772	15739
913.886	15568
914	15504
914.113	15496
914.226	15663
914.34	15625
914.453	15405
914.566	15633
914.68	15473
914.793	15454
914.906	15207
915.019	15214
915.132	15161
915.245	15135
915.358	15195
915.47	15169
915.583	15119
915.696	15165
915.809	15207
915.921	15249
916.034	15074
916.146	14994
916.259	15020
916.371	15074
916.483	15085
916.595	14979
916.708	14941
916.82	14960
916.932	14982
917.044	14883
917.156	14887
917.268	14746
917.38	14853
917.491	14800
917.603	14857
917.715	14872
917.826	14986
917.938	14758
918.049	14560
918.161	14811
918.272	14830
918.384	14838
918.495	14712
918.606	14636
918.717	14545
918.828	14613
918.939	14549
919.05	14412
919.161	14434
919.272	14381
919.383	14385
919.494	14461
919.604	14678
919.715	14617
919.826	14419
919.936	14537
920.047	14640
920.157	14476
920.267	14697
920.378	14518
920.488	14454
920.598	14693
920.708	14762
920.818	14617
920.928	14587
921.038	14705
921.148	14743
921.258	14484
921.368	14427
921.477	14286
921.587	14214
921.697	14142
921.806	14244
921.916	14138
922.025	14012
922.134	13902
922.244	13849
922.353	13997
922.462	13822
922.571	13674
922.68	13510
922.789	13491
922.898	13575
923.007	13407
923.116	13499
923.224	13525
923.333	13491
923.442	13358
923.55	13354
923.659	13346
923.767	13384
923.876	13324
923.984	13316
924.092	13198
924.201	13358
924.309	13263
924.417	13221
924.525	13270
924.633	13168
924.741	14134
924.849	13122
924.956	13160
925.064	12924
925.172	12886
925.279	12913
925.387	12993
925.494	12935
925.602	13000
925.709	12973
925.816	12901
925.924	12939
926.031	13042
926.138	12909
926.245	12795
926.352	12894
926.459	12924
926.566	13015
926.673	12821
926.779	12722
926.886	12681
926.993	12540
927.099	12456
927.206	12376
927.312	12513
927.419	12422
927.525	12448
927.631	12525
927.737	12437
927.843	12441
927.95	12251
928.056	12330
928.162	12388
928.267	12334
928.373	12837
928.479	12429
928.585	12197
928.69	12243
928.796	12300
928.901	12216
929.007	12133
929.112	12194
929.218	12098
929.323	12224
929.428	12079
929.533	12167
929.638	12068
929.743	12015
929.848	12079
929.953	11980
930.058	11920
930.163	11870
930.267	11805
930.372	11969
930.477	11680
930.581	11855
930.685	11786
930.79	11592
930.894	11623
930.998	11493
931.103	11733
931.207	11402
931.311	11330
931.415	11296
931.519	11048
931.623	11033
