Data from test_V78500241_554.txt Node
Date: Fri Mar 25 15:13:42 CST 2022
User: usil
Spectrometer: V785-0024
Trigger mode: 0
Integration Time (sec): 4.000000E-1
Scans to average: 1
Nonlinearity correction enabled: false
Boxcar width: 0
Storing dark spectrum: false
XAxis mode: Wavelengths
Number of Pixels in Spectrum: 1024
>>>>>Begin Spectral Data<<<<<
801.071	27013
801.214	27058
801.356	26971
801.499	26956
801.641	26678
801.783	26651
801.926	26674
802.068	26629
802.211	26537
802.353	26362
802.496	26366
802.638	26298
802.78	26225
802.923	26286
803.065	26134
803.208	26309
803.35	26294
803.492	26320
803.635	26488
803.777	26237
803.919	26404
804.061	26590
804.204	26488
804.346	26377
804.488	26362
804.63	26415
804.773	26138
804.915	26431
805.057	26347
805.199	26469
805.341	26518
805.483	26389
805.626	26541
805.768	26339
805.91	26412
806.052	26511
806.194	26492
806.336	26705
806.478	26583
806.62	26533
806.762	26583
806.904	26712
807.046	26982
807.188	26899
807.33	27017
807.472	26811
807.614	26937
807.756	26872
807.898	26769
808.04	26697
808.182	26602
808.324	26716
808.465	26743
808.607	27032
808.749	27013
808.891	26971
809.033	27241
809.174	27169
809.316	27085
809.458	27020
809.6	27070
809.741	27085
809.883	27329
810.025	27344
810.166	27564
810.308	27317
810.45	27348
810.591	27325
810.733	27222
810.875	27100
811.016	26963
811.158	27062
811.299	27176
811.441	27230
811.582	27207
811.724	26986
811.865	26975
812.007	27119
812.148	27070
812.29	27112
812.431	27207
812.573	27519
812.714	27344
812.855	27637
812.997	27675
813.138	27983
813.279	27934
813.421	27743
813.562	27572
813.703	27496
813.845	27405
813.986	27112
814.127	26678
814.268	26765
814.41	26929
814.551	26697
814.692	26849
814.833	26735
814.974	26708
815.115	26743
815.256	26606
815.397	26648
815.539	26606
815.68	26556
815.821	26511
815.962	26587
816.103	26488
816.244	26446
816.385	26385
816.526	26332
816.666	26020
816.807	26005
816.948	26103
817.089	26218
817.23	26168
817.371	26142
817.512	26145
817.653	26039
817.793	25932
817.934	26122
818.075	26035
818.216	26088
818.356	26092
818.497	26024
818.638	25772
818.778	25765
818.919	25822
819.06	25909
819.2	25913
819.341	26142
819.481	25944
819.622	26130
819.762	26377
819.903	26377
820.043	26237
820.184	26214
820.324	26218
820.465	26278
820.605	26168
820.746	26119
820.886	26077
821.026	26225
821.167	26115
821.307	26142
821.447	26214
821.588	26062
821.728	25856
821.868	25704
822.008	25548
822.149	25537
822.289	25548
822.429	25266
822.569	25316
822.709	25088
822.849	24958
822.99	24992
823.13	25129
823.27	24985
823.41	24783
823.55	24821
823.69	24935
823.83	24894
823.97	24871
824.11	24635
824.25	24616
824.389	24601
824.529	24601
824.669	24620
824.809	24677
824.949	24859
825.089	24734
825.228	24681
825.368	24353
825.508	24661
825.648	24642
825.787	24544
825.927	24563
826.067	24399
826.206	24563
826.346	24669
826.485	24395
826.625	24422
826.765	24563
826.904	24460
827.044	24311
827.183	24243
827.323	24045
827.462	24467
827.601	24258
827.741	24125
827.88	24144
828.02	24057
828.159	24144
828.298	24277
828.437	24266
828.577	24106
828.716	24251
828.855	24197
828.994	23965
829.134	23874
829.273	23904
829.412	23977
829.551	23893
829.69	23821
829.829	23821
829.968	23935
830.107	23988
830.246	23908
830.385	23805
830.524	23897
830.663	23665
830.802	23687
830.941	23474
831.08	23501
831.219	23668
831.357	23627
831.496	23767
831.635	23547
831.774	23490
831.913	23577
832.051	23395
832.19	23364
832.329	23463
832.467	23147
832.606	23216
832.744	23220
832.883	23162
833.022	23250
833.16	23208
833.299	23315
833.437	23326
833.576	23280
833.714	23379
833.852	23345
833.991	23368
834.129	23486
834.267	23425
834.406	23337
834.544	23227
834.682	23254
834.821	23227
834.959	23433
835.097	23155
835.235	23387
835.373	23349
835.511	23296
835.65	23159
835.788	23086
835.926	22991
836.064	22843
836.202	22968
836.34	23140
836.478	23136
836.615	23143
836.753	23185
836.891	23372
837.029	23113
837.167	23067
837.305	22972
837.443	23029
837.58	23022
837.718	23037
837.856	23029
837.993	22927
838.131	22991
838.269	22866
838.406	22919
838.544	22771
838.681	22573
838.819	22519
838.956	22424
839.094	22451
839.231	22470
839.369	22618
839.506	22946
839.643	22736
839.781	22462
839.918	22424
840.055	22447
840.193	22325
840.33	22455
840.467	22382
840.604	22432
840.742	22694
840.879	22318
841.016	22299
841.153	22306
841.29	22500
841.427	22417
841.564	22421
841.701	22459
841.838	22303
841.975	22325
842.112	22226
842.249	22284
842.385	22249
842.522	22386
842.659	22188
842.796	22044
842.933	22188
843.069	22135
843.206	22029
843.343	22284
843.479	22234
843.616	22204
843.752	21895
843.889	21819
844.025	22074
844.162	21899
844.298	22044
844.435	21888
844.571	21846
844.708	21895
844.844	22105
844.98	22101
845.117	22147
845.253	21884
845.389	21800
845.525	21869
845.661	21808
845.798	21671
845.934	21739
846.07	21728
846.206	21759
846.342	21808
846.478	21591
846.614	21504
846.75	21431
846.886	21359
847.022	21412
847.158	21488
847.294	21477
847.429	21496
847.565	21435
847.701	21572
847.837	21119
847.972	21043
848.108	21306
848.244	21157
848.379	21051
848.515	21066
848.65	20971
848.786	20994
848.921	20937
849.057	21131
849.192	21108
849.328	21047
849.463	21138
849.598	20952
849.734	20868
849.869	20830
850.004	20811
850.14	20769
850.275	20838
850.41	20800
850.545	20826
850.68	20724
850.815	20868
850.95	20777
851.085	20891
851.22	20880
851.355	20899
851.49	20720
851.625	20849
851.76	20765
851.895	20663
852.03	20693
852.165	20705
852.299	20769
852.434	20834
852.569	20708
852.703	20716
852.838	20750
852.973	20952
853.107	20914
853.242	20712
853.376	20594
853.511	20564
853.645	20655
853.78	20800
853.914	20537
854.048	20552
854.183	20484
854.317	20651
854.451	20705
854.585	20571
854.72	20514
854.854	20655
854.988	20522
855.122	20575
855.256	20412
855.39	20579
855.524	20568
855.658	20648
855.792	20621
855.926	20518
856.06	20602
856.194	20530
856.327	20613
856.461	20549
856.595	20484
856.729	20678
856.862	20697
856.996	20670
857.13	20705
857.263	20697
857.397	20708
857.53	20537
857.664	20746
857.797	20705
857.931	20693
858.064	20659
858.197	20636
858.331	20454
858.464	20549
858.597	20511
858.731	20499
858.864	20495
858.997	20568
859.13	20522
859.263	20518
859.396	20693
859.529	20590
859.662	20571
859.795	20450
859.928	20682
860.061	20796
860.194	20731
860.327	20587
860.46	20583
860.592	20800
860.725	20670
860.858	20720
860.99	20613
861.123	20461
861.256	20476
861.388	20644
861.521	21420
861.653	20518
861.786	20332
861.918	20343
862.05	20476
862.183	20427
862.315	20514
862.447	20590
862.58	20590
862.712	20347
862.844	20199
862.976	20419
863.108	20423
863.24	20625
863.372	20400
863.504	20396
863.636	20347
863.768	20290
863.9	20313
864.032	20225
864.164	20244
864.296	20370
864.428	20431
864.559	20404
864.691	20339
864.823	20355
864.954	20259
865.086	20313
865.217	20218
865.349	20096
865.48	20301
865.612	20290
865.743	20358
865.875	20298
866.006	20157
866.137	20210
866.269	20233
866.4	20176
866.531	20161
866.662	20084
866.793	20138
866.924	20210
867.055	20100
867.186	20168
867.317	20202
867.448	20161
867.579	20039
867.71	20069
867.841	20046
867.972	20130
868.103	20081
868.233	20092
868.364	20119
868.495	20290
868.625	20450
868.756	20442
868.886	20275
869.017	20374
869.147	20484
869.278	20419
869.408	20442
869.539	20480
869.669	20438
869.799	20488
869.929	20530
870.06	20488
870.19	20712
870.32	20724
870.45	20739
870.58	20765
870.71	20857
870.84	20914
870.97	20842
871.1	20826
871.23	20998
871.36	20975
871.489	20910
871.619	20998
871.749	20998
871.879	21062
872.008	21093
872.138	21051
872.267	20895
872.397	20899
872.526	20758
872.656	20788
872.785	20823
872.915	21017
873.044	21028
873.173	21100
873.303	21020
873.432	20967
873.561	21074
873.69	21119
873.819	21077
873.948	21093
874.077	20986
874.206	20948
874.335	20990
874.464	21146
874.593	21332
874.722	21188
874.851	21298
874.979	21294
875.108	21222
875.237	21195
875.365	21157
875.494	21195
875.623	21329
875.751	21237
875.88	21264
876.008	21386
876.136	21359
876.265	21694
876.393	21816
876.521	21610
876.65	21732
876.778	21713
876.906	21618
877.034	21625
877.162	21633
877.29	21587
877.418	21671
877.546	21751
877.674	21587
877.802	21682
877.93	21656
878.058	21564
878.185	21462
878.313	21504
878.441	21542
878.568	21332
878.696	21538
878.824	21641
878.951	21587
879.079	21694
879.206	21945
879.333	21789
879.461	21671
879.588	21720
879.715	21686
879.842	21899
879.97	21736
880.097	21511
880.224	21351
880.351	21511
880.478	21302
880.605	21458
880.732	21332
880.859	21625
880.986	21428
881.112	21443
881.239	21268
881.366	21150
881.493	21047
881.619	20982
881.746	21074
881.872	21112
881.999	20925
882.125	20891
882.252	21055
882.378	20975
882.505	21066
882.631	20785
882.757	20708
882.883	20842
883.01	20701
883.136	20682
883.262	20488
883.388	20560
883.514	20716
883.64	20708
883.766	20720
883.892	20507
884.018	20507
884.143	20609
884.269	20754
884.395	20514
884.52	20389
884.646	20503
884.772	20298
884.897	20362
885.023	20400
885.148	20511
885.274	20427
885.399	20476
885.524	20347
885.65	20389
885.775	20358
885.9	20278
886.025	20488
886.15	20358
886.275	20400
886.4	20229
886.525	20347
886.65	20278
886.775	20313
886.9	20412
887.025	20419
887.149	20408
887.274	20050
887.399	20202
887.523	20130
887.648	20187
887.773	20039
887.897	20168
888.021	20229
888.146	20195
888.27	20282
888.395	20191
888.519	20149
888.643	20153
888.767	20183
888.891	20012
889.015	19959
889.139	19913
889.263	19875
889.387	20073
889.511	20107
889.635	20027
889.759	19913
889.883	20035
890.006	20008
890.13	19921
890.254	19837
890.377	19955
890.501	19807
890.624	19712
890.748	19807
890.871	19635
890.995	19537
891.118	19369
891.241	19460
891.364	19487
891.488	19624
891.611	19506
891.734	19483
891.857	19590
891.98	19575
892.103	19540
892.226	19548
892.349	19502
892.471	19259
892.594	19445
892.717	19529
892.839	19388
892.962	19472
893.085	19460
893.207	19506
893.33	19293
893.452	19324
893.575	19510
893.697	19392
893.819	19624
893.941	19597
894.064	19510
894.186	19388
894.308	19304
894.43	19537
894.552	19586
894.674	19567
894.796	19293
894.918	19362
895.04	19464
895.161	19559
895.283	19430
895.405	19331
895.526	19460
895.648	19426
895.769	19419
895.891	19552
896.012	19453
896.134	19537
896.255	19476
896.376	19392
896.498	19487
896.619	19430
896.74	19472
896.861	19472
896.982	19738
897.103	19833
897.224	19765
897.345	19677
897.466	19601
897.587	19655
897.708	19883
897.828	19765
897.949	19616
898.07	19567
898.19	19529
898.311	19746
898.431	19552
898.552	19693
898.672	19639
898.792	19788
898.913	19708
899.033	19552
899.153	19506
899.273	19400
899.393	19236
899.513	19419
899.633	19464
899.753	19388
899.873	19373
899.993	19434
900.113	19407
900.232	19377
900.352	19362
900.472	19293
900.591	19190
900.711	19335
900.83	19168
900.95	19259
901.069	19362
901.189	19175
901.308	18867
901.427	18772
901.546	18905
901.665	18928
901.784	18951
901.904	18703
902.023	18566
902.141	18464
902.26	18372
902.379	18494
902.498	18201
902.617	18247
902.735	18403
902.854	18338
902.973	18334
903.091	18011
903.21	17996
903.328	18114
903.446	17885
903.565	17908
903.683	17859
903.801	17745
903.919	17855
904.038	17802
904.156	17661
904.274	17623
904.392	17501
904.51	17539
904.627	17577
904.745	17680
904.863	17684
904.981	17341
905.098	17315
905.216	17292
905.334	17322
905.451	17349
905.569	17242
905.686	17356
905.803	17227
905.921	17090
906.038	17284
906.155	17014
906.272	17003
906.389	16915
906.506	16877
906.623	16793
906.74	16740
906.857	16672
906.974	16702
907.091	16923
907.208	16972
907.324	16790
907.441	16668
907.557	16618
907.674	16546
907.79	16462
907.907	16481
908.023	16531
908.139	16558
908.256	16508
908.372	16375
908.488	16424
908.604	16360
908.72	16173
908.836	16329
908.952	16310
909.068	16230
909.184	16341
909.3	16348
909.415	16341
909.531	16299
909.647	16036
909.762	16021
909.878	16002
909.993	15934
910.108	15972
910.224	15884
910.339	15907
910.454	15869
910.57	15842
910.685	15732
910.8	15998
910.915	15998
911.03	15800
911.145	15641
911.259	15591
911.374	15515
911.489	15504
911.604	15416
911.718	15389
911.833	15363
911.947	15241
912.062	15058
912.176	15302
912.291	15397
912.405	15397
912.519	15553
912.633	15496
912.748	15405
912.862	15291
912.976	15138
913.09	15066
913.204	15108
913.318	15112
913.431	15233
913.545	15211
913.659	15214
913.772	15013
913.886	15116
914	14883
914.113	15043
914.226	15013
914.34	15032
914.453	14933
914.566	14994
914.68	14872
914.793	14758
914.906	14705
915.019	14617
915.132	14511
915.245	14644
915.358	14587
915.47	14644
915.583	14568
915.696	14636
915.809	14678
915.921	14807
916.034	14583
916.146	14476
916.259	14480
916.371	14590
916.483	14488
916.595	14412
916.708	14396
916.82	14530
916.932	14320
917.044	14389
917.156	14336
917.268	14244
917.38	14332
917.491	14214
917.603	14298
917.715	14370
917.826	14309
917.938	14172
918.049	14115
918.161	14267
918.272	14313
918.384	14370
918.495	14164
918.606	14145
918.717	13982
918.828	14084
918.939	14027
919.05	13944
919.161	14039
919.272	13822
919.383	13883
919.494	14191
919.604	14199
919.715	13989
919.826	13860
919.936	13974
920.047	14111
920.157	14016
920.267	14225
920.378	14058
920.488	13917
920.598	14123
920.708	14290
920.818	14096
920.928	14259
921.038	14301
921.148	14145
921.258	13932
921.368	13890
921.477	13879
921.587	13731
921.697	13689
921.806	13772
921.916	13597
922.025	13472
922.134	13384
922.244	13324
922.353	13388
922.462	13400
922.571	13247
922.68	13118
922.789	12924
922.898	13080
923.007	13012
923.116	13110
923.224	13095
923.333	13023
923.442	12977
923.55	12882
923.659	12875
923.767	12886
923.876	12863
923.984	12882
924.092	12772
924.201	12802
924.309	12753
924.417	12810
924.525	12829
924.633	12669
924.741	13468
924.849	12494
924.956	12696
925.064	12639
925.172	12441
925.279	12475
925.387	12517
925.494	12475
925.602	12642
925.709	12513
925.816	12426
925.924	12414
926.031	12494
926.138	12388
926.245	12460
926.352	12277
926.459	12502
926.566	12452
926.673	12380
926.779	12247
926.886	12327
926.993	12201
927.099	12095
927.206	12041
927.312	12068
927.419	12152
927.525	12049
927.631	12114
927.737	11889
927.843	11950
927.95	11798
928.056	11946
928.162	11935
928.267	11954
928.373	12498
928.479	11988
928.585	11729
928.69	11916
928.796	11923
928.901	11786
929.007	11653
929.112	11767
929.218	11695
929.323	11657
929.428	11649
929.533	11817
929.638	11619
929.743	11566
929.848	11608
929.953	11592
930.058	11478
930.163	11265
930.267	11303
930.372	11573
930.477	11246
930.581	11558
930.685	11398
930.79	11246
930.894	11220
930.998	11147
931.103	11360
931.207	10995
931.311	10991
931.415	10877
931.519	10679
931.623	10588
