Data from test_V78500241_1358.txt Node
Date: Fri Mar 25 15:19:18 CST 2022
User: usil
Spectrometer: V785-0024
Trigger mode: 0
Integration Time (sec): 4.000000E-1
Scans to average: 1
Nonlinearity correction enabled: false
Boxcar width: 0
Storing dark spectrum: false
XAxis mode: Wavelengths
Number of Pixels in Spectrum: 1024
>>>>>Begin Spectral Data<<<<<
801.071	28192
801.214	28192
801.356	27888
801.499	27869
801.641	27660
801.783	27709
801.926	27633
802.068	27747
802.211	27808
802.353	27542
802.496	27507
802.638	27450
802.78	27466
802.923	27355
803.065	27298
803.208	27397
803.35	27515
803.492	27481
803.635	27663
803.777	27504
803.919	27641
804.061	27876
804.204	27682
804.346	27557
804.488	27538
804.63	27694
804.773	27530
804.915	27667
805.057	27610
805.199	27698
805.341	27698
805.483	27797
805.626	27629
805.768	27568
805.91	27774
806.052	27743
806.194	27728
806.336	27968
806.478	27785
806.62	27842
806.762	27960
806.904	28025
807.046	28303
807.188	28200
807.33	28139
807.472	28131
807.614	28196
807.756	28223
807.898	28025
808.04	28055
808.182	28082
808.324	27934
808.465	28101
808.607	28268
808.749	28421
808.891	28634
809.033	28634
809.174	28455
809.316	28500
809.458	28367
809.6	28462
809.741	28634
809.883	28561
810.025	28717
810.166	28641
810.308	28645
810.45	28668
810.591	28596
810.733	28584
810.875	28618
811.016	28348
811.158	28253
811.299	28603
811.441	28736
811.582	28428
811.724	28470
811.865	28401
812.007	28379
812.148	28428
812.29	28489
812.431	28546
812.573	28782
812.714	28847
812.855	28949
812.997	29113
813.138	29200
813.279	29014
813.421	28999
813.562	29029
813.703	28706
813.845	28691
813.986	28306
814.127	28215
814.268	28143
814.41	28219
814.551	28044
814.692	28204
814.833	27964
814.974	28017
815.115	28025
815.256	28021
815.397	28070
815.539	28017
815.68	27876
815.821	27922
815.962	28021
816.103	27850
816.244	27850
816.385	27591
816.526	27778
816.666	27443
816.807	27408
816.948	27572
817.089	27492
817.23	27363
817.371	27454
817.512	27397
817.653	27340
817.793	27367
817.934	27401
818.075	27466
818.216	27458
818.356	27374
818.497	27249
818.638	27184
818.778	27294
818.919	27188
819.06	27135
819.2	27325
819.341	27488
819.481	27393
819.622	27469
819.762	27713
819.903	27743
820.043	27523
820.184	27599
820.324	27568
820.465	27709
820.605	27523
820.746	27618
820.886	27427
821.026	27519
821.167	27583
821.307	27637
821.447	27477
821.588	27332
821.728	27161
821.868	27180
822.008	26918
822.149	26975
822.289	26826
822.429	26705
822.569	26640
822.709	26731
822.849	26412
822.99	26511
823.13	26393
823.27	26393
823.41	26351
823.55	26149
823.69	26271
823.83	26290
823.97	26183
824.11	26046
824.25	26073
824.389	25993
824.529	26225
824.669	26031
824.809	26126
824.949	26126
825.089	26153
825.228	26149
825.368	25925
825.508	25772
825.648	26024
825.787	25936
825.927	26062
826.067	25970
826.206	25966
826.346	25959
826.485	25993
826.625	25966
826.765	26081
826.904	25879
827.044	25712
827.183	25742
827.323	25723
827.462	25761
827.601	25628
827.741	25666
827.88	25689
828.02	25540
828.159	25620
828.298	25727
828.437	25670
828.577	25597
828.716	25871
828.855	25476
828.994	25335
829.134	25400
829.273	25339
829.412	25331
829.551	25289
829.69	25373
829.829	25282
829.968	25419
830.107	25377
830.246	25449
830.385	25236
830.524	25301
830.663	25285
830.802	25019
830.941	25031
831.08	24901
831.219	25129
831.357	25038
831.496	25221
831.635	25000
831.774	24932
831.913	24840
832.051	24863
832.19	24646
832.329	24753
832.467	24677
832.606	24677
832.744	24578
832.883	24616
833.022	24684
833.16	24719
833.299	24684
833.437	24802
833.576	24715
833.714	24738
833.852	24669
833.991	24696
834.129	24753
834.267	24806
834.406	24700
834.544	24658
834.682	24692
834.821	24578
834.959	24894
835.097	24532
835.235	24886
835.373	24661
835.511	24623
835.65	24551
835.788	24445
835.926	24372
836.064	24292
836.202	24437
836.34	24620
836.478	24730
836.615	24502
836.753	24551
836.891	24429
837.029	24525
837.167	24410
837.305	24445
837.443	24551
837.58	24330
837.718	24414
837.856	24365
837.993	24308
838.131	24186
838.269	24266
838.406	24296
838.544	24205
838.681	23904
838.819	24022
838.956	23878
839.094	23714
839.231	23847
839.369	24106
839.506	24239
839.643	24110
839.781	23771
839.918	23805
840.055	23794
840.193	23828
840.33	23722
840.467	23680
840.604	23741
840.742	24007
840.879	23562
841.016	23657
841.153	23608
841.29	23859
841.427	23722
841.564	23760
841.701	23760
841.838	23703
841.975	23558
842.112	23657
842.249	23535
842.385	23486
842.522	23760
842.659	23467
842.796	23417
842.933	23414
843.069	23387
843.206	23414
843.343	23474
843.479	23467
843.616	23452
843.752	23273
843.889	23193
844.025	23387
844.162	23220
844.298	23334
844.435	23311
844.571	23162
844.708	23307
844.844	23436
844.98	23353
845.117	23307
845.253	23208
845.389	23060
845.525	23204
845.661	23079
845.798	23033
845.934	23098
846.07	22938
846.206	23067
846.342	23003
846.478	22774
846.614	22812
846.75	22721
846.886	22683
847.022	22869
847.158	22774
847.294	22824
847.429	22740
847.565	22637
847.701	22915
847.837	22497
847.972	22348
848.108	22512
848.244	22516
848.379	22314
848.515	22363
848.65	22306
848.786	22367
848.921	22333
849.057	22462
849.192	22344
849.328	22348
849.463	22234
849.598	22242
849.734	22188
849.869	22139
850.004	22105
850.14	22116
850.275	22025
850.41	22078
850.545	21968
850.68	21987
850.815	22109
850.95	22074
851.085	22158
851.22	22105
851.355	22211
851.49	21953
851.625	21991
851.76	22097
851.895	21892
852.03	21937
852.165	22116
852.299	22109
852.434	22185
852.569	22070
852.703	22154
852.838	22150
852.973	22150
853.107	22173
853.242	22059
853.376	21926
853.511	21732
853.645	21915
853.78	21899
853.914	21873
854.048	21880
854.183	21854
854.317	21918
854.451	22105
854.585	22036
854.72	21800
854.854	21865
854.988	21663
855.122	21778
855.256	21755
855.39	21831
855.524	21911
855.658	21789
855.792	21835
855.926	21804
856.06	21895
856.194	22040
856.327	21694
856.461	21907
856.595	21759
856.729	22029
856.862	22070
856.996	21892
857.13	21994
857.263	21972
857.397	21994
857.53	21819
857.664	21895
857.797	21983
857.931	21884
858.064	21762
858.197	21812
858.331	21930
858.464	21876
858.597	21827
858.731	21857
858.864	21869
858.997	21934
859.13	21972
859.263	21907
859.396	21975
859.529	21846
859.662	21800
859.795	21720
859.928	21736
860.061	22006
860.194	22055
860.327	21899
860.46	21960
860.592	21979
860.725	21998
860.858	22025
860.99	21991
861.123	21842
861.256	21797
861.388	21865
861.521	22375
861.653	21816
861.786	21759
861.918	21884
862.05	21701
862.183	21724
862.315	21804
862.447	21800
862.58	21827
862.712	21667
862.844	21473
862.976	21648
863.108	21739
863.24	21937
863.372	21526
863.504	21587
863.636	21511
863.768	21523
863.9	21606
864.032	21557
864.164	21534
864.296	21561
864.428	21728
864.559	21648
864.691	21637
864.823	21542
864.954	21545
865.086	21519
865.217	21389
865.349	21500
865.48	21431
865.612	21374
865.743	21637
865.875	21416
866.006	21473
866.137	21557
866.269	21488
866.4	21530
866.531	21222
866.662	21298
866.793	21492
866.924	21264
867.055	21496
867.186	21466
867.317	21260
867.448	21279
867.579	21443
867.71	21306
867.841	21321
867.972	21325
868.103	21386
868.233	21504
868.364	21405
868.495	21561
868.625	21591
868.756	21774
868.886	21477
869.017	21778
869.147	21652
869.278	21675
869.408	21671
869.539	21534
869.669	21671
869.799	21682
869.929	21835
870.06	21770
870.19	21968
870.32	21873
870.45	21956
870.58	22029
870.71	22173
870.84	21968
870.97	21979
871.1	22002
871.23	22223
871.36	22261
871.489	22036
871.619	22177
871.749	22215
871.879	22158
872.008	22337
872.138	22166
872.267	22128
872.397	22188
872.526	22044
872.656	22067
872.785	22204
872.915	22268
873.044	22257
873.173	22188
873.303	22280
873.432	22314
873.561	22295
873.69	22162
873.819	22226
873.948	22246
874.077	22303
874.206	22272
874.335	22295
874.464	22424
874.593	22535
874.722	22352
874.851	22462
874.979	22478
875.108	22550
875.237	22436
875.365	22344
875.494	22447
875.623	22443
875.751	22363
875.88	22440
876.008	22500
876.136	22588
876.265	22812
876.393	22900
876.521	23025
876.65	22904
876.778	22824
876.906	22672
877.034	22634
877.162	22915
877.29	22885
877.418	22809
877.546	22820
877.674	22831
877.802	22797
877.93	22896
878.058	22767
878.185	22683
878.313	22698
878.441	22854
878.568	22508
878.696	22679
878.824	22835
878.951	22858
879.079	22869
879.206	22980
879.333	22919
879.461	22694
879.588	22896
879.715	22881
879.842	23140
879.97	22919
880.097	22588
880.224	22607
880.351	22687
880.478	22698
880.605	22645
880.732	22615
880.859	22953
880.986	22554
881.112	22596
881.239	22489
881.366	22299
881.493	22185
881.619	22154
881.746	22341
881.872	22097
881.999	22051
882.125	22188
882.252	22200
882.378	22063
882.505	22223
882.631	21972
882.757	21930
882.883	21926
883.01	21964
883.136	21930
883.262	21778
883.388	21720
883.514	21793
883.64	21907
883.766	21755
883.892	21633
884.018	21717
884.143	21857
884.269	21937
884.395	21538
884.52	21625
884.646	21545
884.772	21504
884.897	21393
885.023	21625
885.148	21576
885.274	21629
885.399	21477
885.524	21561
885.65	21526
885.775	21469
885.9	21466
886.025	21686
886.15	21679
886.275	21443
886.4	21386
886.525	21473
886.65	21481
886.775	21473
886.9	21720
887.025	21778
887.149	21492
887.274	21264
887.399	21363
887.523	21245
887.648	21359
887.773	21218
887.897	21412
888.021	21306
888.146	21192
888.27	21214
888.395	21317
888.519	21294
888.643	21321
888.767	21329
888.891	21173
889.015	21043
889.139	21233
889.263	21005
889.387	21188
889.511	21363
889.635	21226
889.759	21055
889.883	20975
890.006	20986
890.13	21108
890.254	20925
890.377	20990
890.501	20861
890.624	20796
890.748	20891
890.871	20750
890.995	20674
891.118	20693
891.241	20746
891.364	20594
891.488	20785
891.611	20617
891.734	20533
891.857	20571
891.98	20640
892.103	20678
892.226	20625
892.349	20507
892.471	20511
892.594	20541
892.717	20583
892.839	20537
892.962	20522
893.085	20613
893.207	20587
893.33	20473
893.452	20404
893.575	20602
893.697	20549
893.819	20762
893.941	20686
894.064	20568
894.186	20545
894.308	20366
894.43	20537
894.552	20545
894.674	20674
894.796	20427
894.918	20530
895.04	20537
895.161	20609
895.283	20533
895.405	20347
895.526	20457
895.648	20408
895.769	20613
895.891	20495
896.012	20701
896.134	20629
896.255	20514
896.376	20469
896.498	20609
896.619	20625
896.74	20511
896.861	20613
896.982	20811
897.103	20925
897.224	20811
897.345	20522
897.466	20689
897.587	20682
897.708	20902
897.828	20724
897.949	20556
898.07	20629
898.19	20640
898.311	20804
898.431	20598
898.552	20705
898.672	20788
898.792	20769
898.913	20727
899.033	20655
899.153	20549
899.273	20366
899.393	20522
899.513	20427
899.633	20438
899.753	20511
899.873	20355
899.993	20480
900.113	20355
900.232	20381
900.352	20336
900.472	20317
900.591	20126
900.711	20202
900.83	20183
900.95	20282
901.069	20347
901.189	20145
901.308	19955
901.427	19845
901.546	19738
901.665	19830
901.784	19742
901.904	19712
902.023	19624
902.141	19495
902.26	19343
902.379	19445
902.498	19343
902.617	19335
902.735	19293
902.854	19369
902.973	19293
903.091	19000
903.21	19065
903.328	19034
903.446	18996
903.565	18715
903.683	18837
903.801	18589
903.919	18734
904.038	18779
904.156	18506
904.274	18719
904.392	18506
904.51	18627
904.627	18460
904.745	18639
904.863	18620
904.981	18289
905.098	18266
905.216	18228
905.334	18266
905.451	18235
905.569	18254
905.686	18251
905.803	18281
905.921	17931
906.038	18106
906.155	18041
906.272	18019
906.389	18011
906.506	17813
906.623	17821
906.74	17718
906.857	17608
906.974	17676
907.091	17710
907.208	17946
907.324	17718
907.441	17729
907.557	17440
907.674	17566
907.79	17493
907.907	17589
908.023	17486
908.139	17368
908.256	17417
908.372	17345
908.488	17322
908.604	17204
908.72	17208
908.836	17155
908.952	17128
909.068	17132
909.184	17277
909.3	17204
909.415	17296
909.531	17277
909.647	16835
909.762	16923
909.878	16793
909.993	16923
910.108	16896
910.224	16828
910.339	16767
910.454	16805
910.57	16641
910.685	16660
910.8	16881
910.915	16843
911.03	16706
911.145	16470
911.259	16538
911.374	16497
911.489	16538
911.604	16325
911.718	16154
911.833	16234
911.947	16154
912.062	16059
912.176	16219
912.291	16200
912.405	16200
912.519	16325
912.633	16318
912.748	16204
912.862	16181
912.976	15983
913.09	15972
913.204	15953
913.318	16101
913.431	16078
913.545	16082
913.659	16135
913.772	15915
913.886	15857
914	15789
914.113	15949
914.226	15949
914.34	15911
914.453	15713
914.566	15865
914.68	15713
914.793	15701
914.906	15355
915.019	15408
915.132	15382
915.245	15428
915.358	15447
915.47	15382
915.583	15367
915.696	15401
915.809	15561
915.921	15625
916.034	15298
916.146	15287
916.259	15287
916.371	15378
916.483	15393
916.595	15287
916.708	15287
916.82	15146
916.932	15173
917.044	15233
917.156	15097
917.268	15077
917.38	15089
917.491	15043
917.603	15135
917.715	15108
917.826	15146
917.938	14956
918.049	14899
918.161	14975
918.272	15112
918.384	15051
918.495	14994
918.606	14876
918.717	14819
918.828	14811
918.939	14872
919.05	14674
919.161	14765
919.272	14701
919.383	14613
919.494	14788
919.604	15013
919.715	14842
919.826	14648
919.936	14762
920.047	14876
920.157	14727
920.267	14876
920.378	14823
920.488	14754
920.598	14960
920.708	15047
920.818	14811
920.928	14948
921.038	15081
921.148	14914
921.258	14640
921.368	14800
921.477	14587
921.587	14495
921.697	14385
921.806	14434
921.916	14408
922.025	14145
922.134	14259
922.244	14050
922.353	14145
922.462	14081
922.571	13970
922.68	13879
922.789	13822
922.898	13704
923.007	13742
923.116	13822
923.224	13712
923.333	13719
923.442	13582
923.55	13670
923.659	13689
923.767	13582
923.876	13540
923.984	13548
924.092	13529
924.201	13548
924.309	13548
924.417	13559
924.525	13419
924.633	13468
924.741	14259
924.849	13301
924.956	13350
925.064	13190
925.172	13160
925.279	13190
925.387	13179
925.494	13190
925.602	13308
925.709	13240
925.816	13095
925.924	13209
926.031	13156
926.138	13156
926.245	13156
926.352	13053
926.459	13171
926.566	13183
926.673	13122
926.779	12966
926.886	12989
926.993	12768
927.099	12741
927.206	12669
927.312	12707
927.419	12802
927.525	12776
927.631	12764
927.737	12631
927.843	12555
927.95	12494
928.056	12559
928.162	12677
928.267	12601
928.373	13213
928.479	12585
928.585	12414
928.69	12551
928.796	12566
928.901	12490
929.007	12338
929.112	12308
929.218	12399
929.323	12304
929.428	12285
929.533	12289
929.638	12232
929.743	12216
929.848	12308
929.953	12190
930.058	12110
930.163	11908
930.267	11969
930.372	12117
930.477	11859
930.581	12232
930.685	12045
930.79	11851
930.894	11859
930.998	11863
931.103	11939
931.207	11684
931.311	11547
931.415	11440
931.519	11212
931.623	11303
