Data from test_V78500241_1108.txt Node
Date: Fri Mar 25 15:17:34 CST 2022
User: usil
Spectrometer: V785-0024
Trigger mode: 0
Integration Time (sec): 4.000000E-1
Scans to average: 1
Nonlinearity correction enabled: false
Boxcar width: 0
Storing dark spectrum: false
XAxis mode: Wavelengths
Number of Pixels in Spectrum: 1024
>>>>>Begin Spectral Data<<<<<
801.071	28390
801.214	28143
801.356	27892
801.499	27812
801.641	27838
801.783	27732
801.926	27698
802.068	27694
802.211	27614
802.353	27641
802.496	27397
802.638	27473
802.78	27523
802.923	27214
803.065	27329
803.208	27351
803.35	27408
803.492	27507
803.635	27709
803.777	27370
803.919	27481
804.061	28074
804.204	27812
804.346	27637
804.488	27412
804.63	27641
804.773	27610
804.915	27720
805.057	27739
805.199	27713
805.341	27720
805.483	27778
805.626	27694
805.768	27667
805.91	27778
806.052	27717
806.194	27785
806.336	27880
806.478	27842
806.62	27812
806.762	28002
806.904	28135
807.046	28314
807.188	28128
807.33	28070
807.472	28242
807.614	28147
807.756	28120
807.898	28185
808.04	28116
808.182	28154
808.324	28128
808.465	28120
808.607	28322
808.749	28474
808.891	28519
809.033	28565
809.174	28466
809.316	28493
809.458	28360
809.6	28394
809.741	28565
809.883	28820
810.025	28653
810.166	28805
810.308	28816
810.45	28797
810.591	28736
810.733	28512
810.875	28512
811.016	28337
811.158	28371
811.299	28565
811.441	28622
811.582	28523
811.724	28344
811.865	28413
812.007	28333
812.148	28356
812.29	28561
812.431	28462
812.573	28771
812.714	28858
812.855	28900
812.997	29113
813.138	29258
813.279	29174
813.421	29124
813.562	29018
813.703	28888
813.845	28835
813.986	28470
814.127	28344
814.268	28147
814.41	28242
814.551	28135
814.692	28234
814.833	28006
814.974	28158
815.115	28131
815.256	28093
815.397	28143
815.539	28112
815.68	27953
815.821	27930
815.962	28002
816.103	27998
816.244	27941
816.385	27778
816.526	27736
816.666	27610
816.807	27519
816.948	27549
817.089	27629
817.23	27526
817.371	27458
817.512	27538
817.653	27344
817.793	27538
817.934	27435
818.075	27393
818.216	27439
818.356	27435
818.497	27283
818.638	27138
818.778	27252
818.919	27241
819.06	27317
819.2	27302
819.341	27488
819.481	27549
819.622	27663
819.762	27800
819.903	27652
820.043	27751
820.184	27595
820.324	27614
820.465	27789
820.605	27603
820.746	27618
820.886	27447
821.026	27564
821.167	27439
821.307	27629
821.447	27526
821.588	27504
821.728	27443
821.868	27184
822.008	26963
822.149	26872
822.289	26834
822.429	26571
822.569	26754
822.709	26663
822.849	26511
822.99	26332
823.13	26400
823.27	26377
823.41	26187
823.55	26210
823.69	26214
823.83	26225
823.97	26149
824.11	26142
824.25	26043
824.389	26024
824.529	26180
824.669	26210
824.809	26271
824.949	26187
825.089	26286
825.228	26153
825.368	26088
825.508	26031
825.648	26058
825.787	26100
825.927	26122
826.067	25974
826.206	25997
826.346	25947
826.485	26035
826.625	26043
826.765	26126
826.904	26027
827.044	25795
827.183	25807
827.323	25723
827.462	25799
827.601	25712
827.741	25833
827.88	25753
828.02	25552
828.159	25727
828.298	25883
828.437	25776
828.577	25643
828.716	25936
828.855	25628
828.994	25525
829.134	25392
829.273	25407
829.412	25525
829.551	25362
829.69	25426
829.829	25487
829.968	25514
830.107	25567
830.246	25499
830.385	25407
830.524	25339
830.663	25240
830.802	25145
830.941	25004
831.08	24977
831.219	25236
831.357	25190
831.496	25316
831.635	25114
831.774	25038
831.913	25019
832.051	24954
832.19	24787
832.329	24935
832.467	24787
832.606	24738
832.744	24692
832.883	24711
833.022	24741
833.16	24814
833.299	24894
833.437	24878
833.576	24875
833.714	24882
833.852	24875
833.991	24802
834.129	24852
834.267	24954
834.406	24852
834.544	24882
834.682	24798
834.821	24878
834.959	24932
835.097	24673
835.235	24970
835.373	24901
835.511	24973
835.65	24715
835.788	24604
835.926	24551
836.064	24528
836.202	24486
836.34	24559
836.478	24570
836.615	24684
836.753	24627
836.891	24897
837.029	24711
837.167	24642
837.305	24589
837.443	24445
837.58	24505
837.718	24616
837.856	24483
837.993	24513
838.131	24391
838.269	24315
838.406	24285
838.544	24460
838.681	24133
838.819	24129
838.956	24007
839.094	24079
839.231	24026
839.369	24197
839.506	24456
839.643	24182
839.781	23939
839.918	23863
840.055	23901
840.193	23973
840.33	23901
840.467	23901
840.604	23927
840.742	24235
840.879	23718
841.016	23790
841.153	23798
841.29	23999
841.427	23931
841.564	23870
841.701	23961
841.838	23661
841.975	23722
842.112	23821
842.249	23767
842.385	23478
842.522	23813
842.659	23798
842.796	23668
842.933	23649
843.069	23543
843.206	23642
843.343	23623
843.479	23737
843.616	23589
843.752	23478
843.889	23501
844.025	23695
844.162	23425
844.298	23463
844.435	23509
844.571	23592
844.708	23398
844.844	23676
844.98	23429
845.117	23539
845.253	23391
845.389	23280
845.525	23379
845.661	23254
845.798	23242
845.934	23200
846.07	23064
846.206	23060
846.342	23197
846.478	23246
846.614	22968
846.75	22782
846.886	22930
847.022	22790
847.158	22915
847.294	22900
847.429	22752
847.565	22786
847.701	23090
847.837	22618
847.972	22683
848.108	22622
848.244	22561
848.379	22504
848.515	22554
848.65	22508
848.786	22462
848.921	22557
849.057	22550
849.192	22596
849.328	22577
849.463	22470
849.598	22447
849.734	22375
849.869	22306
850.004	22246
850.14	22219
850.275	22265
850.41	22154
850.545	22109
850.68	22344
850.815	22276
850.95	22272
851.085	22390
851.22	22333
851.355	22135
851.49	22192
851.625	22181
851.76	22086
851.895	22063
852.03	22090
852.165	22299
852.299	22287
852.434	22341
852.569	22177
852.703	22253
852.838	22333
852.973	22405
853.107	22333
853.242	22226
853.376	22097
853.511	22025
853.645	22002
853.78	22093
853.914	22139
854.048	21991
854.183	21907
854.317	22131
854.451	22249
854.585	22093
854.72	22055
854.854	22124
854.988	21880
855.122	22067
855.256	21884
855.39	22048
855.524	21987
855.658	22063
855.792	22105
855.926	22131
856.06	22025
856.194	22177
856.327	22040
856.461	21873
856.595	21956
856.729	22067
856.862	22150
856.996	22150
857.13	22196
857.263	22074
857.397	22211
857.53	22093
857.664	22013
857.797	22090
857.931	22147
858.064	22150
858.197	22200
858.331	22029
858.464	21907
858.597	21949
858.731	22040
858.864	22010
858.997	22025
859.13	21964
859.263	22067
859.396	22128
859.529	22006
859.662	21911
859.795	22048
859.928	21903
860.061	22017
860.194	22314
860.327	22116
860.46	22158
860.592	22219
860.725	22154
860.858	22162
860.99	22082
861.123	22040
861.256	22051
861.388	22124
861.521	22782
861.653	21922
861.786	21854
861.918	21873
862.05	21895
862.183	21838
862.315	21987
862.447	22139
862.58	22078
862.712	21751
862.844	21743
862.976	21884
863.108	21732
863.24	22295
863.372	21679
863.504	21690
863.636	21743
863.768	21808
863.9	21743
864.032	21557
864.164	21755
864.296	21709
864.428	21953
864.559	21846
864.691	21899
864.823	21717
864.954	21701
865.086	21701
865.217	21580
865.349	21576
865.48	21606
865.612	21641
865.743	21705
865.875	21648
866.006	21663
866.137	21599
866.269	21618
866.4	21534
866.531	21545
866.662	21583
866.793	21504
866.924	21606
867.055	21652
867.186	21625
867.317	21637
867.448	21473
867.579	21454
867.71	21439
867.841	21443
867.972	21492
868.103	21523
868.233	21583
868.364	21595
868.495	21698
868.625	21793
868.756	21888
868.886	21724
869.017	21876
869.147	21854
869.278	21865
869.408	21808
869.539	21755
869.669	21865
869.799	21816
869.929	21861
870.06	21918
870.19	22036
870.32	22200
870.45	21979
870.58	22116
870.71	22249
870.84	22261
870.97	22280
871.1	22185
871.23	22333
871.36	22341
871.489	22318
871.619	22352
871.749	22341
871.879	22577
872.008	22550
872.138	22436
872.267	22428
872.397	22246
872.526	22238
872.656	22295
872.785	22234
872.915	22466
873.044	22367
873.173	22474
873.303	22546
873.432	22310
873.561	22603
873.69	22417
873.819	22367
873.948	22455
874.077	22382
874.206	22402
874.335	22538
874.464	22656
874.593	22546
874.722	22634
874.851	22759
874.979	22683
875.108	22618
875.237	22653
875.365	22516
875.494	22607
875.623	22683
875.751	22489
875.88	22630
876.008	22847
876.136	22774
876.265	22923
876.393	23128
876.521	23220
876.65	23083
876.778	23060
876.906	23067
877.034	22877
877.162	23044
877.29	23006
877.418	22835
877.546	23006
877.674	23025
877.802	22923
877.93	22984
878.058	22839
878.185	22843
878.313	22915
878.441	22953
878.568	22778
878.696	22934
878.824	23029
878.951	23155
879.079	23143
879.206	23277
879.333	23003
879.461	22904
879.588	23022
879.715	23258
879.842	23284
879.97	23113
880.097	22763
880.224	22752
880.351	22850
880.478	22862
880.605	22702
880.732	22816
880.859	22965
880.986	22797
881.112	22873
881.239	22653
881.366	22561
881.493	22500
881.619	22440
881.746	22367
881.872	22306
881.999	22295
882.125	22200
882.252	22390
882.378	22409
882.505	22436
882.631	22276
882.757	22063
882.883	22082
883.01	22086
883.136	22029
883.262	21892
883.388	21751
883.514	22131
883.64	22013
883.766	22002
883.892	21827
884.018	21846
884.143	22002
884.269	22090
884.395	21774
884.52	21694
884.646	21808
884.772	21618
884.897	21622
885.023	21728
885.148	21739
885.274	21762
885.399	21759
885.524	21694
885.65	21743
885.775	21720
885.9	21698
886.025	21774
886.15	21732
886.275	21652
886.4	21435
886.525	21701
886.65	21591
886.775	21553
886.9	21808
887.025	21827
887.149	21523
887.274	21367
887.399	21481
887.523	21393
887.648	21393
887.773	21405
887.897	21523
888.021	21374
888.146	21279
888.27	21428
888.395	21557
888.519	21279
888.643	21557
888.767	21496
888.891	21264
889.015	21256
889.139	21363
889.263	21161
889.387	21367
889.511	21393
889.635	21279
889.759	21146
889.883	21207
890.006	21287
890.13	21249
890.254	21112
890.377	21169
890.501	21005
890.624	20895
890.748	20990
890.871	21017
890.995	20895
891.118	20853
891.241	20769
891.364	20731
891.488	20880
891.611	20830
891.734	20899
891.857	20929
891.98	20746
892.103	20785
892.226	20815
892.349	20792
892.471	20522
892.594	20727
892.717	20796
892.839	20655
892.962	20617
893.085	20762
893.207	20853
893.33	20609
893.452	20667
893.575	20701
893.697	20693
893.819	20819
893.941	20861
894.064	20796
894.186	20575
894.308	20598
894.43	20727
894.552	20933
894.674	20750
894.796	20667
894.918	20667
895.04	20659
895.161	20758
895.283	20705
895.405	20629
895.526	20590
895.648	20545
895.769	20731
895.891	20682
896.012	20621
896.134	20788
896.255	20693
896.376	20564
896.498	20826
896.619	20689
896.74	20670
896.861	20845
896.982	20941
897.103	21005
897.224	20906
897.345	20925
897.466	20887
897.587	20769
897.708	21055
897.828	20872
897.949	20811
898.07	20716
898.19	20785
898.311	20921
898.431	20826
898.552	20876
898.672	20944
898.792	20910
898.913	20906
899.033	20834
899.153	20629
899.273	20571
899.393	20629
899.513	20507
899.633	20609
899.753	20609
899.873	20469
899.993	20609
900.113	20530
900.232	20507
900.352	20537
900.472	20408
900.591	20324
900.711	20431
900.83	20267
900.95	20541
901.069	20545
901.189	20275
901.308	20046
901.427	20043
901.546	19967
901.665	20005
901.784	20043
901.904	19772
902.023	19715
902.141	19510
902.26	19441
902.379	19506
902.498	19453
902.617	19324
902.735	19533
902.854	19453
902.973	19354
903.091	19187
903.21	19103
903.328	19076
903.446	18993
903.565	18924
903.683	18993
903.801	18783
903.919	18909
904.038	18829
904.156	18650
904.274	18760
904.392	18741
904.51	18566
904.627	18563
904.745	18642
904.863	18738
904.981	18601
905.098	18327
905.216	18353
905.334	18311
905.451	18388
905.569	18330
905.686	18395
905.803	18372
905.921	18205
906.038	18117
906.155	18110
906.272	17999
906.389	18053
906.506	17824
906.623	17897
906.74	17843
906.857	17824
906.974	17733
907.091	17984
907.208	17992
907.324	17897
907.441	17805
907.557	17619
907.674	17615
907.79	17551
907.907	17653
908.023	17623
908.139	17524
908.256	17551
908.372	17455
908.488	17459
908.604	17258
908.72	17292
908.836	17429
908.952	17303
909.068	17227
909.184	17417
909.3	17284
909.415	17345
909.531	17273
909.647	17003
909.762	17025
909.878	17067
909.993	17029
910.108	16976
910.224	16953
910.339	17025
910.454	16869
910.57	16816
910.685	16786
910.8	17010
910.915	16995
911.03	16847
911.145	16721
911.259	16630
911.374	16500
911.489	16493
911.604	16596
911.718	16405
911.833	16390
911.947	16238
912.062	16177
912.176	16306
912.291	16276
912.405	16413
912.519	16474
912.633	16485
912.748	16428
912.862	16253
912.976	16055
913.09	16086
913.204	16120
913.318	16192
913.431	16268
913.545	16204
913.659	16226
913.772	16154
913.886	15994
914	16032
914.113	15953
914.226	16109
914.34	16048
914.453	15778
914.566	16040
914.68	15876
914.793	15937
914.906	15675
915.019	15542
915.132	15530
915.245	15549
915.358	15500
915.47	15557
915.583	15523
915.696	15561
915.809	15572
915.921	15656
916.034	15492
916.146	15435
916.259	15355
916.371	15549
916.483	15488
916.595	15420
916.708	15428
916.82	15462
916.932	15321
917.044	15226
917.156	15287
917.268	15218
917.38	15233
917.491	15074
917.603	15268
917.715	15272
917.826	15211
917.938	15036
918.049	15058
918.161	15176
918.272	15302
918.384	15268
918.495	15176
918.606	15005
918.717	14941
918.828	14872
918.939	14956
919.05	14956
919.161	14891
919.272	14708
919.383	14792
919.494	14971
919.604	15070
919.715	14921
919.826	14716
919.936	14777
920.047	14872
920.157	15032
920.267	15047
920.378	14937
920.488	14933
920.598	15081
920.708	15142
920.818	15074
920.928	15055
921.038	15180
921.148	15093
921.258	14876
921.368	14746
921.477	14602
921.587	14648
921.697	14450
921.806	14636
921.916	14484
922.025	14320
922.134	14195
922.244	14180
922.353	14271
922.462	14168
922.571	14050
922.68	13932
922.789	13909
922.898	13913
923.007	13940
923.116	13826
923.224	13849
923.333	13913
923.442	13704
923.55	13670
923.659	13753
923.767	13849
923.876	13647
923.984	13734
924.092	13567
924.201	13632
924.309	13540
924.417	13639
924.525	13540
924.633	13548
924.741	14522
924.849	13430
924.956	13426
925.064	13293
925.172	13221
925.279	13206
925.387	13312
925.494	13343
925.602	13495
925.709	13312
925.816	13168
925.924	13209
926.031	13362
926.138	13202
926.245	13335
926.352	13118
926.459	13282
926.566	13297
926.673	13088
926.779	13038
926.886	13034
926.993	12966
927.099	12848
927.206	12798
927.312	12863
927.419	12867
927.525	12802
927.631	12897
927.737	12749
927.843	12684
927.95	12563
928.056	12650
928.162	12665
928.267	12692
928.373	13187
928.479	12749
928.585	12544
928.69	12582
928.796	12528
928.901	12445
929.007	12346
929.112	12395
929.218	12486
929.323	12266
929.428	12410
929.533	12448
929.638	12292
929.743	12369
929.848	12399
929.953	12384
930.058	12163
930.163	11988
930.267	12026
930.372	12292
930.477	12026
930.581	12254
930.685	12038
930.79	11931
930.894	11984
930.998	11866
931.103	11992
931.207	11726
931.311	11604
931.415	11398
931.519	11284
931.623	11322
