Data from test_V78500241_1719.txt Node
Date: Fri Mar 25 15:21:49 CST 2022
User: usil
Spectrometer: V785-0024
Trigger mode: 0
Integration Time (sec): 4.000000E-1
Scans to average: 1
Nonlinearity correction enabled: false
Boxcar width: 0
Storing dark spectrum: false
XAxis mode: Wavelengths
Number of Pixels in Spectrum: 1024
>>>>>Begin Spectral Data<<<<<
801.071	27968
801.214	27835
801.356	27507
801.499	27530
801.641	27222
801.783	27348
801.926	27526
802.068	27401
802.211	27298
802.353	27093
802.496	27009
802.638	26967
802.78	26895
802.923	26921
803.065	27024
803.208	26910
803.35	27032
803.492	27104
803.635	27119
803.777	27108
803.919	27096
804.061	27439
804.204	27142
804.346	27138
804.488	27188
804.63	27230
804.773	27287
804.915	27199
805.057	27332
805.199	27199
805.341	27287
805.483	27469
805.626	27420
805.768	27218
805.91	27313
806.052	27370
806.194	27268
806.336	27496
806.478	27393
806.62	27401
806.762	27462
806.904	27656
807.046	27819
807.188	27850
807.33	27724
807.472	27857
807.614	27637
807.756	27644
807.898	27671
808.04	27614
808.182	27542
808.324	27637
808.465	27622
808.607	27812
808.749	28002
808.891	27979
809.033	28139
809.174	28040
809.316	27831
809.458	27918
809.6	27930
809.741	28048
809.883	28147
810.025	28006
810.166	28200
810.308	28177
810.45	28162
810.591	28177
810.733	27930
810.875	27819
811.016	27831
811.158	27899
811.299	28025
811.441	28147
811.582	28025
811.724	27789
811.865	27949
812.007	27934
812.148	28086
812.29	28063
812.431	28097
812.573	28234
812.714	28348
812.855	28451
812.997	28466
813.138	28554
813.279	28546
813.421	28489
813.562	28455
813.703	28192
813.845	28196
813.986	28029
814.127	27804
814.268	27534
814.41	27648
814.551	27587
814.692	27568
814.833	27618
814.974	27614
815.115	27766
815.256	27576
815.397	27386
815.539	27466
815.68	27435
815.821	27367
815.962	27473
816.103	27526
816.244	27188
816.385	27214
816.526	27287
816.666	27024
816.807	26861
816.948	27039
817.089	27020
817.23	26963
817.371	27058
817.512	26998
817.653	26864
817.793	26777
817.934	26853
818.075	26956
818.216	26796
818.356	26914
818.497	26773
818.638	26549
818.778	26644
818.919	26754
819.06	26659
819.2	26842
819.341	26975
819.481	26952
819.622	27051
819.762	27138
819.903	27112
820.043	27020
820.184	27146
820.324	27001
820.465	27028
820.605	27005
820.746	27104
820.886	26830
821.026	26994
821.167	27096
821.307	27024
821.447	26940
821.588	26948
821.728	26750
821.868	26537
822.008	26438
822.149	26385
822.289	26495
822.429	26176
822.569	25993
822.709	26005
822.849	25845
822.99	25883
823.13	25875
823.27	25890
823.41	25643
823.55	25643
823.69	25753
823.83	25609
823.97	25677
824.11	25616
824.25	25514
824.389	25430
824.529	25556
824.669	25426
824.809	25632
824.949	25575
825.089	25658
825.228	25453
825.368	25274
825.508	25381
825.648	25415
825.787	25537
825.927	25483
826.067	25377
826.206	25426
826.346	25453
826.485	25445
826.625	25274
826.765	25544
826.904	25495
827.044	25118
827.183	25160
827.323	25126
827.462	25156
827.601	25095
827.741	25099
827.88	25107
828.02	24981
828.159	25027
828.298	25164
828.437	25076
828.577	25168
828.716	25110
828.855	25023
828.994	24779
829.134	24852
829.273	24829
829.412	24677
829.551	24833
829.69	24688
829.829	24905
829.968	24924
830.107	24878
830.246	24806
830.385	24844
830.524	24741
830.663	24677
830.802	24654
830.941	24407
831.08	24376
831.219	24429
831.357	24464
831.496	24844
831.635	24486
831.774	24369
831.913	24258
832.051	24239
832.19	24251
832.329	24178
832.467	24091
832.606	24038
832.744	23980
832.883	24140
833.022	24114
833.16	24133
833.299	24053
833.437	24167
833.576	24205
833.714	24129
833.852	24220
833.991	24228
834.129	24254
834.267	24308
834.406	24235
834.544	24209
834.682	24251
834.821	24182
834.959	24258
835.097	24144
835.235	24266
835.373	24155
835.511	24194
835.65	24072
835.788	24049
835.926	23870
836.064	23790
836.202	23882
836.34	23999
836.478	24224
836.615	24098
836.753	24041
836.891	24007
837.029	24011
837.167	23882
837.305	23847
837.443	23935
837.58	23939
837.718	23999
837.856	23912
837.993	23733
838.131	23840
838.269	23836
838.406	23657
838.544	23760
838.681	23516
838.819	23486
838.956	23345
839.094	23231
839.231	23406
839.369	23493
839.506	23672
839.643	23596
839.781	23440
839.918	23250
840.055	23463
840.193	23288
840.33	23288
840.467	23322
840.604	23235
840.742	23558
840.879	23067
841.016	23071
841.153	23098
841.29	23318
841.427	23265
841.564	23280
841.701	23318
841.838	23280
841.975	23147
842.112	23208
842.249	23041
842.385	22984
842.522	23151
842.659	22984
842.796	22881
842.933	22866
843.069	22949
843.206	22999
843.343	23064
843.479	23056
843.616	23048
843.752	22793
843.889	22790
844.025	22835
844.162	22763
844.298	22862
844.435	22812
844.571	22752
844.708	22866
844.844	22968
844.98	22858
845.117	22877
845.253	22820
845.389	22611
845.525	22603
845.661	22653
845.798	22599
845.934	22538
846.07	22443
846.206	22443
846.342	22656
846.478	22382
846.614	22287
846.75	22200
846.886	22128
847.022	22207
847.158	22299
847.294	22143
847.429	22329
847.565	22291
847.701	22337
847.837	21956
847.972	22070
848.108	22036
848.244	22029
848.379	21880
848.515	21911
848.65	21759
848.786	21747
848.921	21918
849.057	21903
849.192	21888
849.328	21835
849.463	21873
849.598	21918
849.734	21641
849.869	21717
850.004	21587
850.14	21698
850.275	21644
850.41	21519
850.545	21530
850.68	21576
850.815	21675
850.95	21496
851.085	21789
851.22	21629
851.355	21671
851.49	21583
851.625	21492
851.76	21526
851.895	21428
852.03	21401
852.165	21549
852.299	21599
852.434	21549
852.569	21583
852.703	21583
852.838	21591
852.973	21701
853.107	21591
853.242	21606
853.376	21488
853.511	21321
853.645	21389
853.78	21564
853.914	21462
854.048	21370
854.183	21389
854.317	21473
854.451	21469
854.585	21439
854.72	21340
854.854	21439
854.988	21321
855.122	21363
855.256	21351
855.39	21268
855.524	21530
855.658	21477
855.792	21420
855.926	21466
856.06	21374
856.194	21561
856.327	21272
856.461	21428
856.595	21291
856.729	21450
856.862	21469
856.996	21526
857.13	21511
857.263	21431
857.397	21564
857.53	21401
857.664	21469
857.797	21458
857.931	21561
858.064	21420
858.197	21538
858.331	21378
858.464	21424
858.597	21348
858.731	21515
858.864	21367
858.997	21397
859.13	21367
859.263	21386
859.396	21405
859.529	21428
859.662	21431
859.795	21340
859.928	21477
860.061	21583
860.194	21637
860.327	21355
860.46	21370
860.592	21492
860.725	21458
860.858	21583
860.99	21386
861.123	21233
861.256	21412
861.388	21363
861.521	22105
861.653	21298
861.786	21230
861.918	21340
862.05	21424
862.183	21329
862.315	21405
862.447	21386
862.58	21298
862.712	21188
862.844	21024
862.976	21207
863.108	21093
863.24	21507
863.372	21192
863.504	21211
863.636	21135
863.768	21093
863.9	21180
864.032	21161
864.164	21074
864.296	21108
864.428	21264
864.559	21272
864.691	21214
864.823	21146
864.954	20998
865.086	21135
865.217	21093
865.349	21013
865.48	21039
865.612	20994
865.743	21100
865.875	21112
866.006	21070
866.137	21062
866.269	20998
866.4	20994
866.531	20876
866.662	21036
866.793	20910
866.924	21062
867.055	20914
867.186	20979
867.317	20815
867.448	20933
867.579	20921
867.71	20876
867.841	20849
867.972	21024
868.103	21047
868.233	21032
868.364	20944
868.495	21093
868.625	21184
868.756	21325
868.886	21188
869.017	21214
869.147	21272
869.278	21439
869.408	21195
869.539	21119
869.669	21157
869.799	21233
869.929	21298
870.06	21249
870.19	21538
870.32	21526
870.45	21538
870.58	21614
870.71	21637
870.84	21629
870.97	21523
871.1	21553
871.23	21701
871.36	21827
871.489	21587
871.619	21846
871.749	21797
871.879	21770
872.008	21911
872.138	21743
872.267	21770
872.397	21660
872.526	21595
872.656	21648
872.785	21766
872.915	21785
873.044	21895
873.173	21751
873.303	21838
873.432	21903
873.561	21880
873.69	21899
873.819	21770
873.948	21987
874.077	21766
874.206	21743
874.335	21759
874.464	21861
874.593	22051
874.722	21998
874.851	22097
874.979	22067
875.108	22029
875.237	22067
875.365	21934
875.494	22128
875.623	22169
875.751	22021
875.88	22093
876.008	22246
876.136	22333
876.265	22371
876.393	22470
876.521	22626
876.65	22462
876.778	22470
876.906	22382
877.034	22421
877.162	22363
877.29	22318
877.418	22440
877.546	22306
877.674	22375
877.802	22405
877.93	22386
878.058	22405
878.185	22268
878.313	22371
878.441	22348
878.568	22261
878.696	22413
878.824	22398
878.951	22455
879.079	22485
879.206	22767
879.333	22451
879.461	22360
879.588	22542
879.715	22653
879.842	22653
879.97	22451
880.097	22162
880.224	22181
880.351	22257
880.478	22230
880.605	22147
880.732	22154
880.859	22436
880.986	22276
881.112	22200
881.239	21934
881.366	21922
881.493	21880
881.619	21709
881.746	21789
881.872	21694
881.999	21766
882.125	21766
882.252	21827
882.378	21717
882.505	21884
882.631	21686
882.757	21435
882.883	21667
883.01	21412
883.136	21428
883.262	21329
883.388	21203
883.514	21561
883.64	21591
883.766	21431
883.892	21329
884.018	21325
884.143	21412
884.269	21534
884.395	21154
884.52	21028
884.646	21195
884.772	20994
884.897	21116
885.023	21161
885.148	21272
885.274	21199
885.399	21104
885.524	21192
885.65	21096
885.775	21154
885.9	21058
886.025	21146
886.15	21127
886.275	21001
886.4	20929
886.525	21142
886.65	20963
886.775	21085
886.9	21203
887.025	21351
887.149	21146
887.274	20986
887.399	20811
887.523	21085
887.648	20929
887.773	20830
887.897	21017
888.021	20868
888.146	20895
888.27	21047
888.395	21104
888.519	20838
888.643	20914
888.767	20899
888.891	20663
889.015	20651
889.139	20823
889.263	20701
889.387	20834
889.511	20880
889.635	20724
889.759	20625
889.883	20678
890.006	20613
890.13	20815
890.254	20579
890.377	20689
890.501	20480
890.624	20358
890.748	20499
890.871	20476
890.995	20290
891.118	20107
891.241	20248
891.364	20256
891.488	20419
891.611	20183
891.734	20324
891.857	20313
891.98	20294
892.103	20240
892.226	20278
892.349	20180
892.471	20081
892.594	20111
892.717	20199
892.839	20168
892.962	20149
893.085	20153
893.207	20195
893.33	20065
893.452	20046
893.575	20107
893.697	20149
893.819	20240
893.941	20290
894.064	20305
894.186	20001
894.308	20046
894.43	20210
894.552	20168
894.674	20252
894.796	20043
894.918	20096
895.04	20119
895.161	20195
895.283	20100
895.405	20077
895.526	20062
895.648	20134
895.769	20214
895.891	20054
896.012	20103
896.134	20149
896.255	20187
896.376	20149
896.498	20130
896.619	20244
896.74	20164
896.861	20180
896.982	20454
897.103	20644
897.224	20476
897.345	20389
897.466	20233
897.587	20427
897.708	20476
897.828	20320
897.949	20298
898.07	20267
898.19	20145
898.311	20377
898.431	20275
898.552	20381
898.672	20362
898.792	20370
898.913	20381
899.033	20225
899.153	20187
899.273	20149
899.393	20138
899.513	20065
899.633	20103
899.753	20020
899.873	20031
899.993	20050
900.113	19959
900.232	20161
900.352	20073
900.472	19906
900.591	19883
900.711	19890
900.83	19906
900.95	19860
901.069	20046
901.189	19769
901.308	19552
901.427	19415
901.546	19525
901.665	19624
901.784	19369
901.904	19194
902.023	19350
902.141	19091
902.26	18973
902.379	19031
902.498	19027
902.617	18935
902.735	19031
902.854	18943
902.973	18916
903.091	18715
903.21	18639
903.328	18646
903.446	18452
903.565	18502
903.683	18540
903.801	18334
903.919	18376
904.038	18517
904.156	18159
904.274	18205
904.392	18060
904.51	18155
904.627	18194
904.745	18232
904.863	18262
904.981	18049
905.098	17882
905.216	17973
905.334	17935
905.451	17824
905.569	17931
905.686	17958
905.803	17889
905.921	17589
906.038	17729
906.155	17649
906.272	17623
906.389	17668
906.506	17471
906.623	17436
906.74	17455
906.857	17288
906.974	17356
907.091	17490
907.208	17573
907.324	17493
907.441	17398
907.557	17155
907.674	17181
907.79	17064
907.907	17197
908.023	17193
908.139	17143
908.256	17178
908.372	17083
908.488	17045
908.604	16968
908.72	17010
908.836	16961
908.952	16805
909.068	16965
909.184	16972
909.3	16915
909.415	16885
909.531	16744
909.647	16626
909.762	16569
909.878	16561
909.993	16599
910.108	16558
910.224	16569
910.339	16527
910.454	16459
910.57	16459
910.685	16344
910.8	16542
910.915	16596
911.03	16436
911.145	16230
911.259	16154
911.374	16188
911.489	16071
911.604	16105
911.718	15899
911.833	16032
911.947	15774
912.062	15736
912.176	15930
912.291	15979
912.405	15846
912.519	16002
912.633	16109
912.748	15941
912.862	15789
912.976	15743
913.09	15644
913.204	15671
913.318	15823
913.431	15869
913.545	15903
913.659	15751
913.772	15637
913.886	15526
914	15504
914.113	15603
914.226	15637
914.34	15504
914.453	15401
914.566	15538
914.68	15348
914.793	15302
914.906	15313
915.019	15138
915.132	15184
915.245	15150
915.358	15131
915.47	15241
915.583	15192
915.696	15203
915.809	15211
915.921	15249
916.034	15108
916.146	14998
916.259	14967
916.371	15218
916.483	15028
916.595	15013
916.708	15032
916.82	14925
916.932	14971
917.044	14994
917.156	14864
917.268	14697
917.38	14834
917.491	14838
917.603	14785
917.715	14705
917.826	14937
917.938	14651
918.049	14583
918.161	14651
918.272	14868
918.384	14872
918.495	14602
918.606	14594
918.717	14518
918.828	14625
918.939	14560
919.05	14381
919.161	14454
919.272	14370
919.383	14282
919.494	14678
919.604	14746
919.715	14526
919.826	14434
919.936	14492
920.047	14579
920.157	14545
920.267	14636
920.378	14503
920.488	14370
920.598	14575
920.708	14731
920.818	14674
920.928	14621
921.038	14849
921.148	14667
921.258	14511
921.368	14328
921.477	14298
921.587	14256
921.697	14126
921.806	14214
921.916	14077
922.025	13811
922.134	13887
922.244	13822
922.353	13856
922.462	13784
922.571	13700
922.68	13499
922.789	13499
922.898	13567
923.007	13468
923.116	13590
923.224	13499
923.333	13487
923.442	13362
923.55	13403
923.659	13422
923.767	13453
923.876	13381
923.984	13457
924.092	13255
924.201	13251
924.309	13312
924.417	13285
924.525	13221
924.633	13232
924.741	14050
924.849	12977
924.956	13042
925.064	12943
925.172	12913
925.279	12905
925.387	13019
925.494	12973
925.602	13004
925.709	12989
925.816	12837
925.924	12966
926.031	12958
926.138	12958
926.245	12943
926.352	12711
926.459	12928
926.566	12920
926.673	12817
926.779	12642
926.886	12654
926.993	12540
927.099	12502
927.206	12437
927.312	12494
927.419	12540
927.525	12464
927.631	12475
927.737	12376
927.843	12304
927.95	12323
928.056	12342
928.162	12418
928.267	12323
928.373	13114
928.479	12391
928.585	12133
928.69	12304
928.796	12266
928.901	12247
929.007	12110
929.112	12224
929.218	12133
929.323	12049
929.428	12038
929.533	12167
929.638	12034
929.743	12041
929.848	11950
929.953	11931
930.058	11980
930.163	11668
930.267	11699
930.372	11836
930.477	11733
930.581	11965
930.685	11790
930.79	11573
930.894	11680
930.998	11638
931.103	11737
931.207	11356
931.311	11277
931.415	11204
931.519	11079
931.623	10908
