Data from test_V78500241_896.txt Node
Date: Fri Mar 25 15:16:05 CST 2022
User: usil
Spectrometer: V785-0024
Trigger mode: 0
Integration Time (sec): 4.000000E-1
Scans to average: 1
Nonlinearity correction enabled: false
Boxcar width: 0
Storing dark spectrum: false
XAxis mode: Wavelengths
Number of Pixels in Spectrum: 1024
>>>>>Begin Spectral Data<<<<<
801.071	28284
801.214	28147
801.356	28017
801.499	27876
801.641	27644
801.783	27888
801.926	27979
802.068	27682
802.211	27762
802.353	27686
802.496	27443
802.638	27401
802.78	27534
802.923	27553
803.065	27458
803.208	27405
803.35	27500
803.492	27564
803.635	27648
803.777	27641
803.919	27530
804.061	27899
804.204	27705
804.346	27564
804.488	27568
804.63	27751
804.773	27637
804.915	27812
805.057	27743
805.199	27690
805.341	27766
805.483	27785
805.626	27641
805.768	27667
805.91	27747
806.052	27732
806.194	27660
806.336	27861
806.478	27812
806.62	27926
806.762	27865
806.904	28230
807.046	28234
807.188	28242
807.33	28154
807.472	28299
807.614	28105
807.756	28200
807.898	28143
808.04	28036
808.182	28048
808.324	28086
808.465	28109
808.607	28348
808.749	28489
808.891	28577
809.033	28634
809.174	28470
809.316	28607
809.458	28592
809.6	28512
809.741	28538
809.883	28538
810.025	28729
810.166	28721
810.308	28752
810.45	28577
810.591	28668
810.733	28542
810.875	28348
811.016	28466
811.158	28322
811.299	28504
811.441	28603
811.582	28618
811.724	28561
811.865	28478
812.007	28462
812.148	28485
812.29	28675
812.431	28687
812.573	28869
812.714	28915
812.855	28976
812.997	29064
813.138	29193
813.279	29132
813.421	28946
813.562	28999
813.703	28812
813.845	28599
813.986	28493
814.127	28333
814.268	28230
814.41	28246
814.551	28112
814.692	28253
814.833	28173
814.974	28074
815.115	28158
815.256	28226
815.397	28139
815.539	28112
815.68	27903
815.821	27831
815.962	27899
816.103	28044
816.244	27823
816.385	27899
816.526	27884
816.666	27485
816.807	27424
816.948	27523
817.089	27534
817.23	27644
817.371	27561
817.512	27629
817.653	27576
817.793	27427
817.934	27504
818.075	27606
818.216	27652
818.356	27549
818.497	27401
818.638	27222
818.778	27408
818.919	27317
819.06	27233
819.2	27473
819.341	27386
819.481	27454
819.622	27614
819.762	27728
819.903	27671
820.043	27713
820.184	27675
820.324	27610
820.465	27759
820.605	27648
820.746	27701
820.886	27511
821.026	27618
821.167	27469
821.307	27633
821.447	27610
821.588	27454
821.728	27401
821.868	27211
822.008	27066
822.149	26906
822.289	26937
822.429	26765
822.569	26739
822.709	26731
822.849	26629
822.99	26484
823.13	26415
823.27	26412
823.41	26385
823.55	26263
823.69	26434
823.83	26233
823.97	26332
824.11	26256
824.25	26157
824.389	26096
824.529	26271
824.669	26100
824.809	26271
824.949	26313
825.089	26252
825.228	26164
825.368	26054
825.508	26035
825.648	26119
825.787	26111
825.927	26073
826.067	26005
826.206	25982
826.346	26126
826.485	26065
826.625	26054
826.765	26309
826.904	25966
827.044	25856
827.183	25852
827.323	25601
827.462	25898
827.601	25883
827.741	25746
827.88	25769
828.02	25609
828.159	25696
828.298	25811
828.437	25803
828.577	25605
828.716	25868
828.855	25734
828.994	25441
829.134	25464
829.273	25597
829.412	25533
829.551	25392
829.69	25457
829.829	25396
829.968	25586
830.107	25476
830.246	25510
830.385	25270
830.524	25312
830.663	25228
830.802	25228
830.941	25031
831.08	25023
831.219	25217
831.357	25103
831.496	25373
831.635	25038
831.774	24878
831.913	25000
832.051	24958
832.19	24916
832.329	24897
832.467	24795
832.606	24734
832.744	24741
832.883	24741
833.022	24631
833.16	24738
833.299	24837
833.437	24806
833.576	24779
833.714	24852
833.852	24844
833.991	24760
834.129	24837
834.267	24924
834.406	24840
834.544	24802
834.682	24947
834.821	24639
834.959	25038
835.097	24738
835.235	24867
835.373	24798
835.511	24692
835.65	24597
835.788	24623
835.926	24528
836.064	24346
836.202	24521
836.34	24696
836.478	24669
836.615	24669
836.753	24612
836.891	24601
837.029	24760
837.167	24639
837.305	24498
837.443	24612
837.58	24315
837.718	24513
837.856	24490
837.993	24490
838.131	24456
838.269	24376
838.406	24505
838.544	24311
838.681	24117
838.819	24018
838.956	23897
839.094	23954
839.231	23984
839.369	24095
839.506	24422
839.643	24121
839.781	23946
839.918	23920
840.055	24030
840.193	23859
840.33	23977
840.467	23764
840.604	23942
840.742	24144
840.879	23741
841.016	23790
841.153	23718
841.29	24015
841.427	23828
841.564	23882
841.701	23882
841.838	23684
841.975	23657
842.112	23668
842.249	23615
842.385	23649
842.522	23752
842.659	23551
842.796	23535
842.933	23627
843.069	23524
843.206	23455
843.343	23687
843.479	23566
843.616	23482
843.752	23315
843.889	23318
844.025	23566
844.162	23368
844.298	23417
844.435	23372
844.571	23387
844.708	23334
844.844	23566
844.98	23554
845.117	23539
845.253	23421
845.389	23299
845.525	23204
845.661	23250
845.798	23223
845.934	23178
846.07	23189
846.206	23094
846.342	23193
846.478	23166
846.614	22873
846.75	22786
846.886	22698
847.022	22889
847.158	22843
847.294	22949
847.429	22820
847.565	22778
847.701	23003
847.837	22512
847.972	22573
848.108	22656
848.244	22752
848.379	22405
848.515	22379
848.65	22508
848.786	22462
848.921	22485
849.057	22626
849.192	22504
849.328	22478
849.463	22367
849.598	22363
849.734	22310
849.869	22154
850.004	22162
850.14	22162
850.275	22154
850.41	22177
850.545	22097
850.68	22166
850.815	22177
850.95	22162
851.085	22375
851.22	22325
851.355	22238
851.49	22025
851.625	22185
851.76	22105
851.895	22017
852.03	22006
852.165	22257
852.299	22200
852.434	22223
852.569	22246
852.703	22257
852.838	22249
852.973	22344
853.107	22322
853.242	22154
853.376	22067
853.511	21911
853.645	22059
853.78	22139
853.914	22040
854.048	21960
854.183	22006
854.317	22074
854.451	22207
854.585	21972
854.72	21987
854.854	22048
854.988	21983
855.122	22002
855.256	21876
855.39	21926
855.524	22120
855.658	21922
855.792	22074
855.926	22086
856.06	22029
856.194	21930
856.327	21903
856.461	21983
856.595	22013
856.729	21991
856.862	22063
856.996	22017
857.13	22150
857.263	22223
857.397	22143
857.53	21998
857.664	22055
857.797	21998
857.931	22177
858.064	22090
858.197	22120
858.331	22135
858.464	21983
858.597	21808
858.731	21892
858.864	21949
858.997	21934
859.13	21964
859.263	22010
859.396	21983
859.529	21979
859.662	21808
859.795	21934
859.928	21987
860.061	22154
860.194	22177
860.327	22044
860.46	22086
860.592	22147
860.725	22021
860.858	22067
860.99	21956
861.123	21915
861.256	21949
861.388	21876
861.521	22774
861.653	21911
861.786	21838
861.918	21911
862.05	21892
862.183	21983
862.315	21964
862.447	22063
862.58	21960
862.712	21743
862.844	21728
862.976	21880
863.108	21717
863.24	21918
863.372	21728
863.504	21618
863.636	21618
863.768	21648
863.9	21660
864.032	21572
864.164	21682
864.296	21743
864.428	21876
864.559	21709
864.691	21762
864.823	21637
864.954	21720
865.086	21641
865.217	21717
865.349	21542
865.48	21583
865.612	21568
865.743	21759
865.875	21553
866.006	21622
866.137	21701
866.269	21519
866.4	21580
866.531	21538
866.662	21538
866.793	21408
866.924	21515
867.055	21530
867.186	21637
867.317	21576
867.448	21401
867.579	21553
867.71	21428
867.841	21397
867.972	21500
868.103	21378
868.233	21454
868.364	21485
868.495	21629
868.625	21709
868.756	21888
868.886	21641
869.017	21713
869.147	21842
869.278	21785
869.408	21819
869.539	21800
869.669	21816
869.799	21838
869.929	21876
870.06	21831
870.19	21979
870.32	21998
870.45	22116
870.58	22116
870.71	22234
870.84	22173
870.97	22242
871.1	22090
871.23	22249
871.36	22322
871.489	22246
871.619	22295
871.749	22344
871.879	22272
872.008	22432
872.138	22344
872.267	22356
872.397	22303
872.526	22173
872.656	22200
872.785	22192
872.915	22466
873.044	22363
873.173	22394
873.303	22394
873.432	22550
873.561	22538
873.69	22481
873.819	22443
873.948	22394
874.077	22360
874.206	22306
874.335	22295
874.464	22478
874.593	22588
874.722	22493
874.851	22618
874.979	22584
875.108	22584
875.237	22523
875.365	22508
875.494	22512
875.623	22653
875.751	22607
875.88	22584
876.008	22668
876.136	22698
876.265	22809
876.393	23090
876.521	22957
876.65	23067
876.778	22980
876.906	23033
877.034	22938
877.162	22972
877.29	22862
877.418	22999
877.546	22854
877.674	22965
877.802	22942
877.93	22858
878.058	22843
878.185	22740
878.313	22927
878.441	22946
878.568	22839
878.696	22790
878.824	22850
878.951	23014
879.079	23014
879.206	23090
879.333	23006
879.461	22934
879.588	22915
879.715	23090
879.842	23239
879.97	22930
880.097	22774
880.224	22809
880.351	22828
880.478	22786
880.605	22672
880.732	22683
880.859	22991
880.986	22763
881.112	22774
881.239	22512
881.366	22561
881.493	22394
881.619	22405
881.746	22348
881.872	22272
881.999	22253
882.125	22204
882.252	22303
882.378	22249
882.505	22360
882.631	22120
882.757	22055
882.883	22143
883.01	21975
883.136	21979
883.262	21854
883.388	21941
883.514	21979
883.64	21968
883.766	22032
883.892	21736
884.018	21816
884.143	22021
884.269	22131
884.395	21724
884.52	21618
884.646	21606
884.772	21694
884.897	21462
885.023	21671
885.148	21774
885.274	21770
885.399	21720
885.524	21553
885.65	21675
885.775	21641
885.9	21686
886.025	21686
886.15	21648
886.275	21610
886.4	21675
886.525	21523
886.65	21545
886.775	21564
886.9	21717
887.025	21842
887.149	21682
887.274	21473
887.399	21405
887.523	21481
887.648	21367
887.773	21252
887.897	21515
888.021	21477
888.146	21424
888.27	21439
888.395	21428
888.519	21557
888.643	21374
888.767	21348
888.891	21416
889.015	21294
889.139	21165
889.263	21089
889.387	21241
889.511	21408
889.635	21469
889.759	21135
889.883	21188
890.006	21154
890.13	21245
890.254	21112
890.377	21104
890.501	20979
890.624	20887
890.748	21055
890.871	20933
890.995	20758
891.118	20777
891.241	20807
891.364	20792
891.488	20952
891.611	20804
891.734	20777
891.857	20872
891.98	20727
892.103	20781
892.226	20785
892.349	20720
892.471	20480
892.594	20670
892.717	20682
892.839	20583
892.962	20686
893.085	20792
893.207	20640
893.33	20396
893.452	20552
893.575	20773
893.697	20606
893.819	20796
893.941	20804
894.064	20819
894.186	20560
894.308	20480
894.43	20712
894.552	20667
894.674	20781
894.796	20621
894.918	20655
895.04	20693
895.161	20724
895.283	20686
895.405	20503
895.526	20571
895.648	20594
895.769	20568
895.891	20678
896.012	20731
896.134	20667
896.255	20598
896.376	20640
896.498	20590
896.619	20651
896.74	20564
896.861	20708
896.982	20921
897.103	21074
897.224	20861
897.345	20849
897.466	20727
897.587	20758
897.708	20929
897.828	20895
897.949	20762
898.07	20720
898.19	20739
898.311	20918
898.431	20762
898.552	20819
898.672	20830
898.792	20853
898.913	20876
899.033	20705
899.153	20629
899.273	20454
899.393	20655
899.513	20617
899.633	20568
899.753	20564
899.873	20434
899.993	20594
900.113	20590
900.232	20537
900.352	20415
900.472	20522
900.591	20336
900.711	20423
900.83	20317
900.95	20476
901.069	20381
901.189	20214
901.308	19944
901.427	19959
901.546	19928
901.665	19909
901.784	19925
901.904	19780
902.023	19693
902.141	19624
902.26	19434
902.379	19655
902.498	19468
902.617	19384
902.735	19460
902.854	19441
902.973	19247
903.091	19179
903.21	19084
903.328	19091
903.446	18939
903.565	18966
903.683	19057
903.801	18875
903.919	18856
904.038	18753
904.156	18631
904.274	18719
904.392	18715
904.51	18528
904.627	18715
904.745	18665
904.863	18601
904.981	18464
905.098	18334
905.216	18330
905.334	18266
905.451	18376
905.569	18213
905.686	18369
905.803	18277
905.921	18144
906.038	18277
906.155	18171
906.272	18038
906.389	18053
906.506	17920
906.623	17798
906.74	17874
906.857	17741
906.974	17817
907.091	17961
907.208	17920
907.324	17885
907.441	17707
907.557	17566
907.674	17608
907.79	17528
907.907	17478
908.023	17562
908.139	17520
908.256	17547
908.372	17471
908.488	17395
908.604	17299
908.72	17349
908.836	17200
908.952	17204
909.068	17235
909.184	17452
909.3	17345
909.415	17277
909.531	17212
909.647	17041
909.762	16995
909.878	16942
909.993	16995
910.108	16938
910.224	16843
910.339	16927
910.454	16839
910.57	16847
910.685	16694
910.8	16953
910.915	16995
911.03	16843
911.145	16573
911.259	16607
911.374	16596
911.489	16523
911.604	16440
911.718	16303
911.833	16398
911.947	16173
912.062	16135
912.176	16204
912.291	16246
912.405	16291
912.519	16462
912.633	16512
912.748	16363
912.862	16325
912.976	16086
913.09	16010
913.204	15960
913.318	16169
913.431	16154
913.545	16200
913.659	16154
913.772	16135
913.886	15869
914	15926
914.113	15975
914.226	16002
914.34	15903
914.453	15869
914.566	16002
914.68	15770
914.793	15812
914.906	15591
915.019	15557
915.132	15443
915.245	15515
915.358	15481
915.47	15496
915.583	15504
915.696	15538
915.809	15572
915.921	15606
916.034	15386
916.146	15488
916.259	15439
916.371	15538
916.483	15515
916.595	15329
916.708	15351
916.82	15393
916.932	15317
917.044	15283
917.156	15226
917.268	15104
917.38	15146
917.491	15119
917.603	15165
917.715	15294
917.826	15214
917.938	15192
918.049	15043
918.161	15157
918.272	15272
918.384	15173
918.495	15093
918.606	14941
918.717	14853
918.828	14948
918.939	14906
919.05	14941
919.161	14792
919.272	14746
919.383	14792
919.494	14902
919.604	15173
919.715	14921
919.826	14868
919.936	14788
920.047	14952
920.157	14807
920.267	15001
920.378	14918
920.488	14838
920.598	15009
920.708	15188
920.818	14952
920.928	14971
921.038	15036
921.148	15039
921.258	14785
921.368	14834
921.477	14587
921.587	14552
921.697	14465
921.806	14617
921.916	14488
922.025	14294
922.134	14202
922.244	14202
922.353	14157
922.462	14195
922.571	14008
922.68	13917
922.789	13868
922.898	13780
923.007	13742
923.116	13890
923.224	13871
923.333	13822
923.442	13708
923.55	13674
923.659	13655
923.767	13746
923.876	13647
923.984	13704
924.092	13590
924.201	13738
924.309	13616
924.417	13556
924.525	13544
924.633	13537
924.741	14313
924.849	13365
924.956	13434
925.064	13327
925.172	13175
925.279	13289
925.387	13381
925.494	13289
925.602	13331
925.709	13247
925.816	13179
925.924	13190
926.031	13324
926.138	13213
926.245	13232
926.352	13050
926.459	13255
926.566	13354
926.673	13179
926.779	13034
926.886	13099
926.993	12848
927.099	12852
927.206	12768
927.312	12745
927.419	12829
927.525	12741
927.631	12852
927.737	12745
927.843	12688
927.95	12506
928.056	12639
928.162	12620
928.267	12612
928.373	13282
928.479	12715
928.585	12486
928.69	12662
928.796	12620
928.901	12509
929.007	12399
929.112	12544
929.218	12433
929.323	12414
929.428	12361
929.533	12395
929.638	12273
929.743	12399
929.848	12388
929.953	12357
930.058	12190
930.163	11992
930.267	11996
930.372	12201
930.477	11958
930.581	12266
930.685	12038
930.79	11885
930.894	12022
930.998	11866
931.103	12087
931.207	11733
931.311	11554
931.415	11528
931.519	11349
931.623	11242
