Data from test_V78500241_358.txt Node
Date: Fri Mar 25 15:12:21 CST 2022
User: usil
Spectrometer: V785-0024
Trigger mode: 0
Integration Time (sec): 4.000000E-1
Scans to average: 1
Nonlinearity correction enabled: false
Boxcar width: 0
Storing dark spectrum: false
XAxis mode: Wavelengths
Number of Pixels in Spectrum: 1024
>>>>>Begin Spectral Data<<<<<
801.071	27020
801.214	26986
801.356	26678
801.499	26659
801.641	26587
801.783	26674
801.926	26705
802.068	26526
802.211	26492
802.353	26381
802.496	26218
802.638	26259
802.78	26168
802.923	26206
803.065	26149
803.208	26256
803.35	26202
803.492	26427
803.635	26446
803.777	26309
803.919	26385
804.061	26705
804.204	26465
804.346	26355
804.488	26218
804.63	26347
804.773	26195
804.915	26320
805.057	26328
805.199	26381
805.341	26442
805.483	26526
805.626	26579
805.768	26244
805.91	26431
806.052	26503
806.194	26438
806.336	26636
806.478	26514
806.62	26423
806.762	26590
806.904	26659
807.046	27009
807.188	26857
807.33	26845
807.472	26853
807.614	26804
807.756	26785
807.898	26735
808.04	26667
808.182	26632
808.324	26697
808.465	26720
808.607	26868
808.749	27096
808.891	27127
809.033	27370
809.174	27268
809.316	27070
809.458	27112
809.6	26819
809.741	27180
809.883	27135
810.025	27264
810.166	27264
810.308	27237
810.45	27237
810.591	27184
810.733	27165
810.875	27039
811.016	26956
811.158	26868
811.299	27119
811.441	27173
811.582	27184
811.724	26910
811.865	26891
812.007	26963
812.148	27142
812.29	27013
812.431	27264
812.573	27268
812.714	27443
812.855	27648
812.997	27599
813.138	27808
813.279	27713
813.421	27686
813.562	27530
813.703	27408
813.845	27355
813.986	26937
814.127	26819
814.268	26731
814.41	26720
814.551	26560
814.692	26705
814.833	26594
814.974	26644
815.115	26697
815.256	26571
815.397	26412
815.539	26583
815.68	26583
815.821	26594
815.962	26564
816.103	26446
816.244	26168
816.385	26225
816.526	26218
816.666	26005
816.807	26024
816.948	25978
817.089	25978
817.23	26073
817.371	25925
817.512	25978
817.653	25776
817.793	25871
817.934	25955
818.075	25974
818.216	25909
818.356	25887
818.497	25879
818.638	25647
818.778	25837
818.919	25715
819.06	25674
819.2	26001
819.341	25913
819.481	25883
819.622	26157
819.762	26317
819.903	26161
820.043	26058
820.184	26103
820.324	26062
820.465	26122
820.605	25909
820.746	26084
820.886	25909
821.026	25921
821.167	26100
821.307	26153
821.447	25879
821.588	25807
821.728	25689
821.868	25597
822.008	25548
822.149	25335
822.289	25449
822.429	25217
822.569	25091
822.709	25129
822.849	24905
822.99	24875
823.13	24840
823.27	24806
823.41	24829
823.55	24688
823.69	24730
823.83	24772
823.97	24623
824.11	24544
824.25	24426
824.389	24528
824.529	24608
824.669	24585
824.809	24650
824.949	24589
825.089	24635
825.228	24608
825.368	24460
825.508	24365
825.648	24395
825.787	24505
825.927	24452
826.067	24391
826.206	24338
826.346	24429
826.485	24327
826.625	24391
826.765	24445
826.904	24585
827.044	24216
827.183	24243
827.323	23969
827.462	24300
827.601	24049
827.741	24102
827.88	24133
828.02	24117
828.159	24068
828.298	24182
828.437	24254
828.577	24095
828.716	24319
828.855	24015
828.994	23897
829.134	23893
829.273	23954
829.412	23866
829.551	23927
829.69	23912
829.829	23859
829.968	23843
830.107	23870
830.246	23748
830.385	23779
830.524	23668
830.663	23611
830.802	23623
830.941	23490
831.08	23463
831.219	23585
831.357	23539
831.496	23722
831.635	23501
831.774	23497
831.913	23311
832.051	23265
832.19	23288
832.329	23261
832.467	23254
832.606	23105
832.744	23140
832.883	23284
833.022	23109
833.16	23181
833.299	23189
833.437	23208
833.576	23204
833.714	23269
833.852	23303
833.991	23193
834.129	23337
834.267	23208
834.406	23258
834.544	23265
834.682	23269
834.821	23296
834.959	23391
835.097	23124
835.235	23273
835.373	23235
835.511	23265
835.65	23124
835.788	23117
835.926	23071
836.064	22911
836.202	22923
836.34	23071
836.478	23117
836.615	23083
836.753	23151
836.891	23166
837.029	23090
837.167	22957
837.305	23022
837.443	23056
837.58	23037
837.718	23090
837.856	22904
837.993	22881
838.131	22679
838.269	22908
838.406	22927
838.544	22713
838.681	22573
838.819	22740
838.956	22466
839.094	22504
839.231	22478
839.369	22634
839.506	22752
839.643	22721
839.781	22481
839.918	22500
840.055	22371
840.193	22405
840.33	22455
840.467	22287
840.604	22371
840.742	22512
840.879	22200
841.016	22265
841.153	22234
841.29	22466
841.427	22390
841.564	22470
841.701	22344
841.838	22226
841.975	22249
842.112	22230
842.249	22147
842.385	22097
842.522	22272
842.659	22162
842.796	22211
842.933	22070
843.069	21987
843.206	21918
843.343	22147
843.479	22078
843.616	22036
843.752	21953
843.889	22029
844.025	21945
844.162	21819
844.298	22029
844.435	21922
844.571	21785
844.708	21930
844.844	22006
844.98	21945
845.117	21975
845.253	21846
845.389	21816
845.525	21808
845.661	21759
845.798	21660
845.934	21663
846.07	21652
846.206	21614
846.342	21816
846.478	21686
846.614	21408
846.75	21279
846.886	21336
847.022	21504
847.158	21355
847.294	21439
847.429	21424
847.565	21466
847.701	21618
847.837	21142
847.972	21062
848.108	21188
848.244	21207
848.379	20944
848.515	20895
848.65	20880
848.786	20986
848.921	21001
849.057	21077
849.192	21020
849.328	21039
849.463	20994
849.598	20834
849.734	20857
849.869	20785
850.004	20823
850.14	20701
850.275	20663
850.41	20632
850.545	20735
850.68	20689
850.815	20819
850.95	20712
851.085	20914
851.22	20800
851.355	20819
851.49	20659
851.625	20682
851.76	20579
851.895	20682
852.03	20686
852.165	20773
852.299	20655
852.434	20834
852.569	20727
852.703	20693
852.838	20792
852.973	20830
853.107	20800
853.242	20686
853.376	20659
853.511	20461
853.645	20609
853.78	20705
853.914	20488
854.048	20499
854.183	20609
854.317	20492
854.451	20823
854.585	20568
854.72	20575
854.854	20587
854.988	20400
855.122	20484
855.256	20400
855.39	20514
855.524	20537
855.658	20617
855.792	20594
855.926	20530
856.06	20621
856.194	20621
856.327	20587
856.461	20556
856.595	20514
856.729	20533
856.862	20693
856.996	20495
857.13	20526
857.263	20594
857.397	20560
857.53	20511
857.664	20621
857.797	20568
857.931	20629
858.064	20522
858.197	20590
858.331	20419
858.464	20583
858.597	20473
858.731	20533
858.864	20667
858.997	20469
859.13	20594
859.263	20602
859.396	20667
859.529	20533
859.662	20408
859.795	20530
859.928	20503
860.061	20625
860.194	20811
860.327	20617
860.46	20568
860.592	20644
860.725	20667
860.858	20712
860.99	20571
861.123	20446
861.256	20454
861.388	20602
861.521	21237
861.653	20480
861.786	20301
861.918	20381
862.05	20469
862.183	20461
862.315	20499
862.447	20533
862.58	20492
862.712	20237
862.844	20157
862.976	20404
863.108	20336
863.24	20811
863.372	20298
863.504	20320
863.636	20275
863.768	20396
863.9	20187
864.032	20191
864.164	20195
864.296	20286
864.428	20339
864.559	20271
864.691	20358
864.823	20370
864.954	20309
865.086	20233
865.217	20073
865.349	20027
865.48	20126
865.612	20256
865.743	20317
865.875	20305
866.006	20214
866.137	20172
866.269	20202
866.4	20111
866.531	20153
866.662	20031
866.793	20138
866.924	20062
867.055	20183
867.186	20115
867.317	20115
867.448	20058
867.579	20122
867.71	19989
867.841	20077
867.972	20092
868.103	20119
868.233	20054
868.364	20088
868.495	20233
868.625	20400
868.756	20396
868.886	20317
869.017	20385
869.147	20469
869.278	20476
869.408	20389
869.539	20328
869.669	20370
869.799	20404
869.929	20412
870.06	20434
870.19	20724
870.32	20587
870.45	20739
870.58	20743
870.71	20804
870.84	20815
870.97	20788
871.1	20754
871.23	21036
871.36	20975
871.489	20880
871.619	20792
871.749	20944
871.879	21028
872.008	21024
872.138	20986
872.267	20918
872.397	20777
872.526	20819
872.656	20880
872.785	20857
872.915	20910
873.044	21001
873.173	20952
873.303	20918
873.432	21032
873.561	21036
873.69	20876
873.819	20998
873.948	21119
874.077	20952
874.206	20948
874.335	20986
874.464	21093
874.593	21298
874.722	21184
874.851	21211
874.979	21211
875.108	21135
875.237	21089
875.365	21150
875.494	21146
875.623	21184
875.751	21207
875.88	21264
876.008	21355
876.136	21340
876.265	21671
876.393	21755
876.521	21542
876.65	21614
876.778	21614
876.906	21511
877.034	21496
877.162	21614
877.29	21439
877.418	21458
877.546	21519
877.674	21485
877.802	21618
877.93	21542
878.058	21477
878.185	21439
878.313	21447
878.441	21504
878.568	21378
878.696	21610
878.824	21622
878.951	21751
879.079	21671
879.206	21785
879.333	21686
879.461	21732
879.588	21660
879.715	21724
879.842	21804
879.97	21599
880.097	21386
880.224	21279
880.351	21458
880.478	21454
880.605	21363
880.732	21374
880.859	21717
880.986	21325
881.112	21428
881.239	21329
881.366	21070
881.493	21116
881.619	20925
881.746	20956
881.872	20853
881.999	20937
882.125	20857
882.252	20994
882.378	20887
882.505	21055
882.631	20785
882.757	20651
882.883	20792
883.01	20659
883.136	20644
883.262	20583
883.388	20560
883.514	20773
883.64	20746
883.766	20602
883.892	20469
884.018	20549
884.143	20556
884.269	20682
884.395	20507
884.52	20336
884.646	20294
884.772	20157
884.897	20218
885.023	20290
885.148	20476
885.274	20530
885.399	20454
885.524	20263
885.65	20256
885.775	20400
885.9	20313
886.025	20358
886.15	20446
886.275	20210
886.4	20290
886.525	20282
886.65	20168
886.775	20332
886.9	20400
887.025	20617
887.149	20339
887.274	20142
887.399	20130
887.523	20081
887.648	20043
887.773	20134
887.897	20233
888.021	20092
888.146	20058
888.27	20191
888.395	20191
888.519	20157
888.643	20183
888.767	20115
888.891	19974
889.015	19909
889.139	19887
889.263	19909
889.387	20065
889.511	20084
889.635	20012
889.759	19875
889.883	19822
890.006	19921
890.13	19997
890.254	19833
890.377	19750
890.501	19784
890.624	19677
890.748	19715
890.871	19586
890.995	19552
891.118	19312
891.241	19655
891.364	19483
891.488	19506
891.611	19575
891.734	19499
891.857	19525
891.98	19563
892.103	19521
892.226	19495
892.349	19354
892.471	19263
892.594	19434
892.717	19411
892.839	19422
892.962	19430
893.085	19495
893.207	19373
893.33	19263
893.452	19354
893.575	19476
893.697	19415
893.819	19624
893.941	19559
894.064	19521
894.186	19244
894.308	19403
894.43	19476
894.552	19540
894.674	19499
894.796	19251
894.918	19502
895.04	19362
895.161	19419
895.283	19483
895.405	19346
895.526	19430
895.648	19331
895.769	19381
895.891	19415
896.012	19491
896.134	19460
896.255	19537
896.376	19365
896.498	19491
896.619	19499
896.74	19392
896.861	19544
896.982	19693
897.103	19951
897.224	19818
897.345	19613
897.466	19635
897.587	19700
897.708	19712
897.828	19685
897.949	19529
898.07	19518
898.19	19533
898.311	19753
898.431	19594
898.552	19586
898.672	19674
898.792	19708
898.913	19609
899.033	19571
899.153	19483
899.273	19350
899.393	19449
899.513	19407
899.633	19422
899.753	19339
899.873	19335
899.993	19464
900.113	19285
900.232	19301
900.352	19339
900.472	19331
900.591	19202
900.711	19259
900.83	19129
900.95	19312
901.069	19251
901.189	19008
901.308	18897
901.427	18814
901.546	18703
901.665	18894
901.784	18749
901.904	18730
902.023	18506
902.141	18372
902.26	18342
902.379	18380
902.498	18304
902.617	18300
902.735	18350
902.854	18235
902.973	18205
903.091	18015
903.21	17923
903.328	17931
903.446	17923
903.565	17828
903.683	17775
903.801	17611
903.919	17802
904.038	17786
904.156	17585
904.274	17577
904.392	17554
904.51	17436
904.627	17649
904.745	17604
904.863	17657
904.981	17315
905.098	17273
905.216	17239
905.334	17220
905.451	17261
905.569	17280
905.686	17318
905.803	17189
905.921	17041
906.038	17086
906.155	17094
906.272	16854
906.389	16820
906.506	16782
906.623	16831
906.74	16782
906.857	16561
906.974	16706
907.091	16866
907.208	16915
907.324	16847
907.441	16694
907.557	16546
907.674	16546
907.79	16481
907.907	16348
908.023	16584
908.139	16531
908.256	16409
908.372	16379
908.488	16447
908.604	16356
908.72	16131
908.836	16253
908.952	16131
909.068	16306
909.184	16284
909.3	16200
909.415	16356
909.531	16185
909.647	15968
909.762	16067
909.878	16032
909.993	15972
910.108	15991
910.224	15895
910.339	15922
910.454	15698
910.57	15747
910.685	15705
910.8	16010
910.915	15968
911.03	15743
911.145	15663
911.259	15587
911.374	15526
911.489	15485
911.604	15405
911.718	15317
911.833	15389
911.947	15207
912.062	15184
912.176	15252
912.291	15233
912.405	15313
912.519	15534
912.633	15538
912.748	15386
912.862	15249
912.976	15169
913.09	15009
913.204	15085
913.318	15051
913.431	15272
913.545	15199
913.659	15161
913.772	15058
913.886	14971
914	14902
914.113	15058
914.226	14979
914.34	15055
914.453	14777
914.566	14918
914.68	14883
914.793	14788
914.906	14606
915.019	14590
915.132	14442
915.245	14514
915.358	14541
915.47	14499
915.583	14590
915.696	14556
915.809	14560
915.921	14743
916.034	14511
916.146	14408
916.259	14423
916.371	14541
916.483	14488
916.595	14454
916.708	14358
916.82	14347
916.932	14362
917.044	14317
917.156	14370
917.268	14214
917.38	14290
917.491	14183
917.603	14237
917.715	14366
917.826	14298
917.938	14149
918.049	14092
918.161	14187
918.272	14370
918.384	14313
918.495	14202
918.606	14001
918.717	13944
918.828	14115
918.939	13993
919.05	13974
919.161	14008
919.272	13795
919.383	13849
919.494	13970
919.604	14183
919.715	13894
919.826	13833
919.936	13993
920.047	14069
920.157	13967
920.267	14145
920.378	14031
920.488	13967
920.598	14077
920.708	14214
920.818	14149
920.928	14157
921.038	14320
921.148	14271
921.258	13925
921.368	13864
921.477	13803
921.587	13727
921.697	13624
921.806	13624
921.916	13559
922.025	13441
922.134	13327
922.244	13251
922.353	13419
922.462	13308
922.571	13183
922.68	13050
922.789	13095
922.898	13065
923.007	12962
923.116	12989
923.224	12996
923.333	12989
923.442	12916
923.55	12905
923.659	12890
923.767	12897
923.876	12768
923.984	12905
924.092	12776
924.201	12734
924.309	12741
924.417	12833
924.525	12669
924.633	12662
924.741	13445
924.849	12475
924.956	12654
925.064	12467
925.172	12414
925.279	12479
925.387	12509
925.494	12486
925.602	12532
925.709	12494
925.816	12395
925.924	12372
926.031	12559
926.138	12445
926.245	12502
926.352	12319
926.459	12483
926.566	12532
926.673	12319
926.779	12159
926.886	12232
926.993	12190
927.099	12144
927.206	12049
927.312	11950
927.419	12049
927.525	12087
927.631	12129
927.737	11927
927.843	11996
927.95	11874
928.056	11809
928.162	11958
928.267	11863
928.373	12555
928.479	12019
928.585	11688
928.69	11878
928.796	11847
928.901	11748
929.007	11600
929.112	11764
929.218	11756
929.323	11638
929.428	11596
929.533	11779
929.638	11516
929.743	11585
929.848	11623
929.953	11535
930.058	11444
930.163	11292
930.267	11311
930.372	11425
930.477	11334
930.581	11505
930.685	11356
930.79	11254
930.894	11261
930.998	11197
931.103	11303
931.207	10908
931.311	10946
931.415	10809
931.519	10599
931.623	10637
