Data from test_V78500241_3578.txt Node
Date: Fri Mar 25 15:34:46 CST 2022
User: usil
Spectrometer: V785-0024
Trigger mode: 0
Integration Time (sec): 4.000000E-1
Scans to average: 1
Nonlinearity correction enabled: false
Boxcar width: 0
Storing dark spectrum: false
XAxis mode: Wavelengths
Number of Pixels in Spectrum: 1024
>>>>>Begin Spectral Data<<<<<
801.071	27485
801.214	27161
801.356	27032
801.499	27062
801.641	26952
801.783	26804
801.926	26948
802.068	26933
802.211	26872
802.353	26762
802.496	26769
802.638	26594
802.78	26556
802.923	26423
803.065	26431
803.208	26389
803.35	26518
803.492	26594
803.635	26632
803.777	26609
803.919	26701
804.061	27173
804.204	26769
804.346	26705
804.488	26682
804.63	26545
804.773	26602
804.915	26617
805.057	26788
805.199	26754
805.341	26746
805.483	26880
805.626	26720
805.768	26746
805.91	26712
806.052	26864
806.194	26891
806.336	27108
806.478	26781
806.62	26769
806.762	26880
806.904	27112
807.046	27279
807.188	27310
807.33	27241
807.472	27401
807.614	27195
807.756	27218
807.898	26960
808.04	26998
808.182	26994
808.324	26990
808.465	27112
808.607	27188
808.749	27359
808.891	27462
809.033	27485
809.174	27530
809.316	27329
809.458	27310
809.6	27336
809.741	27443
809.883	27545
810.025	27576
810.166	27553
810.308	27652
810.45	27557
810.591	27644
810.733	27416
810.875	27348
811.016	27336
811.158	27332
811.299	27450
811.441	27633
811.582	27591
811.724	27382
811.865	27454
812.007	27397
812.148	27104
812.29	27469
812.431	27576
812.573	27736
812.714	27857
812.855	28078
812.997	28021
813.138	28131
813.279	28055
813.421	27873
813.562	27808
813.703	27679
813.845	27603
813.986	27294
814.127	27020
814.268	26952
814.41	27085
814.551	26971
814.692	27093
814.833	26895
814.974	27131
815.115	27051
815.256	26990
815.397	26918
815.539	26864
815.68	26800
815.821	26708
815.962	26762
816.103	26792
816.244	26758
816.385	26484
816.526	26427
816.666	26484
816.807	26282
816.948	26400
817.089	26336
817.23	26309
817.371	26195
817.512	26381
817.653	26282
817.793	26358
817.934	26431
818.075	26271
818.216	26431
818.356	26225
818.497	26294
818.638	25982
818.778	26012
818.919	26103
819.06	26149
819.2	26282
819.341	26332
819.481	26328
819.622	26541
819.762	26575
819.903	26590
820.043	26587
820.184	26427
820.324	26412
820.465	26461
820.605	26374
820.746	26579
820.886	26225
821.026	26396
821.167	26457
821.307	26400
821.447	26377
821.588	26142
821.728	26016
821.868	25909
822.008	25993
822.149	25841
822.289	25818
822.429	25620
822.569	25533
822.709	25419
822.849	25206
822.99	25381
823.13	25228
823.27	25213
823.41	25217
823.55	25034
823.69	25114
823.83	25129
823.97	24939
824.11	24833
824.25	24962
824.389	25000
824.529	25114
824.669	24913
824.809	25023
824.949	25034
825.089	25179
825.228	25046
825.368	24703
825.508	24650
825.648	24749
825.787	24894
825.927	24894
826.067	24806
826.206	24905
826.346	24901
826.485	24840
826.625	24795
826.765	24833
826.904	24886
827.044	24604
827.183	24563
827.323	24464
827.462	24547
827.601	24570
827.741	24646
827.88	24467
828.02	24433
828.159	24547
828.298	24589
828.437	24601
828.577	24376
828.716	24483
828.855	24426
828.994	24273
829.134	24281
829.273	24376
829.412	24277
829.551	24289
829.69	24220
829.829	24205
829.968	24410
830.107	24213
830.246	24315
830.385	24304
830.524	24178
830.663	24148
830.802	24038
830.941	23847
831.08	23775
831.219	23984
831.357	23927
831.496	24068
831.635	23836
831.774	23729
831.913	23783
832.051	23581
832.19	23600
832.329	23680
832.467	23585
832.606	23497
832.744	23478
832.883	23589
833.022	23493
833.16	23463
833.299	23501
833.437	23634
833.576	23570
833.714	23589
833.852	23661
833.991	23680
834.129	23687
834.267	23798
834.406	23748
834.544	23657
834.682	23657
834.821	23600
834.959	23764
835.097	23433
835.235	23695
835.373	23608
835.511	23570
835.65	23448
835.788	23398
835.926	23326
836.064	23322
836.202	23235
836.34	23436
836.478	23581
836.615	23341
836.753	23448
836.891	23452
837.029	23364
837.167	23376
837.305	23284
837.443	23398
837.58	23322
837.718	23353
837.856	23223
837.993	23265
838.131	23181
838.269	23159
838.406	23337
838.544	23041
838.681	23079
838.819	22862
838.956	22839
839.094	22850
839.231	22809
839.369	22923
839.506	23174
839.643	23083
839.781	22736
839.918	22702
840.055	22801
840.193	22763
840.33	22710
840.467	22790
840.604	22805
840.742	22946
840.879	22645
841.016	22664
841.153	22637
841.29	22710
841.427	22729
841.564	22805
841.701	22771
841.838	22790
841.975	22641
842.112	22660
842.249	22607
842.385	22481
842.522	22656
842.659	22561
842.796	22565
842.933	22531
843.069	22398
843.206	22466
843.343	22554
843.479	22440
843.616	22436
843.752	22272
843.889	22295
844.025	22417
844.162	22238
844.298	22394
844.435	22131
844.571	22253
844.708	22280
844.844	22344
844.98	22360
845.117	22379
845.253	22257
845.389	22143
845.525	22204
845.661	22150
845.798	22078
845.934	22055
846.07	21941
846.206	21907
846.342	22078
846.478	22006
846.614	21888
846.75	21698
846.886	21743
847.022	21781
847.158	21679
847.294	21884
847.429	21625
847.565	21732
847.701	22025
847.837	21393
847.972	21473
848.108	21622
848.244	21553
848.379	21302
848.515	21351
848.65	21302
848.786	21302
848.921	21298
849.057	21416
849.192	21408
849.328	21428
849.463	21389
849.598	21321
849.734	21188
849.869	21195
850.004	21150
850.14	21085
850.275	21146
850.41	20967
850.545	21043
850.68	21077
850.815	21089
850.95	21081
851.085	21355
851.22	21260
851.355	21081
851.49	21089
851.625	21077
851.76	21028
851.895	21077
852.03	20918
852.165	21081
852.299	21195
852.434	21165
852.569	21074
852.703	21081
852.838	21116
852.973	21222
853.107	21214
853.242	21051
853.376	20944
853.511	20845
853.645	20883
853.78	20986
853.914	21043
854.048	21001
854.183	21020
854.317	20876
854.451	21081
854.585	20876
854.72	20914
854.854	21051
854.988	20834
855.122	20743
855.256	20735
855.39	20819
855.524	20891
855.658	20967
855.792	20952
855.926	20906
856.06	20937
856.194	21039
856.327	20933
856.461	20853
856.595	20845
856.729	20971
856.862	20918
856.996	20826
857.13	21009
857.263	20914
857.397	20921
857.53	20941
857.664	20956
857.797	20868
857.931	20902
858.064	21051
858.197	20971
858.331	20864
858.464	20849
858.597	20750
858.731	20819
858.864	20838
858.997	20929
859.13	20804
859.263	20838
859.396	20967
859.529	20796
859.662	20785
859.795	20777
859.928	20963
860.061	21066
860.194	21096
860.327	21005
860.46	21020
860.592	21013
860.725	21142
860.858	21024
860.99	20857
861.123	20834
861.256	20891
861.388	20864
861.521	21770
861.653	20785
861.786	20727
861.918	20682
862.05	20826
862.183	20842
862.315	20857
862.447	20967
862.58	20883
862.712	20678
862.844	20590
862.976	20712
863.108	20712
863.24	21077
863.372	20708
863.504	20693
863.636	20575
863.768	20583
863.9	20682
864.032	20507
864.164	20632
864.296	20613
864.428	20750
864.559	20693
864.691	20678
864.823	20590
864.954	20705
865.086	20571
865.217	20526
865.349	20476
865.48	20438
865.612	20541
865.743	20613
865.875	20533
866.006	20457
866.137	20511
866.269	20492
866.4	20655
866.531	20393
866.662	20609
866.793	20492
866.924	20415
867.055	20568
867.186	20575
867.317	20446
867.448	20431
867.579	20423
867.71	20351
867.841	20400
867.972	20484
868.103	20518
868.233	20473
868.364	20465
868.495	20746
868.625	20701
868.756	20777
868.886	20678
869.017	20663
869.147	20735
869.278	20765
869.408	20853
869.539	20705
869.669	20735
869.799	20739
869.929	20876
870.06	20845
870.19	21009
870.32	21096
870.45	20990
870.58	21077
870.71	21245
870.84	21157
870.97	21252
871.1	21100
871.23	21317
871.36	21287
871.489	21233
871.619	21351
871.749	21302
871.879	21340
872.008	21462
872.138	21298
872.267	21294
872.397	21264
872.526	21074
872.656	21287
872.785	21154
872.915	21340
873.044	21306
873.173	21344
873.303	21469
873.432	21420
873.561	21401
873.69	21329
873.819	21359
873.948	21454
874.077	21363
874.206	21351
874.335	21325
874.464	21542
874.593	21564
874.722	21488
874.851	21717
874.979	21568
875.108	21599
875.237	21504
875.365	21507
875.494	21595
875.623	21671
875.751	21583
875.88	21641
876.008	21675
876.136	21880
876.265	22120
876.393	22082
876.521	22074
876.65	22074
876.778	21979
876.906	21941
877.034	21934
877.162	21800
877.29	21785
877.418	21979
877.546	21991
877.674	21968
877.802	21907
877.93	21998
878.058	21903
878.185	21797
878.313	21743
878.441	21926
878.568	21827
878.696	21865
878.824	21937
878.951	21937
879.079	22082
879.206	22238
879.333	22120
879.461	21991
879.588	22040
879.715	22112
879.842	22177
879.97	22040
880.097	21854
880.224	21755
880.351	21781
880.478	21762
880.605	21736
880.732	21781
880.859	22048
880.986	21823
881.112	21720
881.239	21667
881.366	21485
881.493	21405
881.619	21310
881.746	21386
881.872	21321
881.999	21321
882.125	21340
882.252	21363
882.378	21374
882.505	21393
882.631	21268
882.757	20944
882.883	21085
883.01	21142
883.136	21123
883.262	20895
883.388	20895
883.514	21096
883.64	21051
883.766	21043
883.892	20857
884.018	20929
884.143	21017
884.269	21119
884.395	20777
884.52	20659
884.646	20716
884.772	20560
884.897	20617
885.023	20826
885.148	20781
885.274	20906
885.399	20739
885.524	20830
885.65	20773
885.775	20674
885.9	20689
886.025	20796
886.15	20731
886.275	20667
886.4	20587
886.525	20716
886.65	20674
886.775	20537
886.9	20796
887.025	20815
887.149	20697
887.274	20480
887.399	20495
887.523	20446
887.648	20317
887.773	20526
887.897	20575
888.021	20473
888.146	20317
888.27	20461
888.395	20518
888.519	20583
888.643	20450
888.767	20484
888.891	20351
889.015	20324
889.139	20320
889.263	20275
889.387	20355
889.511	20511
889.635	20442
889.759	20149
889.883	20351
890.006	20290
890.13	20404
890.254	20130
890.377	20221
890.501	19955
890.624	19997
890.748	20077
890.871	19959
890.995	19799
891.118	19887
891.241	19852
891.364	19814
891.488	20031
891.611	19913
891.734	19708
891.857	19902
891.98	19769
892.103	20039
892.226	19795
892.349	19757
892.471	19677
892.594	19772
892.717	19769
892.839	19655
892.962	19780
893.085	19757
893.207	19772
893.33	19613
893.452	19632
893.575	19841
893.697	19772
893.819	19955
893.941	20020
894.064	19818
894.186	19723
894.308	19655
894.43	19898
894.552	19925
894.674	19700
894.796	19601
894.918	19689
895.04	19704
895.161	19906
895.283	19765
895.405	19769
895.526	19830
895.648	19746
895.769	19845
895.891	19723
896.012	19833
896.134	19818
896.255	19750
896.376	19776
896.498	19643
896.619	19772
896.74	19719
896.861	19856
896.982	20138
897.103	20305
897.224	20092
897.345	19921
897.466	19959
897.587	19925
897.708	20035
897.828	19947
897.949	19940
898.07	19807
898.19	19833
898.311	20024
898.431	19974
898.552	19917
898.672	20073
898.792	20157
898.913	19989
899.033	19917
899.153	19830
899.273	19700
899.393	19666
899.513	19833
899.633	19765
899.753	19723
899.873	19670
899.993	19655
900.113	19662
900.232	19757
900.352	19704
900.472	19620
900.591	19487
900.711	19483
900.83	19445
900.95	19597
901.069	19693
901.189	19365
901.308	19225
901.427	19187
901.546	19103
901.665	19164
901.784	19004
901.904	18958
902.023	18996
902.141	18753
902.26	18688
902.379	18696
902.498	18555
902.617	18540
902.735	18650
902.854	18715
902.973	18582
903.091	18201
903.21	18251
903.328	18391
903.446	18220
903.565	18129
903.683	18121
903.801	18102
903.919	18083
904.038	18030
904.156	17946
904.274	17984
904.392	17863
904.51	17920
904.627	17805
904.745	17809
904.863	17874
904.981	17718
905.098	17433
905.216	17570
905.334	17638
905.451	17505
905.569	17387
905.686	17657
905.803	17619
905.921	17433
906.038	17433
906.155	17330
906.272	17254
906.389	17231
906.506	17162
906.623	17174
906.74	17029
906.857	17025
906.974	16949
907.091	17098
907.208	17273
907.324	17048
907.441	16927
907.557	16850
907.674	16831
907.79	16713
907.907	16725
908.023	16782
908.139	16759
908.256	16774
908.372	16649
908.488	16740
908.604	16542
908.72	16618
908.836	16527
908.952	16481
909.068	16637
909.184	16618
909.3	16512
909.415	16656
909.531	16531
909.647	16268
909.762	16295
909.878	16215
909.993	16337
910.108	16200
910.224	16226
910.339	16135
910.454	16055
910.57	16029
910.685	15949
910.8	16246
910.915	16139
911.03	16002
911.145	15869
911.259	15850
911.374	15789
911.489	15819
911.604	15732
911.718	15652
911.833	15595
911.947	15572
912.062	15492
912.176	15663
912.291	15625
912.405	15599
912.519	15751
912.633	15736
912.748	15584
912.862	15576
912.976	15492
913.09	15275
913.204	15401
913.318	15393
913.431	15469
913.545	15500
913.659	15473
913.772	15306
913.886	15237
914	15135
914.113	15237
914.226	15237
914.34	15344
914.453	15093
914.566	15249
914.68	15058
914.793	15062
914.906	14899
915.019	14842
915.132	14739
915.245	14830
915.358	14891
915.47	14773
915.583	14811
915.696	14864
915.809	15066
915.921	14910
916.034	14838
916.146	14731
916.259	14667
916.371	14868
916.483	14765
916.595	14648
916.708	14712
916.82	14716
916.932	14670
917.044	14625
917.156	14648
917.268	14530
917.38	14514
917.491	14434
917.603	14431
917.715	14503
917.826	14552
917.938	14355
918.049	14351
918.161	14431
918.272	14621
918.384	14602
918.495	14336
918.606	14233
918.717	14221
918.828	14138
918.939	14176
919.05	14256
919.161	14332
919.272	14008
919.383	14081
919.494	14221
919.604	14362
919.715	14256
919.826	14172
919.936	14195
920.047	14324
920.157	14298
920.267	14438
920.378	14301
920.488	14259
920.598	14461
920.708	14450
920.818	14377
920.928	14282
921.038	14454
921.148	14507
921.258	14130
921.368	14142
921.477	13940
921.587	13940
921.697	13795
921.806	14012
921.916	13864
922.025	13681
922.134	13628
922.244	13556
922.353	13578
922.462	13510
922.571	13438
922.68	13240
922.789	13240
922.898	13270
923.007	13225
923.116	13289
923.224	13244
923.333	13263
923.442	13202
923.55	13099
923.659	13160
923.767	13198
923.876	13137
923.984	13042
924.092	12947
924.201	13004
924.309	13061
924.417	13042
924.525	12920
924.633	12939
924.741	13826
924.849	12753
924.956	12867
925.064	12783
925.172	12608
925.279	12627
925.387	12749
925.494	12684
925.602	12715
925.709	12696
925.816	12570
925.924	12684
926.031	12646
926.138	12585
926.245	12642
926.352	12578
926.459	12688
926.566	12757
926.673	12547
926.779	12471
926.886	12544
926.993	12399
927.099	12338
927.206	12277
927.312	12266
927.419	12266
927.525	12228
927.631	12300
927.737	12121
927.843	12178
927.95	11969
928.056	12083
928.162	12098
928.267	12114
928.373	12719
928.479	12121
928.585	11927
928.69	12045
928.796	12117
928.901	11904
929.007	11771
929.112	11946
929.218	11942
929.323	11813
929.428	11798
929.533	11965
929.638	11794
929.743	11802
929.848	11874
929.953	11767
930.058	11657
930.163	11467
930.267	11543
930.372	11649
930.477	11505
930.581	11707
930.685	11570
930.79	11402
930.894	11452
930.998	11414
931.103	11497
931.207	11181
931.311	11060
931.415	11003
931.519	10828
931.623	10740
