Data from test_V78500241_225.txt Node
Date: Fri Mar 25 15:11:25 CST 2022
User: usil
Spectrometer: V785-0024
Trigger mode: 0
Integration Time (sec): 4.000000E-1
Scans to average: 1
Nonlinearity correction enabled: false
Boxcar width: 0
Storing dark spectrum: false
XAxis mode: Wavelengths
Number of Pixels in Spectrum: 1024
>>>>>Begin Spectral Data<<<<<
801.071	27930
801.214	27850
801.356	27637
801.499	27507
801.641	27393
801.783	27523
801.926	27443
802.068	27298
802.211	27222
802.353	27272
802.496	27100
802.638	27154
802.78	27062
802.923	26979
803.065	26804
803.208	27058
803.35	26986
803.492	27192
803.635	27207
803.777	26975
803.919	27173
804.061	27416
804.204	27245
804.346	27161
804.488	27009
804.63	27036
804.773	26986
804.915	26990
805.057	27112
805.199	27020
805.341	27173
805.483	27249
805.626	27066
805.768	27214
805.91	27199
806.052	27302
806.194	27093
806.336	27386
806.478	27184
806.62	27272
806.762	27321
806.904	27420
807.046	27755
807.188	27561
807.33	27625
807.472	27538
807.614	27545
807.756	27397
807.898	27405
808.04	27359
808.182	27336
808.324	27367
808.465	27485
808.607	27568
808.749	27770
808.891	27789
809.033	27960
809.174	27797
809.316	27713
809.458	27743
809.6	27553
809.741	27823
809.883	27854
810.025	27983
810.166	27979
810.308	28036
810.45	27899
810.591	27861
810.733	27701
810.875	27690
811.016	27663
811.158	27641
811.299	27812
811.441	27743
811.582	27804
811.724	27869
811.865	27694
812.007	27743
812.148	27690
812.29	27671
812.431	27857
812.573	27800
812.714	28036
812.855	28204
812.997	28276
813.138	28462
813.279	28215
813.421	28253
813.562	28200
813.703	28082
813.845	27930
813.986	27618
814.127	27534
814.268	27466
814.41	27344
814.551	27241
814.692	27272
814.833	27279
814.974	27291
815.115	27272
815.256	26998
815.397	27157
815.539	27192
815.68	27039
815.821	27009
815.962	27150
816.103	27020
816.244	26929
816.385	26952
816.526	26880
816.666	26826
816.807	26617
816.948	26590
817.089	26739
817.23	26533
817.371	26564
817.512	26583
817.653	26499
817.793	26518
817.934	26537
818.075	26541
818.216	26461
818.356	26568
818.497	26446
818.638	26134
818.778	26240
818.919	26259
819.06	26206
819.2	26347
819.341	26438
819.481	26560
819.622	26606
819.762	26720
819.903	26743
820.043	26682
820.184	26499
820.324	26587
820.465	26762
820.605	26492
820.746	26552
820.886	26355
821.026	26465
821.167	26427
821.307	26488
821.447	26518
821.588	26362
821.728	26122
821.868	26096
822.008	25887
822.149	25921
822.289	25906
822.429	25685
822.569	25590
822.709	25601
822.849	25384
822.99	25304
823.13	25453
823.27	25407
823.41	25209
823.55	25198
823.69	25293
823.83	25232
823.97	25126
824.11	24867
824.25	25072
824.389	25038
824.529	24962
824.669	24909
824.809	25118
824.949	25187
825.089	25061
825.228	25019
825.368	24772
825.508	24958
825.648	24878
825.787	24924
825.927	24966
826.067	24814
826.206	24928
826.346	24848
826.485	24935
826.625	24916
826.765	24966
826.904	24848
827.044	24532
827.183	24608
827.323	24464
827.462	24654
827.601	24681
827.741	24505
827.88	24597
828.02	24445
828.159	24502
828.298	24494
828.437	24513
828.577	24452
828.716	24578
828.855	24509
828.994	24232
829.134	24258
829.273	24243
829.412	24174
829.551	24228
829.69	24209
829.829	24262
829.968	24205
830.107	24228
830.246	24232
830.385	24163
830.524	24171
830.663	24098
830.802	23885
830.941	23916
831.08	23832
831.219	23889
831.357	23942
831.496	24045
831.635	23783
831.774	23779
831.913	23699
832.051	23745
832.19	23558
832.329	23630
832.467	23547
832.606	23478
832.744	23368
832.883	23467
833.022	23543
833.16	23440
833.299	23436
833.437	23463
833.576	23547
833.714	23699
833.852	23520
833.991	23467
834.129	23585
834.267	23668
834.406	23516
834.544	23524
834.682	23474
834.821	23524
834.959	23752
835.097	23471
835.235	23425
835.373	23387
835.511	23474
835.65	23318
835.788	23444
835.926	23102
836.064	23132
836.202	23208
836.34	23277
836.478	23516
836.615	23421
836.753	23242
836.891	23417
837.029	23334
837.167	23292
837.305	23288
837.443	23200
837.58	23185
837.718	23318
837.856	23220
837.993	23102
838.131	23147
838.269	23113
838.406	23124
838.544	22946
838.681	22930
838.819	22862
838.956	22546
839.094	22698
839.231	22721
839.369	22854
839.506	23094
839.643	22752
839.781	22615
839.918	22599
840.055	22774
840.193	22577
840.33	22561
840.467	22645
840.604	22546
840.742	22915
840.879	22306
841.016	22462
841.153	22550
841.29	22706
841.427	22584
841.564	22634
841.701	22550
841.838	22538
841.975	22405
842.112	22424
842.249	22341
842.385	22268
842.522	22580
842.659	22367
842.796	22348
842.933	22261
843.069	22295
843.206	22265
843.343	22360
843.479	22265
843.616	22211
843.752	22143
843.889	22078
844.025	22147
844.162	22017
844.298	22044
844.435	21998
844.571	22002
844.708	22044
844.844	22025
844.98	22185
845.117	22124
845.253	21975
845.389	21994
845.525	21907
845.661	21903
845.798	21797
845.934	21831
846.07	21690
846.206	21603
846.342	21991
846.478	21766
846.614	21580
846.75	21325
846.886	21416
847.022	21694
847.158	21492
847.294	21591
847.429	21523
847.565	21466
847.701	21819
847.837	21249
847.972	21165
848.108	21310
848.244	21351
848.379	21222
848.515	20979
848.65	20979
848.786	20918
848.921	21112
849.057	21119
849.192	21188
849.328	21211
849.463	21146
849.598	21039
849.734	21028
849.869	20872
850.004	20880
850.14	20826
850.275	20746
850.41	20792
850.545	20720
850.68	20678
850.815	20769
850.95	20804
851.085	21047
851.22	20925
851.355	20750
851.49	20792
851.625	20731
851.76	20807
851.895	20701
852.03	20727
852.165	20891
852.299	20914
852.434	20948
852.569	20849
852.703	20845
852.838	20876
852.973	20967
853.107	20990
853.242	20746
853.376	20659
853.511	20556
853.645	20552
853.78	20659
853.914	20590
854.048	20606
854.183	20629
854.317	20571
854.451	20849
854.585	20549
854.72	20716
854.854	20705
854.988	20560
855.122	20594
855.256	20450
855.39	20602
855.524	20583
855.658	20678
855.792	20621
855.926	20617
856.06	20651
856.194	20705
856.327	20598
856.461	20568
856.595	20659
856.729	20526
856.862	20743
856.996	20655
857.13	20659
857.263	20720
857.397	20693
857.53	20564
857.664	20606
857.797	20693
857.931	20697
858.064	20621
858.197	20762
858.331	20655
858.464	20556
858.597	20438
858.731	20575
858.864	20556
858.997	20507
859.13	20613
859.263	20648
859.396	20560
859.529	20461
859.662	20514
859.795	20617
859.928	20533
860.061	20735
860.194	20781
860.327	20659
860.46	20609
860.592	20617
860.725	20792
860.858	20758
860.99	20583
861.123	20522
861.256	20575
861.388	20488
861.521	21336
861.653	20431
861.786	20434
861.918	20454
862.05	20579
862.183	20629
862.315	20594
862.447	20560
862.58	20495
862.712	20336
862.844	20355
862.976	20320
863.108	20377
863.24	20762
863.372	20218
863.504	20301
863.636	20259
863.768	20298
863.9	20252
864.032	20233
864.164	20225
864.296	20225
864.428	20324
864.559	20313
864.691	20374
864.823	20271
864.954	20305
865.086	20187
865.217	20271
865.349	20153
865.48	20142
865.612	20172
865.743	20252
865.875	20164
866.006	20145
866.137	20149
866.269	20218
866.4	20138
866.531	20168
866.662	20035
866.793	20088
866.924	20103
867.055	20065
867.186	20039
867.317	20062
867.448	20050
867.579	20100
867.71	20134
867.841	19970
867.972	20107
868.103	20149
868.233	20046
868.364	20096
868.495	20244
868.625	20336
868.756	20465
868.886	20286
869.017	20400
869.147	20434
869.278	20507
869.408	20400
869.539	20476
869.669	20419
869.799	20457
869.929	20507
870.06	20507
870.19	20617
870.32	20606
870.45	20667
870.58	20720
870.71	20811
870.84	20902
870.97	20708
871.1	20838
871.23	20944
871.36	20830
871.489	20883
871.619	20952
871.749	20845
871.879	20963
872.008	21036
872.138	20948
872.267	20956
872.397	20891
872.526	20788
872.656	20864
872.785	20739
872.915	20925
873.044	21051
873.173	21039
873.303	20967
873.432	21119
873.561	21093
873.69	20979
873.819	21055
873.948	21070
874.077	20861
874.206	21081
874.335	20918
874.464	21081
874.593	21317
874.722	21051
874.851	21173
874.979	21180
875.108	21332
875.237	21127
875.365	21146
875.494	21279
875.623	21302
875.751	21241
875.88	21135
876.008	21340
876.136	21325
876.265	21656
876.393	21705
876.521	21591
876.65	21720
876.778	21599
876.906	21618
877.034	21606
877.162	21648
877.29	21378
877.418	21580
877.546	21663
877.674	21564
877.802	21743
877.93	21622
878.058	21572
878.185	21454
878.313	21622
878.441	21534
878.568	21431
878.696	21435
878.824	21679
878.951	21606
879.079	21694
879.206	21835
879.333	21660
879.461	21580
879.588	21724
879.715	21701
879.842	21808
879.97	21580
880.097	21408
880.224	21397
880.351	21359
880.478	21329
880.605	21336
880.732	21386
880.859	21625
880.986	21466
881.112	21420
881.239	21355
881.366	21131
881.493	20975
881.619	21100
881.746	21032
881.872	20979
881.999	20918
882.125	20963
882.252	20963
882.378	20921
882.505	21070
882.631	20899
882.757	20777
882.883	20883
883.01	20621
883.136	20693
883.262	20659
883.388	20575
883.514	20697
883.64	20754
883.766	20678
883.892	20518
884.018	20617
884.143	20686
884.269	20735
884.395	20480
884.52	20366
884.646	20298
884.772	20164
884.897	20309
885.023	20465
885.148	20545
885.274	20419
885.399	20476
885.524	20263
885.65	20385
885.775	20431
885.9	20275
886.025	20495
886.15	20480
886.275	20282
886.4	20370
886.525	20385
886.65	20172
886.775	20282
886.9	20541
887.025	20522
887.149	20415
887.274	20149
887.399	20050
887.523	20195
887.648	20027
887.773	20115
887.897	20237
888.021	20134
888.146	20062
888.27	20210
888.395	20157
888.519	20050
888.643	20180
888.767	20020
888.891	20084
889.015	19944
889.139	19917
889.263	19856
889.387	20031
889.511	20039
889.635	20100
889.759	19841
889.883	19795
890.006	19852
890.13	19917
890.254	19841
890.377	19803
890.501	19655
890.624	19544
890.748	19605
890.871	19499
890.995	19480
891.118	19346
891.241	19445
891.364	19518
891.488	19601
891.611	19468
891.734	19457
891.857	19609
891.98	19559
892.103	19567
892.226	19514
892.349	19369
892.471	19327
892.594	19381
892.717	19381
892.839	19460
892.962	19411
893.085	19472
893.207	19491
893.33	19297
893.452	19327
893.575	19476
893.697	19358
893.819	19540
893.941	19639
894.064	19601
894.186	19293
894.308	19282
894.43	19392
894.552	19506
894.674	19529
894.796	19343
894.918	19354
895.04	19308
895.161	19460
895.283	19487
895.405	19369
895.526	19369
895.648	19434
895.769	19403
895.891	19434
896.012	19468
896.134	19506
896.255	19415
896.376	19499
896.498	19430
896.619	19487
896.74	19506
896.861	19460
896.982	19814
897.103	19921
897.224	19677
897.345	19769
897.466	19624
897.587	19811
897.708	19731
897.828	19643
897.949	19578
898.07	19502
898.19	19632
898.311	19712
898.431	19643
898.552	19742
898.672	19860
898.792	19677
898.913	19632
899.033	19559
899.153	19476
899.273	19285
899.393	19358
899.513	19480
899.633	19430
899.753	19282
899.873	19270
899.993	19407
900.113	19316
900.232	19335
900.352	19358
900.472	19255
900.591	19042
900.711	19118
900.83	19107
900.95	19460
901.069	19285
901.189	19053
901.308	18837
901.427	18738
901.546	18825
901.665	18871
901.784	18764
901.904	18677
902.023	18536
902.141	18323
902.26	18319
902.379	18395
902.498	18277
902.617	18133
902.735	18315
902.854	18152
902.973	18117
903.091	18041
903.21	17939
903.328	17889
903.446	17927
903.565	17767
903.683	17870
903.801	17604
903.919	17729
904.038	17661
904.156	17524
904.274	17592
904.392	17630
904.51	17512
904.627	17539
904.745	17558
904.863	17562
904.981	17318
905.098	17246
905.216	17162
905.334	17166
905.451	17242
905.569	17136
905.686	17181
905.803	17174
905.921	16892
906.038	17052
906.155	17067
906.272	16889
906.389	16923
906.506	16710
906.623	16763
906.74	16752
906.857	16656
906.974	16664
907.091	16656
907.208	16759
907.324	16729
907.441	16771
907.557	16478
907.674	16462
907.79	16322
907.907	16413
908.023	16565
908.139	16500
908.256	16447
908.372	16261
908.488	16295
908.604	16192
908.72	16112
908.836	16158
908.952	16109
909.068	16116
909.184	16147
909.3	16150
909.415	16207
909.531	16207
909.647	15915
909.762	15850
909.878	15793
909.993	15842
910.108	15823
910.224	15728
910.339	15861
910.454	15701
910.57	15656
910.685	15580
910.8	15953
910.915	15854
911.03	15686
911.145	15504
911.259	15447
911.374	15367
911.489	15405
911.604	15355
911.718	15192
911.833	15226
911.947	15070
912.062	15051
912.176	15203
912.291	15222
912.405	15161
912.519	15321
912.633	15351
912.748	15184
912.862	15154
912.976	15017
913.09	14857
913.204	14986
913.318	15135
913.431	15112
913.545	15062
913.659	15047
913.772	14861
913.886	14861
914	14853
914.113	14929
914.226	14872
914.34	14929
914.453	14754
914.566	14842
914.68	14682
914.793	14598
914.906	14556
915.019	14503
915.132	14442
915.245	14431
915.358	14541
915.47	14511
915.583	14507
915.696	14492
915.809	14575
915.921	14720
916.034	14355
916.146	14396
916.259	14385
916.371	14465
916.483	14461
916.595	14328
916.708	14305
916.82	14358
916.932	14256
917.044	14339
917.156	14286
917.268	14084
917.38	14206
917.491	14161
917.603	14111
917.715	14202
917.826	14199
917.938	14024
918.049	13986
918.161	14065
918.272	14225
918.384	14168
918.495	14062
918.606	13898
918.717	13852
918.828	13913
918.939	13856
919.05	13814
919.161	13837
919.272	13666
919.383	13719
919.494	13868
919.604	14195
919.715	13932
919.826	13822
919.936	13811
920.047	13982
920.157	13852
920.267	13944
920.378	13963
920.488	13913
920.598	13970
920.708	14119
920.818	13986
920.928	14012
921.038	14119
921.148	14065
921.258	13826
921.368	13772
921.477	13624
921.587	13597
921.697	13445
921.806	13620
921.916	13343
922.025	13312
922.134	13228
922.244	13228
922.353	13316
922.462	13213
922.571	13019
922.68	12966
922.789	12943
922.898	12932
923.007	12920
923.116	12924
923.224	12833
923.333	12814
923.442	12802
923.55	12749
923.659	12738
923.767	12768
923.876	12700
923.984	12772
924.092	12692
924.201	12711
924.309	12658
924.417	12623
924.525	12547
924.633	12623
924.741	13354
924.849	12403
924.956	12574
925.064	12448
925.172	12289
925.279	12308
925.387	12338
925.494	12418
925.602	12589
925.709	12384
925.816	12330
925.924	12277
926.031	12361
926.138	12194
926.245	12403
926.352	12338
926.459	12289
926.566	12277
926.673	12243
926.779	12121
926.886	12114
926.993	11988
927.099	11908
927.206	11897
927.312	11863
927.419	12003
927.525	12019
927.631	12098
927.737	11840
927.843	11786
927.95	11699
928.056	11817
928.162	11821
928.267	11756
928.373	12338
928.479	11901
928.585	11581
928.69	11737
928.796	11779
928.901	11611
929.007	11528
929.112	11684
929.218	11585
929.323	11554
929.428	11570
929.533	11627
929.638	11471
929.743	11562
929.848	11444
929.953	11448
930.058	11376
930.163	11220
930.267	11223
930.372	11284
930.477	11124
930.581	11391
930.685	11349
930.79	11098
930.894	11178
930.998	10999
931.103	11250
931.207	10828
931.311	10759
931.415	10664
931.519	10561
931.623	10455
