Data from test_V78500241_2707.txt Node
Date: Fri Mar 25 15:28:42 CST 2022
User: usil
Spectrometer: V785-0024
Trigger mode: 0
Integration Time (sec): 4.000000E-1
Scans to average: 1
Nonlinearity correction enabled: false
Boxcar width: 0
Storing dark spectrum: false
XAxis mode: Wavelengths
Number of Pixels in Spectrum: 1024
>>>>>Begin Spectral Data<<<<<
801.071	27154
801.214	27104
801.356	26929
801.499	26750
801.641	26648
801.783	26636
801.926	26792
802.068	26556
802.211	26663
802.353	26575
802.496	26374
802.638	26294
802.78	26404
802.923	26103
803.065	26275
803.208	26100
803.35	26503
803.492	26511
803.635	26560
803.777	26415
803.919	26434
804.061	26792
804.204	26545
804.346	26408
804.488	26362
804.63	26385
804.773	26275
804.915	26552
805.057	26511
805.199	26275
805.341	26484
805.483	26663
805.626	26461
805.768	26457
805.91	26495
806.052	26526
806.194	26571
806.336	26769
806.478	26495
806.62	26450
806.762	26575
806.904	26629
807.046	26925
807.188	27005
807.33	27013
807.472	27077
807.614	26716
807.756	26925
807.898	26792
808.04	26804
808.182	26788
808.324	26712
808.465	26868
808.607	26998
808.749	27176
808.891	27279
809.033	27275
809.174	27260
809.316	27165
809.458	27256
809.6	27062
809.741	27203
809.883	27264
810.025	27260
810.166	27416
810.308	27397
810.45	27268
810.591	27256
810.733	27184
810.875	26994
811.016	27051
811.158	27013
811.299	27241
811.441	27401
811.582	27173
811.724	27138
811.865	26910
812.007	27119
812.148	27077
812.29	27138
812.431	27283
812.573	27424
812.714	27492
812.855	27682
812.997	27732
813.138	27819
813.279	27713
813.421	27625
813.562	27576
813.703	27504
813.845	27275
813.986	27070
814.127	26910
814.268	26773
814.41	26762
814.551	26887
814.692	26815
814.833	26735
814.974	26800
815.115	26663
815.256	26708
815.397	26587
815.539	26617
815.68	26670
815.821	26457
815.962	26499
816.103	26625
816.244	26446
816.385	26336
816.526	26320
816.666	26119
816.807	26100
816.948	26115
817.089	26161
817.23	26122
817.371	25955
817.512	25765
817.653	25822
817.793	26069
817.934	26012
818.075	26050
818.216	26077
818.356	25807
818.497	25894
818.638	25753
818.778	25776
818.919	25833
819.06	25864
819.2	25982
819.341	25932
819.481	25993
819.622	26111
819.762	26385
819.903	26142
820.043	26256
820.184	26134
820.324	26107
820.465	26225
820.605	26043
820.746	26100
820.886	26054
821.026	26065
821.167	25970
821.307	26214
821.447	26054
821.588	26016
821.728	25803
821.868	25803
822.008	25537
822.149	25521
822.289	25464
822.429	25145
822.569	25171
822.709	25179
822.849	25076
822.99	25084
823.13	24992
823.27	24977
823.41	24791
823.55	24711
823.69	24913
823.83	24726
823.97	24768
824.11	24559
824.25	24646
824.389	24578
824.529	24627
824.669	24627
824.809	24787
824.949	24696
825.089	24623
825.228	24802
825.368	24540
825.508	24559
825.648	24544
825.787	24589
825.927	24745
826.067	24517
826.206	24540
826.346	24559
826.485	24502
826.625	24456
826.765	24620
826.904	24665
827.044	24296
827.183	24498
827.323	24353
827.462	24270
827.601	24266
827.741	24262
827.88	24395
828.02	24205
828.159	24209
828.298	24235
828.437	24273
828.577	24258
828.716	24315
828.855	24140
828.994	23908
829.134	23931
829.273	24015
829.412	23882
829.551	23923
829.69	23942
829.829	24015
829.968	24106
830.107	23999
830.246	23958
830.385	23851
830.524	23901
830.663	23843
830.802	23592
830.941	23463
831.08	23520
831.219	23608
831.357	23714
831.496	23714
831.635	23558
831.774	23493
831.913	23474
832.051	23395
832.19	23448
832.329	23471
832.467	23246
832.606	23193
832.744	23239
832.883	23200
833.022	23315
833.16	23220
833.299	23307
833.437	23242
833.576	23155
833.714	23326
833.852	23349
833.991	23337
834.129	23482
834.267	23337
834.406	23402
834.544	23417
834.682	23315
834.821	23406
834.959	23318
835.097	23303
835.235	23303
835.373	23216
835.511	23334
835.65	23189
835.788	23212
835.926	23071
836.064	22908
836.202	23086
836.34	23315
836.478	23143
836.615	23124
836.753	23212
836.891	23212
837.029	23105
837.167	23067
837.305	23037
837.443	23075
837.58	22915
837.718	23124
837.856	23025
837.993	22889
838.131	22965
838.269	22953
838.406	22999
838.544	22816
838.681	22717
838.819	22634
838.956	22470
839.094	22573
839.231	22459
839.369	22744
839.506	22869
839.643	22660
839.781	22531
839.918	22421
840.055	22478
840.193	22443
840.33	22337
840.467	22337
840.604	22462
840.742	22660
840.879	22356
841.016	22367
841.153	22268
841.29	22436
841.427	22409
841.564	22413
841.701	22287
841.838	22424
841.975	22291
842.112	22367
842.249	22268
842.385	22261
842.522	22436
842.659	22162
842.796	22162
842.933	22154
843.069	22173
843.206	22120
843.343	22230
843.479	22284
843.616	22284
843.752	21941
843.889	21903
844.025	22147
844.162	21907
844.298	22112
844.435	21873
844.571	21956
844.708	21903
844.844	22139
844.98	22128
845.117	22074
845.253	21911
845.389	21709
845.525	21732
845.661	21686
845.798	21637
845.934	21759
846.07	21667
846.206	21808
846.342	21759
846.478	21679
846.614	21519
846.75	21298
846.886	21374
847.022	21420
847.158	21340
847.294	21340
847.429	21469
847.565	21500
847.701	21629
847.837	21024
847.972	21142
848.108	21264
848.244	21302
848.379	21165
848.515	21047
848.65	21005
848.786	21001
848.921	21062
849.057	21077
849.192	21089
849.328	21001
849.463	21089
849.598	20902
849.734	20849
849.869	20925
850.004	20815
850.14	20716
850.275	20686
850.41	20758
850.545	20716
850.68	20731
850.815	20853
850.95	20815
851.085	20895
851.22	20861
851.355	20769
851.49	20838
851.625	20716
851.76	20731
851.895	20705
852.03	20739
852.165	20849
852.299	20781
852.434	20842
852.569	20781
852.703	20804
852.838	20785
852.973	20777
853.107	20868
853.242	20674
853.376	20530
853.511	20583
853.645	20674
853.78	20781
853.914	20629
854.048	20480
854.183	20499
854.317	20541
854.451	20849
854.585	20689
854.72	20488
854.854	20636
854.988	20644
855.122	20606
855.256	20526
855.39	20537
855.524	20636
855.658	20560
855.792	20625
855.926	20598
856.06	20438
856.194	20632
856.327	20587
856.461	20484
856.595	20511
856.729	20564
856.862	20716
856.996	20724
857.13	20629
857.263	20697
857.397	20693
857.53	20606
857.664	20613
857.797	20613
857.931	20800
858.064	20606
858.197	20731
858.331	20564
858.464	20587
858.597	20556
858.731	20438
858.864	20518
858.997	20530
859.13	20552
859.263	20636
859.396	20735
859.529	20689
859.662	20495
859.795	20560
859.928	20579
860.061	20621
860.194	20777
860.327	20735
860.46	20450
860.592	20659
860.725	20762
860.858	20670
860.99	20480
861.123	20492
861.256	20609
861.388	20537
861.521	21249
861.653	20358
861.786	20320
861.918	20476
862.05	20457
862.183	20514
862.315	20541
862.447	20476
862.58	20518
862.712	20271
862.844	20377
862.976	20438
863.108	20324
863.24	20849
863.372	20134
863.504	20454
863.636	20259
863.768	20309
863.9	20259
864.032	20271
864.164	20225
864.296	20358
864.428	20537
864.559	20400
864.691	20324
864.823	20298
864.954	20233
865.086	20351
865.217	20259
865.349	20081
865.48	20195
865.612	20244
865.743	20351
865.875	20214
866.006	20084
866.137	20122
866.269	20256
866.4	20187
866.531	20172
866.662	20271
866.793	20130
866.924	20115
867.055	20145
867.186	20256
867.317	20240
867.448	20142
867.579	20248
867.71	20054
867.841	20142
867.972	20161
868.103	20130
868.233	20119
868.364	20157
868.495	20206
868.625	20294
868.756	20484
868.886	20343
869.017	20400
869.147	20533
869.278	20568
869.408	20343
869.539	20393
869.669	20381
869.799	20438
869.929	20480
870.06	20503
870.19	20720
870.32	20674
870.45	20659
870.58	20686
870.71	20853
870.84	20800
870.97	20804
871.1	20826
871.23	20967
871.36	20914
871.489	20857
871.619	20944
871.749	20914
871.879	20998
872.008	21058
872.138	21047
872.267	20891
872.397	20830
872.526	20788
872.656	20796
872.785	20819
872.915	21100
873.044	21135
873.173	21036
873.303	21039
873.432	21085
873.561	21112
873.69	21135
873.819	21001
873.948	21161
874.077	21020
874.206	21043
874.335	21039
874.464	21207
874.593	21237
874.722	21264
874.851	21104
874.979	21348
875.108	21279
875.237	21154
875.365	21188
875.494	21192
875.623	21458
875.751	21245
875.88	21192
876.008	21488
876.136	21443
876.265	21762
876.393	21781
876.521	21739
876.65	21713
876.778	21736
876.906	21671
877.034	21591
877.162	21686
877.29	21572
877.418	21641
877.546	21591
877.674	21671
877.802	21549
877.93	21561
878.058	21557
878.185	21564
878.313	21561
878.441	21641
878.568	21538
878.696	21572
878.824	21549
878.951	21633
879.079	21762
879.206	21911
879.333	21812
879.461	21747
879.588	21835
879.715	21800
879.842	21865
879.97	21759
880.097	21283
880.224	21363
880.351	21488
880.478	21549
880.605	21450
880.732	21568
880.859	21671
880.986	21542
881.112	21450
881.239	21317
881.366	21058
881.493	21108
881.619	21070
881.746	21058
881.872	21055
881.999	21024
882.125	20918
882.252	21051
882.378	20986
882.505	21188
882.631	20876
882.757	20712
882.883	20815
883.01	20811
883.136	20716
883.262	20575
883.388	20530
883.514	20697
883.64	20823
883.766	20693
883.892	20446
884.018	20507
884.143	20663
884.269	20830
884.395	20404
884.52	20298
884.646	20461
884.772	20263
884.897	20339
885.023	20362
885.148	20423
885.274	20541
885.399	20415
885.524	20438
885.65	20461
885.775	20362
885.9	20317
886.025	20613
886.15	20461
886.275	20317
886.4	20259
886.525	20240
886.65	20259
886.775	20336
886.9	20427
887.025	20579
887.149	20423
887.274	20111
887.399	20153
887.523	20020
887.648	20103
887.773	20164
887.897	20259
888.021	20168
888.146	20081
888.27	20225
888.395	20282
888.519	20111
888.643	20210
888.767	20054
888.891	20134
889.015	19978
889.139	19959
889.263	19955
889.387	20103
889.511	20138
889.635	20100
889.759	20077
889.883	20046
890.006	20054
890.13	19947
890.254	20012
890.377	19803
890.501	19769
890.624	19696
890.748	19795
890.871	19708
890.995	19525
891.118	19597
891.241	19525
891.364	19472
891.488	19738
891.611	19537
891.734	19571
891.857	19597
891.98	19506
892.103	19571
892.226	19506
892.349	19487
892.471	19400
892.594	19468
892.717	19563
892.839	19381
892.962	19441
893.085	19563
893.207	19464
893.33	19377
893.452	19316
893.575	19457
893.697	19384
893.819	19647
893.941	19708
894.064	19616
894.186	19434
894.308	19316
894.43	19635
894.552	19662
894.674	19460
894.796	19365
894.918	19483
895.04	19312
895.161	19388
895.283	19411
895.405	19301
895.526	19525
895.648	19403
895.769	19472
895.891	19563
896.012	19464
896.134	19495
896.255	19491
896.376	19343
896.498	19521
896.619	19525
896.74	19487
896.861	19525
896.982	19769
897.103	19986
897.224	19776
897.345	19605
897.466	19704
897.587	19696
897.708	19879
897.828	19761
897.949	19575
898.07	19647
898.19	19628
898.311	19670
898.431	19689
898.552	19734
898.672	19818
898.792	19723
898.913	19685
899.033	19655
899.153	19510
899.273	19400
899.393	19430
899.513	19567
899.633	19537
899.753	19415
899.873	19445
899.993	19472
900.113	19365
900.232	19415
900.352	19369
900.472	19350
900.591	19164
900.711	19266
900.83	19236
900.95	19270
901.069	19228
901.189	19080
901.308	18962
901.427	18829
901.546	18859
901.665	18939
901.784	18848
901.904	18696
902.023	18597
902.141	18365
902.26	18296
902.379	18490
902.498	18410
902.617	18471
902.735	18262
902.854	18361
902.973	18369
903.091	18011
903.21	18041
903.328	18102
903.446	18007
903.565	17726
903.683	17775
903.801	17771
903.919	17813
904.038	17767
904.156	17653
904.274	17661
904.392	17551
904.51	17577
904.627	17615
904.745	17672
904.863	17707
904.981	17406
905.098	17315
905.216	17322
905.334	17368
905.451	17341
905.569	17356
905.686	17364
905.803	17265
905.921	17185
906.038	17242
906.155	17113
906.272	17090
906.389	17143
906.506	16869
906.623	16877
906.74	16767
906.857	16664
906.974	16843
907.091	17022
907.208	16934
907.324	16896
907.441	16774
907.557	16607
907.674	16630
907.79	16622
907.907	16462
908.023	16577
908.139	16584
908.256	16573
908.372	16550
908.488	16402
908.604	16402
908.72	16367
908.836	16287
908.952	16299
909.068	16329
909.184	16322
909.3	16333
909.415	16360
909.531	16287
909.647	15998
909.762	16040
909.878	15960
909.993	16025
910.108	15956
910.224	15934
910.339	15968
910.454	15819
910.57	15774
910.685	15663
910.8	16032
910.915	16006
911.03	15838
911.145	15660
911.259	15644
911.374	15743
911.489	15549
911.604	15587
911.718	15370
911.833	15386
911.947	15340
912.062	15279
912.176	15439
912.291	15397
912.405	15435
912.519	15580
912.633	15614
912.748	15416
912.862	15439
912.976	15192
913.09	15039
913.204	15161
913.318	15252
913.431	15329
913.545	15245
913.659	15249
913.772	15104
913.886	15055
914	14986
914.113	15112
914.226	15108
914.34	15062
914.453	14921
914.566	14982
914.68	14804
914.793	14902
914.906	14697
915.019	14552
915.132	14556
915.245	14648
915.358	14568
915.47	14629
915.583	14659
915.696	14674
915.809	14830
915.921	14754
916.034	14545
916.146	14488
916.259	14450
916.371	14583
916.483	14571
916.595	14473
916.708	14530
916.82	14476
916.932	14374
917.044	14389
917.156	14457
917.268	14278
917.38	14259
917.491	14290
917.603	14294
917.715	14324
917.826	14347
917.938	14358
918.049	14172
918.161	14309
918.272	14351
918.384	14377
918.495	14142
918.606	14199
918.717	14088
918.828	14123
918.939	14111
919.05	13978
919.161	14134
919.272	13925
919.383	13921
919.494	14172
919.604	14309
919.715	14164
919.826	13890
919.936	13978
920.047	14035
920.157	14039
920.267	14199
920.378	14153
920.488	13993
920.598	14240
920.708	14309
920.818	14199
920.928	14252
921.038	14366
921.148	14252
921.258	13970
921.368	13788
921.477	13818
921.587	13784
921.697	13647
921.806	13696
921.916	13628
922.025	13529
922.134	13472
922.244	13369
922.353	13491
922.462	13263
922.571	13209
922.68	13110
922.789	12977
922.898	13099
923.007	13042
923.116	13118
923.224	13027
923.333	13088
923.442	12951
923.55	12886
923.659	12913
923.767	12966
923.876	12924
923.984	12962
924.092	12852
924.201	12844
924.309	12814
924.417	12791
924.525	12745
924.633	12760
924.741	13757
924.849	12620
924.956	12711
925.064	12540
925.172	12357
925.279	12559
925.387	12601
925.494	12532
925.602	12772
925.709	12650
925.816	12353
925.924	12555
926.031	12635
926.138	12494
926.245	12513
926.352	12410
926.459	12608
926.566	12551
926.673	12528
926.779	12235
926.886	12270
926.993	12190
927.099	12106
927.206	12129
927.312	12091
927.419	12159
927.525	12117
927.631	12068
927.737	12049
927.843	11973
927.95	11866
928.056	11954
928.162	12003
928.267	11980
928.373	12445
928.479	12068
928.585	11764
928.69	11893
928.796	12015
928.901	11809
929.007	11585
929.112	11741
929.218	11748
929.323	11661
929.428	11634
929.533	11809
929.638	11589
929.743	11604
929.848	11729
929.953	11619
930.058	11532
930.163	11368
930.267	11326
930.372	11608
930.477	11311
930.581	11562
930.685	11436
930.79	11322
930.894	11341
930.998	11235
931.103	11349
931.207	10965
931.311	11006
931.415	10771
931.519	10672
931.623	10592
