Data from test_V78500241_1237.txt Node
Date: Fri Mar 25 15:18:28 CST 2022
User: usil
Spectrometer: V785-0024
Trigger mode: 0
Integration Time (sec): 4.000000E-1
Scans to average: 1
Nonlinearity correction enabled: false
Boxcar width: 0
Storing dark spectrum: false
XAxis mode: Wavelengths
Number of Pixels in Spectrum: 1024
>>>>>Begin Spectral Data<<<<<
801.071	28185
801.214	28021
801.356	27778
801.499	27774
801.641	27698
801.783	27633
801.926	27838
802.068	27694
802.211	27530
802.353	27549
802.496	27344
802.638	27275
802.78	27283
802.923	27199
803.065	27230
803.208	27188
803.35	27329
803.492	27488
803.635	27553
803.777	27291
803.919	27447
804.061	27918
804.204	27690
804.346	27511
804.488	27496
804.63	27583
804.773	27393
804.915	27485
805.057	27603
805.199	27435
805.341	27576
805.483	27739
805.626	27610
805.768	27709
805.91	27625
806.052	27785
806.194	27492
806.336	27808
806.478	27591
806.62	27644
806.762	27800
806.904	27941
807.046	28162
807.188	27975
807.33	28196
807.472	28261
807.614	27895
807.756	28044
807.898	28070
808.04	28036
808.182	27861
808.324	28090
808.465	28032
808.607	28322
808.749	28280
808.891	28451
809.033	28436
809.174	28462
809.316	28356
809.458	28398
809.6	28280
809.741	28497
809.883	28459
810.025	28573
810.166	28607
810.308	28649
810.45	28455
810.591	28493
810.733	28512
810.875	28390
811.016	28246
811.158	28394
811.299	28413
811.441	28497
811.582	28550
811.724	28280
811.865	28257
812.007	28348
812.148	28246
812.29	28291
812.431	28561
812.573	28706
812.714	28778
812.855	28934
812.997	28835
813.138	29022
813.279	29060
813.421	28866
813.562	28873
813.703	28717
813.845	28542
813.986	28234
814.127	28188
814.268	28116
814.41	28166
814.551	28048
814.692	28169
814.833	27991
814.974	27953
815.115	28143
815.256	27888
815.397	28013
815.539	27964
815.68	27751
815.821	27846
815.962	27903
816.103	27914
816.244	27549
816.385	27652
816.526	27713
816.666	27553
816.807	27321
816.948	27435
817.089	27393
817.23	27367
817.371	27401
817.512	27393
817.653	27500
817.793	27374
817.934	27401
818.075	27374
818.216	27447
818.356	27317
818.497	27138
818.638	27089
818.778	27005
818.919	27138
819.06	27226
819.2	27332
819.341	27302
819.481	27310
819.622	27538
819.762	27671
819.903	27614
820.043	27500
820.184	27504
820.324	27469
820.465	27496
820.605	27530
820.746	27485
820.886	27306
821.026	27492
821.167	27481
821.307	27431
821.447	27268
821.588	27211
821.728	27119
821.868	26899
822.008	26849
822.149	26845
822.289	26678
822.429	26644
822.569	26579
822.709	26568
822.849	26313
822.99	26366
823.13	26396
823.27	26351
823.41	26149
823.55	26062
823.69	26161
823.83	26088
823.97	25997
824.11	26058
824.25	25913
824.389	25913
824.529	26103
824.669	25978
824.809	26142
824.949	26180
825.089	26046
825.228	26016
825.368	25898
825.508	25898
825.648	25947
825.787	25898
825.927	25875
826.067	25944
826.206	25940
826.346	25807
826.485	25849
826.625	25989
826.765	25997
826.904	25826
827.044	25658
827.183	25643
827.323	25510
827.462	25556
827.601	25506
827.741	25563
827.88	25571
828.02	25479
828.159	25559
828.298	25499
828.437	25677
828.577	25476
828.716	25731
828.855	25559
828.994	25293
829.134	25190
829.273	25384
829.412	25213
829.551	25247
829.69	25369
829.829	25343
829.968	25358
830.107	25445
830.246	25381
830.385	25236
830.524	25213
830.663	25137
830.802	25027
830.941	24977
831.08	24894
831.219	24954
831.357	25000
831.496	25046
831.635	24916
831.774	24837
831.913	24916
832.051	24692
832.19	24631
832.329	24791
832.467	24696
832.606	24597
832.744	24654
832.883	24582
833.022	24525
833.16	24563
833.299	24631
833.437	24681
833.576	24711
833.714	24711
833.852	24692
833.991	24757
834.129	24829
834.267	24764
834.406	24696
834.544	24749
834.682	24749
834.821	24669
834.959	24913
835.097	24635
835.235	24646
835.373	24692
835.511	24597
835.65	24582
835.788	24616
835.926	24460
836.064	24251
836.202	24429
836.34	24547
836.478	24688
836.615	24578
836.753	24464
836.891	24658
837.029	24536
837.167	24528
837.305	24388
837.443	24399
837.58	24407
837.718	24422
837.856	24323
837.993	24407
838.131	24304
838.269	24258
838.406	24338
838.544	24205
838.681	23996
838.819	24003
838.956	23783
839.094	23965
839.231	23904
839.369	24034
839.506	24228
839.643	24133
839.781	23950
839.918	23714
840.055	23817
840.193	23767
840.33	23764
840.467	23760
840.604	23897
840.742	23942
840.879	23649
841.016	23627
841.153	23600
841.29	23927
841.427	23779
841.564	23722
841.701	23653
841.838	23661
841.975	23493
842.112	23630
842.249	23592
842.385	23573
842.522	23668
842.659	23539
842.796	23535
842.933	23524
843.069	23509
843.206	23436
843.343	23410
843.479	23551
843.616	23531
843.752	23311
843.889	23220
844.025	23417
844.162	23265
844.298	23356
844.435	23223
844.571	23208
844.708	23235
844.844	23356
844.98	23440
845.117	23376
845.253	23288
845.389	23159
845.525	23151
845.661	23124
845.798	22987
845.934	22942
846.07	22850
846.206	23071
846.342	23166
846.478	22934
846.614	22885
846.75	22656
846.886	22664
847.022	22782
847.158	22645
847.294	22736
847.429	22721
847.565	22748
847.701	22972
847.837	22413
847.972	22390
848.108	22561
848.244	22535
848.379	22493
848.515	22363
848.65	22363
848.786	22276
848.921	22398
849.057	22405
849.192	22516
849.328	22344
849.463	22356
849.598	22314
849.734	22272
849.869	22173
850.004	22090
850.14	22154
850.275	22128
850.41	21937
850.545	21998
850.68	22063
850.815	22109
850.95	22154
851.085	22234
851.22	22242
851.355	22082
851.49	22013
851.625	22040
851.76	22013
851.895	22109
852.03	22082
852.165	22166
852.299	22162
852.434	22112
852.569	22044
852.703	22067
852.838	22158
852.973	22131
853.107	22276
853.242	22135
853.376	21998
853.511	21785
853.645	21911
853.78	22010
853.914	21888
854.048	21930
854.183	21915
854.317	21934
854.451	22029
854.585	21964
854.72	21979
854.854	22070
854.988	21762
855.122	21899
855.256	21781
855.39	21960
855.524	21934
855.658	21975
855.792	21903
855.926	22013
856.06	22006
856.194	22032
856.327	21907
856.461	21827
856.595	21808
856.729	21888
856.862	22013
856.996	21998
857.13	22025
857.263	22120
857.397	22059
857.53	21880
857.664	21873
857.797	22051
857.931	22063
858.064	21987
858.197	22048
858.331	21861
858.464	21766
858.597	21762
858.731	21907
858.864	21903
858.997	21766
859.13	21949
859.263	21869
859.396	21930
859.529	21785
859.662	21876
859.795	22006
859.928	21922
860.061	22086
860.194	22055
860.327	21873
860.46	22021
860.592	22131
860.725	22010
860.858	21934
860.99	21911
861.123	21793
861.256	21789
861.388	22002
861.521	22550
861.653	21797
861.786	21599
861.918	21724
862.05	21869
862.183	21812
862.315	21732
862.447	21972
862.58	21755
862.712	21644
862.844	21462
862.976	21778
863.108	21743
863.24	21926
863.372	21553
863.504	21660
863.636	21606
863.768	21660
863.9	21568
864.032	21603
864.164	21557
864.296	21618
864.428	21755
864.559	21701
864.691	21743
864.823	21679
864.954	21485
865.086	21606
865.217	21561
865.349	21447
865.48	21416
865.612	21523
865.743	21797
865.875	21504
866.006	21450
866.137	21523
866.269	21485
866.4	21488
866.531	21397
866.662	21481
866.793	21462
866.924	21473
867.055	21511
867.186	21420
867.317	21416
867.448	21378
867.579	21431
867.71	21329
867.841	21408
867.972	21306
868.103	21275
868.233	21443
868.364	21428
868.495	21485
868.625	21591
868.756	21755
868.886	21576
869.017	21633
869.147	21800
869.278	21762
869.408	21675
869.539	21572
869.669	21717
869.799	21660
869.929	21857
870.06	21762
870.19	21987
870.32	22074
870.45	21991
870.58	22055
870.71	22154
870.84	22177
870.97	22078
871.1	22090
871.23	22303
871.36	22242
871.489	22177
871.619	22329
871.749	22211
871.879	22280
872.008	22261
872.138	22246
872.267	22272
872.397	22188
872.526	22124
872.656	22093
872.785	22139
872.915	22322
873.044	22367
873.173	22303
873.303	22295
873.432	22379
873.561	22367
873.69	22390
873.819	22402
873.948	22306
874.077	22261
874.206	22158
874.335	22188
874.464	22424
874.593	22527
874.722	22462
874.851	22394
874.979	22599
875.108	22554
875.237	22356
875.365	22299
875.494	22584
875.623	22565
875.751	22348
875.88	22440
876.008	22584
876.136	22706
876.265	22793
876.393	22984
876.521	22877
876.65	23037
876.778	22904
876.906	22915
877.034	22816
877.162	22717
877.29	22752
877.418	22908
877.546	22782
877.674	22927
877.802	22786
877.93	22755
878.058	22877
878.185	22729
878.313	22839
878.441	22957
878.568	22653
878.696	22683
878.824	22835
878.951	22812
879.079	22934
879.206	23254
879.333	23048
879.461	22854
879.588	22999
879.715	22965
879.842	23124
879.97	22946
880.097	22641
880.224	22664
880.351	22713
880.478	22752
880.605	22580
880.732	22637
880.859	22839
880.986	22679
881.112	22653
881.239	22557
881.366	22322
881.493	22371
881.619	22207
881.746	22390
881.872	22291
881.999	22295
882.125	22036
882.252	22333
882.378	22242
882.505	22287
882.631	22124
882.757	21987
882.883	21983
883.01	21987
883.136	21827
883.262	21682
883.388	21838
883.514	21884
883.64	21979
883.766	21755
883.892	21648
884.018	21660
884.143	21762
884.269	21998
884.395	21526
884.52	21462
884.646	21564
884.772	21378
884.897	21416
885.023	21625
885.148	21660
885.274	21652
885.399	21713
885.524	21538
885.65	21454
885.775	21545
885.9	21603
886.025	21534
886.15	21675
886.275	21526
886.4	21485
886.525	21329
886.65	21485
886.775	21511
886.9	21561
887.025	21751
887.149	21485
887.274	21260
887.399	21405
887.523	21241
887.648	21397
887.773	21070
887.897	21382
888.021	21374
888.146	21241
888.27	21325
888.395	21321
888.519	21447
888.643	21260
888.767	21412
888.891	21104
889.015	21169
889.139	21135
889.263	20990
889.387	21230
889.511	21344
889.635	21245
889.759	20979
889.883	21150
890.006	21116
890.13	21214
890.254	21005
890.377	21013
890.501	20910
890.624	20899
890.748	20857
890.871	20739
890.995	20590
891.118	20522
891.241	20743
891.364	20686
891.488	20826
891.611	20682
891.734	20804
891.857	20648
891.98	20716
892.103	20598
892.226	20689
892.349	20739
892.471	20419
892.594	20625
892.717	20579
892.839	20507
892.962	20571
893.085	20571
893.207	20636
893.33	20518
893.452	20480
893.575	20568
893.697	20549
893.819	20606
893.941	20758
894.064	20712
894.186	20427
894.308	20457
894.43	20689
894.552	20720
894.674	20625
894.796	20469
894.918	20499
895.04	20537
895.161	20590
895.283	20693
895.405	20427
895.526	20533
895.648	20503
895.769	20488
895.891	20587
896.012	20670
896.134	20583
896.255	20682
896.376	20446
896.498	20575
896.619	20533
896.74	20537
896.861	20621
896.982	20872
897.103	20876
897.224	20739
897.345	20746
897.466	20720
897.587	20674
897.708	20845
897.828	20777
897.949	20659
898.07	20644
898.19	20575
898.311	20864
898.431	20769
898.552	20815
898.672	20880
898.792	20804
898.913	20811
899.033	20560
899.153	20526
899.273	20446
899.393	20457
899.513	20434
899.633	20442
899.753	20499
899.873	20431
899.993	20533
900.113	20389
900.232	20389
900.352	20244
900.472	20313
900.591	20320
900.711	20225
900.83	20081
900.95	20339
901.069	20309
901.189	20263
901.308	19940
901.427	19864
901.546	19860
901.665	19822
901.784	19753
901.904	19677
902.023	19685
902.141	19438
902.26	19411
902.379	19343
902.498	19263
902.617	19240
902.735	19339
902.854	19289
902.973	19266
903.091	19046
903.21	18871
903.328	19122
903.446	18882
903.565	18829
903.683	18707
903.801	18681
903.919	18734
904.038	18661
904.156	18578
904.274	18620
904.392	18654
904.51	18547
904.627	18608
904.745	18483
904.863	18669
904.981	18361
905.098	18296
905.216	18285
905.334	18304
905.451	18243
905.569	18232
905.686	18327
905.803	18292
905.921	18007
906.038	18148
906.155	18102
906.272	18034
906.389	17946
906.506	17859
906.623	17809
906.74	17843
906.857	17729
906.974	17573
907.091	17821
907.208	17817
907.324	17775
907.441	17695
907.557	17444
907.674	17570
907.79	17379
907.907	17493
908.023	17551
908.139	17520
908.256	17349
908.372	17471
908.488	17459
908.604	17311
908.72	17143
908.836	17299
908.952	17124
909.068	17284
909.184	17254
909.3	17178
909.415	17239
909.531	17170
909.647	16938
909.762	16957
909.878	16866
909.993	16930
910.108	16812
910.224	16793
910.339	16908
910.454	16782
910.57	16713
910.685	16630
910.8	16953
910.915	16881
911.03	16645
911.145	16603
911.259	16527
911.374	16481
911.489	16493
911.604	16360
911.718	16272
911.833	16333
911.947	16086
912.062	16135
912.176	16246
912.291	16211
912.405	16181
912.519	16348
912.633	16371
912.748	16337
912.862	16291
912.976	16013
913.09	15888
913.204	15994
913.318	16082
913.431	16101
913.545	16268
913.659	16154
913.772	16032
913.886	15785
914	15861
914.113	15930
914.226	16002
914.34	15911
914.453	15675
914.566	15854
914.68	15755
914.793	15800
914.906	15572
915.019	15374
915.132	15428
915.245	15424
915.358	15447
915.47	15549
915.583	15473
915.696	15485
915.809	15591
915.921	15614
916.034	15435
916.146	15393
916.259	15332
916.371	15344
916.483	15348
916.595	15275
916.708	15294
916.82	15230
916.932	15230
917.044	15218
917.156	15222
917.268	15108
917.38	15097
917.491	15100
917.603	15047
917.715	15169
917.826	15146
917.938	15043
918.049	14971
918.161	15112
918.272	15222
918.384	15214
918.495	15055
918.606	15017
918.717	14758
918.828	14792
918.939	14811
919.05	14708
919.161	14754
919.272	14644
919.383	14754
919.494	14819
919.604	15051
919.715	14826
919.826	14720
919.936	14727
920.047	14963
920.157	14838
920.267	14960
920.378	14800
920.488	14815
920.598	14960
920.708	15032
920.818	14883
920.928	14845
921.038	15097
921.148	15047
921.258	14670
921.368	14667
921.477	14457
921.587	14476
921.697	14374
921.806	14545
921.916	14370
922.025	14233
922.134	14233
922.244	14088
922.353	14233
922.462	14031
922.571	14054
922.68	13852
922.789	13772
922.898	13731
923.007	13814
923.116	13894
923.224	13700
923.333	13689
923.442	13681
923.55	13567
923.659	13632
923.767	13700
923.876	13563
923.984	13636
924.092	13434
924.201	13502
924.309	13613
924.417	13518
924.525	13460
924.633	13472
924.741	14058
924.849	13259
924.956	13358
925.064	13221
925.172	13179
925.279	13187
925.387	13183
925.494	13164
925.602	13297
925.709	13206
925.816	13034
925.924	13145
926.031	13270
926.138	13118
926.245	13118
926.352	13061
926.459	13187
926.566	13278
926.673	13023
926.779	12970
926.886	12897
926.993	12791
927.099	12848
927.206	12715
927.312	12692
927.419	12760
927.525	12719
927.631	12764
927.737	12658
927.843	12525
927.95	12513
928.056	12517
928.162	12509
928.267	12547
928.373	13358
928.479	12738
928.585	12403
928.69	12475
928.796	12479
928.901	12456
929.007	12342
929.112	12460
929.218	12445
929.323	12258
929.428	12251
929.533	12509
929.638	12091
929.743	12270
929.848	12194
929.953	12232
930.058	12140
930.163	12011
930.267	11977
930.372	12125
930.477	11946
930.581	12155
930.685	12041
930.79	11885
930.894	11874
930.998	11752
931.103	11946
931.207	11596
931.311	11562
931.415	11414
931.519	11235
931.623	11273
