Data from test_V78500241_1385.txt Node
Date: Fri Mar 25 15:19:30 CST 2022
User: usil
Spectrometer: V785-0024
Trigger mode: 0
Integration Time (sec): 4.000000E-1
Scans to average: 1
Nonlinearity correction enabled: false
Boxcar width: 0
Storing dark spectrum: false
XAxis mode: Wavelengths
Number of Pixels in Spectrum: 1024
>>>>>Begin Spectral Data<<<<<
801.071	28173
801.214	28105
801.356	27880
801.499	27823
801.641	27724
801.783	27717
801.926	27774
802.068	27587
802.211	27797
802.353	27545
802.496	27427
802.638	27469
802.78	27458
802.923	27344
803.065	27382
803.208	27382
803.35	27363
803.492	27507
803.635	27507
803.777	27500
803.919	27656
804.061	28055
804.204	27454
804.346	27420
804.488	27580
804.63	27515
804.773	27458
804.915	27553
805.057	27667
805.199	27519
805.341	27629
805.483	27819
805.626	27682
805.768	27530
805.91	27705
806.052	27846
806.194	27713
806.336	27854
806.478	27789
806.62	27869
806.762	27899
806.904	27937
807.046	28177
807.188	28135
807.33	28226
807.472	28257
807.614	28139
807.756	28158
807.898	27994
808.04	28078
808.182	28013
808.324	28029
808.465	28158
808.607	28211
808.749	28363
808.891	28443
809.033	28561
809.174	28405
809.316	28440
809.458	28527
809.6	28314
809.741	28531
809.883	28546
810.025	28580
810.166	28733
810.308	28702
810.45	28599
810.591	28489
810.733	28405
810.875	28344
811.016	28223
811.158	28314
811.299	28519
811.441	28535
811.582	28516
811.724	28348
811.865	28303
812.007	28462
812.148	28367
812.29	28424
812.431	28474
812.573	28881
812.714	28843
812.855	28930
812.997	29098
813.138	29231
813.279	29189
813.421	28961
813.562	28915
813.703	28683
813.845	28630
813.986	28478
814.127	28128
814.268	28162
814.41	28147
814.551	28029
814.692	28276
814.833	28013
814.974	28017
815.115	28158
815.256	28124
815.397	27960
815.539	27823
815.68	27686
815.821	27838
815.962	27922
816.103	27975
816.244	27914
816.385	27728
816.526	27629
816.666	27469
816.807	27405
816.948	27473
817.089	27473
817.23	27348
817.371	27473
817.512	27389
817.653	27336
817.793	27336
817.934	27454
818.075	27424
818.216	27363
818.356	27382
818.497	27184
818.638	27131
818.778	27043
818.919	27302
819.06	27142
819.2	27230
819.341	27272
819.481	27355
819.622	27591
819.762	27679
819.903	27641
820.043	27732
820.184	27553
820.324	27439
820.465	27614
820.605	27401
820.746	27412
820.886	27321
821.026	27424
821.167	27393
821.307	27660
821.447	27435
821.588	27340
821.728	27272
821.868	26986
822.008	26826
822.149	26899
822.289	26842
822.429	26545
822.569	26476
822.709	26522
822.849	26446
822.99	26313
823.13	26282
823.27	26305
823.41	26168
823.55	26122
823.69	26229
823.83	26142
823.97	26134
824.11	25997
824.25	26046
824.389	26001
824.529	26050
824.669	26073
824.809	26126
824.949	26031
825.089	26100
825.228	26054
825.368	25780
825.508	25849
825.648	25902
825.787	25837
825.927	26005
826.067	25826
826.206	25940
826.346	25947
826.485	25925
826.625	25894
826.765	25883
826.904	25875
827.044	25616
827.183	25677
827.323	25685
827.462	25544
827.601	25548
827.741	25537
827.88	25594
828.02	25502
828.159	25605
828.298	25575
828.437	25738
828.577	25521
828.716	25685
828.855	25479
828.994	25327
829.134	25354
829.273	25320
829.412	25278
829.551	25270
829.69	25270
829.829	25301
829.968	25289
830.107	25255
830.246	25251
830.385	25289
830.524	25141
830.663	25019
830.802	25012
830.941	24825
831.08	24753
831.219	25027
831.357	25069
831.496	25152
831.635	24867
831.774	24878
831.913	24810
832.051	24700
832.19	24730
832.329	24703
832.467	24646
832.606	24555
832.744	24433
832.883	24597
833.022	24532
833.16	24483
833.299	24631
833.437	24700
833.576	24768
833.714	24528
833.852	24471
833.991	24639
834.129	24673
834.267	24783
834.406	24616
834.544	24764
834.682	24623
834.821	24505
834.959	24741
835.097	24509
835.235	24593
835.373	24570
835.511	24593
835.65	24578
835.788	24346
835.926	24346
836.064	24342
836.202	24213
836.34	24418
836.478	24563
836.615	24426
836.753	24422
836.891	24486
837.029	24479
837.167	24448
837.305	24338
837.443	24289
837.58	24216
837.718	24289
837.856	24361
837.993	24304
838.131	24254
838.269	24106
838.406	24140
838.544	24091
838.681	23935
838.819	23992
838.956	23836
839.094	23707
839.231	23790
839.369	23908
839.506	24087
839.643	24007
839.781	23882
839.918	23718
840.055	23741
840.193	23680
840.33	23630
840.467	23707
840.604	23684
840.742	23832
840.879	23573
841.016	23638
841.153	23630
841.29	23733
841.427	23657
841.564	23627
841.701	23581
841.838	23627
841.975	23497
842.112	23585
842.249	23543
842.385	23387
842.522	23646
842.659	23524
842.796	23383
842.933	23436
843.069	23402
843.206	23509
843.343	23334
843.479	23356
843.616	23478
843.752	23212
843.889	23303
844.025	23417
844.162	23273
844.298	23258
844.435	23216
844.571	23143
844.708	23151
844.844	23414
844.98	23341
845.117	23356
845.253	23258
845.389	23003
845.525	23022
845.661	23170
845.798	22885
845.934	23029
846.07	22961
846.206	22961
846.342	23102
846.478	22774
846.614	22744
846.75	22497
846.886	22573
847.022	22679
847.158	22615
847.294	22706
847.429	22767
847.565	22645
847.701	22866
847.837	22322
847.972	22455
848.108	22485
848.244	22561
848.379	22188
848.515	22230
848.65	22234
848.786	22287
848.921	22181
849.057	22253
849.192	22348
849.328	22265
849.463	22200
849.598	22196
849.734	22135
849.869	22147
850.004	21930
850.14	21994
850.275	22116
850.41	22044
850.545	21991
850.68	22063
850.815	22002
850.95	21949
851.085	22109
851.22	22067
851.355	22036
851.49	21918
851.625	21964
851.76	21979
851.895	21949
852.03	22101
852.165	22036
852.299	22082
852.434	22185
852.569	22128
852.703	21975
852.838	22074
852.973	22116
853.107	21998
853.242	21937
853.376	21751
853.511	21774
853.645	21857
853.78	21945
853.914	21819
854.048	21743
854.183	21823
854.317	21778
854.451	21934
854.585	21781
854.72	21789
854.854	21789
854.988	21671
855.122	21823
855.256	21759
855.39	21789
855.524	21873
855.658	21831
855.792	21835
855.926	21915
856.06	21922
856.194	21987
856.327	21781
856.461	21644
856.595	21652
856.729	21804
856.862	21865
856.996	21823
857.13	21804
857.263	21876
857.397	21869
857.53	21922
857.664	21979
857.797	21895
857.931	21873
858.064	21800
858.197	21895
858.331	21823
858.464	21698
858.597	21614
858.731	21766
858.864	21724
858.997	21785
859.13	21800
859.263	21774
859.396	21979
859.529	21869
859.662	21766
859.795	21709
859.928	21755
860.061	21907
860.194	21937
860.327	21865
860.46	21846
860.592	21880
860.725	21945
860.858	21968
860.99	21869
861.123	21724
861.256	21698
861.388	21911
861.521	22497
861.653	21641
861.786	21561
861.918	21614
862.05	21793
862.183	21713
862.315	21732
862.447	21816
862.58	21698
862.712	21610
862.844	21500
862.976	21496
863.108	21469
863.24	21876
863.372	21469
863.504	21530
863.636	21561
863.768	21435
863.9	21587
864.032	21450
864.164	21466
864.296	21561
864.428	21717
864.559	21568
864.691	21553
864.823	21549
864.954	21549
865.086	21420
865.217	21363
865.349	21447
865.48	21416
865.612	21469
865.743	21450
865.875	21389
866.006	21336
866.137	21348
866.269	21504
866.4	21374
866.531	21431
866.662	21393
866.793	21370
866.924	21412
867.055	21488
867.186	21443
867.317	21294
867.448	21119
867.579	21275
867.71	21203
867.841	21230
867.972	21348
868.103	21260
868.233	21420
868.364	21313
868.495	21424
868.625	21587
868.756	21698
868.886	21549
869.017	21576
869.147	21774
869.278	21747
869.408	21568
869.539	21591
869.669	21606
869.799	21439
869.929	21633
870.06	21614
870.19	21918
870.32	21903
870.45	21903
870.58	21968
870.71	22124
870.84	22025
870.97	21964
871.1	21884
871.23	22169
871.36	22078
871.489	22059
871.619	22128
871.749	22166
871.879	22143
872.008	22280
872.138	22223
872.267	22120
872.397	22082
872.526	22082
872.656	22074
872.785	22082
872.915	22215
873.044	22249
873.173	22143
873.303	22310
873.432	22207
873.561	22272
873.69	22093
873.819	22166
873.948	22211
874.077	22150
874.206	22109
874.335	22169
874.464	22173
874.593	22478
874.722	22329
874.851	22405
874.979	22443
875.108	22409
875.237	22322
875.365	22276
875.494	22204
875.623	22440
875.751	22329
875.88	22440
876.008	22455
876.136	22531
876.265	22942
876.393	22900
876.521	22790
876.65	22790
876.778	22778
876.906	22630
877.034	22702
877.162	22713
877.29	22801
877.418	22717
877.546	22748
877.674	22755
877.802	22698
877.93	22740
878.058	22672
878.185	22554
878.313	22755
878.441	22733
878.568	22565
878.696	22618
878.824	22702
878.951	22729
879.079	22805
879.206	23124
879.333	22850
879.461	22782
879.588	22889
879.715	22889
879.842	22938
879.97	22869
880.097	22596
880.224	22637
880.351	22664
880.478	22622
880.605	22512
880.732	22577
880.859	22660
880.986	22516
881.112	22542
881.239	22417
881.366	22284
881.493	22306
881.619	22181
881.746	22257
881.872	22177
881.999	22063
882.125	22093
882.252	22032
882.378	22166
882.505	22158
882.631	22040
882.757	21968
882.883	21915
883.01	21781
883.136	21797
883.262	21644
883.388	21675
883.514	21831
883.64	21751
883.766	21800
883.892	21671
884.018	21580
884.143	21759
884.269	21717
884.395	21477
884.52	21523
884.646	21431
884.772	21481
884.897	21310
885.023	21450
885.148	21526
885.274	21591
885.399	21458
885.524	21515
885.65	21424
885.775	21431
885.9	21511
886.025	21595
886.15	21568
886.275	21462
886.4	21370
886.525	21511
886.65	21485
886.775	21332
886.9	21545
887.025	21713
887.149	21454
887.274	21344
887.399	21207
887.523	21237
887.648	21268
887.773	21119
887.897	21291
888.021	21241
888.146	21188
888.27	21321
888.395	21332
888.519	21317
888.643	21245
888.767	21351
888.891	21093
889.015	21169
889.139	21085
889.263	21039
889.387	21108
889.511	21283
889.635	21131
889.759	20979
889.883	20861
890.006	21104
890.13	21100
890.254	20876
890.377	20975
890.501	20724
890.624	20815
890.748	20899
890.871	20773
890.995	20518
891.118	20537
891.241	20594
891.364	20712
891.488	20708
891.611	20583
891.734	20499
891.857	20602
891.98	20522
892.103	20735
892.226	20625
892.349	20583
892.471	20370
892.594	20450
892.717	20465
892.839	20545
892.962	20473
893.085	20587
893.207	20412
893.33	20317
893.452	20370
893.575	20541
893.697	20442
893.819	20625
893.941	20697
894.064	20667
894.186	20377
894.308	20423
894.43	20583
894.552	20564
894.674	20594
894.796	20492
894.918	20419
895.04	20419
895.161	20632
895.283	20568
895.405	20389
895.526	20507
895.648	20400
895.769	20469
895.891	20465
896.012	20488
896.134	20404
896.255	20492
896.376	20438
896.498	20438
896.619	20651
896.74	20404
896.861	20613
896.982	20834
897.103	20921
897.224	20781
897.345	20640
897.466	20674
897.587	20739
897.708	20735
897.828	20735
897.949	20568
898.07	20590
898.19	20640
898.311	20853
898.431	20621
898.552	20609
898.672	20659
898.792	20648
898.913	20564
899.033	20644
899.153	20560
899.273	20381
899.393	20473
899.513	20434
899.633	20537
899.753	20507
899.873	20419
899.993	20446
900.113	20362
900.232	20362
900.352	20396
900.472	20221
900.591	20240
900.711	20126
900.83	20229
900.95	20317
901.069	20252
901.189	20065
901.308	19849
901.427	19788
901.546	19856
901.665	19845
901.784	19833
901.904	19647
902.023	19624
902.141	19346
902.26	19396
902.379	19308
902.498	19274
902.617	19274
902.735	19278
902.854	19308
902.973	19053
903.091	18981
903.21	19023
903.328	18909
903.446	18890
903.565	18703
903.683	18783
903.801	18688
903.919	18719
904.038	18631
904.156	18464
904.274	18612
904.392	18418
904.51	18448
904.627	18593
904.745	18486
904.863	18555
904.981	18228
905.098	18334
905.216	18220
905.334	18209
905.451	18114
905.569	18121
905.686	18232
905.803	18095
905.921	18019
906.038	18038
906.155	18007
906.272	17901
906.389	17870
906.506	17756
906.623	17642
906.74	17859
906.857	17623
906.974	17680
907.091	17794
907.208	17897
907.324	17729
907.441	17478
907.557	17509
907.674	17440
907.79	17406
907.907	17417
908.023	17391
908.139	17410
908.256	17391
908.372	17337
908.488	17360
908.604	17204
908.72	17151
908.836	17162
908.952	17086
909.068	17185
909.184	17265
909.3	17117
909.415	17254
909.531	17075
909.647	16927
909.762	16820
909.878	16801
909.993	16862
910.108	16911
910.224	16755
910.339	16911
910.454	16634
910.57	16653
910.685	16618
910.8	16828
910.915	16733
911.03	16634
911.145	16550
911.259	16497
911.374	16440
911.489	16363
911.604	16310
911.718	16109
911.833	16242
911.947	16055
912.062	15960
912.176	16173
912.291	16219
912.405	16124
912.519	16386
912.633	16409
912.748	16276
912.862	16143
912.976	15964
913.09	15873
913.204	15911
913.318	16055
913.431	16086
913.545	16120
913.659	16044
913.772	16044
913.886	15854
914	15724
914.113	15831
914.226	15964
914.34	15766
914.453	15625
914.566	15774
914.68	15701
914.793	15701
914.906	15458
915.019	15393
915.132	15393
915.245	15393
915.358	15378
915.47	15287
915.583	15454
915.696	15382
915.809	15435
915.921	15435
916.034	15351
916.146	15272
916.259	15332
916.371	15298
916.483	15272
916.595	15291
916.708	15264
916.82	15173
916.932	15180
917.044	15203
917.156	15039
917.268	15032
917.38	15058
917.491	14960
917.603	15013
917.715	15051
917.826	15051
917.938	14826
918.049	14925
918.161	14933
918.272	15116
918.384	15058
918.495	14952
918.606	14819
918.717	14750
918.828	14788
918.939	14762
919.05	14613
919.161	14785
919.272	14484
919.383	14632
919.494	14792
919.604	15005
919.715	14765
919.826	14667
919.936	14811
920.047	14731
920.157	14739
920.267	14887
920.378	14739
920.488	14727
920.598	14876
920.708	14975
920.818	14906
920.928	14796
921.038	15066
921.148	14990
921.258	14716
921.368	14663
921.477	14518
921.587	14438
921.697	14393
921.806	14480
921.916	14385
922.025	14077
922.134	14206
922.244	14107
922.353	14130
922.462	13989
922.571	14005
922.68	13860
922.789	13788
922.898	13788
923.007	13666
923.116	13742
923.224	13772
923.333	13742
923.442	13643
923.55	13521
923.659	13586
923.767	13605
923.876	13506
923.984	13578
924.092	13426
924.201	13449
924.309	13445
924.417	13499
924.525	13445
924.633	13434
924.741	14168
924.849	13168
924.956	13350
925.064	13171
925.172	13042
925.279	13126
925.387	13141
925.494	13225
925.602	13247
925.709	13251
925.816	13034
925.924	13103
926.031	13232
926.138	13129
926.245	13019
926.352	12897
926.459	13149
926.566	13171
926.673	13027
926.779	12905
926.886	12871
926.993	12791
927.099	12749
927.206	12730
927.312	12601
927.419	12734
927.525	12684
927.631	12768
927.737	12544
927.843	12559
927.95	12452
928.056	12445
928.162	12597
928.267	12585
928.373	13217
928.479	12608
928.585	12380
928.69	12532
928.796	12540
928.901	12365
929.007	12186
929.112	12304
929.218	12285
929.323	12334
929.428	12296
929.533	12410
929.638	12136
929.743	12182
929.848	12300
929.953	12178
930.058	12102
930.163	12007
930.267	11950
930.372	12034
930.477	11878
930.581	12144
930.685	12068
930.79	11767
930.894	11775
930.998	11760
931.103	11999
931.207	11589
931.311	11524
931.415	11452
931.519	11223
931.623	11174
