Data from test_V78500241_443.txt Node
Date: Fri Mar 25 15:12:56 CST 2022
User: usil
Spectrometer: V785-0024
Trigger mode: 0
Integration Time (sec): 4.000000E-1
Scans to average: 1
Nonlinearity correction enabled: false
Boxcar width: 0
Storing dark spectrum: false
XAxis mode: Wavelengths
Number of Pixels in Spectrum: 1024
>>>>>Begin Spectral Data<<<<<
801.071	27142
801.214	27123
801.356	26765
801.499	26632
801.641	26838
801.783	26739
801.926	26735
802.068	26598
802.211	26579
802.353	26404
802.496	26263
802.638	26404
802.78	26298
802.923	26240
803.065	26290
803.208	26187
803.35	26271
803.492	26465
803.635	26461
803.777	26431
803.919	26370
804.061	26746
804.204	26461
804.346	26332
804.488	26370
804.63	26385
804.773	26339
804.915	26313
805.057	26423
805.199	26575
805.341	26408
805.483	26537
805.626	26431
805.768	26351
805.91	26431
806.052	26613
806.194	26450
806.336	26773
806.478	26571
806.62	26530
806.762	26720
806.904	26788
807.046	26967
807.188	26967
807.33	26849
807.472	26960
807.614	26933
807.756	26861
807.898	26807
808.04	26560
808.182	26807
808.324	26693
808.465	26868
808.607	26937
808.749	27070
808.891	27184
809.033	27039
809.174	27188
809.316	27100
809.458	27123
809.6	27039
809.741	27154
809.883	27226
810.025	27378
810.166	27427
810.308	27313
810.45	27462
810.591	27272
810.733	27154
810.875	27173
811.016	27032
811.158	26952
811.299	27173
811.441	27275
811.582	27211
811.724	26982
811.865	27051
812.007	26979
812.148	27150
812.29	27123
812.431	27047
812.573	27443
812.714	27450
812.855	27663
812.997	27861
813.138	27690
813.279	27667
813.421	27553
813.562	27789
813.703	27435
813.845	27260
813.986	27032
814.127	26979
814.268	26849
814.41	26777
814.551	26762
814.692	26937
814.833	26670
814.974	26663
815.115	26887
815.256	26648
815.397	26674
815.539	26629
815.68	26537
815.821	26537
815.962	26590
816.103	26438
816.244	26446
816.385	26453
816.526	26320
816.666	26119
816.807	26096
816.948	26145
817.089	26142
817.23	26081
817.371	26107
817.512	26031
817.653	25982
817.793	26069
817.934	25951
818.075	25978
818.216	26065
818.356	26092
818.497	25966
818.638	25624
818.778	25883
818.919	25681
819.06	25845
819.2	25932
819.341	26153
819.481	26062
819.622	26221
819.762	26290
819.903	26233
820.043	26206
820.184	26100
820.324	26210
820.465	26202
820.605	26168
820.746	26039
820.886	26065
821.026	26100
821.167	26115
821.307	26180
821.447	26122
821.588	25837
821.728	25890
821.868	25628
822.008	25411
822.149	25597
822.289	25548
822.429	25228
822.569	25091
822.709	25232
822.849	25038
822.99	25027
823.13	25015
823.27	24890
823.41	24757
823.55	24757
823.69	24852
823.83	24852
823.97	24650
824.11	24635
824.25	24661
824.389	24772
824.529	24791
824.669	24639
824.809	24669
824.949	24768
825.089	24825
825.228	24654
825.368	24540
825.508	24452
825.648	24669
825.787	24498
825.927	24555
826.067	24536
826.206	24578
826.346	24570
826.485	24639
826.625	24437
826.765	24578
826.904	24551
827.044	24197
827.183	24213
827.323	24011
827.462	24155
827.601	24311
827.741	24251
827.88	24209
828.02	24129
828.159	24152
828.298	24300
828.437	24235
828.577	24072
828.716	24334
828.855	24136
828.994	23927
829.134	23961
829.273	23950
829.412	23889
829.551	23843
829.69	23965
829.829	23950
829.968	23977
830.107	24076
830.246	24121
830.385	23798
830.524	23794
830.663	23760
830.802	23722
830.941	23535
831.08	23512
831.219	23798
831.357	23752
831.496	23855
831.635	23687
831.774	23391
831.913	23395
832.051	23440
832.19	23383
832.329	23429
832.467	23212
832.606	23242
832.744	23109
832.883	23254
833.022	23204
833.16	23227
833.299	23303
833.437	23277
833.576	23376
833.714	23307
833.852	23250
833.991	23493
834.129	23493
834.267	23505
834.406	23307
834.544	23410
834.682	23402
834.821	23231
834.959	23478
835.097	23197
835.235	23330
835.373	23322
835.511	23193
835.65	23197
835.788	23155
835.926	22942
836.064	22911
836.202	23098
836.34	23155
836.478	23162
836.615	23353
836.753	23162
836.891	23208
837.029	23273
837.167	23113
837.305	23128
837.443	23071
837.58	22908
837.718	23269
837.856	22984
837.993	22953
838.131	22995
838.269	22995
838.406	22889
838.544	22911
838.681	22615
838.819	22626
838.956	22523
839.094	22451
839.231	22512
839.369	22729
839.506	22911
839.643	22767
839.781	22455
839.918	22535
840.055	22561
840.193	22660
840.33	22363
840.467	22531
840.604	22398
840.742	22691
840.879	22287
841.016	22409
841.153	22306
841.29	22519
841.427	22436
841.564	22382
841.701	22440
841.838	22360
841.975	22314
842.112	22493
842.249	22276
842.385	22234
842.522	22451
842.659	22238
842.796	22257
842.933	22257
843.069	22204
843.206	22230
843.343	22325
843.479	22090
843.616	22253
843.752	21941
843.889	22086
844.025	22086
844.162	22021
844.298	22051
844.435	22013
844.571	22025
844.708	21991
844.844	22154
844.98	22105
845.117	22131
845.253	21960
845.389	21903
845.525	21842
845.661	21785
845.798	21759
845.934	21781
846.07	21770
846.206	21797
846.342	21842
846.478	21701
846.614	21511
846.75	21450
846.886	21424
847.022	21492
847.158	21405
847.294	21454
847.429	21507
847.565	21462
847.701	21701
847.837	21169
847.972	21154
848.108	21237
848.244	21260
848.379	21100
848.515	21028
848.65	21093
848.786	21020
848.921	20994
849.057	21161
849.192	21157
849.328	21108
849.463	20876
849.598	21005
849.734	20887
849.869	20849
850.004	20823
850.14	20887
850.275	20834
850.41	20693
850.545	20811
850.68	20758
850.815	20800
850.95	20731
851.085	20929
851.22	20902
851.355	20868
851.49	20792
851.625	20758
851.76	20602
851.895	20781
852.03	20670
852.165	20838
852.299	20811
852.434	20823
852.569	20834
852.703	20754
852.838	20937
852.973	20861
853.107	20944
853.242	20697
853.376	20613
853.511	20469
853.645	20602
853.78	20651
853.914	20636
854.048	20549
854.183	20575
854.317	20735
854.451	20807
854.585	20621
854.72	20636
854.854	20902
854.988	20522
855.122	20594
855.256	20533
855.39	20564
855.524	20724
855.658	20590
855.792	20568
855.926	20819
856.06	20682
856.194	20739
856.327	20670
856.461	20590
856.595	20648
856.729	20590
856.862	20781
856.996	20651
857.13	20708
857.263	20716
857.397	20792
857.53	20670
857.664	20682
857.797	20682
857.931	20651
858.064	20621
858.197	20788
858.331	20545
858.464	20541
858.597	20526
858.731	20518
858.864	20636
858.997	20594
859.13	20686
859.263	20613
859.396	20762
859.529	20575
859.662	20708
859.795	20507
859.928	20583
860.061	20849
860.194	20819
860.327	20743
860.46	20686
860.592	20773
860.725	20788
860.858	20613
860.99	20682
861.123	20602
861.256	20659
861.388	20667
861.521	21355
861.653	20499
861.786	20358
861.918	20549
862.05	20514
862.183	20518
862.315	20720
862.447	20606
862.58	20461
862.712	20358
862.844	20301
862.976	20412
863.108	20412
863.24	20743
863.372	20244
863.504	20199
863.636	20480
863.768	20514
863.9	20396
864.032	20168
864.164	20263
864.296	20396
864.428	20484
864.559	20427
864.691	20339
864.823	20366
864.954	20377
865.086	20286
865.217	20214
865.349	20183
865.48	20290
865.612	20134
865.743	20412
865.875	20385
866.006	20199
866.137	20225
866.269	20298
866.4	20442
866.531	20286
866.662	20233
866.793	20233
866.924	20278
867.055	20271
867.186	20130
867.317	20084
867.448	20126
867.579	20183
867.71	20214
867.841	20050
867.972	20191
868.103	20126
868.233	20157
868.364	20298
868.495	20233
868.625	20377
868.756	20358
868.886	20351
869.017	20415
869.147	20579
869.278	20571
869.408	20511
869.539	20507
869.669	20564
869.799	20495
869.929	20507
870.06	20632
870.19	20735
870.32	20670
870.45	20796
870.58	20883
870.71	20899
870.84	20895
870.97	20781
871.1	20769
871.23	21024
871.36	21096
871.489	20914
871.619	20994
871.749	20963
871.879	21013
872.008	21093
872.138	21112
872.267	21020
872.397	20925
872.526	20857
872.656	20853
872.785	20845
872.915	20994
873.044	21062
873.173	21036
873.303	21119
873.432	21142
873.561	21264
873.69	21062
873.819	21138
873.948	21089
874.077	21085
874.206	20937
874.335	21157
874.464	21131
874.593	21401
874.722	21268
874.851	21287
874.979	21325
875.108	21367
875.237	21344
875.365	21138
875.494	21264
875.623	21283
875.751	21252
875.88	21336
876.008	21507
876.136	21431
876.265	21679
876.393	21778
876.521	21755
876.65	21755
876.778	21717
876.906	21580
877.034	21599
877.162	21652
877.29	21587
877.418	21641
877.546	21614
877.674	21519
877.802	21583
877.93	21652
878.058	21705
878.185	21580
878.313	21610
878.441	21720
878.568	21458
878.696	21561
878.824	21736
878.951	21850
879.079	21934
879.206	21930
879.333	21800
879.461	21732
879.588	21804
879.715	21789
879.842	21838
879.97	21717
880.097	21606
880.224	21488
880.351	21572
880.478	21507
880.605	21443
880.732	21397
880.859	21797
880.986	21496
881.112	21511
881.239	21321
881.366	21359
881.493	21180
881.619	21070
881.746	21093
881.872	20982
881.999	20982
882.125	21043
882.252	21226
882.378	21070
882.505	21226
882.631	20925
882.757	20830
882.883	20842
883.01	20724
883.136	20815
883.262	20617
883.388	20663
883.514	20796
883.64	20830
883.766	20651
883.892	20514
884.018	20602
884.143	20746
884.269	20788
884.395	20503
884.52	20385
884.646	20450
884.772	20454
884.897	20267
885.023	20469
885.148	20507
885.274	20602
885.399	20526
885.524	20442
885.65	20518
885.775	20332
885.9	20393
886.025	20465
886.15	20530
886.275	20366
886.4	20286
886.525	20351
886.65	20370
886.775	20263
886.9	20393
887.025	20552
887.149	20275
887.274	20320
887.399	20233
887.523	20176
887.648	20142
887.773	19982
887.897	20271
888.021	20206
888.146	20206
888.27	20298
888.395	20248
888.519	20187
888.643	20180
888.767	20278
888.891	20084
889.015	19997
889.139	20088
889.263	19913
889.387	20016
889.511	20206
889.635	20164
889.759	19997
889.883	19951
890.006	20065
890.13	20115
890.254	19875
890.377	19909
890.501	19731
890.624	19597
890.748	19795
890.871	19628
890.995	19514
891.118	19514
891.241	19670
891.364	19601
891.488	19761
891.611	19639
891.734	19578
891.857	19632
891.98	19575
892.103	19597
892.226	19460
892.349	19563
892.471	19438
892.594	19537
892.717	19601
892.839	19468
892.962	19514
893.085	19457
893.207	19426
893.33	19331
893.452	19331
893.575	19643
893.697	19453
893.819	19628
893.941	19708
894.064	19647
894.186	19430
894.308	19320
894.43	19556
894.552	19624
894.674	19624
894.796	19441
894.918	19392
895.04	19533
895.161	19575
895.283	19628
895.405	19320
895.526	19476
895.648	19419
895.769	19483
895.891	19491
896.012	19571
896.134	19567
896.255	19601
896.376	19419
896.498	19506
896.619	19464
896.74	19548
896.861	19590
896.982	19845
897.103	19997
897.224	19871
897.345	19731
897.466	19556
897.587	19632
897.708	20031
897.828	19784
897.949	19700
898.07	19510
898.19	19765
898.311	19693
898.431	19681
898.552	19746
898.672	19761
898.792	19700
898.913	19742
899.033	19689
899.153	19411
899.273	19468
899.393	19415
899.513	19434
899.633	19537
899.753	19476
899.873	19438
899.993	19594
900.113	19407
900.232	19441
900.352	19476
900.472	19354
900.591	19236
900.711	19240
900.83	19266
900.95	19289
901.069	19247
901.189	19259
901.308	18787
901.427	18852
901.546	18787
901.665	18954
901.784	18859
901.904	18719
902.023	18635
902.141	18475
902.26	18494
902.379	18399
902.498	18300
902.617	18365
902.735	18380
902.854	18296
902.973	18232
903.091	18076
903.21	18102
903.328	18038
903.446	17859
903.565	17931
903.683	17817
903.801	17756
903.919	17866
904.038	17741
904.156	17665
904.274	17691
904.392	17615
904.51	17665
904.627	17630
904.745	17699
904.863	17718
904.981	17535
905.098	17330
905.216	17349
905.334	17349
905.451	17307
905.569	17223
905.686	17356
905.803	17303
905.921	17079
906.038	17250
906.155	17147
906.272	16987
906.389	17029
906.506	16847
906.623	16934
906.74	16946
906.857	16740
906.974	16748
907.091	16881
907.208	16919
907.324	16877
907.441	16771
907.557	16656
907.674	16599
907.79	16577
907.907	16634
908.023	16550
908.139	16546
908.256	16523
908.372	16497
908.488	16481
908.604	16352
908.72	16291
908.836	16318
908.952	16261
909.068	16318
909.184	16413
909.3	16287
909.415	16246
909.531	16284
909.647	16051
909.762	16032
909.878	16002
909.993	16017
910.108	15934
910.224	15998
910.339	15945
910.454	15998
910.57	15865
910.685	15766
910.8	15987
910.915	15930
911.03	15774
911.145	15686
911.259	15633
911.374	15667
911.489	15519
911.604	15481
911.718	15389
911.833	15401
911.947	15298
912.062	15203
912.176	15287
912.291	15374
912.405	15359
912.519	15511
912.633	15526
912.748	15355
912.862	15245
912.976	15211
913.09	15058
913.204	15192
913.318	15199
913.431	15256
913.545	15382
913.659	15374
913.772	15116
913.886	15119
914	14979
914.113	15043
914.226	15157
914.34	15097
914.453	14956
914.566	15013
914.68	15001
914.793	14788
914.906	14663
915.019	14678
915.132	14545
915.245	14587
915.358	14598
915.47	14720
915.583	14632
915.696	14716
915.809	14727
915.921	14724
916.034	14552
916.146	14571
916.259	14507
916.371	14686
916.483	14575
916.595	14381
916.708	14450
916.82	14465
916.932	14457
917.044	14320
917.156	14442
917.268	14278
917.38	14267
917.491	14336
917.603	14381
917.715	14415
917.826	14412
917.938	14240
918.049	14180
918.161	14290
918.272	14389
918.384	14362
918.495	14248
918.606	14111
918.717	13986
918.828	14088
918.939	14001
919.05	13951
919.161	13993
919.272	13852
919.383	13913
919.494	14016
919.604	14275
919.715	14043
919.826	13951
919.936	13944
920.047	14123
920.157	14020
920.267	14244
920.378	14100
920.488	14058
920.598	14339
920.708	14404
920.818	14263
920.928	14248
921.038	14351
921.148	14244
921.258	14001
921.368	13890
921.477	13864
921.587	13822
921.697	13620
921.806	13693
921.916	13647
922.025	13521
922.134	13460
922.244	13339
922.353	13400
922.462	13278
922.571	13221
922.68	13137
922.789	13099
922.898	13129
923.007	12966
923.116	13126
923.224	12993
923.333	13057
923.442	12970
923.55	12829
923.659	12920
923.767	12939
923.876	12844
923.984	12970
924.092	12734
924.201	12791
924.309	12837
924.417	12878
924.525	12726
924.633	12810
924.741	13693
924.849	12623
924.956	12776
925.064	12563
925.172	12441
925.279	12452
925.387	12563
925.494	12574
925.602	12677
925.709	12589
925.816	12395
925.924	12467
926.031	12570
926.138	12418
926.245	12410
926.352	12433
926.459	12509
926.566	12528
926.673	12429
926.779	12277
926.886	12277
926.993	12129
927.099	12114
927.206	12098
927.312	12110
927.419	12178
927.525	12163
927.631	12068
927.737	12003
927.843	11916
927.95	11863
928.056	11942
928.162	11824
928.267	11999
928.373	12582
928.479	12091
928.585	11798
928.69	11889
928.796	11954
928.901	11786
929.007	11672
929.112	11775
929.218	11779
929.323	11729
929.428	11745
929.533	11847
929.638	11627
929.743	11611
929.848	11748
929.953	11623
930.058	11551
930.163	11398
930.267	11417
930.372	11509
930.477	11353
930.581	11592
930.685	11387
930.79	11318
930.894	11269
930.998	11303
931.103	11360
931.207	11037
931.311	10976
931.415	10889
931.519	10767
931.623	10592
