Data from test_V78500241_973.txt Node
Date: Fri Mar 25 15:16:38 CST 2022
User: usil
Spectrometer: V785-0024
Trigger mode: 0
Integration Time (sec): 4.000000E-1
Scans to average: 1
Nonlinearity correction enabled: false
Boxcar width: 0
Storing dark spectrum: false
XAxis mode: Wavelengths
Number of Pixels in Spectrum: 1024
>>>>>Begin Spectral Data<<<<<
801.071	28337
801.214	28211
801.356	27945
801.499	27953
801.641	27751
801.783	27720
801.926	27914
802.068	27789
802.211	27663
802.353	27591
802.496	27504
802.638	27523
802.78	27466
802.923	27557
803.065	27427
803.208	27439
803.35	27507
803.492	27545
803.635	27720
803.777	27523
803.919	27622
804.061	27918
804.204	27686
804.346	27534
804.488	27534
804.63	27610
804.773	27762
804.915	27625
805.057	27778
805.199	27713
805.341	27694
805.483	27827
805.626	27800
805.768	27622
805.91	27797
806.052	27816
806.194	27652
806.336	27937
806.478	27785
806.62	27876
806.762	27831
806.904	28112
807.046	28348
807.188	28162
807.33	28093
807.472	28291
807.614	28234
807.756	28223
807.898	28040
808.04	28086
808.182	28154
808.324	28116
808.465	27930
808.607	28440
808.749	28386
808.891	28607
809.033	28569
809.174	28481
809.316	28516
809.458	28459
809.6	28531
809.741	28462
809.883	28618
810.025	28683
810.166	28672
810.308	28584
810.45	28816
810.591	28660
810.733	28542
810.875	28500
811.016	28523
811.158	28401
811.299	28535
811.441	28550
811.582	28603
811.724	28535
811.865	28519
812.007	28398
812.148	28436
812.29	28542
812.431	28592
812.573	28828
812.714	28923
812.855	29140
812.997	29159
813.138	29261
813.279	29223
813.421	28949
813.562	29025
813.703	28835
813.845	28740
813.986	28455
814.127	28150
814.268	28249
814.41	28238
814.551	28124
814.692	28344
814.833	28143
814.974	28135
815.115	28181
815.256	28139
815.397	28105
815.539	28109
815.68	28002
815.821	27979
815.962	28010
816.103	27880
816.244	27804
816.385	27873
816.526	27770
816.666	27595
816.807	27530
816.948	27477
817.089	27515
817.23	27420
817.371	27614
817.512	27523
817.653	27504
817.793	27462
817.934	27545
818.075	27542
818.216	27496
818.356	27473
818.497	27351
818.638	27173
818.778	27180
818.919	27207
819.06	27169
819.2	27435
819.341	27523
819.481	27477
819.622	27580
819.762	27861
819.903	27641
820.043	27736
820.184	27671
820.324	27523
820.465	27496
820.605	27713
820.746	27545
820.886	27367
821.026	27599
821.167	27625
821.307	27637
821.447	27583
821.588	27313
821.728	27260
821.868	26960
822.008	27036
822.149	26944
822.289	26910
822.429	26693
822.569	26609
822.709	26621
822.849	26507
822.99	26465
823.13	26533
823.27	26355
823.41	26339
823.55	26164
823.69	26427
823.83	26358
823.97	26275
824.11	26115
824.25	26012
824.389	26046
824.529	26168
824.669	26115
824.809	26286
824.949	26313
825.089	26202
825.228	26145
825.368	26005
825.508	26092
825.648	26016
825.787	25928
825.927	26122
826.067	26096
826.206	26027
826.346	26111
826.485	26092
826.625	26050
826.765	26058
826.904	25974
827.044	25776
827.183	25833
827.323	25643
827.462	25731
827.601	25708
827.741	25700
827.88	25677
828.02	25578
828.159	25662
828.298	25708
828.437	25807
828.577	25605
828.716	25715
828.855	25685
828.994	25499
829.134	25506
829.273	25449
829.412	25365
829.551	25346
829.69	25301
829.829	25499
829.968	25441
830.107	25514
830.246	25396
830.385	25312
830.524	25403
830.663	25301
830.802	25206
830.941	25046
831.08	25110
831.219	25114
831.357	25217
831.496	25164
831.635	25152
831.774	25076
831.913	24939
832.051	24871
832.19	24795
832.329	24890
832.467	24692
832.606	24787
832.744	24684
832.883	24738
833.022	24635
833.16	24711
833.299	24703
833.437	24753
833.576	24722
833.714	24772
833.852	24875
833.991	24958
834.129	24947
834.267	24905
834.406	24871
834.544	24825
834.682	24821
834.821	24768
834.959	25015
835.097	24753
835.235	24833
835.373	24703
835.511	24738
835.65	24681
835.788	24597
835.926	24532
836.064	24433
836.202	24464
836.34	24684
836.478	24696
836.615	24479
836.753	24528
836.891	24566
837.029	24673
837.167	24646
837.305	24665
837.443	24620
837.58	24521
837.718	24525
837.856	24532
837.993	24433
838.131	24433
838.269	24334
838.406	24350
838.544	24365
838.681	24121
838.819	24087
838.956	24007
839.094	23805
839.231	23885
839.369	24022
839.506	24376
839.643	24083
839.781	23885
839.918	23889
840.055	23923
840.193	23931
840.33	23790
840.467	23824
840.604	23946
840.742	24152
840.879	23775
841.016	23828
841.153	23764
841.29	23958
841.427	23870
841.564	23874
841.701	23817
841.838	23863
841.975	23726
842.112	23756
842.249	23653
842.385	23497
842.522	23840
842.659	23619
842.796	23558
842.933	23585
843.069	23543
843.206	23604
843.343	23585
843.479	23577
843.616	23539
843.752	23318
843.889	23448
844.025	23539
844.162	23315
844.298	23391
844.435	23410
844.571	23463
844.708	23395
844.844	23524
844.98	23429
845.117	23493
845.253	23216
845.389	23277
845.525	23368
845.661	23105
845.798	23174
845.934	23170
846.07	23052
846.206	23174
846.342	23212
846.478	22995
846.614	22911
846.75	22801
846.886	22835
847.022	22866
847.158	22839
847.294	22877
847.429	23014
847.565	22733
847.701	23090
847.837	22531
847.972	22557
848.108	22687
848.244	22550
848.379	22573
848.515	22447
848.65	22398
848.786	22386
848.921	22405
849.057	22519
849.192	22512
849.328	22421
849.463	22379
849.598	22325
849.734	22371
849.869	22291
850.004	22162
850.14	22291
850.275	22291
850.41	21983
850.545	22036
850.68	22124
850.815	22131
850.95	22268
851.085	22363
851.22	22360
851.355	22196
851.49	22166
851.625	22162
851.76	22116
851.895	21994
852.03	22124
852.165	22177
852.299	22234
852.434	22223
852.569	22246
852.703	22196
852.838	22139
852.973	22234
853.107	22238
853.242	21994
853.376	22093
853.511	21857
853.645	21907
853.78	22124
853.914	22116
854.048	21918
854.183	21960
854.317	22063
854.451	22261
854.585	21991
854.72	22055
854.854	22040
854.988	21895
855.122	21994
855.256	21911
855.39	21930
855.524	22036
855.658	22105
855.792	21998
855.926	22078
856.06	21991
856.194	22101
856.327	21922
856.461	21907
856.595	21979
856.729	22032
856.862	22055
856.996	22002
857.13	22086
857.263	21968
857.397	22055
857.53	22032
857.664	22032
857.797	22013
857.931	22086
858.064	22173
858.197	22143
858.331	21926
858.464	21968
858.597	21903
858.731	21998
858.864	21926
858.997	21945
859.13	21964
859.263	21945
859.396	22040
859.529	22002
859.662	21941
859.795	22029
859.928	21998
860.061	22173
860.194	22215
860.327	22112
860.46	22010
860.592	22109
860.725	22116
860.858	22124
860.99	22078
861.123	22021
861.256	21972
861.388	21968
861.521	22637
861.653	21835
861.786	21835
861.918	21876
862.05	21876
862.183	22010
862.315	21911
862.447	22051
862.58	21937
862.712	21667
862.844	21660
862.976	21774
863.108	21850
863.24	22150
863.372	21644
863.504	21625
863.636	21667
863.768	21614
863.9	21682
864.032	21583
864.164	21800
864.296	21732
864.428	21747
864.559	21857
864.691	21831
864.823	21789
864.954	21751
865.086	21709
865.217	21698
865.349	21386
865.48	21614
865.612	21614
865.743	21682
865.875	21599
866.006	21466
866.137	21599
866.269	21614
866.4	21572
866.531	21587
866.662	21553
866.793	21553
866.924	21477
867.055	21591
867.186	21580
867.317	21458
867.448	21511
867.579	21526
867.71	21370
867.841	21485
867.972	21500
868.103	21496
868.233	21534
868.364	21534
868.495	21690
868.625	21816
868.756	21865
868.886	21641
869.017	21778
869.147	21793
869.278	21937
869.408	21854
869.539	21766
869.669	21899
869.799	21846
869.929	21892
870.06	21926
870.19	22101
870.32	22067
870.45	22036
870.58	22154
870.71	22226
870.84	22242
870.97	22154
871.1	22067
871.23	22253
871.36	22417
871.489	22360
871.619	22287
871.749	22405
871.879	22402
872.008	22546
872.138	22329
872.267	22207
872.397	22131
872.526	22219
872.656	22261
872.785	22188
872.915	22405
873.044	22424
873.173	22268
873.303	22489
873.432	22447
873.561	22565
873.69	22390
873.819	22375
873.948	22276
874.077	22299
874.206	22325
874.335	22375
874.464	22584
874.593	22607
874.722	22535
874.851	22626
874.979	22588
875.108	22660
875.237	22538
875.365	22508
875.494	22497
875.623	22641
875.751	22531
875.88	22611
876.008	22763
876.136	22687
876.265	23010
876.393	23181
876.521	23010
876.65	22987
876.778	23029
876.906	22965
877.034	22908
877.162	22961
877.29	22889
877.418	22904
877.546	22927
877.674	22869
877.802	22828
877.93	22915
878.058	22968
878.185	22664
878.313	22919
878.441	22866
878.568	22675
878.696	22900
878.824	22984
878.951	23003
879.079	23140
879.206	23242
879.333	23113
879.461	22862
879.588	22946
879.715	23162
879.842	23075
879.97	22972
880.097	22725
880.224	22626
880.351	22733
880.478	22774
880.605	22626
880.732	22679
880.859	22858
880.986	22698
881.112	22717
881.239	22500
881.366	22603
881.493	22432
881.619	22230
881.746	22325
881.872	22405
881.999	22226
882.125	22341
882.252	22348
882.378	22295
882.505	22462
882.631	22147
882.757	22013
882.883	22158
883.01	21975
883.136	22006
883.262	21953
883.388	21739
883.514	21972
883.64	22093
883.766	21888
883.892	21762
884.018	21922
884.143	21987
884.269	21846
884.395	21774
884.52	21629
884.646	21713
884.772	21542
884.897	21496
885.023	21591
885.148	21717
885.274	21804
885.399	21720
885.524	21713
885.65	21755
885.775	21629
885.9	21583
886.025	21736
886.15	21629
886.275	21534
886.4	21412
886.525	21656
886.65	21488
886.775	21580
886.9	21819
887.025	21762
887.149	21564
887.274	21500
887.399	21389
887.523	21382
887.648	21408
887.773	21272
887.897	21386
888.021	21488
888.146	21332
888.27	21561
888.395	21443
888.519	21370
888.643	21363
888.767	21355
888.891	21237
889.015	21336
889.139	21245
889.263	21169
889.387	21401
889.511	21260
889.635	21317
889.759	21184
889.883	21241
890.006	21180
890.13	21195
890.254	21180
890.377	21131
890.501	21024
890.624	20872
890.748	21062
890.871	20883
890.995	20781
891.118	20693
891.241	20735
891.364	20796
891.488	20929
891.611	20746
891.734	20811
891.857	20777
891.98	20644
892.103	20750
892.226	20705
892.349	20667
892.471	20636
892.594	20629
892.717	20716
892.839	20632
892.962	20674
893.085	20670
893.207	20632
893.33	20423
893.452	20537
893.575	20720
893.697	20632
893.819	20788
893.941	20830
894.064	20800
894.186	20583
894.308	20648
894.43	20708
894.552	20731
894.674	20712
894.796	20560
894.918	20514
895.04	20522
895.161	20705
895.283	20708
895.405	20629
895.526	20609
895.648	20655
895.769	20667
895.891	20613
896.012	20743
896.134	20720
896.255	20670
896.376	20621
896.498	20655
896.619	20682
896.74	20598
896.861	20549
896.982	20944
897.103	21180
897.224	20979
897.345	20857
897.466	20804
897.587	20796
897.708	20986
897.828	20868
897.949	20712
898.07	20724
898.19	20689
898.311	20876
898.431	20735
898.552	20724
898.672	20975
898.792	20891
898.913	20788
899.033	20667
899.153	20609
899.273	20530
899.393	20533
899.513	20587
899.633	20473
899.753	20587
899.873	20545
899.993	20571
900.113	20564
900.232	20636
900.352	20495
900.472	20362
900.591	20225
900.711	20438
900.83	20282
900.95	20385
901.069	20415
901.189	20176
901.308	20005
901.427	19894
901.546	19967
901.665	19963
901.784	19887
901.904	19803
902.023	19666
902.141	19613
902.26	19400
902.379	19537
902.498	19407
902.617	19411
902.735	19422
902.854	19358
902.973	19285
903.091	19061
903.21	19179
903.328	19069
903.446	19038
903.565	18890
903.683	18981
903.801	18859
903.919	18817
904.038	18897
904.156	18646
904.274	18673
904.392	18623
904.51	18658
904.627	18635
904.745	18734
904.863	18642
904.981	18391
905.098	18304
905.216	18418
905.334	18346
905.451	18395
905.569	18292
905.686	18414
905.803	18319
905.921	18106
906.038	18186
906.155	18136
906.272	18041
906.389	18030
906.506	17859
906.623	17908
906.74	17752
906.857	17741
906.974	17737
907.091	17878
907.208	17969
907.324	17916
907.441	17684
907.557	17638
907.674	17596
907.79	17528
907.907	17471
908.023	17756
908.139	17638
908.256	17520
908.372	17478
908.488	17501
908.604	17296
908.72	17311
908.836	17242
908.952	17269
909.068	17311
909.184	17349
909.3	17239
909.415	17360
909.531	17364
909.647	17121
909.762	17041
909.878	17014
909.993	17102
910.108	16828
910.224	16885
910.339	16968
910.454	16885
910.57	16767
910.685	16809
910.8	17079
910.915	17048
911.03	16755
911.145	16615
911.259	16637
911.374	16637
911.489	16466
911.604	16466
911.718	16310
911.833	16390
911.947	16246
912.062	16181
912.176	16238
912.291	16379
912.405	16272
912.519	16485
912.633	16550
912.748	16367
912.862	16238
912.976	16150
913.09	16029
913.204	16105
913.318	16063
913.431	16150
913.545	16291
913.659	16143
913.772	16010
913.886	15979
914	15899
914.113	15998
914.226	16044
914.34	15911
914.453	15861
914.566	15922
914.68	15812
914.793	15789
914.906	15644
915.019	15568
915.132	15431
915.245	15435
915.358	15435
915.47	15530
915.583	15496
915.696	15568
915.809	15610
915.921	15614
916.034	15454
916.146	15428
916.259	15359
916.371	15496
916.483	15481
916.595	15367
916.708	15294
916.82	15321
916.932	15306
917.044	15370
917.156	15176
917.268	15241
917.38	15150
917.491	15135
917.603	15104
917.715	15218
917.826	15062
917.938	15131
918.049	15116
918.161	15116
918.272	15184
918.384	15138
918.495	15154
918.606	14998
918.717	14880
918.828	15017
918.939	14887
919.05	14815
919.161	14944
919.272	14712
919.383	14811
919.494	14883
919.604	15081
919.715	14948
919.826	14891
919.936	14788
920.047	14941
920.157	14849
920.267	15051
920.378	14876
920.488	14883
920.598	15028
920.708	15131
920.818	14971
920.928	14994
921.038	15180
921.148	15195
921.258	14864
921.368	14731
921.477	14571
921.587	14549
921.697	14454
921.806	14602
921.916	14511
922.025	14336
922.134	14202
922.244	14267
922.353	14244
922.462	14123
922.571	14111
922.68	13947
922.789	13928
922.898	13913
923.007	13780
923.116	13898
923.224	13799
923.333	13849
923.442	13704
923.55	13734
923.659	13681
923.767	13734
923.876	13605
923.984	13616
924.092	13693
924.201	13594
924.309	13571
924.417	13605
924.525	13495
924.633	13537
924.741	14343
924.849	13377
924.956	13540
925.064	13304
925.172	13259
925.279	13297
925.387	13266
925.494	13270
925.602	13335
925.709	13244
925.816	13240
925.924	13221
926.031	13293
926.138	13095
926.245	13209
926.352	13137
926.459	13240
926.566	13114
926.673	13042
926.779	13057
926.886	12916
926.993	12871
927.099	12802
927.206	12817
927.312	12719
927.419	12833
927.525	12776
927.631	12871
927.737	12707
927.843	12665
927.95	12536
928.056	12635
928.162	12582
928.267	12734
928.373	13297
928.479	12795
928.585	12513
928.69	12627
928.796	12547
928.901	12471
929.007	12365
929.112	12471
929.218	12441
929.323	12365
929.428	12330
929.533	12517
929.638	12251
929.743	12350
929.848	12300
929.953	12296
930.058	12159
930.163	12117
930.267	12076
930.372	12201
930.477	11973
930.581	12251
930.685	12034
930.79	11935
930.894	11980
930.998	11946
931.103	11935
931.207	11627
931.311	11570
931.415	11493
931.519	11318
931.623	11216
