Data from test_V78500241_2313.txt Node
Date: Fri Mar 25 15:25:57 CST 2022
User: usil
Spectrometer: V785-0024
Trigger mode: 0
Integration Time (sec): 4.000000E-1
Scans to average: 1
Nonlinearity correction enabled: false
Boxcar width: 0
Storing dark spectrum: false
XAxis mode: Wavelengths
Number of Pixels in Spectrum: 1024
>>>>>Begin Spectral Data<<<<<
801.071	27359
801.214	27211
801.356	27150
801.499	27058
801.641	27100
801.783	26967
801.926	27036
802.068	26956
802.211	26891
802.353	26868
802.496	26621
802.638	26594
802.78	26465
802.923	26625
803.065	26629
803.208	26408
803.35	26552
803.492	26777
803.635	26861
803.777	26777
803.919	26815
804.061	27131
804.204	26792
804.346	26693
804.488	26712
804.63	26765
804.773	26735
804.915	26724
805.057	26918
805.199	26632
805.341	26739
805.483	26925
805.626	26804
805.768	26746
805.91	26906
806.052	26906
806.194	26826
806.336	26967
806.478	26861
806.62	27001
806.762	26994
806.904	27051
807.046	27325
807.188	27344
807.33	27519
807.472	27351
807.614	27275
807.756	27211
807.898	27241
808.04	27085
808.182	27089
808.324	27199
808.465	27150
808.607	27416
808.749	27427
808.891	27530
809.033	27481
809.174	27561
809.316	27389
809.458	27397
809.6	27454
809.741	27504
809.883	27481
810.025	27739
810.166	27675
810.308	27679
810.45	27568
810.591	27663
810.733	27458
810.875	27606
811.016	27283
811.158	27207
811.299	27424
811.441	27534
811.582	27644
811.724	27496
811.865	27382
812.007	27416
812.148	27408
812.29	27534
812.431	27553
812.573	27914
812.714	27857
812.855	27778
812.997	28048
813.138	28177
813.279	28105
813.421	27888
813.562	27861
813.703	27835
813.845	27717
813.986	27287
814.127	27161
814.268	27252
814.41	27173
814.551	27062
814.692	27169
814.833	27055
814.974	27039
815.115	27150
815.256	26971
815.397	26864
815.539	27119
815.68	26990
815.821	27005
815.962	26868
816.103	26899
816.244	26625
816.385	26609
816.526	26598
816.666	26678
816.807	26408
816.948	26587
817.089	26499
817.23	26488
817.371	26434
817.512	26320
817.653	26339
817.793	26248
817.934	26526
818.075	26457
818.216	26404
818.356	26377
818.497	26256
818.638	26134
818.778	26145
818.919	26001
819.06	26164
819.2	26355
819.341	26385
819.481	26374
819.622	26404
819.762	26758
819.903	26686
820.043	26644
820.184	26514
820.324	26522
820.465	26442
820.605	26629
820.746	26492
820.886	26320
821.026	26480
821.167	26488
821.307	26484
821.447	26423
821.588	26183
821.728	26130
821.868	25974
822.008	25826
822.149	25906
822.289	25906
822.429	25635
822.569	25616
822.709	25605
822.849	25335
822.99	25388
823.13	25369
823.27	25209
823.41	25285
823.55	25050
823.69	25274
823.83	25160
823.97	25152
824.11	24947
824.25	24791
824.389	24913
824.529	25072
824.669	25107
824.809	25160
824.949	25107
825.089	25160
825.228	25057
825.368	24810
825.508	24939
825.648	24897
825.787	24837
825.927	24954
826.067	24939
826.206	24867
826.346	24905
826.485	24954
826.625	24661
826.765	24920
826.904	24928
827.044	24547
827.183	24608
827.323	24407
827.462	24608
827.601	24426
827.741	24589
827.88	24525
828.02	24513
828.159	24502
828.298	24582
828.437	24650
828.577	24589
828.716	24658
828.855	24388
828.994	24216
829.134	24308
829.273	24224
829.412	24167
829.551	24315
829.69	24205
829.829	24292
829.968	24315
830.107	24281
830.246	24174
830.385	24205
830.524	24159
830.663	24095
830.802	24068
830.941	23935
831.08	23859
831.219	23958
831.357	23851
831.496	24038
831.635	23779
831.774	23722
831.913	23790
832.051	23604
832.19	23699
832.329	23691
832.467	23646
832.606	23452
832.744	23596
832.883	23421
833.022	23535
833.16	23661
833.299	23630
833.437	23589
833.576	23558
833.714	23531
833.852	23615
833.991	23497
834.129	23554
834.267	23767
834.406	23661
834.544	23665
834.682	23592
834.821	23558
834.959	23668
835.097	23535
835.235	23627
835.373	23539
835.511	23524
835.65	23463
835.788	23436
835.926	23258
836.064	23265
836.202	23349
836.34	23478
836.478	23531
836.615	23471
836.753	23318
836.891	23512
837.029	23398
837.167	23379
837.305	23315
837.443	23258
837.58	23337
837.718	23406
837.856	23292
837.993	23296
838.131	23273
838.269	23235
838.406	23174
838.544	23037
838.681	22972
838.819	22904
838.956	22752
839.094	22755
839.231	22904
839.369	22953
839.506	23220
839.643	23056
839.781	22843
839.918	22683
840.055	22744
840.193	22687
840.33	22725
840.467	22637
840.604	22725
840.742	23014
840.879	22603
841.016	22672
841.153	22622
841.29	22679
841.427	22698
841.564	22660
841.701	22656
841.838	22694
841.975	22481
842.112	22580
842.249	22443
842.385	22538
842.522	22580
842.659	22489
842.796	22466
842.933	22485
843.069	22363
843.206	22344
843.343	22443
843.479	22466
843.616	22470
843.752	22249
843.889	22185
844.025	22337
844.162	22181
844.298	22246
844.435	22097
844.571	22124
844.708	22261
844.844	22314
844.98	22265
845.117	22219
845.253	22086
845.389	21987
845.525	22139
845.661	22082
845.798	21869
845.934	21983
846.07	21854
846.206	21941
846.342	22055
846.478	21869
846.614	21705
846.75	21633
846.886	21675
847.022	21739
847.158	21751
847.294	21724
847.429	21648
847.565	21614
847.701	21918
847.837	21405
847.972	21412
848.108	21591
848.244	21485
848.379	21306
848.515	21195
848.65	21157
848.786	21241
848.921	21348
849.057	21348
849.192	21306
849.328	21233
849.463	21306
849.598	21230
849.734	21241
849.869	21100
850.004	20994
850.14	21070
850.275	21028
850.41	21017
850.545	21100
850.68	21020
850.815	21058
850.95	20944
851.085	21252
851.22	21214
851.355	20982
851.49	20944
851.625	20952
851.76	21047
851.895	20937
852.03	20994
852.165	20994
852.299	20979
852.434	21112
852.569	20960
852.703	21055
852.838	21009
852.973	21214
853.107	21051
853.242	21051
853.376	20887
853.511	20769
853.645	20880
853.78	20918
853.914	20937
854.048	20785
854.183	20864
854.317	20944
854.451	21127
854.585	20815
854.72	20895
854.854	20918
854.988	20743
855.122	20823
855.256	20667
855.39	20853
855.524	20952
855.658	20986
855.792	20910
855.926	20982
856.06	20830
856.194	20899
856.327	20788
856.461	20743
856.595	20811
856.729	20872
856.862	20910
856.996	20971
857.13	20918
857.263	20918
857.397	21116
857.53	20868
857.664	20906
857.797	20819
857.931	20941
858.064	20929
858.197	21036
858.331	20864
858.464	20758
858.597	20777
858.731	20750
858.864	20849
858.997	20857
859.13	20982
859.263	20887
859.396	20853
859.529	20823
859.662	20868
859.795	20849
859.928	20872
860.061	20906
860.194	21192
860.327	20933
860.46	20925
860.592	21093
860.725	20994
860.858	21039
860.99	20937
861.123	20796
861.256	20971
861.388	20773
861.521	21523
861.653	20720
861.786	20594
861.918	20731
862.05	20609
862.183	20834
862.315	20842
862.447	20849
862.58	20792
862.712	20617
862.844	20617
862.976	20655
863.108	20640
863.24	21135
863.372	20492
863.504	20617
863.636	20598
863.768	20514
863.9	20594
864.032	20511
864.164	20484
864.296	20617
864.428	20689
864.559	20682
864.691	20579
864.823	20545
864.954	20609
865.086	20579
865.217	20473
865.349	20404
865.48	20446
865.612	20480
865.743	20552
865.875	20434
866.006	20476
866.137	20507
866.269	20465
866.4	20385
866.531	20385
866.662	20370
866.793	20317
866.924	20313
867.055	20533
867.186	20423
867.317	20473
867.448	20210
867.579	20385
867.71	20358
867.841	20305
867.972	20499
868.103	20374
868.233	20404
868.364	20492
868.495	20495
868.625	20697
868.756	20785
868.886	20663
869.017	20621
869.147	20735
869.278	20594
869.408	20697
869.539	20541
869.669	20727
869.799	20625
869.929	20739
870.06	20754
870.19	21077
870.32	20834
870.45	21043
870.58	21001
870.71	21055
870.84	21176
870.97	20998
871.1	21039
871.23	21237
871.36	21317
871.489	21188
871.619	21165
871.749	21241
871.879	21249
872.008	21313
872.138	21199
872.267	21287
872.397	21150
872.526	21005
872.656	21096
872.785	21020
872.915	21283
873.044	21325
873.173	21199
873.303	21214
873.432	21272
873.561	21275
873.69	21279
873.819	21249
873.948	21313
874.077	21393
874.206	21218
874.335	21226
874.464	21340
874.593	21538
874.722	21481
874.851	21397
874.979	21561
875.108	21481
875.237	21454
875.365	21374
875.494	21504
875.623	21530
875.751	21454
875.88	21526
876.008	21709
876.136	21652
876.265	21827
876.393	21953
876.521	22010
876.65	21835
876.778	21861
876.906	21926
877.034	21800
877.162	21739
877.29	21846
877.418	21895
877.546	21869
877.674	21739
877.802	21789
877.93	21842
878.058	21800
878.185	21732
878.313	21797
878.441	21774
878.568	21743
878.696	21690
878.824	21956
878.951	21816
879.079	22025
879.206	22059
879.333	21994
879.461	21964
879.588	22051
879.715	21960
879.842	22082
879.97	21800
880.097	21660
880.224	21663
880.351	21785
880.478	21667
880.605	21614
880.732	21572
880.859	21991
880.986	21690
881.112	21720
881.239	21504
881.366	21351
881.493	21294
881.619	21176
881.746	21199
881.872	21222
881.999	21306
882.125	21199
882.252	21313
882.378	21245
882.505	21485
882.631	21089
882.757	20895
882.883	20956
883.01	20979
883.136	20933
883.262	20857
883.388	20792
883.514	20979
883.64	20910
883.766	20842
883.892	20689
884.018	20769
884.143	20925
884.269	20891
884.395	20674
884.52	20571
884.646	20545
884.772	20636
884.897	20522
885.023	20556
885.148	20788
885.274	20716
885.399	20686
885.524	20663
885.65	20632
885.775	20609
885.9	20602
886.025	20674
886.15	20648
886.275	20629
886.4	20457
886.525	20571
886.65	20541
886.775	20400
886.9	20693
887.025	20777
887.149	20503
887.274	20343
887.399	20396
887.523	20396
887.648	20336
887.773	20259
887.897	20495
888.021	20431
888.146	20339
888.27	20457
888.395	20609
888.519	20408
888.643	20461
888.767	20396
888.891	20282
889.015	20263
889.139	20119
889.263	20164
889.387	20313
889.511	20454
889.635	20206
889.759	20248
889.883	20259
890.006	20229
890.13	20332
890.254	20244
890.377	20115
890.501	19993
890.624	19852
890.748	19989
890.871	19814
890.995	19837
891.118	19784
891.241	19795
891.364	19807
891.488	19849
891.611	19742
891.734	19708
891.857	19776
891.98	19666
892.103	19765
892.226	19685
892.349	19662
892.471	19677
892.594	19696
892.717	19708
892.839	19658
892.962	19757
893.085	19814
893.207	19696
893.33	19438
893.452	19655
893.575	19811
893.697	19582
893.819	19693
893.941	19879
894.064	19776
894.186	19655
894.308	19677
894.43	19750
894.552	19791
894.674	19742
894.796	19609
894.918	19571
895.04	19643
895.161	19742
895.283	19582
895.405	19658
895.526	19639
895.648	19658
895.769	19753
895.891	19727
896.012	19822
896.134	19738
896.255	19719
896.376	19746
896.498	19635
896.619	19845
896.74	19571
896.861	19738
896.982	19986
897.103	20119
897.224	20069
897.345	19955
897.466	19757
897.587	19932
897.708	20081
897.828	19982
897.949	19799
898.07	19696
898.19	19811
898.311	20012
898.431	19799
898.552	19852
898.672	19898
898.792	19928
898.913	19845
899.033	19750
899.153	19772
899.273	19666
899.393	19674
899.513	19769
899.633	19689
899.753	19613
899.873	19643
899.993	19586
900.113	19647
900.232	19620
900.352	19567
900.472	19552
900.591	19403
900.711	19453
900.83	19441
900.95	19548
901.069	19559
901.189	19289
901.308	19084
901.427	19031
901.546	19091
901.665	18932
901.784	19080
901.904	18951
902.023	18848
902.141	18612
902.26	18578
902.379	18745
902.498	18623
902.617	18452
902.735	18601
902.854	18582
902.973	18490
903.091	18144
903.21	18304
903.328	18194
903.446	18117
903.565	18064
903.683	18022
903.801	17942
903.919	18095
904.038	17961
904.156	17855
904.274	17939
904.392	17790
904.51	17843
904.627	17767
904.745	17817
904.863	17897
904.981	17592
905.098	17497
905.216	17543
905.334	17543
905.451	17497
905.569	17471
905.686	17459
905.803	17387
905.921	17204
906.038	17349
906.155	17353
906.272	17239
906.389	17322
906.506	17006
906.623	16976
906.74	17010
906.857	16862
906.974	16919
907.091	17083
907.208	17056
907.324	16938
907.441	16949
907.557	16782
907.674	16752
907.79	16744
907.907	16687
908.023	16816
908.139	16771
908.256	16694
908.372	16603
908.488	16615
908.604	16485
908.72	16352
908.836	16554
908.952	16417
909.068	16550
909.184	16584
909.3	16462
909.415	16421
909.531	16451
909.647	16211
909.762	16181
909.878	16150
909.993	16158
910.108	16071
910.224	16112
910.339	16177
910.454	16044
910.57	15884
910.685	15857
910.8	16105
910.915	16135
911.03	16074
911.145	15869
911.259	15850
911.374	15709
911.489	15599
911.604	15705
911.718	15545
911.833	15618
911.947	15317
912.062	15306
912.176	15412
912.291	15477
912.405	15515
912.519	15648
912.633	15656
912.748	15591
912.862	15534
912.976	15428
913.09	15233
913.204	15268
913.318	15329
913.431	15439
913.545	15306
913.659	15420
913.772	15203
913.886	15161
914	15108
914.113	15317
914.226	15256
914.34	15256
914.453	15077
914.566	15119
914.68	15020
914.793	14990
914.906	14739
915.019	14724
915.132	14731
915.245	14815
915.358	14792
915.47	14777
915.583	14769
915.696	14796
915.809	14842
915.921	14853
916.034	14765
916.146	14712
916.259	14686
916.371	14800
916.483	14796
916.595	14644
916.708	14610
916.82	14651
916.932	14526
917.044	14495
917.156	14454
917.268	14526
917.38	14446
917.491	14480
917.603	14370
917.715	14545
917.826	14484
917.938	14412
918.049	14324
918.161	14370
918.272	14473
918.384	14549
918.495	14259
918.606	14248
918.717	14172
918.828	14191
918.939	14267
919.05	14065
919.161	14145
919.272	13974
919.383	14088
919.494	14229
919.604	14332
919.715	14077
919.826	14050
919.936	14092
920.047	14225
920.157	14199
920.267	14256
920.378	14126
920.488	14043
920.598	14347
920.708	14442
920.818	14343
920.928	14324
921.038	14446
921.148	14385
921.258	13997
921.368	14020
921.477	13925
921.587	13894
921.697	13734
921.806	13940
921.916	13772
922.025	13632
922.134	13666
922.244	13518
922.353	13620
922.462	13392
922.571	13464
922.68	13225
922.789	13263
922.898	13244
923.007	13129
923.116	13213
923.224	13221
923.333	13168
923.442	13034
923.55	13031
923.659	12966
923.767	13103
923.876	13046
923.984	13046
924.092	12920
924.201	13008
924.309	12932
924.417	12954
924.525	12821
924.633	12856
924.741	13814
924.849	12730
924.956	12817
925.064	12658
925.172	12574
925.279	12566
925.387	12650
925.494	12627
925.602	12764
925.709	12684
925.816	12544
925.924	12620
926.031	12658
926.138	12570
926.245	12627
926.352	12506
926.459	12623
926.566	12692
926.673	12547
926.779	12391
926.886	12395
926.993	12277
927.099	12285
927.206	12213
927.312	12232
927.419	12289
927.525	12258
927.631	12216
927.737	12083
927.843	12102
927.95	12022
928.056	11984
928.162	12038
928.267	12041
928.373	12578
928.479	12159
928.585	11885
928.69	11977
928.796	11992
928.901	11942
929.007	11805
929.112	11893
929.218	11889
929.323	11805
929.428	11714
929.533	11946
929.638	11783
929.743	11684
929.848	11756
929.953	11688
930.058	11665
930.163	11406
930.267	11558
930.372	11611
930.477	11467
930.581	11600
930.685	11535
930.79	11356
930.894	11414
930.998	11334
931.103	11528
931.207	11178
931.311	11121
931.415	10984
931.519	10736
931.623	10778
