Data from test_V78500241_352.txt Node
Date: Fri Mar 25 15:12:18 CST 2022
User: usil
Spectrometer: V785-0024
Trigger mode: 0
Integration Time (sec): 4.000000E-1
Scans to average: 1
Nonlinearity correction enabled: false
Boxcar width: 0
Storing dark spectrum: false
XAxis mode: Wavelengths
Number of Pixels in Spectrum: 1024
>>>>>Begin Spectral Data<<<<<
801.071	27001
801.214	27176
801.356	26876
801.499	26842
801.641	26522
801.783	26453
801.926	26693
802.068	26682
802.211	26571
802.353	26453
802.496	26415
802.638	26259
802.78	26381
802.923	26225
803.065	26149
803.208	26153
803.35	26210
803.492	26408
803.635	26476
803.777	26221
803.919	26541
804.061	26701
804.204	26374
804.346	26301
804.488	26275
804.63	26461
804.773	26275
804.915	26374
805.057	26488
805.199	26465
805.341	26625
805.483	26583
805.626	26358
805.768	26332
805.91	26629
806.052	26579
806.194	26438
806.336	26632
806.478	26461
806.62	26457
806.762	26552
806.904	26765
807.046	27005
807.188	26906
807.33	26944
807.472	26998
807.614	26902
807.756	26849
807.898	26537
808.04	26689
808.182	26720
808.324	26754
808.465	26769
808.607	26891
808.749	26933
808.891	27245
809.033	27408
809.174	27184
809.316	27154
809.458	27055
809.6	26982
809.741	27096
809.883	27112
810.025	27306
810.166	27218
810.308	27332
810.45	27302
810.591	27211
810.733	27039
810.875	27085
811.016	27058
811.158	26956
811.299	27146
811.441	27252
811.582	27135
811.724	26944
811.865	26986
812.007	26982
812.148	27100
812.29	27211
812.431	27260
812.573	27427
812.714	27420
812.855	27481
812.997	27865
813.138	27880
813.279	27637
813.421	27713
813.562	27545
813.703	27382
813.845	27192
813.986	27055
814.127	26849
814.268	26670
814.41	26648
814.551	26636
814.692	26682
814.833	26587
814.974	26640
815.115	26811
815.256	26461
815.397	26613
815.539	26492
815.68	26499
815.821	26511
815.962	26655
816.103	26404
816.244	26374
816.385	26244
816.526	26157
816.666	26115
816.807	26008
816.948	26005
817.089	26130
817.23	25868
817.371	25955
817.512	25887
817.653	26039
817.793	25925
817.934	25936
818.075	26005
818.216	26008
818.356	25966
818.497	25761
818.638	25795
818.778	25708
818.919	25734
819.06	25723
819.2	25818
819.341	25833
819.481	26027
819.622	26157
819.762	26339
819.903	26240
820.043	26062
820.184	26008
820.324	26092
820.465	26240
820.605	26271
820.746	26031
820.886	25974
821.026	26202
821.167	26058
821.307	26077
821.447	25963
821.588	25902
821.728	25826
821.868	25639
822.008	25567
822.149	25434
822.289	25441
822.429	25232
822.569	25080
822.709	25122
822.849	25076
822.99	25027
823.13	24932
823.27	24935
823.41	24806
823.55	24734
823.69	24707
823.83	24745
823.97	24837
824.11	24631
824.25	24391
824.389	24513
824.529	24669
824.669	24616
824.809	24715
824.949	24627
825.089	24654
825.228	24566
825.368	24574
825.508	24544
825.648	24422
825.787	24407
825.927	24525
826.067	24471
826.206	24452
826.346	24540
826.485	24357
826.625	24422
826.765	24696
826.904	24441
827.044	24235
827.183	24239
827.323	24194
827.462	24106
827.601	24224
827.741	24098
827.88	24235
828.02	23939
828.159	24095
828.298	24194
828.437	24140
828.577	24034
828.716	24296
828.855	24064
828.994	23897
829.134	24022
829.273	23916
829.412	23927
829.551	23680
829.69	23874
829.829	23859
829.968	23889
830.107	24053
830.246	23958
830.385	23836
830.524	23805
830.663	23611
830.802	23604
830.941	23471
831.08	23543
831.219	23676
831.357	23638
831.496	23604
831.635	23421
831.774	23455
831.913	23455
832.051	23353
832.19	23417
832.329	23528
832.467	23265
832.606	23162
832.744	23212
832.883	23273
833.022	23239
833.16	23261
833.299	23227
833.437	23353
833.576	23277
833.714	23200
833.852	23273
833.991	23227
834.129	23318
834.267	23372
834.406	23265
834.544	23261
834.682	23311
834.821	23204
834.959	23379
835.097	23132
835.235	23261
835.373	23322
835.511	23200
835.65	23128
835.788	23086
835.926	22915
836.064	23052
836.202	22923
836.34	23250
836.478	23239
836.615	23079
836.753	23090
836.891	23140
837.029	23185
837.167	22976
837.305	22972
837.443	23044
837.58	22961
837.718	23098
837.856	23003
837.993	23003
838.131	23033
838.269	22858
838.406	22774
838.544	22778
838.681	22489
838.819	22615
838.956	22500
839.094	22428
839.231	22478
839.369	22611
839.506	22763
839.643	22660
839.781	22417
839.918	22428
840.055	22424
840.193	22299
840.33	22325
840.467	22512
840.604	22538
840.742	22634
840.879	22344
841.016	22348
841.153	22253
841.29	22542
841.427	22459
841.564	22489
841.701	22413
841.838	22158
841.975	22352
842.112	22333
842.249	22253
842.385	22185
842.522	22386
842.659	22196
842.796	22112
842.933	22124
843.069	22112
843.206	22025
843.343	22169
843.479	22173
843.616	22166
843.752	21922
843.889	22006
844.025	22078
844.162	21915
844.298	21953
844.435	21937
844.571	21816
844.708	21892
844.844	22128
844.98	22082
845.117	22067
845.253	21899
845.389	21793
845.525	21800
845.661	21751
845.798	21667
845.934	21603
846.07	21606
846.206	21603
846.342	21804
846.478	21637
846.614	21389
846.75	21325
846.886	21370
847.022	21496
847.158	21382
847.294	21363
847.429	21393
847.565	21336
847.701	21580
847.837	21161
847.972	21112
848.108	21272
848.244	21116
848.379	21032
848.515	21032
848.65	20944
848.786	20952
848.921	21013
849.057	21154
849.192	21009
849.328	20929
849.463	20967
849.598	20876
849.734	20979
849.869	20849
850.004	20811
850.14	20830
850.275	20651
850.41	20556
850.545	20727
850.68	20678
850.815	20826
850.95	20762
851.085	20952
851.22	20819
851.355	20754
851.49	20804
851.625	20632
851.76	20659
851.895	20750
852.03	20518
852.165	20785
852.299	20739
852.434	20815
852.569	20697
852.703	20823
852.838	20811
852.973	20868
853.107	20838
853.242	20701
853.376	20530
853.511	20461
853.645	20492
853.78	20609
853.914	20549
854.048	20556
854.183	20583
854.317	20568
854.451	20693
854.585	20537
854.72	20518
854.854	20644
854.988	20415
855.122	20507
855.256	20415
855.39	20583
855.524	20609
855.658	20598
855.792	20682
855.926	20511
856.06	20590
856.194	20640
856.327	20419
856.461	20495
856.595	20461
856.729	20549
856.862	20686
856.996	20655
857.13	20655
857.263	20655
857.397	20674
857.53	20530
857.664	20651
857.797	20651
857.931	20648
858.064	20564
858.197	20640
858.331	20484
858.464	20469
858.597	20461
858.731	20446
858.864	20571
858.997	20434
859.13	20507
859.263	20549
859.396	20594
859.529	20442
859.662	20492
859.795	20518
859.928	20518
860.061	20625
860.194	20739
860.327	20678
860.46	20579
860.592	20750
860.725	20663
860.858	20769
860.99	20552
861.123	20457
861.256	20537
861.388	20632
861.521	21218
861.653	20480
861.786	20271
861.918	20431
862.05	20366
862.183	20530
862.315	20530
862.447	20571
862.58	20552
862.712	20358
862.844	20195
862.976	20309
863.108	20366
863.24	20758
863.372	20161
863.504	20214
863.636	20233
863.768	20339
863.9	20168
864.032	20145
864.164	20301
864.296	20385
864.428	20400
864.559	20336
864.691	20347
864.823	20278
864.954	20218
865.086	20290
865.217	20153
865.349	20199
865.48	20256
865.612	20214
865.743	20301
865.875	20218
866.006	20138
866.137	20202
866.269	20218
866.4	20195
866.531	20153
866.662	20062
866.793	20081
866.924	20130
867.055	20107
867.186	20164
867.317	20115
867.448	20130
867.579	20168
867.71	19978
867.841	20027
867.972	20221
868.103	20157
868.233	20187
868.364	20081
868.495	20218
868.625	20336
868.756	20507
868.886	20389
869.017	20286
869.147	20488
869.278	20412
869.408	20374
869.539	20377
869.669	20442
869.799	20427
869.929	20537
870.06	20590
870.19	20678
870.32	20594
870.45	20746
870.58	20792
870.71	20883
870.84	20807
870.97	20792
871.1	20849
871.23	20979
871.36	21047
871.489	20842
871.619	21005
871.749	20956
871.879	20944
872.008	21085
872.138	20990
872.267	21024
872.397	20785
872.526	20864
872.656	20765
872.785	20739
872.915	21127
873.044	21013
873.173	21001
873.303	21112
873.432	21066
873.561	21218
873.69	21005
873.819	20819
873.948	21116
874.077	20883
874.206	20906
874.335	20986
874.464	21055
874.593	21245
874.722	21237
874.851	21268
874.979	21230
875.108	21283
875.237	21093
875.365	21249
875.494	21302
875.623	21142
875.751	21226
875.88	21203
876.008	21458
876.136	21435
876.265	21534
876.393	21823
876.521	21671
876.65	21759
876.778	21660
876.906	21561
877.034	21561
877.162	21641
877.29	21591
877.418	21682
877.546	21637
877.674	21580
877.802	21603
877.93	21587
878.058	21500
878.185	21462
878.313	21564
878.441	21534
878.568	21477
878.696	21557
878.824	21625
878.951	21671
879.079	21656
879.206	21861
879.333	21705
879.461	21637
879.588	21530
879.715	21781
879.842	21930
879.97	21720
880.097	21359
880.224	21428
880.351	21587
880.478	21393
880.605	21211
880.732	21393
880.859	21660
880.986	21382
881.112	21355
881.239	21378
881.366	21211
881.493	21089
881.619	21001
881.746	21146
881.872	20990
881.999	20963
882.125	20933
882.252	20994
882.378	21028
882.505	20994
882.631	20899
882.757	20758
882.883	20857
883.01	20701
883.136	20636
883.262	20663
883.388	20545
883.514	20724
883.64	20701
883.766	20663
883.892	20579
884.018	20613
884.143	20636
884.269	20754
884.395	20377
884.52	20309
884.646	20488
884.772	20343
884.897	20328
885.023	20351
885.148	20381
885.274	20484
885.399	20514
885.524	20450
885.65	20385
885.775	20377
885.9	20423
886.025	20442
886.15	20358
886.275	20313
886.4	20233
886.525	20294
886.65	20309
886.775	20164
886.9	20522
887.025	20632
887.149	20332
887.274	20275
887.399	20142
887.523	20069
887.648	19959
887.773	20069
887.897	20290
888.021	20233
888.146	20149
888.27	20244
888.395	20126
888.519	20191
888.643	20027
888.767	20206
888.891	20153
889.015	19818
889.139	19917
889.263	19849
889.387	20005
889.511	20229
889.635	20065
889.759	19932
889.883	19856
890.006	19936
890.13	19951
890.254	19974
890.377	19997
890.501	19712
890.624	19693
890.748	19795
890.871	19647
890.995	19476
891.118	19483
891.241	19506
891.364	19506
891.488	19609
891.611	19521
891.734	19635
891.857	19571
891.98	19666
892.103	19609
892.226	19620
892.349	19491
892.471	19373
892.594	19441
892.717	19426
892.839	19430
892.962	19445
893.085	19457
893.207	19453
893.33	19419
893.452	19377
893.575	19438
893.697	19411
893.819	19609
893.941	19666
894.064	19597
894.186	19384
894.308	19438
894.43	19403
894.552	19567
894.674	19533
894.796	19285
894.918	19460
895.04	19388
895.161	19651
895.283	19472
895.405	19369
895.526	19487
895.648	19346
895.769	19419
895.891	19487
896.012	19392
896.134	19434
896.255	19426
896.376	19441
896.498	19514
896.619	19506
896.74	19346
896.861	19304
896.982	19788
897.103	19936
897.224	19742
897.345	19655
897.466	19712
897.587	19769
897.708	19852
897.828	19662
897.949	19548
898.07	19438
898.19	19586
898.311	19814
898.431	19601
898.552	19620
898.672	19788
898.792	19655
898.913	19757
899.033	19521
899.153	19480
899.273	19335
899.393	19529
899.513	19358
899.633	19301
899.753	19457
899.873	19449
899.993	19304
900.113	19289
900.232	19430
900.352	19255
900.472	19247
900.591	19148
900.711	19293
900.83	19160
900.95	19350
901.069	19320
901.189	19160
901.308	18848
901.427	18764
901.546	18852
901.665	18806
901.784	18722
901.904	18646
902.023	18570
902.141	18372
902.26	18361
902.379	18456
902.498	18235
902.617	18155
902.735	18285
902.854	18315
902.973	18213
903.091	17942
903.21	17977
903.328	18068
903.446	17855
903.565	17901
903.683	17771
903.801	17703
903.919	17729
904.038	17798
904.156	17589
904.274	17642
904.392	17627
904.51	17653
904.627	17649
904.745	17649
904.863	17653
904.981	17296
905.098	17318
905.216	17242
905.334	17280
905.451	17273
905.569	17185
905.686	17326
905.803	17254
905.921	17162
906.038	17128
906.155	17204
906.272	16987
906.389	17037
906.506	16869
906.623	16790
906.74	16793
906.857	16744
906.974	16790
907.091	16889
907.208	16831
907.324	16972
907.441	16729
907.557	16618
907.674	16462
907.79	16421
907.907	16561
908.023	16622
908.139	16512
908.256	16500
908.372	16428
908.488	16519
908.604	16261
908.72	16314
908.836	16249
908.952	16185
909.068	16215
909.184	16337
909.3	16234
909.415	16162
909.531	16299
909.647	16002
909.762	16036
909.878	15968
909.993	15960
910.108	15895
910.224	15922
910.339	15888
910.454	15869
910.57	15808
910.685	15701
910.8	16036
910.915	15880
911.03	15789
911.145	15736
911.259	15538
911.374	15568
911.489	15485
911.604	15454
911.718	15260
911.833	15344
911.947	15241
912.062	15195
912.176	15321
912.291	15241
912.405	15351
912.519	15424
912.633	15424
912.748	15412
912.862	15329
912.976	15131
913.09	15081
913.204	15138
913.318	15131
913.431	15237
913.545	15203
913.659	15230
913.772	15116
913.886	14861
914	14895
914.113	15066
914.226	15074
914.34	14982
914.453	14845
914.566	14902
914.68	14838
914.793	14765
914.906	14644
915.019	14617
915.132	14602
915.245	14602
915.358	14579
915.47	14556
915.583	14663
915.696	14602
915.809	14640
915.921	14693
916.034	14526
916.146	14533
916.259	14495
916.371	14571
916.483	14488
916.595	14568
916.708	14476
916.82	14408
916.932	14412
917.044	14454
917.156	14313
917.268	14252
917.38	14278
917.491	14161
917.603	14233
917.715	14206
917.826	14343
917.938	14237
918.049	14107
918.161	14248
918.272	14347
918.384	14374
918.495	14153
918.606	14096
918.717	13909
918.828	14077
918.939	14062
919.05	13902
919.161	14039
919.272	13852
919.383	13864
919.494	14103
919.604	14142
919.715	13989
919.826	13917
919.936	13868
920.047	14046
920.157	14077
920.267	14225
920.378	13913
920.488	13963
920.598	14153
920.708	14263
920.818	14161
920.928	14103
921.038	14301
921.148	14168
921.258	13913
921.368	13849
921.477	13742
921.587	13670
921.697	13567
921.806	13772
921.916	13590
922.025	13411
922.134	13438
922.244	13350
922.353	13426
922.462	13308
922.571	13194
922.68	13080
922.789	13042
922.898	13110
923.007	13057
923.116	13110
923.224	12996
923.333	12993
923.442	12905
923.55	12871
923.659	12943
923.767	12920
923.876	12833
923.984	12867
924.092	12825
924.201	12867
924.309	12753
924.417	12875
924.525	12688
924.633	12734
924.741	13449
924.849	12494
924.956	12700
925.064	12532
925.172	12391
925.279	12513
925.387	12540
925.494	12540
925.602	12532
925.709	12547
925.816	12346
925.924	12426
926.031	12467
926.138	12521
926.245	12521
926.352	12357
926.459	12486
926.566	12471
926.673	12407
926.779	12273
926.886	12209
926.993	12155
927.099	12095
927.206	12064
927.312	11999
927.419	12136
927.525	12068
927.631	12060
927.737	11920
927.843	11996
927.95	11817
928.056	11912
928.162	11912
928.267	11920
928.373	12604
928.479	11942
928.585	11767
928.69	11870
928.796	11939
928.901	11707
929.007	11596
929.112	11672
929.218	11668
929.323	11695
929.428	11589
929.533	11783
929.638	11509
929.743	11638
929.848	11623
929.953	11535
930.058	11452
930.163	11341
930.267	11280
930.372	11524
930.477	11303
930.581	11532
930.685	11307
930.79	11227
930.894	11185
930.998	11155
931.103	11345
931.207	10999
931.311	10953
931.415	10858
931.519	10641
931.623	10630
