Data from test_V78500241_353.txt Node
Date: Fri Mar 25 15:12:19 CST 2022
User: usil
Spectrometer: V785-0024
Trigger mode: 0
Integration Time (sec): 4.000000E-1
Scans to average: 1
Nonlinearity correction enabled: false
Boxcar width: 0
Storing dark spectrum: false
XAxis mode: Wavelengths
Number of Pixels in Spectrum: 1024
>>>>>Begin Spectral Data<<<<<
801.071	27089
801.214	26929
801.356	26811
801.499	26823
801.641	26598
801.783	26530
801.926	26670
802.068	26499
802.211	26545
802.353	26564
802.496	26355
802.638	26309
802.78	26271
802.923	26229
803.065	26183
803.208	26218
803.35	26244
803.492	26374
803.635	26347
803.777	26267
803.919	26473
804.061	26716
804.204	26271
804.346	26317
804.488	26263
804.63	26309
804.773	26358
804.915	26355
805.057	26530
805.199	26377
805.341	26450
805.483	26415
805.626	26484
805.768	26301
805.91	26438
806.052	26537
806.194	26431
806.336	26606
806.478	26526
806.62	26499
806.762	26556
806.904	26724
807.046	27039
807.188	26785
807.33	26880
807.472	26967
807.614	26876
807.756	26724
807.898	26686
808.04	26697
808.182	26613
808.324	26682
808.465	26819
808.607	26990
808.749	27009
808.891	27161
809.033	27214
809.174	27283
809.316	27180
809.458	27119
809.6	27180
809.741	27192
809.883	27089
810.025	27367
810.166	27367
810.308	27268
810.45	27298
810.591	27397
810.733	27203
810.875	27142
811.016	26979
811.158	26872
811.299	27077
811.441	27207
811.582	27306
811.724	27123
811.865	26918
812.007	27036
812.148	27104
812.29	27024
812.431	27116
812.573	27336
812.714	27530
812.855	27549
812.997	27671
813.138	27823
813.279	27671
813.421	27629
813.562	27542
813.703	27325
813.845	27283
813.986	26979
814.127	26948
814.268	26716
814.41	26724
814.551	26724
814.692	26868
814.833	26648
814.974	26667
815.115	26697
815.256	26530
815.397	26648
815.539	26629
815.68	26545
815.821	26488
815.962	26495
816.103	26518
816.244	26328
816.385	26161
816.526	26221
816.666	26100
816.807	26069
816.948	26157
817.089	26161
817.23	26180
817.371	26050
817.512	26107
817.653	26046
817.793	25997
817.934	25883
818.075	26043
818.216	26073
818.356	25986
818.497	25913
818.638	25700
818.778	25731
818.919	25662
819.06	25852
819.2	25917
819.341	25932
819.481	25913
819.622	25925
819.762	26339
819.903	26362
820.043	26134
820.184	26157
820.324	26092
820.465	26088
820.605	25966
820.746	25932
820.886	26054
821.026	25966
821.167	26005
821.307	26218
821.447	26054
821.588	25879
821.728	25723
821.868	25662
822.008	25563
822.149	25350
822.289	25441
822.429	25190
822.569	25137
822.709	25126
822.849	24996
822.99	24970
823.13	24897
823.27	24973
823.41	24776
823.55	24795
823.69	24772
823.83	24730
823.97	24779
824.11	24612
824.25	24422
824.389	24608
824.529	24776
824.669	24681
824.809	24787
824.949	24688
825.089	24726
825.228	24681
825.368	24350
825.508	24422
825.648	24536
825.787	24448
825.927	24642
826.067	24528
826.206	24422
826.346	24521
826.485	24536
826.625	24452
826.765	24593
826.904	24498
827.044	24125
827.183	24220
827.323	24106
827.462	24372
827.601	24228
827.741	24144
827.88	24140
828.02	24030
828.159	24152
828.298	24243
828.437	24243
828.577	24034
828.716	24300
828.855	24125
828.994	23950
829.134	23931
829.273	23939
829.412	23863
829.551	24011
829.69	23889
829.829	23813
829.968	23958
830.107	23980
830.246	23870
830.385	23961
830.524	23916
830.663	23767
830.802	23566
830.941	23459
831.08	23566
831.219	23589
831.357	23619
831.496	23798
831.635	23581
831.774	23368
831.913	23299
832.051	23417
832.19	23353
832.329	23292
832.467	23231
832.606	23037
832.744	23235
832.883	23140
833.022	23239
833.16	23353
833.299	23239
833.437	23341
833.576	23330
833.714	23288
833.852	23414
833.991	23471
834.129	23395
834.267	23292
834.406	23322
834.544	23410
834.682	23372
834.821	23269
834.959	23429
835.097	23181
835.235	23383
835.373	23246
835.511	23280
835.65	23121
835.788	23094
835.926	23018
836.064	22984
836.202	23014
836.34	23121
836.478	23383
836.615	23181
836.753	23083
836.891	23174
837.029	23090
837.167	22938
837.305	23193
837.443	23006
837.58	22938
837.718	23102
837.856	22953
837.993	22892
838.131	23044
838.269	22763
838.406	22858
838.544	22847
838.681	22618
838.819	22557
838.956	22561
839.094	22409
839.231	22470
839.369	22531
839.506	22733
839.643	22691
839.781	22455
839.918	22470
840.055	22535
840.193	22348
840.33	22421
840.467	22398
840.604	22409
840.742	22615
840.879	22363
841.016	22322
841.153	22318
841.29	22451
841.427	22363
841.564	22413
841.701	22538
841.838	22215
841.975	22360
842.112	22272
842.249	22299
842.385	22090
842.522	22443
842.659	22158
842.796	22169
842.933	22154
843.069	22226
843.206	22147
843.343	22226
843.479	22181
843.616	22185
843.752	21964
843.889	21911
844.025	22131
844.162	21876
844.298	22013
844.435	21918
844.571	21778
844.708	21930
844.844	22097
844.98	22051
845.117	22032
845.253	22048
845.389	21823
845.525	21873
845.661	21789
845.798	21713
845.934	21667
846.07	21713
846.206	21804
846.342	21876
846.478	21728
846.614	21504
846.75	21450
846.886	21450
847.022	21458
847.158	21610
847.294	21416
847.429	21439
847.565	21431
847.701	21736
847.837	21161
847.972	21108
848.108	21211
848.244	21279
848.379	21009
848.515	21123
848.65	21077
848.786	21154
848.921	21058
849.057	21074
849.192	21192
849.328	20979
849.463	20948
849.598	21001
849.734	20792
849.869	20910
850.004	20697
850.14	20823
850.275	20731
850.41	20686
850.545	20667
850.68	20667
850.815	20921
850.95	20785
851.085	20956
851.22	20800
851.355	20750
851.49	20743
851.625	20815
851.76	20773
851.895	20667
852.03	20636
852.165	20762
852.299	20906
852.434	20914
852.569	20826
852.703	20800
852.838	20899
852.973	20842
853.107	20979
853.242	20674
853.376	20655
853.511	20495
853.645	20522
853.78	20625
853.914	20480
854.048	20514
854.183	20651
854.317	20739
854.451	20811
854.585	20621
854.72	20556
854.854	20697
854.988	20381
855.122	20625
855.256	20530
855.39	20549
855.524	20765
855.658	20484
855.792	20533
855.926	20568
856.06	20609
856.194	20758
856.327	20632
856.461	20514
856.595	20545
856.729	20507
856.862	20625
856.996	20621
857.13	20587
857.263	20689
857.397	20682
857.53	20587
857.664	20689
857.797	20659
857.931	20648
858.064	20655
858.197	20693
858.331	20621
858.464	20533
858.597	20499
858.731	20590
858.864	20533
858.997	20644
859.13	20545
859.263	20663
859.396	20636
859.529	20590
859.662	20507
859.795	20632
859.928	20678
860.061	20731
860.194	20746
860.327	20648
860.46	20621
860.592	20834
860.725	20708
860.858	20716
860.99	20617
861.123	20393
861.256	20564
861.388	20655
861.521	21207
861.653	20404
861.786	20404
861.918	20454
862.05	20423
862.183	20492
862.315	20518
862.447	20629
862.58	20514
862.712	20332
862.844	20225
862.976	20488
863.108	20423
863.24	20796
863.372	20244
863.504	20210
863.636	20286
863.768	20244
863.9	20370
864.032	20244
864.164	20168
864.296	20343
864.428	20366
864.559	20347
864.691	20377
864.823	20362
864.954	20248
865.086	20317
865.217	20271
865.349	20244
865.48	20161
865.612	20305
865.743	20309
865.875	20210
866.006	20043
866.137	20130
866.269	20103
866.4	20244
866.531	20107
866.662	20073
866.793	20073
866.924	20092
867.055	20119
867.186	20126
867.317	20149
867.448	20119
867.579	20050
867.71	20164
867.841	20035
867.972	20065
868.103	20275
868.233	20164
868.364	20149
868.495	20202
868.625	20259
868.756	20537
868.886	20408
869.017	20427
869.147	20427
869.278	20454
869.408	20404
869.539	20461
869.669	20556
869.799	20404
869.929	20503
870.06	20556
870.19	20735
870.32	20777
870.45	20796
870.58	20720
870.71	20838
870.84	20925
870.97	20891
871.1	20785
871.23	20883
871.36	21089
871.489	21032
871.619	20906
871.749	20944
871.879	21055
872.008	21013
872.138	20963
872.267	20906
872.397	20788
872.526	20895
872.656	20819
872.785	20842
872.915	20990
873.044	21146
873.173	21074
873.303	21055
873.432	21032
873.561	21131
873.69	21058
873.819	21089
873.948	21066
874.077	21077
874.206	20921
874.335	20986
874.464	21074
874.593	21317
874.722	21207
874.851	21313
874.979	21298
875.108	21359
875.237	21321
875.365	21104
875.494	21310
875.623	21260
875.751	21325
875.88	21348
876.008	21389
876.136	21439
876.265	21705
876.393	21675
876.521	21808
876.65	21739
876.778	21701
876.906	21595
877.034	21542
877.162	21549
877.29	21515
877.418	21595
877.546	21580
877.674	21591
877.802	21603
877.93	21583
878.058	21603
878.185	21447
878.313	21599
878.441	21553
878.568	21458
878.696	21504
878.824	21504
878.951	21816
879.079	21827
879.206	21972
879.333	21724
879.461	21713
879.588	21644
879.715	21789
879.842	22044
879.97	21701
880.097	21355
880.224	21485
880.351	21481
880.478	21583
880.605	21401
880.732	21359
880.859	21625
880.986	21507
881.112	21466
881.239	21302
881.366	21176
881.493	21032
881.619	21062
881.746	21108
881.872	21051
881.999	21013
882.125	20826
882.252	21127
882.378	21089
882.505	21085
882.631	20933
882.757	20807
882.883	20750
883.01	20785
883.136	20590
883.262	20636
883.388	20594
883.514	20807
883.64	20762
883.766	20746
883.892	20465
884.018	20518
884.143	20678
884.269	20765
884.395	20488
884.52	20396
884.646	20503
884.772	20419
884.897	20305
885.023	20377
885.148	20503
885.274	20530
885.399	20461
885.524	20294
885.65	20450
885.775	20366
885.9	20240
886.025	20602
886.15	20396
886.275	20256
886.4	20313
886.525	20336
886.65	20339
886.775	20252
886.9	20522
887.025	20602
887.149	20324
887.274	20172
887.399	20183
887.523	20172
887.648	20126
887.773	20134
887.897	20161
888.021	20187
888.146	20062
888.27	20298
888.395	20210
888.519	20202
888.643	20244
888.767	20180
888.891	20050
889.015	19925
889.139	20069
889.263	19936
889.387	20039
889.511	20142
889.635	20122
889.759	19909
889.883	19883
890.006	19955
890.13	20100
890.254	19868
890.377	19849
890.501	19757
890.624	19765
890.748	19734
890.871	19670
890.995	19529
891.118	19613
891.241	19578
891.364	19491
891.488	19597
891.611	19537
891.734	19518
891.857	19624
891.98	19662
892.103	19620
892.226	19499
892.349	19464
892.471	19362
892.594	19434
892.717	19544
892.839	19594
892.962	19476
893.085	19483
893.207	19285
893.33	19362
893.452	19392
893.575	19586
893.697	19400
893.819	19605
893.941	19556
894.064	19639
894.186	19449
894.308	19438
894.43	19510
894.552	19632
894.674	19487
894.796	19312
894.918	19388
895.04	19301
895.161	19571
895.283	19506
895.405	19426
895.526	19438
895.648	19476
895.769	19411
895.891	19575
896.012	19460
896.134	19476
896.255	19445
896.376	19381
896.498	19548
896.619	19567
896.74	19502
896.861	19552
896.982	19799
897.103	19837
897.224	19681
897.345	19674
897.466	19677
897.587	19734
897.708	19753
897.828	19788
897.949	19719
898.07	19552
898.19	19616
898.311	19746
898.431	19609
898.552	19731
898.672	19689
898.792	19795
898.913	19662
899.033	19571
899.153	19540
899.273	19411
899.393	19369
899.513	19400
899.633	19548
899.753	19327
899.873	19354
899.993	19460
900.113	19415
900.232	19392
900.352	19358
900.472	19339
900.591	19198
900.711	19335
900.83	19206
900.95	19324
901.069	19251
901.189	19110
901.308	18924
901.427	18757
901.546	18821
901.665	18867
901.784	18867
901.904	18696
902.023	18544
902.141	18323
902.26	18380
902.379	18391
902.498	18300
902.617	18251
902.735	18410
902.854	18353
902.973	18228
903.091	18114
903.21	18053
903.328	18045
903.446	17912
903.565	17813
903.683	17874
903.801	17684
903.919	17870
904.038	17767
904.156	17611
904.274	17551
904.392	17581
904.51	17478
904.627	17585
904.745	17661
904.863	17596
904.981	17296
905.098	17326
905.216	17311
905.334	17341
905.451	17379
905.569	17258
905.686	17353
905.803	17303
905.921	17075
906.038	17181
906.155	17189
906.272	16953
906.389	17056
906.506	16801
906.623	16866
906.74	16740
906.857	16812
906.974	16752
907.091	16812
907.208	16976
907.324	16824
907.441	16744
907.557	16618
907.674	16641
907.79	16542
907.907	16550
908.023	16527
908.139	16436
908.256	16440
908.372	16455
908.488	16497
908.604	16303
908.72	16246
908.836	16291
908.952	16196
909.068	16303
909.184	16348
909.3	16261
909.415	16284
909.531	16329
909.647	15975
909.762	16036
909.878	15960
909.993	16029
910.108	15960
910.224	15926
910.339	15865
910.454	15861
910.57	15739
910.685	15724
910.8	16040
910.915	15937
911.03	15797
911.145	15671
911.259	15507
911.374	15622
911.489	15439
911.604	15424
911.718	15389
911.833	15294
911.947	15188
912.062	15131
912.176	15222
912.291	15363
912.405	15374
912.519	15473
912.633	15477
912.748	15363
912.862	15313
912.976	15207
913.09	15047
913.204	15051
913.318	15180
913.431	15340
913.545	15157
913.659	15203
913.772	15146
913.886	15020
914	14944
914.113	15062
914.226	15104
914.34	14998
914.453	14800
914.566	14956
914.68	14880
914.793	14830
914.906	14712
915.019	14617
915.132	14594
915.245	14606
915.358	14701
915.47	14583
915.583	14644
915.696	14678
915.809	14716
915.921	14819
916.034	14503
916.146	14469
916.259	14423
916.371	14579
916.483	14537
916.595	14503
916.708	14431
916.82	14446
916.932	14412
917.044	14415
917.156	14442
917.268	14210
917.38	14237
917.491	14252
917.603	14271
917.715	14328
917.826	14282
917.938	14252
918.049	14130
918.161	14267
918.272	14385
918.384	14362
918.495	14214
918.606	14005
918.717	13978
918.828	14115
918.939	14001
919.05	13909
919.161	13940
919.272	13803
919.383	13925
919.494	14031
919.604	14263
919.715	13986
919.826	13993
919.936	14016
920.047	14096
920.157	14046
920.267	14180
920.378	13970
920.488	13879
920.598	14138
920.708	14347
920.818	14149
920.928	14107
921.038	14305
921.148	14195
921.258	13947
921.368	13959
921.477	13734
921.587	13761
921.697	13636
921.806	13723
921.916	13624
922.025	13502
922.134	13434
922.244	13457
922.353	13445
922.462	13251
922.571	13278
922.68	13061
922.789	13004
922.898	13008
923.007	13027
923.116	13103
923.224	13065
923.333	13057
923.442	12939
923.55	12852
923.659	12954
923.767	13004
923.876	12932
923.984	12958
924.092	12817
924.201	12905
924.309	12779
924.417	12840
924.525	12749
924.633	12715
924.741	13491
924.849	12597
924.956	12662
925.064	12502
925.172	12384
925.279	12570
925.387	12445
925.494	12506
925.602	12532
925.709	12631
925.816	12391
925.924	12498
926.031	12570
926.138	12498
926.245	12471
926.352	12315
926.459	12483
926.566	12445
926.673	12372
926.779	12220
926.886	12224
926.993	12060
927.099	12083
927.206	12102
927.312	12155
927.419	12045
927.525	12098
927.631	12098
927.737	11980
927.843	11863
927.95	11847
928.056	11927
928.162	11977
928.267	11893
928.373	12532
928.479	12057
928.585	11707
928.69	11840
928.796	11874
928.901	11813
929.007	11596
929.112	11828
929.218	11737
929.323	11630
929.428	11608
929.533	11779
929.638	11501
929.743	11699
929.848	11661
929.953	11665
930.058	11467
930.163	11326
930.267	11292
930.372	11497
930.477	11254
930.581	11642
930.685	11322
930.79	11204
930.894	11261
930.998	11155
931.103	11334
931.207	11041
931.311	10923
931.415	10854
931.519	10618
931.623	10641
