Data from test_V78500241_412.txt Node
Date: Fri Mar 25 15:12:43 CST 2022
User: usil
Spectrometer: V785-0024
Trigger mode: 0
Integration Time (sec): 4.000000E-1
Scans to average: 1
Nonlinearity correction enabled: false
Boxcar width: 0
Storing dark spectrum: false
XAxis mode: Wavelengths
Number of Pixels in Spectrum: 1024
>>>>>Begin Spectral Data<<<<<
801.071	27165
801.214	27127
801.356	26921
801.499	26887
801.641	26765
801.783	26796
801.926	26853
802.068	26758
802.211	26621
802.353	26518
802.496	26404
802.638	26427
802.78	26377
802.923	26317
803.065	26358
803.208	26298
803.35	26313
803.492	26507
803.635	26556
803.777	26530
803.919	26587
804.061	26849
804.204	26537
804.346	26351
804.488	26465
804.63	26492
804.773	26328
804.915	26355
805.057	26689
805.199	26549
805.341	26644
805.483	26583
805.626	26617
805.768	26571
805.91	26507
806.052	26682
806.194	26602
806.336	26788
806.478	26769
806.62	26629
806.762	26609
806.904	26952
807.046	27173
807.188	26990
807.33	26963
807.472	27218
807.614	27028
807.756	26937
807.898	26876
808.04	26834
808.182	26826
808.324	26800
808.465	26777
808.607	26940
808.749	27131
808.891	27348
809.033	27485
809.174	27268
809.316	27188
809.458	27135
809.6	27123
809.741	27256
809.883	27321
810.025	27496
810.166	27553
810.308	27420
810.45	27389
810.591	27351
810.733	27359
810.875	27211
811.016	26937
811.158	27131
811.299	27192
811.441	27389
811.582	27355
811.724	27173
811.865	27207
812.007	27138
812.148	27142
812.29	27264
812.431	27237
812.573	27557
812.714	27519
812.855	27736
812.997	27747
813.138	27991
813.279	27861
813.421	27728
813.562	27770
813.703	27523
813.845	27523
813.986	27013
814.127	26887
814.268	26891
814.41	26800
814.551	26796
814.692	27116
814.833	26762
814.974	26792
815.115	26849
815.256	26663
815.397	26739
815.539	26731
815.68	26636
815.821	26598
815.962	26724
816.103	26587
816.244	26514
816.385	26473
816.526	26214
816.666	26233
816.807	26202
816.948	26343
817.089	26183
817.23	26050
817.371	26214
817.512	26176
817.653	26115
817.793	26195
817.934	26081
818.075	26221
818.216	26062
818.356	26107
818.497	25978
818.638	25852
818.778	25898
818.919	25826
819.06	25860
819.2	25982
819.341	25993
819.481	26031
819.622	26332
819.762	26457
819.903	26351
820.043	26195
820.184	26263
820.324	26210
820.465	26309
820.605	26286
820.746	26362
820.886	26130
821.026	26225
821.167	26119
821.307	26237
821.447	26107
821.588	26081
821.728	25837
821.868	25753
822.008	25647
822.149	25620
822.289	25559
822.429	25388
822.569	25289
822.709	25251
822.849	25069
822.99	25080
823.13	25148
823.27	24871
823.41	25023
823.55	24859
823.69	24916
823.83	24920
823.97	24878
824.11	24722
824.25	24863
824.389	24646
824.529	24905
824.669	24707
824.809	24924
824.949	24894
825.089	24863
825.228	24757
825.368	24719
825.508	24578
825.648	24540
825.787	24696
825.927	24566
826.067	24604
826.206	24635
826.346	24734
826.485	24661
826.625	24578
826.765	24692
826.904	24642
827.044	24467
827.183	24437
827.323	24167
827.462	24361
827.601	24384
827.741	24319
827.88	24429
828.02	24190
828.159	24319
828.298	24391
828.437	24277
828.577	24369
828.716	24483
828.855	24308
828.994	24121
829.134	23916
829.273	24148
829.412	24034
829.551	23965
829.69	23942
829.829	24095
829.968	24076
830.107	24148
830.246	23996
830.385	24041
830.524	24011
830.663	23977
830.802	23661
830.941	23707
831.08	23703
831.219	23851
831.357	23695
831.496	23927
831.635	23596
831.774	23661
831.913	23528
832.051	23391
832.19	23501
832.329	23421
832.467	23383
832.606	23296
832.744	23273
832.883	23341
833.022	23334
833.16	23307
833.299	23433
833.437	23406
833.576	23471
833.714	23406
833.852	23585
833.991	23516
834.129	23486
834.267	23448
834.406	23459
834.544	23497
834.682	23372
834.821	23337
834.959	23615
835.097	23353
835.235	23334
835.373	23425
835.511	23429
835.65	23185
835.788	23258
835.926	23174
836.064	22900
836.202	23052
836.34	23296
836.478	23315
836.615	23356
836.753	23258
836.891	23395
837.029	23269
837.167	23185
837.305	23220
837.443	23311
837.58	23083
837.718	23136
837.856	23185
837.993	23060
838.131	23067
838.269	23113
838.406	23132
838.544	22927
838.681	22824
838.819	22816
838.956	22698
839.094	22599
839.231	22565
839.369	22809
839.506	23010
839.643	22854
839.781	22618
839.918	22538
840.055	22683
840.193	22603
840.33	22535
840.467	22550
840.604	22698
840.742	22717
840.879	22375
841.016	22504
841.153	22474
841.29	22679
841.427	22577
841.564	22523
841.701	22618
841.838	22421
841.975	22485
842.112	22424
842.249	22287
842.385	22344
842.522	22428
842.659	22363
842.796	22188
842.933	22440
843.069	22303
843.206	22204
843.343	22333
843.479	22322
843.616	22280
843.752	22078
843.889	22021
844.025	22238
844.162	22105
844.298	22166
844.435	22036
844.571	21998
844.708	22268
844.844	22249
844.98	22188
845.117	22177
845.253	21953
845.389	22013
845.525	21968
845.661	21972
845.798	21736
845.934	21972
846.07	21774
846.206	21747
846.342	21934
846.478	21865
846.614	21633
846.75	21469
846.886	21534
847.022	21637
847.158	21545
847.294	21473
847.429	21530
847.565	21458
847.701	21690
847.837	21230
847.972	21367
848.108	21321
848.244	21306
848.379	21211
848.515	21233
848.65	21157
848.786	21070
848.921	21020
849.057	21306
849.192	21218
849.328	21192
849.463	21165
849.598	21077
849.734	20944
849.869	20864
850.004	20804
850.14	20921
850.275	20937
850.41	20796
850.545	20906
850.68	20762
850.815	20921
850.95	20963
851.085	21024
851.22	20963
851.355	20982
851.49	20944
851.625	20826
851.76	20941
851.895	20796
852.03	20823
852.165	20868
852.299	20902
852.434	21028
852.569	20963
852.703	20963
852.838	21096
852.973	21070
853.107	20948
853.242	20762
853.376	20731
853.511	20636
853.645	20769
853.78	20796
853.914	20788
854.048	20773
854.183	20777
854.317	20655
854.451	20887
854.585	20868
854.72	20682
854.854	20754
854.988	20720
855.122	20705
855.256	20674
855.39	20765
855.524	20781
855.658	20788
855.792	20689
855.926	20655
856.06	20830
856.194	20830
856.327	20667
856.461	20777
856.595	20724
856.729	20693
856.862	20845
856.996	20648
857.13	20750
857.263	20819
857.397	20807
857.53	20792
857.664	20853
857.797	20781
857.931	20788
858.064	20629
858.197	20826
858.331	20636
858.464	20587
858.597	20533
858.731	20765
858.864	20659
858.997	20765
859.13	20678
859.263	20708
859.396	20746
859.529	20746
859.662	20613
859.795	20602
859.928	20712
860.061	20781
860.194	20929
860.327	20857
860.46	20606
860.592	20872
860.725	20868
860.858	20792
860.99	20697
861.123	20705
861.256	20564
861.388	20697
861.521	21428
861.653	20667
861.786	20606
861.918	20495
862.05	20587
862.183	20655
862.315	20773
862.447	20701
862.58	20552
862.712	20537
862.844	20476
862.976	20503
863.108	20533
863.24	21024
863.372	20385
863.504	20351
863.636	20507
863.768	20556
863.9	20328
864.032	20336
864.164	20381
864.296	20495
864.428	20575
864.559	20663
864.691	20583
864.823	20434
864.954	20366
865.086	20400
865.217	20404
865.349	20377
865.48	20450
865.612	20298
865.743	20484
865.875	20355
866.006	20351
866.137	20328
866.269	20282
866.4	20347
866.531	20385
866.662	20305
866.793	20343
866.924	20271
867.055	20366
867.186	20328
867.317	20351
867.448	20149
867.579	20324
867.71	20153
867.841	20202
867.972	20290
868.103	20294
868.233	20343
868.364	20370
868.495	20480
868.625	20560
868.756	20613
868.886	20556
869.017	20518
869.147	20648
869.278	20640
869.408	20549
869.539	20609
869.669	20746
869.799	20670
869.929	20727
870.06	20655
870.19	20921
870.32	20880
870.45	20773
870.58	20914
870.71	21009
870.84	20914
870.97	20994
871.1	20883
871.23	21020
871.36	21085
871.489	20929
871.619	21108
871.749	21039
871.879	21043
872.008	21237
872.138	21370
872.267	21070
872.397	21093
872.526	20941
872.656	20864
872.785	20918
872.915	21203
873.044	21241
873.173	21214
873.303	21306
873.432	21195
873.561	21203
873.69	21188
873.819	21173
873.948	21272
874.077	21142
874.206	21077
874.335	21096
874.464	21275
874.593	21313
874.722	21279
874.851	21389
874.979	21466
875.108	21481
875.237	21332
875.365	21329
875.494	21378
875.623	21424
875.751	21374
875.88	21397
876.008	21488
876.136	21549
876.265	21755
876.393	21899
876.521	21865
876.65	21857
876.778	21797
876.906	21713
877.034	21610
877.162	21698
877.29	21854
877.418	21781
877.546	21831
877.674	21660
877.802	21747
877.93	21838
878.058	21671
878.185	21572
878.313	21698
878.441	21747
878.568	21717
878.696	21606
878.824	21797
878.951	21751
879.079	21975
879.206	22147
879.333	21903
879.461	21793
879.588	21895
879.715	21968
879.842	22032
879.97	21819
880.097	21648
880.224	21530
880.351	21599
880.478	21603
880.605	21622
880.732	21587
880.859	21808
880.986	21538
881.112	21648
881.239	21477
881.366	21283
881.493	21252
881.619	21169
881.746	21138
881.872	21184
881.999	21039
882.125	21161
882.252	21195
882.378	21032
882.505	21218
882.631	20944
882.757	20887
882.883	21013
883.01	20899
883.136	20815
883.262	20724
883.388	20667
883.514	20929
883.64	20815
883.766	20788
883.892	20754
884.018	20663
884.143	20815
884.269	20868
884.395	20613
884.52	20461
884.646	20457
884.772	20412
884.897	20358
885.023	20450
885.148	20560
885.274	20640
885.399	20609
885.524	20533
885.65	20522
885.775	20587
885.9	20355
886.025	20644
886.15	20594
886.275	20427
886.4	20389
886.525	20427
886.65	20446
886.775	20362
886.9	20602
887.025	20758
887.149	20446
887.274	20305
887.399	20347
887.523	20233
887.648	20256
887.773	20172
887.897	20404
888.021	20454
888.146	20233
888.27	20438
888.395	20408
888.519	20225
888.643	20271
888.767	20305
888.891	20221
889.015	20103
889.139	20183
889.263	20024
889.387	20134
889.511	20320
889.635	20225
889.759	20046
889.883	19978
890.006	20164
890.13	20111
890.254	19917
890.377	20012
890.501	19826
890.624	19826
890.748	19841
890.871	19666
890.995	19670
891.118	19643
891.241	19571
891.364	19670
891.488	19712
891.611	19635
891.734	19788
891.857	19799
891.98	19750
892.103	19620
892.226	19677
892.349	19658
892.471	19381
892.594	19715
892.717	19552
892.839	19552
892.962	19708
893.085	19571
893.207	19556
893.33	19533
893.452	19552
893.575	19624
893.697	19514
893.819	19753
893.941	19753
894.064	19677
894.186	19480
894.308	19487
894.43	19658
894.552	19746
894.674	19677
894.796	19491
894.918	19582
895.04	19613
895.161	19643
895.283	19647
895.405	19499
895.526	19540
895.648	19628
895.769	19575
895.891	19658
896.012	19700
896.134	19639
896.255	19601
896.376	19506
896.498	19556
896.619	19628
896.74	19502
896.861	19643
896.982	19856
897.103	20111
897.224	19963
897.345	19955
897.466	19723
897.587	19890
897.708	19955
897.828	19822
897.949	19837
898.07	19613
898.19	19704
898.311	19845
898.431	19708
898.552	19742
898.672	19799
898.792	19894
898.913	19681
899.033	19788
899.153	19632
899.273	19586
899.393	19567
899.513	19590
899.633	19590
899.753	19616
899.873	19491
899.993	19674
900.113	19544
900.232	19563
900.352	19388
900.472	19358
900.591	19232
900.711	19411
900.83	19282
900.95	19369
901.069	19278
901.189	19209
901.308	19050
901.427	18954
901.546	18875
901.665	19004
901.784	18973
901.904	18768
902.023	18661
902.141	18616
902.26	18452
902.379	18582
902.498	18422
902.617	18418
902.735	18407
902.854	18384
902.973	18304
903.091	18148
903.21	18178
903.328	18030
903.446	17999
903.565	18057
903.683	17908
903.801	17958
903.919	17916
904.038	17832
904.156	17665
904.274	17779
904.392	17600
904.51	17642
904.627	17691
904.745	17767
904.863	17802
904.981	17490
905.098	17398
905.216	17482
905.334	17376
905.451	17345
905.569	17452
905.686	17280
905.803	17516
905.921	17109
906.038	17326
906.155	17174
906.272	17109
906.389	17086
906.506	17029
906.623	16957
906.74	16911
906.857	16831
906.974	16869
907.091	16938
907.208	17083
907.324	16915
907.441	16812
907.557	16649
907.674	16683
907.79	16580
907.907	16565
908.023	16596
908.139	16603
908.256	16603
908.372	16653
908.488	16447
908.604	16394
908.72	16466
908.836	16440
908.952	16493
909.068	16398
909.184	16493
909.3	16280
909.415	16394
909.531	16299
909.647	16188
909.762	16131
909.878	16131
909.993	16105
910.108	16010
910.224	15945
910.339	16063
910.454	16029
910.57	15884
910.685	15880
910.8	16059
910.915	16074
911.03	15949
911.145	15724
911.259	15709
911.374	15694
911.489	15690
911.604	15656
911.718	15443
911.833	15458
911.947	15336
912.062	15268
912.176	15405
912.291	15412
912.405	15408
912.519	15599
912.633	15686
912.748	15519
912.862	15469
912.976	15283
913.09	15131
913.204	15310
913.318	15264
913.431	15260
913.545	15313
913.659	15279
913.772	15127
913.886	15097
914	15085
914.113	15089
914.226	15127
914.34	15070
914.453	14849
914.566	15138
914.68	14994
914.793	14963
914.906	14800
915.019	14686
915.132	14682
915.245	14686
915.358	14697
915.47	14625
915.583	14610
915.696	14667
915.809	14838
915.921	14765
916.034	14617
916.146	14594
916.259	14625
916.371	14610
916.483	14674
916.595	14526
916.708	14507
916.82	14522
916.932	14473
917.044	14476
917.156	14412
917.268	14294
917.38	14434
917.491	14370
917.603	14438
917.715	14446
917.826	14400
917.938	14271
918.049	14183
918.161	14259
918.272	14511
918.384	14358
918.495	14377
918.606	14157
918.717	14031
918.828	14123
918.939	14126
919.05	14065
919.161	14073
919.272	13811
919.383	14024
919.494	14202
919.604	14320
919.715	14157
919.826	13928
919.936	14100
920.047	14172
920.157	14126
920.267	14237
920.378	14107
920.488	13925
920.598	14214
920.708	14415
920.818	14256
920.928	14225
921.038	14480
921.148	14400
921.258	14050
921.368	13989
921.477	13814
921.587	13887
921.697	13704
921.806	13818
921.916	13719
922.025	13499
922.134	13483
922.244	13476
922.353	13578
922.462	13331
922.571	13255
922.68	13122
922.789	13076
922.898	13217
923.007	13057
923.116	13240
923.224	13122
923.333	13084
923.442	13061
923.55	12875
923.659	13072
923.767	13053
923.876	12867
923.984	13080
924.092	12932
924.201	12966
924.309	12894
924.417	12852
924.525	12764
924.633	12825
924.741	13750
924.849	12597
924.956	12814
925.064	12601
925.172	12597
925.279	12525
925.387	12612
925.494	12654
925.602	12673
925.709	12662
925.816	12456
925.924	12486
926.031	12540
926.138	12494
926.245	12570
926.352	12407
926.459	12604
926.566	12544
926.673	12395
926.779	12369
926.886	12266
926.993	12216
927.099	12201
927.206	12038
927.312	12152
927.419	12057
927.525	12045
927.631	12194
927.737	11999
927.843	12015
927.95	11901
928.056	11927
928.162	11992
928.267	11996
928.373	12646
928.479	12114
928.585	11790
928.69	11946
928.796	11961
928.901	11897
929.007	11668
929.112	11885
929.218	11855
929.323	11767
929.428	11764
929.533	11821
929.638	11722
929.743	11710
929.848	11745
929.953	11619
930.058	11608
930.163	11353
930.267	11474
930.372	11589
930.477	11410
930.581	11604
930.685	11528
930.79	11273
930.894	11296
930.998	11322
931.103	11356
931.207	11006
931.311	11052
931.415	10915
931.519	10630
931.623	10649
