Data from test_V78500241_1449.txt Node
Date: Fri Mar 25 15:19:56 CST 2022
User: usil
Spectrometer: V785-0024
Trigger mode: 0
Integration Time (sec): 4.000000E-1
Scans to average: 1
Nonlinearity correction enabled: false
Boxcar width: 0
Storing dark spectrum: false
XAxis mode: Wavelengths
Number of Pixels in Spectrum: 1024
>>>>>Begin Spectral Data<<<<<
801.071	28287
801.214	28162
801.356	28010
801.499	27865
801.641	27804
801.783	27854
801.926	27709
802.068	27953
802.211	27751
802.353	27713
802.496	27633
802.638	27382
802.78	27534
802.923	27310
803.065	27272
803.208	27462
803.35	27576
803.492	27644
803.635	27781
803.777	27485
803.919	27648
804.061	27987
804.204	27759
804.346	27755
804.488	27511
804.63	27717
804.773	27625
804.915	27705
805.057	27785
805.199	27701
805.341	27865
805.483	27850
805.626	27998
805.768	27717
805.91	27831
806.052	27759
806.194	27812
806.336	28010
806.478	27918
806.62	27907
806.762	27975
806.904	28086
807.046	28344
807.188	28287
807.33	28337
807.472	28337
807.614	28226
807.756	28329
807.898	28139
808.04	28249
808.182	28124
808.324	28204
808.465	28226
808.607	28424
808.749	28478
808.891	28706
809.033	28637
809.174	28573
809.316	28523
809.458	28588
809.6	28603
809.741	28573
809.883	28736
810.025	28835
810.166	28797
810.308	28748
810.45	28672
810.591	28710
810.733	28664
810.875	28493
811.016	28356
811.158	28401
811.299	28519
811.441	28672
811.582	28702
811.724	28428
811.865	28493
812.007	28497
812.148	28409
812.29	28554
812.431	28790
812.573	28824
812.714	28881
812.855	29140
812.997	29018
813.138	29212
813.279	29197
813.421	29025
813.562	29060
813.703	28820
813.845	28748
813.986	28607
814.127	28337
814.268	28295
814.41	28257
814.551	28207
814.692	28295
814.833	28143
814.974	28086
815.115	28242
815.256	28185
815.397	28265
815.539	28040
815.68	27861
815.821	27926
815.962	28139
816.103	28051
816.244	27789
816.385	27793
816.526	27690
816.666	27641
816.807	27458
816.948	27671
817.089	27622
817.23	27599
817.371	27507
817.512	27545
817.653	27568
817.793	27481
817.934	27515
818.075	27538
818.216	27576
818.356	27485
818.497	27359
818.638	27211
818.778	27233
818.919	27233
819.06	27325
819.2	27515
819.341	27523
819.481	27424
819.622	27648
819.762	27789
819.903	27732
820.043	27759
820.184	27652
820.324	27663
820.465	27778
820.605	27603
820.746	27622
820.886	27542
821.026	27622
821.167	27690
821.307	27717
821.447	27564
821.588	27447
821.728	27344
821.868	27135
822.008	26986
822.149	27089
822.289	26933
822.429	26636
822.569	26625
822.709	26579
822.849	26492
822.99	26389
823.13	26393
823.27	26465
823.41	26298
823.55	26202
823.69	26351
823.83	26286
823.97	26332
824.11	26130
824.25	26153
824.389	26043
824.529	26229
824.669	26119
824.809	26180
824.949	26317
825.089	26195
825.228	26126
825.368	25978
825.508	26039
825.648	25947
825.787	26069
825.927	26130
826.067	26062
826.206	26058
826.346	26050
826.485	26001
826.625	25830
826.765	26107
826.904	26172
827.044	25780
827.183	25845
827.323	25757
827.462	25772
827.601	25666
827.741	25883
827.88	25826
828.02	25529
828.159	25689
828.298	25731
828.437	25803
828.577	25681
828.716	25849
828.855	25723
828.994	25544
829.134	25396
829.273	25422
829.412	25403
829.551	25449
829.69	25525
829.829	25339
829.968	25460
830.107	25537
830.246	25362
830.385	25312
830.524	25460
830.663	25232
830.802	25107
830.941	24996
831.08	25027
831.219	25034
831.357	25148
831.496	25282
831.635	24996
831.774	24962
831.913	24894
832.051	24814
832.19	24852
832.329	24703
832.467	24661
832.606	24582
832.744	24604
832.883	24764
833.022	24631
833.16	24631
833.299	24905
833.437	24707
833.576	24684
833.714	24688
833.852	24795
833.991	24795
834.129	24749
834.267	24802
834.406	24837
834.544	24757
834.682	24749
834.821	24738
834.959	24973
835.097	24608
835.235	24924
835.373	24669
835.511	24779
835.65	24646
835.788	24711
835.926	24521
836.064	24327
836.202	24464
836.34	24646
836.478	24700
836.615	24589
836.753	24525
836.891	24696
837.029	24677
837.167	24593
837.305	24433
837.443	24566
837.58	24429
837.718	24620
837.856	24479
837.993	24403
838.131	24410
838.269	24266
838.406	24426
838.544	24205
838.681	24072
838.819	24007
838.956	23927
839.094	23866
839.231	23984
839.369	24018
839.506	24083
839.643	24152
839.781	23923
839.918	23980
840.055	23901
840.193	23805
840.33	23828
840.467	23840
840.604	23904
840.742	23882
840.879	23566
841.016	23657
841.153	23611
841.29	23840
841.427	23722
841.564	23885
841.701	23764
841.838	23649
841.975	23726
842.112	23710
842.249	23566
842.385	23512
842.522	23699
842.659	23566
842.796	23493
842.933	23562
843.069	23455
843.206	23467
843.343	23691
843.479	23570
843.616	23573
843.752	23292
843.889	23216
844.025	23433
844.162	23200
844.298	23372
844.435	23299
844.571	23197
844.708	23372
844.844	23463
844.98	23322
845.117	23318
845.253	23277
845.389	23227
845.525	23181
845.661	23166
845.798	22991
845.934	23022
846.07	22885
846.206	23128
846.342	23204
846.478	23052
846.614	22873
846.75	22809
846.886	22790
847.022	22850
847.158	22774
847.294	22660
847.429	22752
847.565	22691
847.701	23003
847.837	22489
847.972	22402
848.108	22618
848.244	22516
848.379	22295
848.515	22284
848.65	22485
848.786	22367
848.921	22413
849.057	22538
849.192	22523
849.328	22360
849.463	22306
849.598	22219
849.734	22177
849.869	22261
850.004	22055
850.14	22082
850.275	22185
850.41	22124
850.545	22109
850.68	22124
850.815	22154
850.95	22025
851.085	22310
851.22	22124
851.355	22154
851.49	22074
851.625	22082
851.76	21994
851.895	22124
852.03	22044
852.165	22059
852.299	22177
852.434	22196
852.569	22226
852.703	22086
852.838	22101
852.973	22303
853.107	22207
853.242	22044
853.376	21926
853.511	21827
853.645	21781
853.78	22040
853.914	22010
854.048	21941
854.183	21895
854.317	21892
854.451	22162
854.585	21937
854.72	21899
854.854	22032
854.988	21869
855.122	21861
855.256	21873
855.39	21865
855.524	21998
855.658	21987
855.792	21960
855.926	22048
856.06	21960
856.194	22112
856.327	21892
856.461	21835
856.595	21926
856.729	21991
856.862	22063
856.996	22013
857.13	21983
857.263	22013
857.397	22025
857.53	21964
857.664	22032
857.797	21956
857.931	22025
858.064	22063
858.197	21918
858.331	21884
858.464	21854
858.597	21720
858.731	21937
858.864	21888
858.997	21892
859.13	21983
859.263	22021
859.396	22086
859.529	21835
859.662	21922
859.795	21857
859.928	21854
860.061	21975
860.194	22120
860.327	22040
860.46	21911
860.592	21922
860.725	22120
860.858	22025
860.99	21823
861.123	21838
861.256	22055
861.388	21899
861.521	22527
861.653	21838
861.786	21644
861.918	21793
862.05	21667
862.183	21876
862.315	21812
862.447	21945
862.58	21789
862.712	21564
862.844	21599
862.976	21679
863.108	21679
863.24	22017
863.372	21504
863.504	21564
863.636	21557
863.768	21641
863.9	21545
864.032	21568
864.164	21587
864.296	21614
864.428	21694
864.559	21610
864.691	21762
864.823	21675
864.954	21572
865.086	21709
865.217	21682
865.349	21462
865.48	21477
865.612	21568
865.743	21682
865.875	21515
866.006	21561
866.137	21568
866.269	21538
866.4	21591
866.531	21530
866.662	21523
866.793	21530
866.924	21412
867.055	21496
867.186	21496
867.317	21374
867.448	21382
867.579	21389
867.71	21401
867.841	21329
867.972	21526
868.103	21439
868.233	21401
868.364	21363
868.495	21583
868.625	21682
868.756	21766
868.886	21629
869.017	21618
869.147	21895
869.278	21816
869.408	21606
869.539	21599
869.669	21842
869.799	21785
869.929	21831
870.06	21713
870.19	22036
870.32	22025
870.45	22040
870.58	22105
870.71	22131
870.84	22200
870.97	21987
871.1	22101
871.23	22188
871.36	22192
871.489	22226
871.619	22147
871.749	22135
871.879	22143
872.008	22249
872.138	22356
872.267	22352
872.397	22268
872.526	22188
872.656	22101
872.785	22055
872.915	22287
873.044	22375
873.173	22413
873.303	22367
873.432	22405
873.561	22246
873.69	22173
873.819	22280
873.948	22322
874.077	22257
874.206	22265
874.335	22173
874.464	22447
874.593	22485
874.722	22470
874.851	22375
874.979	22519
875.108	22561
875.237	22436
875.365	22481
875.494	22398
875.623	22512
875.751	22500
875.88	22531
876.008	22645
876.136	22679
876.265	22866
876.393	22980
876.521	22953
876.65	22915
876.778	22915
876.906	22771
877.034	22706
877.162	22831
877.29	22812
877.418	22938
877.546	22976
877.674	22847
877.802	22763
877.93	22767
878.058	22824
878.185	22793
878.313	22801
878.441	22797
878.568	22618
878.696	22809
878.824	22881
878.951	22923
879.079	22961
879.206	23151
879.333	22987
879.461	22850
879.588	22999
879.715	22999
879.842	23033
879.97	22850
880.097	22721
880.224	22736
880.351	22702
880.478	22683
880.605	22645
880.732	22713
880.859	22904
880.986	22664
881.112	22702
881.239	22455
881.366	22447
881.493	22299
881.619	22242
881.746	22268
881.872	22249
881.999	22181
882.125	22181
882.252	22185
882.378	22249
882.505	22265
882.631	22055
882.757	21911
882.883	21926
883.01	21869
883.136	21880
883.262	21800
883.388	21732
883.514	21823
883.64	21934
883.766	21759
883.892	21770
884.018	21720
884.143	21812
884.269	21880
884.395	21576
884.52	21488
884.646	21580
884.772	21496
884.897	21462
885.023	21637
885.148	21625
885.274	21663
885.399	21637
885.524	21580
885.65	21572
885.775	21500
885.9	21500
886.025	21633
886.15	21618
886.275	21519
886.4	21416
886.525	21485
886.65	21523
886.775	21329
886.9	21595
887.025	21732
887.149	21561
887.274	21378
887.399	21367
887.523	21420
887.648	21351
887.773	21142
887.897	21488
888.021	21359
888.146	21283
888.27	21405
888.395	21374
888.519	21374
888.643	21317
888.767	21378
888.891	21192
889.015	21024
889.139	21104
889.263	21135
889.387	21142
889.511	21252
889.635	21169
889.759	21039
889.883	21104
890.006	21233
890.13	21062
890.254	21028
890.377	21135
890.501	20906
890.624	20876
890.748	20800
890.871	20708
890.995	20613
891.118	20522
891.241	20758
891.364	20762
891.488	20769
891.611	20583
891.734	20552
891.857	20807
891.98	20769
892.103	20689
892.226	20689
892.349	20651
892.471	20518
892.594	20568
892.717	20655
892.839	20526
892.962	20469
893.085	20693
893.207	20495
893.33	20434
893.452	20385
893.575	20556
893.697	20492
893.819	20693
893.941	20705
894.064	20663
894.186	20511
894.308	20518
894.43	20629
894.552	20727
894.674	20617
894.796	20495
894.918	20556
895.04	20522
895.161	20571
895.283	20480
895.405	20499
895.526	20514
895.648	20446
895.769	20571
895.891	20598
896.012	20560
896.134	20606
896.255	20552
896.376	20541
896.498	20663
896.619	20495
896.74	20518
896.861	20579
896.982	20956
897.103	20925
897.224	20788
897.345	20754
897.466	20648
897.587	20754
897.708	20864
897.828	20823
897.949	20648
898.07	20537
898.19	20663
898.311	20815
898.431	20765
898.552	20674
898.672	20838
898.792	20849
898.913	20743
899.033	20689
899.153	20560
899.273	20442
899.393	20480
899.513	20514
899.633	20514
899.753	20511
899.873	20541
899.993	20511
900.113	20442
900.232	20438
900.352	20298
900.472	20290
900.591	20183
900.711	20366
900.83	20183
900.95	20237
901.069	20347
901.189	20267
901.308	19925
901.427	19856
901.546	19769
901.665	19788
901.784	19788
901.904	19765
902.023	19578
902.141	19384
902.26	19358
902.379	19441
902.498	19304
902.617	19381
902.735	19533
902.854	19331
902.973	19320
903.091	19118
903.21	19091
903.328	18985
903.446	18932
903.565	18878
903.683	18932
903.801	18719
903.919	18719
904.038	18840
904.156	18612
904.274	18608
904.392	18612
904.51	18620
904.627	18620
904.745	18669
904.863	18673
904.981	18403
905.098	18365
905.216	18357
905.334	18262
905.451	18304
905.569	18171
905.686	18369
905.803	18292
905.921	18038
906.038	18095
906.155	18121
906.272	17878
906.389	17988
906.506	17817
906.623	17847
906.74	17752
906.857	17657
906.974	17771
907.091	17988
907.208	17904
907.324	17870
907.441	17627
907.557	17562
907.674	17512
907.79	17455
907.907	17463
908.023	17573
908.139	17535
908.256	17478
908.372	17395
908.488	17265
908.604	17200
908.72	17189
908.836	17189
908.952	17307
909.068	17132
909.184	17223
909.3	17231
909.415	17189
909.531	17227
909.647	16835
909.762	16896
909.878	16946
909.993	17033
910.108	16923
910.224	16953
910.339	16847
910.454	16710
910.57	16725
910.685	16622
910.8	16862
910.915	16831
911.03	16752
911.145	16542
911.259	16527
911.374	16424
911.489	16413
911.604	16341
911.718	16192
911.833	16253
911.947	16234
912.062	16021
912.176	16181
912.291	16226
912.405	16181
912.519	16428
912.633	16428
912.748	16295
912.862	16295
912.976	16044
913.09	15941
913.204	16044
913.318	16013
913.431	16162
913.545	16166
913.659	16234
913.772	16021
913.886	15922
914	15660
914.113	15880
914.226	15979
914.34	15865
914.453	15766
914.566	15831
914.68	15808
914.793	15603
914.906	15523
915.019	15492
915.132	15542
915.245	15504
915.358	15549
915.47	15439
915.583	15431
915.696	15447
915.809	15553
915.921	15660
916.034	15382
916.146	15420
916.259	15291
916.371	15447
916.483	15481
916.595	15241
916.708	15374
916.82	15344
916.932	15226
917.044	15252
917.156	15161
917.268	15127
917.38	15047
917.491	15123
917.603	15165
917.715	15070
917.826	15074
917.938	14994
918.049	14902
918.161	15047
918.272	15154
918.384	15184
918.495	15085
918.606	14872
918.717	14807
918.828	14826
918.939	14975
919.05	14739
919.161	14880
919.272	14568
919.383	14610
919.494	14807
919.604	14944
919.715	14807
919.826	14746
919.936	14807
920.047	14785
920.157	14811
920.267	14960
920.378	14769
920.488	14716
920.598	14933
920.708	15123
920.818	14971
920.928	14979
921.038	15142
921.148	15047
921.258	14857
921.368	14621
921.477	14507
921.587	14503
921.697	14374
921.806	14461
921.916	14393
922.025	14134
922.134	14195
922.244	14138
922.353	14107
922.462	14024
922.571	13913
922.68	13784
922.789	13875
922.898	13936
923.007	13731
923.116	13780
923.224	13727
923.333	13693
923.442	13719
923.55	13734
923.659	13712
923.767	13681
923.876	13540
923.984	13674
924.092	13533
924.201	13590
924.309	13552
924.417	13510
924.525	13468
924.633	13537
924.741	14267
924.849	13297
924.956	13403
925.064	13274
925.172	13137
925.279	13228
925.387	13266
925.494	13259
925.602	13278
925.709	13251
925.816	13133
925.924	13168
926.031	13251
926.138	13099
926.245	13156
926.352	13027
926.459	13145
926.566	13171
926.673	13103
926.779	12973
926.886	12935
926.993	12837
927.099	12711
927.206	12711
927.312	12635
927.419	12814
927.525	12757
927.631	12798
927.737	12654
927.843	12639
927.95	12506
928.056	12521
928.162	12528
928.267	12528
928.373	13133
928.479	12665
928.585	12464
928.69	12578
928.796	12616
928.901	12460
929.007	12350
929.112	12410
929.218	12330
929.323	12323
929.428	12258
929.533	12456
929.638	12197
929.743	12247
929.848	12304
929.953	12270
930.058	12140
930.163	12079
930.267	11977
930.372	12045
930.477	11973
930.581	12091
930.685	12022
930.79	11935
930.894	11912
930.998	11805
931.103	11950
931.207	11592
931.311	11474
931.415	11376
931.519	11258
931.623	11124
