Data from test_V78500241_465.txt Node
Date: Fri Mar 25 15:13:05 CST 2022
User: usil
Spectrometer: V785-0024
Trigger mode: 0
Integration Time (sec): 4.000000E-1
Scans to average: 1
Nonlinearity correction enabled: false
Boxcar width: 0
Storing dark spectrum: false
XAxis mode: Wavelengths
Number of Pixels in Spectrum: 1024
>>>>>Begin Spectral Data<<<<<
801.071	27397
801.214	27302
801.356	26952
801.499	26979
801.641	26948
801.783	26899
801.926	26971
802.068	26880
802.211	26800
802.353	26842
802.496	26598
802.638	26625
802.78	26648
802.923	26461
803.065	26412
803.208	26469
803.35	26541
803.492	26689
803.635	26758
803.777	26750
803.919	26777
804.061	27020
804.204	26750
804.346	26693
804.488	26606
804.63	26743
804.773	26533
804.915	26697
805.057	26876
805.199	26682
805.341	26857
805.483	26807
805.626	26762
805.768	26659
805.91	26880
806.052	26781
806.194	26823
806.336	26956
806.478	26834
806.62	26853
806.762	26895
806.904	27089
807.046	27363
807.188	27397
807.33	27214
807.472	27310
807.614	27131
807.756	27249
807.898	26990
808.04	27074
808.182	27131
808.324	27028
808.465	27306
808.607	27195
808.749	27427
808.891	27526
809.033	27629
809.174	27443
809.316	27382
809.458	27485
809.6	27424
809.741	27595
809.883	27641
810.025	27690
810.166	27724
810.308	27816
810.45	27899
810.591	27580
810.733	27519
810.875	27329
811.016	27363
811.158	27302
811.299	27534
811.441	27610
811.582	27671
811.724	27359
811.865	27351
812.007	27450
812.148	27279
812.29	27462
812.431	27599
812.573	27698
812.714	27880
812.855	27994
812.997	27941
813.138	28070
813.279	28150
813.421	28070
813.562	27899
813.703	27812
813.845	27675
813.986	27447
814.127	27348
814.268	27108
814.41	27116
814.551	27013
814.692	27275
814.833	26986
814.974	26979
815.115	27207
815.256	27055
815.397	26956
815.539	27127
815.68	26765
815.821	26807
815.962	27074
816.103	26883
816.244	26659
816.385	26815
816.526	26514
816.666	26590
816.807	26400
816.948	26484
817.089	26511
817.23	26374
817.371	26358
817.512	26381
817.653	26465
817.793	26324
817.934	26381
818.075	26438
818.216	26343
818.356	26362
818.497	26313
818.638	26168
818.778	26016
818.919	26145
819.06	26153
819.2	26244
819.341	26431
819.481	26400
819.622	26613
819.762	26792
819.903	26632
820.043	26518
820.184	26427
820.324	26530
820.465	26495
820.605	26507
820.746	26526
820.886	26298
821.026	26533
821.167	26404
821.307	26511
821.447	26393
821.588	26244
821.728	26240
821.868	26107
822.008	25951
822.149	25936
822.289	25845
822.429	25540
822.569	25491
822.709	25434
822.849	25495
822.99	25438
823.13	25384
823.27	25225
823.41	25080
823.55	25050
823.69	25190
823.83	25168
823.97	25107
824.11	25000
824.25	24951
824.389	24939
824.529	25050
824.669	25004
824.809	25228
824.949	25107
825.089	25110
825.228	25004
825.368	25004
825.508	24863
825.648	24913
825.787	24848
825.927	24913
826.067	24875
826.206	24867
826.346	24859
826.485	24894
826.625	24886
826.765	24966
826.904	24890
827.044	24612
827.183	24749
827.323	24631
827.462	24627
827.601	24696
827.741	24604
827.88	24574
828.02	24384
828.159	24627
828.298	24696
828.437	24692
828.577	24517
828.716	24741
828.855	24566
828.994	24296
829.134	24273
829.273	24475
829.412	24262
829.551	24216
829.69	24296
829.829	24285
829.968	24388
830.107	24270
830.246	24266
830.385	24334
830.524	24296
830.663	24251
830.802	24121
830.941	23912
831.08	23988
831.219	24068
831.357	24068
831.496	24174
831.635	23885
831.774	23923
831.913	23889
832.051	23790
832.19	23726
832.329	23874
832.467	23630
832.606	23570
832.744	23619
832.883	23657
833.022	23501
833.16	23687
833.299	23585
833.437	23741
833.576	23836
833.714	23687
833.852	23707
833.991	23817
834.129	23752
834.267	23733
834.406	23760
834.544	23767
834.682	23646
834.821	23604
834.959	23885
835.097	23608
835.235	23733
835.373	23524
835.511	23676
835.65	23524
835.788	23539
835.926	23364
836.064	23345
836.202	23436
836.34	23661
836.478	23589
836.615	23596
836.753	23474
836.891	23585
837.029	23562
837.167	23528
837.305	23429
837.443	23471
837.58	23395
837.718	23425
837.856	23467
837.993	23330
838.131	23307
838.269	23254
838.406	23349
838.544	23280
838.681	23018
838.819	23041
838.956	22892
839.094	22991
839.231	22949
839.369	23079
839.506	23223
839.643	23181
839.781	22782
839.918	22706
840.055	22946
840.193	22877
840.33	22744
840.467	22858
840.604	22755
840.742	23094
840.879	22599
841.016	22668
841.153	22729
841.29	22877
841.427	22824
841.564	22774
841.701	22835
841.838	22729
841.975	22599
842.112	22797
842.249	22634
842.385	22436
842.522	22812
842.659	22561
842.796	22512
842.933	22645
843.069	22622
843.206	22398
843.343	22565
843.479	22531
843.616	22584
843.752	22382
843.889	22322
844.025	22402
844.162	22287
844.298	22344
844.435	22489
844.571	22276
844.708	22413
844.844	22421
844.98	22512
845.117	22413
845.253	22192
845.389	22158
845.525	22196
845.661	22219
845.798	22063
845.934	22029
846.07	22139
846.206	22154
846.342	22253
846.478	21937
846.614	21892
846.75	21793
846.886	21854
847.022	21812
847.158	21793
847.294	21819
847.429	21873
847.565	21755
847.701	21998
847.837	21652
847.972	21580
848.108	21682
848.244	21542
848.379	21481
848.515	21386
848.65	21310
848.786	21336
848.921	21367
849.057	21511
849.192	21504
849.328	21485
849.463	21469
849.598	21378
849.734	21268
849.869	21275
850.004	21089
850.14	21138
850.275	21127
850.41	20971
850.545	20990
850.68	21192
850.815	21252
850.95	21199
851.085	21283
851.22	21275
851.355	21173
851.49	21127
851.625	21104
851.76	21055
851.895	21100
852.03	21024
852.165	21116
852.299	21192
852.434	21374
852.569	21085
852.703	21176
852.838	21256
852.973	21310
853.107	21317
853.242	21268
853.376	21055
853.511	20891
853.645	21039
853.78	21032
853.914	21020
854.048	20990
854.183	20948
854.317	20986
854.451	21116
854.585	20941
854.72	21005
854.854	21017
854.988	20891
855.122	21039
855.256	20773
855.39	21066
855.524	21089
855.658	21112
855.792	21085
855.926	20948
856.06	20960
856.194	21116
856.327	20990
856.461	20845
856.595	20941
856.729	20937
856.862	21112
856.996	20998
857.13	21005
857.263	21104
857.397	20971
857.53	20937
857.664	21055
857.797	21062
857.931	21039
858.064	20895
858.197	21043
858.331	20967
858.464	21001
858.597	20941
858.731	20937
858.864	20952
858.997	20933
859.13	21013
859.263	21058
859.396	21020
859.529	20929
859.662	20986
859.795	20941
859.928	20941
860.061	21100
860.194	21203
860.327	20982
860.46	20960
860.592	21119
860.725	21157
860.858	21089
860.99	21066
861.123	20819
861.256	20941
861.388	20967
861.521	21720
861.653	20853
861.786	20804
861.918	20781
862.05	20921
862.183	20785
862.315	20918
862.447	20948
862.58	20918
862.712	20758
862.844	20590
862.976	20693
863.108	20720
863.24	21184
863.372	20636
863.504	20746
863.636	20765
863.768	20815
863.9	20617
864.032	20606
864.164	20796
864.296	20670
864.428	20762
864.559	20735
864.691	20689
864.823	20697
864.954	20727
865.086	20556
865.217	20659
865.349	20503
865.48	20621
865.612	20663
865.743	20716
865.875	20629
866.006	20545
866.137	20473
866.269	20514
866.4	20678
866.531	20492
866.662	20590
866.793	20492
866.924	20522
867.055	20495
867.186	20670
867.317	20476
867.448	20438
867.579	20480
867.71	20434
867.841	20419
867.972	20488
868.103	20454
868.233	20530
868.364	20488
868.495	20609
868.625	20823
868.756	20853
868.886	20716
869.017	20735
869.147	20872
869.278	20826
869.408	20804
869.539	20864
869.669	20899
869.799	20880
869.929	20857
870.06	20853
870.19	21017
870.32	21032
870.45	21096
870.58	21161
870.71	21294
870.84	21252
870.97	21047
871.1	21119
871.23	21230
871.36	21420
871.489	21393
871.619	21329
871.749	21428
871.879	21447
872.008	21340
872.138	21287
872.267	21393
872.397	21344
872.526	21214
872.656	21268
872.785	21157
872.915	21454
873.044	21515
873.173	21336
873.303	21359
873.432	21473
873.561	21568
873.69	21348
873.819	21393
873.948	21329
874.077	21393
874.206	21447
874.335	21378
874.464	21420
874.593	21644
874.722	21591
874.851	21690
874.979	21622
875.108	21610
875.237	21519
875.365	21542
875.494	21603
875.623	21675
875.751	21591
875.88	21644
876.008	21762
876.136	21819
876.265	22070
876.393	22128
876.521	22230
876.65	22078
876.778	22017
876.906	22010
877.034	21911
877.162	22070
877.29	21895
877.418	21998
877.546	21918
877.674	21987
877.802	22032
877.93	21903
878.058	21949
878.185	21979
878.313	21918
878.441	21949
878.568	21736
878.696	21823
878.824	22010
878.951	22036
879.079	22204
879.206	22234
879.333	22078
879.461	22013
879.588	22078
879.715	22173
879.842	22230
879.97	21964
880.097	21812
880.224	21907
880.351	21675
880.478	21857
880.605	21667
880.732	21739
880.859	22055
880.986	21789
881.112	21781
881.239	21633
881.366	21606
881.493	21561
881.619	21332
881.746	21428
881.872	21473
881.999	21340
882.125	21272
882.252	21272
882.378	21336
882.505	21458
882.631	21313
882.757	21195
882.883	21180
883.01	21211
883.136	21112
883.262	20902
883.388	21001
883.514	21020
883.64	21051
883.766	20948
883.892	20906
884.018	20872
884.143	21020
884.269	21005
884.395	20731
884.52	20765
884.646	20731
884.772	20727
884.897	20648
885.023	20765
885.148	20765
885.274	20842
885.399	20724
885.524	20800
885.65	20762
885.775	20750
885.9	20731
886.025	20883
886.15	20815
886.275	20655
886.4	20667
886.525	20503
886.65	20663
886.775	20644
886.9	20785
887.025	20849
887.149	20655
887.274	20629
887.399	20480
887.523	20511
887.648	20408
887.773	20351
887.897	20526
888.021	20587
888.146	20450
888.27	20579
888.395	20568
888.519	20667
888.643	20518
888.767	20518
888.891	20374
889.015	20290
889.139	20343
889.263	20313
889.387	20396
889.511	20427
889.635	20469
889.759	20267
889.883	20202
890.006	20259
890.13	20355
890.254	20218
890.377	20237
890.501	20164
890.624	20031
890.748	20172
890.871	19928
890.995	19837
891.118	19799
891.241	19898
891.364	19879
891.488	20001
891.611	19871
891.734	19871
891.857	19856
891.98	19845
892.103	19902
892.226	19860
892.349	19811
892.471	19651
892.594	19875
892.717	19780
892.839	19784
892.962	19750
893.085	19719
893.207	19909
893.33	19841
893.452	19674
893.575	19791
893.697	19780
893.819	19883
893.941	19925
894.064	19997
894.186	19746
894.308	19719
894.43	19811
894.552	19955
894.674	19849
894.796	19742
894.918	19734
895.04	19677
895.161	19947
895.283	19719
895.405	19674
895.526	19807
895.648	19723
895.769	19852
895.891	19883
896.012	19947
896.134	19738
896.255	19841
896.376	19677
896.498	19761
896.619	19837
896.74	19826
896.861	19898
896.982	20069
897.103	20191
897.224	20062
897.345	19997
897.466	19928
897.587	19989
897.708	20069
897.828	20043
897.949	19898
898.07	19765
898.19	19970
898.311	20065
898.431	19959
898.552	20081
898.672	19925
898.792	20115
898.913	19951
899.033	19879
899.153	19822
899.273	19803
899.393	19776
899.513	19757
899.633	19822
899.753	19780
899.873	19811
899.993	19757
900.113	19772
900.232	19708
900.352	19601
900.472	19578
900.591	19525
900.711	19518
900.83	19635
900.95	19704
901.069	19601
901.189	19346
901.308	19369
901.427	19122
901.546	19213
901.665	19080
901.784	19118
901.904	19015
902.023	18852
902.141	18760
902.26	18585
902.379	18749
902.498	18521
902.617	18547
902.735	18578
902.854	18646
902.973	18604
903.091	18464
903.21	18235
903.328	18258
903.446	18159
903.565	18057
903.683	18030
903.801	18049
903.919	18114
904.038	18041
904.156	17912
904.274	17954
904.392	17897
904.51	17912
904.627	17767
904.745	17965
904.863	18030
904.981	17741
905.098	17604
905.216	17562
905.334	17646
905.451	17630
905.569	17528
905.686	17623
905.803	17577
905.921	17436
906.038	17360
906.155	17364
906.272	17337
906.389	17307
906.506	17098
906.623	17178
906.74	17178
906.857	17006
906.974	17098
907.091	17170
907.208	17311
907.324	17181
907.441	17136
907.557	16896
907.674	16797
907.79	16691
907.907	16797
908.023	16889
908.139	16858
908.256	16797
908.372	16824
908.488	16748
908.604	16721
908.72	16440
908.836	16611
908.952	16519
909.068	16607
909.184	16713
909.3	16626
909.415	16622
909.531	16588
909.647	16394
909.762	16329
909.878	16352
909.993	16367
910.108	16303
910.224	16280
910.339	16306
910.454	16169
910.57	16112
910.685	16025
910.8	16276
910.915	16436
911.03	16185
911.145	15987
911.259	15880
911.374	15873
911.489	15804
911.604	15850
911.718	15637
911.833	15637
911.947	15584
912.062	15454
912.176	15584
912.291	15671
912.405	15614
912.519	15717
912.633	15804
912.748	15755
912.862	15496
912.976	15420
913.09	15332
913.204	15435
913.318	15458
913.431	15549
913.545	15591
913.659	15584
913.772	15450
913.886	15302
914	15218
914.113	15313
914.226	15306
914.34	15321
914.453	15150
914.566	15367
914.68	15150
914.793	15214
914.906	15070
915.019	14929
915.132	14693
915.245	15020
915.358	14921
915.47	14941
915.583	14887
915.696	14971
915.809	15024
915.921	15001
916.034	14804
916.146	14693
916.259	14773
916.371	14864
916.483	14842
916.595	14781
916.708	14701
916.82	14762
916.932	14708
917.044	14610
917.156	14579
917.268	14590
917.38	14613
917.491	14514
917.603	14629
917.715	14579
917.826	14686
917.938	14480
918.049	14374
918.161	14499
918.272	14682
918.384	14716
918.495	14537
918.606	14301
918.717	14210
918.828	14332
918.939	14362
919.05	14256
919.161	14313
919.272	14142
919.383	14157
919.494	14305
919.604	14396
919.715	14301
919.826	14237
919.936	14317
920.047	14400
920.157	14347
920.267	14400
920.378	14286
920.488	14271
920.598	14301
920.708	14568
920.818	14457
920.928	14396
921.038	14617
921.148	14530
921.258	14172
921.368	14221
921.477	14005
921.587	14008
921.697	13868
921.806	13963
921.916	13841
922.025	13765
922.134	13556
922.244	13643
922.353	13715
922.462	13476
922.571	13445
922.68	13388
922.789	13327
922.898	13308
923.007	13225
923.116	13316
923.224	13274
923.333	13228
923.442	13202
923.55	13183
923.659	13179
923.767	13251
923.876	13080
923.984	13095
924.092	13088
924.201	13004
924.309	13099
924.417	13023
924.525	12985
924.633	13015
924.741	13814
924.849	12757
924.956	12981
925.064	12757
925.172	12642
925.279	12734
925.387	12745
925.494	12715
925.602	12897
925.709	12817
925.816	12589
925.924	12707
926.031	12738
926.138	12654
926.245	12593
926.352	12612
926.459	12802
926.566	12677
926.673	12566
926.779	12517
926.886	12494
926.993	12266
927.099	12361
927.206	12258
927.312	12308
927.419	12353
927.525	12285
927.631	12376
927.737	12201
927.843	12152
927.95	12011
928.056	12106
928.162	12140
928.267	12163
928.373	12806
928.479	12254
928.585	11927
928.69	12068
928.796	12171
928.901	11935
929.007	11946
929.112	11992
929.218	11996
929.323	11878
929.428	11824
929.533	12019
929.638	11748
929.743	11783
929.848	11855
929.953	11824
930.058	11611
930.163	11524
930.267	11630
930.372	11684
930.477	11524
930.581	11718
930.685	11528
930.79	11368
930.894	11398
930.998	11410
931.103	11581
931.207	11334
931.311	11147
931.415	11006
931.519	10812
931.623	10828
