Data from test_V78500241_1218.txt Node
Date: Fri Mar 25 15:18:20 CST 2022
User: usil
Spectrometer: V785-0024
Trigger mode: 0
Integration Time (sec): 4.000000E-1
Scans to average: 1
Nonlinearity correction enabled: false
Boxcar width: 0
Storing dark spectrum: false
XAxis mode: Wavelengths
Number of Pixels in Spectrum: 1024
>>>>>Begin Spectral Data<<<<<
801.071	28253
801.214	28128
801.356	27945
801.499	27903
801.641	27770
801.783	27857
801.926	27755
802.068	27770
802.211	27641
802.353	27629
802.496	27523
802.638	27348
802.78	27359
802.923	27355
803.065	27306
803.208	27431
803.35	27473
803.492	27549
803.635	27576
803.777	27382
803.919	27728
804.061	27934
804.204	27637
804.346	27644
804.488	27492
804.63	27637
804.773	27610
804.915	27705
805.057	27759
805.199	27625
805.341	27743
805.483	27797
805.626	27873
805.768	27648
805.91	27663
806.052	27641
806.194	27789
806.336	27907
806.478	27812
806.62	27762
806.762	27918
806.904	28044
807.046	28226
807.188	28390
807.33	28120
807.472	28200
807.614	27987
807.756	28097
807.898	28010
808.04	28067
808.182	28063
808.324	28093
808.465	28044
808.607	28238
808.749	28489
808.891	28470
809.033	28531
809.174	28588
809.316	28466
809.458	28466
809.6	28478
809.741	28573
809.883	28371
810.025	28599
810.166	28793
810.308	28763
810.45	28660
810.591	28668
810.733	28303
810.875	28398
811.016	28337
811.158	28223
811.299	28474
811.441	28622
811.582	28497
811.724	28356
811.865	28417
812.007	28436
812.148	28462
812.29	28405
812.431	28691
812.573	28839
812.714	28797
812.855	28957
812.997	29014
813.138	29136
813.279	29010
813.421	29105
813.562	29018
813.703	28767
813.845	28710
813.986	28470
814.127	28295
814.268	28230
814.41	28105
814.551	28116
814.692	28242
814.833	28078
814.974	28070
815.115	28112
815.256	27994
815.397	28002
815.539	27911
815.68	27854
815.821	27979
815.962	28032
816.103	27983
816.244	27793
816.385	27759
816.526	27648
816.666	27610
816.807	27466
816.948	27492
817.089	27530
817.23	27500
817.371	27424
817.512	27557
817.653	27405
817.793	27397
817.934	27302
818.075	27397
818.216	27393
818.356	27454
818.497	27336
818.638	27222
818.778	27089
818.919	27344
819.06	27249
819.2	27298
819.341	27496
819.481	27439
819.622	27610
819.762	27686
819.903	27644
820.043	27652
820.184	27511
820.324	27519
820.465	27652
820.605	27462
820.746	27622
820.886	27382
821.026	27485
821.167	27408
821.307	27595
821.447	27222
821.588	27310
821.728	27287
821.868	27131
822.008	26864
822.149	26982
822.289	26864
822.429	26621
822.569	26606
822.709	26625
822.849	26294
822.99	26469
823.13	26465
823.27	26480
823.41	26252
823.55	26195
823.69	26271
823.83	26240
823.97	26252
824.11	26062
824.25	25963
824.389	26142
824.529	26039
824.669	26088
824.809	26225
824.949	26103
825.089	26210
825.228	26176
825.368	25955
825.508	25906
825.648	26039
825.787	25997
825.927	26058
826.067	25928
826.206	25944
826.346	25883
826.485	26046
826.625	25944
826.765	26130
826.904	25921
827.044	25685
827.183	25704
827.323	25556
827.462	25776
827.601	25586
827.741	25651
827.88	25708
828.02	25502
828.159	25677
828.298	25712
828.437	25784
828.577	25651
828.716	25674
828.855	25647
828.994	25384
829.134	25411
829.273	25415
829.412	25293
829.551	25274
829.69	25449
829.829	25415
829.968	25533
830.107	25491
830.246	25324
830.385	25362
830.524	25343
830.663	25141
830.802	25095
830.941	25050
831.08	24905
831.219	25179
831.357	25145
831.496	25217
831.635	25015
831.774	24928
831.913	24844
832.051	24856
832.19	24753
832.329	24810
832.467	24779
832.606	24627
832.744	24650
832.883	24570
833.022	24658
833.16	24764
833.299	24753
833.437	24738
833.576	24700
833.714	24776
833.852	24715
833.991	24730
834.129	24977
834.267	24772
834.406	24642
834.544	24817
834.682	24719
834.821	24829
834.959	24863
835.097	24597
835.235	24817
835.373	24783
835.511	24589
835.65	24654
835.788	24582
835.926	24418
836.064	24452
836.202	24372
836.34	24498
836.478	24692
836.615	24578
836.753	24578
836.891	24635
837.029	24532
837.167	24452
837.305	24452
837.443	24467
837.58	24422
837.718	24391
837.856	24502
837.993	24357
838.131	24410
838.269	24327
838.406	24384
838.544	24228
838.681	24190
838.819	23946
838.956	23897
839.094	23851
839.231	24030
839.369	24018
839.506	24277
839.643	24224
839.781	23847
839.918	23889
840.055	23870
840.193	23859
840.33	23828
840.467	23752
840.604	23779
840.742	24045
840.879	23535
841.016	23916
841.153	23771
841.29	23977
841.427	23828
841.564	23802
841.701	23836
841.838	23824
841.975	23634
842.112	23756
842.249	23737
842.385	23474
842.522	23821
842.659	23684
842.796	23547
842.933	23668
843.069	23436
843.206	23452
843.343	23745
843.479	23543
843.616	23490
843.752	23315
843.889	23387
844.025	23520
844.162	23220
844.298	23478
844.435	23512
844.571	23368
844.708	23478
844.844	23577
844.98	23455
845.117	23509
845.253	23242
845.389	23170
845.525	23246
845.661	23162
845.798	23025
845.934	23033
846.07	23052
846.206	23048
846.342	23231
846.478	23083
846.614	22854
846.75	22869
846.886	22812
847.022	22812
847.158	22664
847.294	22801
847.429	22904
847.565	22778
847.701	23071
847.837	22607
847.972	22527
848.108	22618
848.244	22538
848.379	22356
848.515	22535
848.65	22356
848.786	22382
848.921	22394
849.057	22611
849.192	22512
849.328	22512
849.463	22409
849.598	22314
849.734	22341
849.869	22246
850.004	22215
850.14	22181
850.275	22143
850.41	22128
850.545	22128
850.68	22078
850.815	22139
850.95	22257
851.085	22348
851.22	22253
851.355	22131
851.49	22101
851.625	22082
851.76	22154
851.895	22078
852.03	22105
852.165	22128
852.299	22166
852.434	22318
852.569	22303
852.703	22238
852.838	22253
852.973	22341
853.107	22268
853.242	22086
853.376	22063
853.511	21892
853.645	21857
853.78	22063
853.914	22032
854.048	21983
854.183	22017
854.317	22036
854.451	22192
854.585	21975
854.72	22029
854.854	21922
854.988	21983
855.122	21937
855.256	21854
855.39	21945
855.524	22135
855.658	22010
855.792	21960
855.926	22055
856.06	21949
856.194	22036
856.327	21880
856.461	21884
856.595	21964
856.729	21949
856.862	22139
856.996	21930
857.13	22067
857.263	22063
857.397	22086
857.53	21941
857.664	21964
857.797	22044
857.931	21979
858.064	21873
858.197	22063
858.331	22006
858.464	21964
858.597	21899
858.731	21812
858.864	21926
858.997	22029
859.13	21987
859.263	21918
859.396	22002
859.529	22044
859.662	21918
859.795	21949
859.928	21926
860.061	22101
860.194	22093
860.327	22078
860.46	21968
860.592	22078
860.725	22070
860.858	22135
860.99	22017
861.123	21895
861.256	21831
861.388	22017
861.521	22687
861.653	21876
861.786	21899
861.918	21789
862.05	21895
862.183	22021
862.315	21854
862.447	21907
862.58	21922
862.712	21698
862.844	21720
862.976	21766
863.108	21774
863.24	22044
863.372	21641
863.504	21770
863.636	21675
863.768	21698
863.9	21663
864.032	21679
864.164	21656
864.296	21622
864.428	21736
864.559	21717
864.691	21774
864.823	21610
864.954	21667
865.086	21637
865.217	21652
865.349	21515
865.48	21610
865.612	21564
865.743	21637
865.875	21637
866.006	21443
866.137	21469
866.269	21648
866.4	21496
866.531	21515
866.662	21473
866.793	21553
866.924	21583
867.055	21428
867.186	21458
867.317	21389
867.448	21485
867.579	21485
867.71	21439
867.841	21359
867.972	21511
868.103	21393
868.233	21412
868.364	21583
868.495	21610
868.625	21724
868.756	21663
868.886	21755
869.017	21800
869.147	21880
869.278	21888
869.408	21717
869.539	21739
869.669	21781
869.799	21819
869.929	21850
870.06	21861
870.19	22059
870.32	22063
870.45	22128
870.58	22131
870.71	22230
870.84	22166
870.97	22040
871.1	22059
871.23	22314
871.36	22177
871.489	22204
871.619	22291
871.749	22242
871.879	22375
872.008	22371
872.138	22276
872.267	22432
872.397	22219
872.526	22166
872.656	22017
872.785	22211
872.915	22405
873.044	22348
873.173	22344
873.303	22474
873.432	22451
873.561	22462
873.69	22363
873.819	22337
873.948	22322
874.077	22333
874.206	22322
874.335	22234
874.464	22485
874.593	22569
874.722	22557
874.851	22596
874.979	22516
875.108	22535
875.237	22478
875.365	22470
875.494	22527
875.623	22649
875.751	22622
875.88	22500
876.008	22748
876.136	22634
876.265	22949
876.393	23064
876.521	23041
876.65	23014
876.778	22930
876.906	22812
877.034	22873
877.162	22900
877.29	22930
877.418	22877
877.546	22911
877.674	22938
877.802	22919
877.93	22957
878.058	22816
878.185	22869
878.313	22824
878.441	22831
878.568	22873
878.696	22839
878.824	22915
878.951	22961
879.079	23098
879.206	23220
879.333	23162
879.461	22995
879.588	22942
879.715	23132
879.842	23208
879.97	23022
880.097	22664
880.224	22698
880.351	22687
880.478	22771
880.605	22664
880.732	22786
880.859	22942
880.986	22774
881.112	22847
881.239	22565
881.366	22550
881.493	22379
881.619	22360
881.746	22375
881.872	22276
881.999	22249
882.125	22143
882.252	22325
882.378	22348
882.505	22333
882.631	22173
882.757	22055
882.883	22048
883.01	21857
883.136	22010
883.262	21926
883.388	21793
883.514	22010
883.64	22105
883.766	21899
883.892	21720
884.018	21819
884.143	21895
884.269	21873
884.395	21679
884.52	21618
884.646	21671
884.772	21568
884.897	21450
885.023	21637
885.148	21694
885.274	21846
885.399	21701
885.524	21690
885.65	21603
885.775	21622
885.9	21549
886.025	21694
886.15	21774
886.275	21587
886.4	21397
886.525	21629
886.65	21496
886.775	21542
886.9	21641
887.025	21739
887.149	21648
887.274	21477
887.399	21359
887.523	21447
887.648	21241
887.773	21306
887.897	21549
888.021	21325
888.146	21329
888.27	21504
888.395	21473
888.519	21317
888.643	21428
888.767	21469
888.891	21287
889.015	21180
889.139	21340
889.263	21154
889.387	21359
889.511	21401
889.635	21268
889.759	21116
889.883	21146
890.006	21058
890.13	21245
890.254	21093
890.377	21009
890.501	20823
890.624	20921
890.748	20857
890.871	20815
890.995	20804
891.118	20617
891.241	20739
891.364	20720
891.488	20758
891.611	20743
891.734	20674
891.857	20823
891.98	20716
892.103	20853
892.226	20712
892.349	20617
892.471	20473
892.594	20678
892.717	20697
892.839	20602
892.962	20655
893.085	20853
893.207	20651
893.33	20590
893.452	20598
893.575	20552
893.697	20617
893.819	20796
893.941	20800
894.064	20724
894.186	20609
894.308	20579
894.43	20720
894.552	20785
894.674	20682
894.796	20530
894.918	20514
895.04	20708
895.161	20823
895.283	20625
895.405	20530
895.526	20594
895.648	20629
895.769	20606
895.891	20625
896.012	20541
896.134	20609
896.255	20617
896.376	20438
896.498	20644
896.619	20541
896.74	20621
896.861	20693
896.982	21043
897.103	21062
897.224	20826
897.345	20743
897.466	20838
897.587	20887
897.708	20800
897.828	20887
897.949	20754
898.07	20765
898.19	20735
898.311	20868
898.431	20743
898.552	20918
898.672	20872
898.792	20823
898.913	20853
899.033	20575
899.153	20587
899.273	20415
899.393	20488
899.513	20636
899.633	20568
899.753	20560
899.873	20507
899.993	20579
900.113	20366
900.232	20423
900.352	20412
900.472	20347
900.591	20278
900.711	20389
900.83	20206
900.95	20343
901.069	20385
901.189	20183
901.308	19963
901.427	19837
901.546	19944
901.665	19917
901.784	19868
901.904	19769
902.023	19662
902.141	19502
902.26	19499
902.379	19537
902.498	19430
902.617	19392
902.735	19441
902.854	19354
902.973	19377
903.091	19175
903.21	19110
903.328	19122
903.446	19057
903.565	18783
903.683	18985
903.801	18734
903.919	18787
904.038	18840
904.156	18707
904.274	18715
904.392	18677
904.51	18749
904.627	18623
904.745	18620
904.863	18700
904.981	18479
905.098	18407
905.216	18311
905.334	18407
905.451	18346
905.569	18334
905.686	18327
905.803	18281
905.921	18155
906.038	18338
906.155	18171
906.272	17992
906.389	17950
906.506	17847
906.623	17885
906.74	17889
906.857	17779
906.974	17855
907.091	17946
907.208	17950
907.324	17901
907.441	17748
907.557	17592
907.674	17589
907.79	17573
907.907	17452
908.023	17638
908.139	17551
908.256	17634
908.372	17402
908.488	17391
908.604	17345
908.72	17341
908.836	17349
908.952	17353
909.068	17372
909.184	17395
909.3	17345
909.415	17345
909.531	17273
909.647	17155
909.762	17045
909.878	16965
909.993	17102
910.108	16965
910.224	17018
910.339	16991
910.454	16904
910.57	16752
910.685	16767
910.8	16995
910.915	16934
911.03	16797
911.145	16679
911.259	16577
911.374	16538
911.489	16527
911.604	16333
911.718	16303
911.833	16272
911.947	16234
912.062	16211
912.176	16310
912.291	16348
912.405	16360
912.519	16634
912.633	16535
912.748	16382
912.862	16295
912.976	16204
913.09	16074
913.204	16105
913.318	16128
913.431	16265
913.545	16196
913.659	16234
913.772	16116
913.886	16025
914	15888
914.113	16032
914.226	15991
914.34	16063
914.453	15876
914.566	15918
914.68	15850
914.793	15823
914.906	15660
915.019	15545
915.132	15507
915.245	15492
915.358	15496
915.47	15492
915.583	15462
915.696	15485
915.809	15713
915.921	15599
916.034	15466
916.146	15401
916.259	15351
916.371	15557
916.483	15439
916.595	15435
916.708	15302
916.82	15393
916.932	15329
917.044	15294
917.156	15275
917.268	15169
917.38	15249
917.491	15123
917.603	15222
917.715	15348
917.826	15230
917.938	15070
918.049	14960
918.161	15009
918.272	15245
918.384	15165
918.495	15116
918.606	14979
918.717	14792
918.828	14941
918.939	14880
919.05	14826
919.161	14864
919.272	14781
919.383	14777
919.494	14891
919.604	15055
919.715	14834
919.826	14804
919.936	14842
920.047	14921
920.157	14906
920.267	15017
920.378	14864
920.488	14834
920.598	15020
920.708	15150
920.818	15005
920.928	14918
921.038	15108
921.148	15119
921.258	14849
921.368	14743
921.477	14712
921.587	14689
921.697	14598
921.806	14670
921.916	14442
922.025	14278
922.134	14191
922.244	14187
922.353	14259
922.462	14096
922.571	14043
922.68	13890
922.789	13868
922.898	13883
923.007	13890
923.116	13860
923.224	13814
923.333	13875
923.442	13769
923.55	13651
923.659	13685
923.767	13799
923.876	13605
923.984	13636
924.092	13666
924.201	13582
924.309	13582
924.417	13491
924.525	13521
924.633	13521
924.741	14252
924.849	13384
924.956	13422
925.064	13301
925.172	13251
925.279	13160
925.387	13301
925.494	13263
925.602	13354
925.709	13358
925.816	13263
925.924	13221
926.031	13274
926.138	13221
926.245	13187
926.352	13164
926.459	13225
926.566	13228
926.673	13110
926.779	13057
926.886	12977
926.993	12924
927.099	12840
927.206	12787
927.312	12760
927.419	12920
927.525	12806
927.631	12882
927.737	12795
927.843	12692
927.95	12536
928.056	12585
928.162	12665
928.267	12673
928.373	13221
928.479	12738
928.585	12486
928.69	12631
928.796	12665
928.901	12448
929.007	12353
929.112	12471
929.218	12418
929.323	12357
929.428	12266
929.533	12452
929.638	12319
929.743	12197
929.848	12361
929.953	12311
930.058	12228
930.163	12083
930.267	12034
930.372	12209
930.477	11992
930.581	12254
930.685	12133
930.79	11973
930.894	11935
930.998	11942
931.103	12003
931.207	11657
931.311	11589
931.415	11490
931.519	11395
931.623	11246
