Data from test_V78500241_418.txt Node
Date: Fri Mar 25 15:12:46 CST 2022
User: usil
Spectrometer: V785-0024
Trigger mode: 0
Integration Time (sec): 4.000000E-1
Scans to average: 1
Nonlinearity correction enabled: false
Boxcar width: 0
Storing dark spectrum: false
XAxis mode: Wavelengths
Number of Pixels in Spectrum: 1024
>>>>>Begin Spectral Data<<<<<
801.071	27135
801.214	27142
801.356	26785
801.499	26826
801.641	26785
801.783	26785
801.926	26891
802.068	26667
802.211	26613
802.353	26648
802.496	26377
802.638	26385
802.78	26396
802.923	26271
803.065	26240
803.208	26362
803.35	26347
803.492	26438
803.635	26457
803.777	26431
803.919	26697
804.061	26583
804.204	26495
804.346	26355
804.488	26442
804.63	26503
804.773	26324
804.915	26518
805.057	26602
805.199	26377
805.341	26575
805.483	26579
805.626	26590
805.768	26446
805.91	26507
806.052	26442
806.194	26446
806.336	26765
806.478	26735
806.62	26476
806.762	26758
806.904	26754
807.046	27184
807.188	27131
807.33	26994
807.472	26956
807.614	26880
807.756	26921
807.898	26857
808.04	26864
808.182	26807
808.324	26716
808.465	26689
808.607	27100
808.749	27116
808.891	27230
809.033	27340
809.174	27355
809.316	27180
809.458	27188
809.6	27070
809.741	27287
809.883	27272
810.025	27355
810.166	27485
810.308	27412
810.45	27416
810.591	27485
810.733	27367
810.875	27211
811.016	27024
811.158	27039
811.299	27332
811.441	27336
811.582	27222
811.724	27100
811.865	27195
812.007	27100
812.148	27150
812.29	27203
812.431	27157
812.573	27427
812.714	27492
812.855	27526
812.997	27835
813.138	27899
813.279	27911
813.421	27663
813.562	27671
813.703	27504
813.845	27348
813.986	27077
814.127	26899
814.268	27013
814.41	26929
814.551	26800
814.692	26921
814.833	26804
814.974	26655
815.115	26697
815.256	26621
815.397	26750
815.539	26785
815.68	26781
815.821	26609
815.962	26670
816.103	26533
816.244	26484
816.385	26541
816.526	26419
816.666	26225
816.807	26317
816.948	26214
817.089	26263
817.23	26218
817.371	26221
817.512	26100
817.653	25970
817.793	26084
817.934	26187
818.075	26267
818.216	26149
818.356	26039
818.497	25947
818.638	25780
818.778	25723
818.919	25852
819.06	25799
819.2	26031
819.341	26202
819.481	26046
819.622	26237
819.762	26427
819.903	26347
820.043	26374
820.184	26237
820.324	26161
820.465	26431
820.605	26244
820.746	26290
820.886	26145
821.026	26195
821.167	26187
821.307	26107
821.447	26096
821.588	26020
821.728	25959
821.868	25868
822.008	25552
822.149	25533
822.289	25567
822.429	25350
822.569	25316
822.709	25282
822.849	25091
822.99	25179
823.13	25008
823.27	24932
823.41	25012
823.55	24825
823.69	24943
823.83	24970
823.97	24707
824.11	24635
824.25	24490
824.389	24570
824.529	24734
824.669	24798
824.809	24810
824.949	24719
825.089	24878
825.228	24802
825.368	24509
825.508	24597
825.648	24517
825.787	24726
825.927	24505
826.067	24578
826.206	24460
826.346	24642
826.485	24604
826.625	24426
826.765	24745
826.904	24700
827.044	24304
827.183	24330
827.323	24311
827.462	24327
827.601	24296
827.741	24350
827.88	24308
828.02	24098
828.159	24308
828.298	24350
828.437	24346
828.577	24182
828.716	24372
828.855	24380
828.994	24091
829.134	24041
829.273	24125
829.412	24011
829.551	24003
829.69	23958
829.829	24003
829.968	24068
830.107	24098
830.246	24072
830.385	23897
830.524	23965
830.663	23798
830.802	23851
830.941	23547
831.08	23741
831.219	23608
831.357	23726
831.496	23802
831.635	23520
831.774	23531
831.913	23520
832.051	23493
832.19	23410
832.329	23482
832.467	23387
832.606	23239
832.744	23246
832.883	23239
833.022	23197
833.16	23303
833.299	23292
833.437	23337
833.576	23562
833.714	23391
833.852	23402
833.991	23398
834.129	23493
834.267	23402
834.406	23334
834.544	23425
834.682	23303
834.821	23311
834.959	23589
835.097	23372
835.235	23364
835.373	23387
835.511	23349
835.65	23231
835.788	23174
835.926	23155
836.064	23079
836.202	23048
836.34	23246
836.478	23273
836.615	23185
836.753	23318
836.891	23349
837.029	23200
837.167	23178
837.305	23151
837.443	23098
837.58	23044
837.718	23083
837.856	23010
837.993	23060
838.131	23075
838.269	23075
838.406	22980
838.544	22831
838.681	22820
838.819	22843
838.956	22466
839.094	22565
839.231	22508
839.369	22740
839.506	23041
839.643	22812
839.781	22577
839.918	22493
840.055	22584
840.193	22428
840.33	22413
840.467	22527
840.604	22436
840.742	22717
840.879	22409
841.016	22390
841.153	22421
841.29	22607
841.427	22550
841.564	22497
841.701	22497
841.838	22489
841.975	22432
842.112	22363
842.249	22226
842.385	22344
842.522	22413
842.659	22291
842.796	22173
842.933	22303
843.069	22363
843.206	22249
843.343	22382
843.479	22219
843.616	22268
843.752	22090
843.889	22010
844.025	22074
844.162	22044
844.298	22025
844.435	22025
844.571	21937
844.708	22086
844.844	22070
844.98	22124
845.117	22192
845.253	22131
845.389	21892
845.525	21937
845.661	21911
845.798	21732
845.934	21850
846.07	21804
846.206	21808
846.342	21960
846.478	21728
846.614	21561
846.75	21530
846.886	21492
847.022	21637
847.158	21526
847.294	21557
847.429	21515
847.565	21526
847.701	21641
847.837	21302
847.972	21108
848.108	21291
848.244	21287
848.379	21123
848.515	21131
848.65	20960
848.786	21077
848.921	21161
849.057	21085
849.192	21192
849.328	21089
849.463	21096
849.598	21039
849.734	20998
849.869	20975
850.004	20792
850.14	21051
850.275	20952
850.41	20762
850.545	20807
850.68	20883
850.815	20952
850.95	20948
851.085	20971
851.22	20948
851.355	20804
851.49	20815
851.625	20758
851.76	20853
851.895	20815
852.03	20792
852.165	20792
852.299	20891
852.434	20986
852.569	20914
852.703	20921
852.838	20842
852.973	21009
853.107	20910
853.242	20902
853.376	20720
853.511	20556
853.645	20663
853.78	20910
853.914	20629
854.048	20670
854.183	20644
854.317	20693
854.451	20826
854.585	20663
854.72	20556
854.854	20834
854.988	20651
855.122	20705
855.256	20419
855.39	20697
855.524	20754
855.658	20804
855.792	20697
855.926	20735
856.06	20796
856.194	20754
856.327	20697
856.461	20587
856.595	20708
856.729	20807
856.862	20777
856.996	20693
857.13	20834
857.263	20819
857.397	20811
857.53	20674
857.664	20712
857.797	20686
857.931	20781
858.064	20473
858.197	20826
858.331	20648
858.464	20594
858.597	20564
858.731	20686
858.864	20640
858.997	20625
859.13	20590
859.263	20579
859.396	20842
859.529	20765
859.662	20617
859.795	20701
859.928	20686
860.061	20895
860.194	20941
860.327	20701
860.46	20708
860.592	20811
860.725	20830
860.858	20746
860.99	20598
861.123	20663
861.256	20568
861.388	20716
861.521	21424
861.653	20533
861.786	20419
861.918	20526
862.05	20594
862.183	20552
862.315	20583
862.447	20629
862.58	20594
862.712	20526
862.844	20366
862.976	20488
863.108	20442
863.24	20887
863.372	20336
863.504	20400
863.636	20457
863.768	20465
863.9	20492
864.032	20305
864.164	20465
864.296	20457
864.428	20480
864.559	20374
864.691	20484
864.823	20324
864.954	20358
865.086	20385
865.217	20404
865.349	20248
865.48	20370
865.612	20336
865.743	20461
865.875	20362
866.006	20427
866.137	20244
866.269	20248
866.4	20309
866.531	20153
866.662	20134
866.793	20195
866.924	20256
867.055	20313
867.186	20225
867.317	20248
867.448	20088
867.579	20145
867.71	20183
867.841	20008
867.972	20252
868.103	20286
868.233	20183
868.364	20305
868.495	20339
868.625	20507
868.756	20526
868.886	20355
869.017	20457
869.147	20526
869.278	20575
869.408	20518
869.539	20476
869.669	20476
869.799	20549
869.929	20670
870.06	20594
870.19	20750
870.32	20735
870.45	20792
870.58	20864
870.71	21081
870.84	21036
870.97	20849
871.1	20914
871.23	21047
871.36	21104
871.489	20967
871.619	21028
871.749	21058
871.879	21233
872.008	21108
872.138	21119
872.267	21009
872.397	20925
872.526	20849
872.656	21013
872.785	20864
872.915	21173
873.044	21176
873.173	21104
873.303	21127
873.432	21154
873.561	21108
873.69	21093
873.819	20967
873.948	21127
874.077	21020
874.206	21173
874.335	21184
874.464	21230
874.593	21302
874.722	21393
874.851	21374
874.979	21355
875.108	21344
875.237	21260
875.365	21241
875.494	21329
875.623	21431
875.751	21310
875.88	21408
876.008	21530
876.136	21504
876.265	21648
876.393	21755
876.521	21846
876.65	21838
876.778	21785
876.906	21561
877.034	21812
877.162	21770
877.29	21724
877.418	21793
877.546	21759
877.674	21686
877.802	21766
877.93	21660
878.058	21599
878.185	21587
878.313	21580
878.441	21682
878.568	21511
878.696	21656
878.824	21717
878.951	21751
879.079	21895
879.206	21926
879.333	21835
879.461	21713
879.588	21785
879.715	21831
879.842	21953
879.97	21812
880.097	21580
880.224	21500
880.351	21488
880.478	21545
880.605	21416
880.732	21545
880.859	21812
880.986	21603
881.112	21439
881.239	21405
881.366	21275
881.493	21184
881.619	21161
881.746	21020
881.872	21184
881.999	21146
882.125	21055
882.252	21199
882.378	21112
882.505	21138
882.631	21047
882.757	20773
882.883	20963
883.01	20933
883.136	20807
883.262	20731
883.388	20743
883.514	20819
883.64	20788
883.766	20689
883.892	20533
884.018	20648
884.143	20686
884.269	20853
884.395	20488
884.52	20419
884.646	20518
884.772	20438
884.897	20476
885.023	20488
885.148	20648
885.274	20689
885.399	20697
885.524	20438
885.65	20408
885.775	20541
885.9	20560
886.025	20636
886.15	20568
886.275	20442
886.4	20286
886.525	20404
886.65	20545
886.775	20431
886.9	20670
887.025	20667
887.149	20473
887.274	20385
887.399	20309
887.523	20206
887.648	20183
887.773	20096
887.897	20240
888.021	20347
888.146	20180
888.27	20244
888.395	20385
888.519	20183
888.643	20427
888.767	20271
888.891	20191
889.015	20130
889.139	20294
889.263	20043
889.387	20176
889.511	20263
889.635	20210
889.759	20031
889.883	20027
890.006	20065
890.13	20202
890.254	20039
890.377	19944
890.501	19864
890.624	19826
890.748	20020
890.871	19837
890.995	19651
891.118	19590
891.241	19685
891.364	19666
891.488	19761
891.611	19658
891.734	19700
891.857	19753
891.98	19689
892.103	19647
892.226	19780
892.349	19643
892.471	19468
892.594	19575
892.717	19670
892.839	19441
892.962	19537
893.085	19582
893.207	19578
893.33	19392
893.452	19491
893.575	19639
893.697	19491
893.819	19723
893.941	19723
894.064	19712
894.186	19495
894.308	19499
894.43	19548
894.552	19628
894.674	19616
894.796	19472
894.918	19563
895.04	19521
895.161	19445
895.283	19655
895.405	19472
895.526	19495
895.648	19571
895.769	19628
895.891	19529
896.012	19700
896.134	19666
896.255	19632
896.376	19529
896.498	19449
896.619	19563
896.74	19540
896.861	19681
896.982	19921
897.103	19997
897.224	19799
897.345	19833
897.466	19715
897.587	19757
897.708	19917
897.828	19776
897.949	19788
898.07	19628
898.19	19715
898.311	19955
898.431	19746
898.552	19826
898.672	19913
898.792	19967
898.913	19818
899.033	19586
899.153	19605
899.273	19468
899.393	19525
899.513	19491
899.633	19635
899.753	19491
899.873	19548
899.993	19597
900.113	19392
900.232	19548
900.352	19495
900.472	19434
900.591	19419
900.711	19369
900.83	19263
900.95	19415
901.069	19358
901.189	19289
901.308	18993
901.427	18890
901.546	18947
901.665	19050
901.784	18970
901.904	18760
902.023	18741
902.141	18540
902.26	18525
902.379	18464
902.498	18494
902.617	18403
902.735	18547
902.854	18403
902.973	18452
903.091	18114
903.21	18144
903.328	18083
903.446	18083
903.565	17893
903.683	17916
903.801	17828
903.919	17904
904.038	17950
904.156	17707
904.274	17802
904.392	17756
904.51	17707
904.627	17752
904.745	17756
904.863	17767
904.981	17539
905.098	17425
905.216	17349
905.334	17520
905.451	17356
905.569	17410
905.686	17467
905.803	17429
905.921	17193
906.038	17250
906.155	17162
906.272	17105
906.389	17079
906.506	16877
906.623	17025
906.74	16942
906.857	16828
906.974	16915
907.091	17075
907.208	17083
907.324	17018
907.441	16767
907.557	16755
907.674	16683
907.79	16447
907.907	16626
908.023	16717
908.139	16755
908.256	16622
908.372	16466
908.488	16546
908.604	16436
908.72	16318
908.836	16417
908.952	16268
909.068	16405
909.184	16424
909.3	16367
909.415	16409
909.531	16440
909.647	16029
909.762	16112
909.878	16067
909.993	16101
910.108	16082
910.224	15972
910.339	16063
910.454	16006
910.57	15915
910.685	15869
910.8	16112
910.915	16078
911.03	15941
911.145	15717
911.259	15724
911.374	15694
911.489	15675
911.604	15553
911.718	15428
911.833	15481
911.947	15416
912.062	15222
912.176	15351
912.291	15382
912.405	15408
912.519	15625
912.633	15690
912.748	15439
912.862	15389
912.976	15195
913.09	15161
913.204	15184
913.318	15157
913.431	15389
913.545	15378
913.659	15405
913.772	15150
913.886	15081
914	15131
914.113	15173
914.226	15169
914.34	15062
914.453	14982
914.566	15199
914.68	14944
914.793	14895
914.906	14754
915.019	14792
915.132	14663
915.245	14697
915.358	14731
915.47	14746
915.583	14590
915.696	14720
915.809	14750
915.921	14792
916.034	14594
916.146	14575
916.259	14617
916.371	14708
916.483	14610
916.595	14564
916.708	14549
916.82	14644
916.932	14499
917.044	14488
917.156	14476
917.268	14244
917.38	14370
917.491	14305
917.603	14336
917.715	14461
917.826	14511
917.938	14278
918.049	14221
918.161	14343
918.272	14396
918.384	14351
918.495	14336
918.606	14100
918.717	14081
918.828	14107
918.939	14111
919.05	14016
919.161	14081
919.272	13898
919.383	14027
919.494	14149
919.604	14278
919.715	14050
919.826	14039
919.936	14077
920.047	14130
920.157	14115
920.267	14328
920.378	14065
920.488	14145
920.598	14202
920.708	14400
920.818	14237
920.928	14145
921.038	14370
921.148	14298
921.258	14054
921.368	13951
921.477	13932
921.587	13788
921.697	13887
921.806	13887
921.916	13708
922.025	13582
922.134	13556
922.244	13480
922.353	13476
922.462	13453
922.571	13354
922.68	13301
922.789	13103
922.898	13194
923.007	13000
923.116	13175
923.224	13038
923.333	13103
923.442	13038
923.55	12996
923.659	12932
923.767	12947
923.876	12954
923.984	12924
924.092	12821
924.201	12920
924.309	12909
924.417	12962
924.525	12844
924.633	12863
924.741	13727
924.849	12753
924.956	12707
925.064	12616
925.172	12536
925.279	12604
925.387	12566
925.494	12536
925.602	12620
925.709	12597
925.816	12441
925.924	12479
926.031	12566
926.138	12475
926.245	12540
926.352	12460
926.459	12559
926.566	12566
926.673	12498
926.779	12353
926.886	12346
926.993	12243
927.099	12178
927.206	12098
927.312	12087
927.419	12213
927.525	12159
927.631	12213
927.737	11958
927.843	11969
927.95	11878
928.056	11999
928.162	12038
928.267	12022
928.373	12642
928.479	11992
928.585	11821
928.69	11927
928.796	11999
928.901	11840
929.007	11638
929.112	11885
929.218	11794
929.323	11729
929.428	11729
929.533	11809
929.638	11634
929.743	11657
929.848	11726
929.953	11764
930.058	11566
930.163	11417
930.267	11417
930.372	11558
930.477	11410
930.581	11638
930.685	11528
930.79	11337
930.894	11379
930.998	11280
931.103	11345
931.207	11048
931.311	11041
931.415	10850
931.519	10691
931.623	10714
