Data from test_V78500241_1107.txt Node
Date: Fri Mar 25 15:17:33 CST 2022
User: usil
Spectrometer: V785-0024
Trigger mode: 0
Integration Time (sec): 4.000000E-1
Scans to average: 1
Nonlinearity correction enabled: false
Boxcar width: 0
Storing dark spectrum: false
XAxis mode: Wavelengths
Number of Pixels in Spectrum: 1024
>>>>>Begin Spectral Data<<<<<
801.071	28272
801.214	28303
801.356	27956
801.499	27975
801.641	27755
801.783	27812
801.926	27854
802.068	27724
802.211	27713
802.353	27709
802.496	27606
802.638	27553
802.78	27450
802.923	27466
803.065	27481
803.208	27389
803.35	27492
803.492	27545
803.635	27679
803.777	27610
803.919	27599
804.061	28101
804.204	27675
804.346	27641
804.488	27648
804.63	27583
804.773	27675
804.915	27774
805.057	27888
805.199	27622
805.341	27816
805.483	27827
805.626	28032
805.768	27663
805.91	27713
806.052	27861
806.194	27583
806.336	27998
806.478	27709
806.62	27743
806.762	27922
806.904	28063
807.046	28299
807.188	28226
807.33	28303
807.472	28276
807.614	28337
807.756	28086
807.898	28128
808.04	27991
808.182	28021
808.324	28025
808.465	28101
808.607	28398
808.749	28596
808.891	28607
809.033	28615
809.174	28512
809.316	28481
809.458	28459
809.6	28440
809.741	28736
809.883	28664
810.025	28957
810.166	28721
810.308	28641
810.45	28645
810.591	28790
810.733	28538
810.875	28443
811.016	28538
811.158	28352
811.299	28679
811.441	28748
811.582	28637
811.724	28470
811.865	28630
812.007	28478
812.148	28634
812.29	28485
812.431	28736
812.573	28812
812.714	28896
812.855	28919
812.997	29136
813.138	29083
813.279	29025
813.421	29147
813.562	29048
813.703	28858
813.845	28767
813.986	28462
814.127	28344
814.268	28109
814.41	28204
814.551	28128
814.692	28314
814.833	28166
814.974	28051
815.115	28196
815.256	28032
815.397	28021
815.539	28200
815.68	27918
815.821	27880
815.962	27899
816.103	27968
816.244	28029
816.385	27823
816.526	27770
816.666	27610
816.807	27526
816.948	27724
817.089	27488
817.23	27538
817.371	27542
817.512	27397
817.653	27469
817.793	27515
817.934	27496
818.075	27580
818.216	27568
818.356	27447
818.497	27420
818.638	27146
818.778	27119
818.919	27279
819.06	27283
819.2	27401
819.341	27488
819.481	27462
819.622	27603
819.762	27717
819.903	27701
820.043	27838
820.184	27675
820.324	27549
820.465	27694
820.605	27701
820.746	27652
820.886	27564
821.026	27564
821.167	27576
821.307	27701
821.447	27591
821.588	27618
821.728	27268
821.868	27154
822.008	26838
822.149	27013
822.289	26986
822.429	26773
822.569	26667
822.709	26716
822.849	26560
822.99	26549
823.13	26492
823.27	26427
823.41	26358
823.55	26191
823.69	26450
823.83	26374
823.97	26313
824.11	26092
824.25	26172
824.389	26161
824.529	26313
824.669	26248
824.809	26358
824.949	26301
825.089	26275
825.228	26191
825.368	26020
825.508	26092
825.648	26065
825.787	26122
825.927	26130
826.067	26069
826.206	26039
826.346	26195
826.485	26119
826.625	26168
826.765	26176
826.904	26229
827.044	25959
827.183	25795
827.323	25818
827.462	25879
827.601	25795
827.741	25696
827.88	25868
828.02	25788
828.159	25715
828.298	25868
828.437	25841
828.577	25712
828.716	26054
828.855	25845
828.994	25525
829.134	25453
829.273	25499
829.412	25422
829.551	25548
829.69	25472
829.829	25521
829.968	25601
830.107	25601
830.246	25571
830.385	25388
830.524	25491
830.663	25183
830.802	25255
830.941	25000
831.08	25301
831.219	25213
831.357	25206
831.496	25426
831.635	25228
831.774	25031
831.913	25027
832.051	24897
832.19	24833
832.329	24996
832.467	24817
832.606	24658
832.744	24795
832.883	24852
833.022	24688
833.16	24810
833.299	24821
833.437	24764
833.576	24863
833.714	24878
833.852	24943
833.991	25012
834.129	24992
834.267	24977
834.406	24932
834.544	24913
834.682	24871
834.821	24719
834.959	24973
835.097	24760
835.235	24802
835.373	24817
835.511	24901
835.65	24768
835.788	24734
835.926	24696
836.064	24486
836.202	24604
836.34	24688
836.478	24905
836.615	24681
836.753	24768
836.891	24844
837.029	24760
837.167	24604
837.305	24593
837.443	24623
837.58	24559
837.718	24445
837.856	24639
837.993	24509
838.131	24388
838.269	24403
838.406	24505
838.544	24433
838.681	24178
838.819	24190
838.956	24026
839.094	24053
839.231	23992
839.369	24209
839.506	24327
839.643	24445
839.781	24087
839.918	23980
840.055	24083
840.193	23916
840.33	24057
840.467	24015
840.604	23771
840.742	24148
840.879	23916
841.016	23764
841.153	23973
841.29	24072
841.427	23980
841.564	23931
841.701	24011
841.838	23809
841.975	23931
842.112	23790
842.249	23790
842.385	23608
842.522	23855
842.659	23707
842.796	23714
842.933	23646
843.069	23760
843.206	23718
843.343	23707
843.479	23627
843.616	23668
843.752	23528
843.889	23455
844.025	23520
844.162	23490
844.298	23577
844.435	23459
844.571	23395
844.708	23478
844.844	23619
844.98	23672
845.117	23665
845.253	23414
845.389	23360
845.525	23318
845.661	23364
845.798	23185
845.934	23261
846.07	23235
846.206	23147
846.342	23208
846.478	23189
846.614	23048
846.75	22927
846.886	22869
847.022	22911
847.158	22900
847.294	23029
847.429	23014
847.565	22938
847.701	23044
847.837	22615
847.972	22664
848.108	22816
848.244	22679
848.379	22455
848.515	22512
848.65	22440
848.786	22512
848.921	22462
849.057	22691
849.192	22626
849.328	22504
849.463	22577
849.598	22451
849.734	22478
849.869	22352
850.004	22268
850.14	22265
850.275	22360
850.41	22181
850.545	22166
850.68	22276
850.815	22329
850.95	22268
851.085	22497
851.22	22371
851.355	22356
851.49	22322
851.625	22303
851.76	22265
851.895	22147
852.03	22306
852.165	22306
852.299	22333
852.434	22356
852.569	22135
852.703	22348
852.838	22310
852.973	22337
853.107	22375
853.242	22268
853.376	22139
853.511	22036
853.645	22215
853.78	22150
853.914	22120
854.048	21975
854.183	22059
854.317	22143
854.451	22337
854.585	22135
854.72	22013
854.854	22105
854.988	22029
855.122	22048
855.256	21998
855.39	22059
855.524	22234
855.658	22025
855.792	22173
855.926	22025
856.06	22112
856.194	22223
856.327	22082
856.461	22040
856.595	21998
856.729	22048
856.862	22154
856.996	22090
857.13	22097
857.263	22246
857.397	22166
857.53	22097
857.664	22109
857.797	22131
857.931	22017
858.064	22063
858.197	22143
858.331	22093
858.464	22036
858.597	22124
858.731	22101
858.864	22112
858.997	22048
859.13	22154
859.263	22017
859.396	22128
859.529	22002
859.662	22017
859.795	21880
859.928	22029
860.061	22249
860.194	22276
860.327	22063
860.46	22040
860.592	22097
860.725	22246
860.858	22166
860.99	22139
861.123	22112
861.256	22044
861.388	22036
861.521	22923
861.653	21991
861.786	21960
861.918	21861
862.05	22044
862.183	21968
862.315	22021
862.447	22048
862.58	21869
862.712	21888
862.844	21869
862.976	21873
863.108	21838
863.24	22253
863.372	21599
863.504	21762
863.636	21770
863.768	21800
863.9	21770
864.032	21728
864.164	21682
864.296	21888
864.428	21918
864.559	21812
864.691	21831
864.823	21800
864.954	21857
865.086	21759
865.217	21797
865.349	21485
865.48	21701
865.612	21656
865.743	21842
865.875	21663
866.006	21732
866.137	21637
866.269	21667
866.4	21637
866.531	21618
866.662	21564
866.793	21648
866.924	21519
867.055	21538
867.186	21663
867.317	21656
867.448	21496
867.579	21614
867.71	21519
867.841	21656
867.972	21580
868.103	21603
868.233	21625
868.364	21679
868.495	21720
868.625	21759
868.756	21987
868.886	21675
869.017	21850
869.147	21956
869.278	21991
869.408	21892
869.539	21770
869.669	21930
869.799	21888
869.929	21915
870.06	21915
870.19	22109
870.32	22063
870.45	22105
870.58	22234
870.71	22234
870.84	22303
870.97	22162
871.1	22219
871.23	22466
871.36	22432
871.489	22344
871.619	22318
871.749	22402
871.879	22459
872.008	22675
872.138	22432
872.267	22443
872.397	22360
872.526	22109
872.656	22352
872.785	22185
872.915	22344
873.044	22577
873.173	22489
873.303	22470
873.432	22481
873.561	22542
873.69	22428
873.819	22508
873.948	22443
874.077	22428
874.206	22360
874.335	22382
874.464	22569
874.593	22641
874.722	22622
874.851	22660
874.979	22713
875.108	22740
875.237	22675
875.365	22462
875.494	22573
875.623	22683
875.751	22451
875.88	22717
876.008	22839
876.136	22843
876.265	23155
876.393	23094
876.521	23204
876.65	23136
876.778	23052
876.906	22995
877.034	22991
877.162	22984
877.29	22858
877.418	23162
877.546	23071
877.674	22972
877.802	23010
877.93	23033
878.058	22972
878.185	22850
878.313	22915
878.441	23006
878.568	22774
878.696	23022
878.824	22987
878.951	23048
879.079	23113
879.206	23223
879.333	23140
879.461	22972
879.588	23102
879.715	23143
879.842	23318
879.97	23155
880.097	22828
880.224	22889
880.351	22831
880.478	22839
880.605	22740
880.732	22793
880.859	23060
880.986	22820
881.112	22759
881.239	22641
881.366	22489
881.493	22459
881.619	22371
881.746	22352
881.872	22386
881.999	22367
882.125	22348
882.252	22284
882.378	22402
882.505	22428
882.631	22177
882.757	22086
882.883	22166
883.01	21979
883.136	22086
883.262	21994
883.388	21960
883.514	22025
883.64	22135
883.766	22051
883.892	21873
884.018	21793
884.143	21941
884.269	22082
884.395	21873
884.52	21682
884.646	21774
884.772	21709
884.897	21717
885.023	21694
885.148	21728
885.274	21819
885.399	21827
885.524	21701
885.65	21690
885.775	21732
885.9	21606
886.025	21797
886.15	21682
886.275	21606
886.4	21675
886.525	21656
886.65	21656
886.775	21656
886.9	21804
887.025	21899
887.149	21739
887.274	21500
887.399	21454
887.523	21576
887.648	21359
887.773	21428
887.897	21450
888.021	21466
888.146	21538
888.27	21625
888.395	21652
888.519	21469
888.643	21568
888.767	21485
888.891	21336
889.015	21272
889.139	21344
889.263	21211
889.387	21317
889.511	21443
889.635	21351
889.759	21313
889.883	21268
890.006	21279
890.13	21424
890.254	21173
890.377	21165
890.501	21051
890.624	21085
890.748	21089
890.871	20921
890.995	20864
891.118	20861
891.241	20849
891.364	20845
891.488	20933
891.611	20853
891.734	20861
891.857	20967
891.98	20781
892.103	20876
892.226	20868
892.349	20655
892.471	20594
892.594	20750
892.717	20830
892.839	20800
892.962	20735
893.085	20708
893.207	20743
893.33	20556
893.452	20583
893.575	20773
893.697	20701
893.819	20868
893.941	20868
894.064	20788
894.186	20705
894.308	20564
894.43	20655
894.552	20880
894.674	20686
894.796	20587
894.918	20705
895.04	20602
895.161	20792
895.283	20769
895.405	20621
895.526	20735
895.648	20602
895.769	20743
895.891	20785
896.012	20724
896.134	20663
896.255	20667
896.376	20617
896.498	20743
896.619	20689
896.74	20708
896.861	20796
896.982	21017
897.103	21028
897.224	21074
897.345	20876
897.466	20819
897.587	20929
897.708	20944
897.828	20910
897.949	20781
898.07	20644
898.19	20731
898.311	21024
898.431	20746
898.552	20918
898.672	20857
898.792	20948
898.913	20849
899.033	20864
899.153	20674
899.273	20564
899.393	20609
899.513	20712
899.633	20720
899.753	20571
899.873	20571
899.993	20670
900.113	20571
900.232	20598
900.352	20556
900.472	20423
900.591	20355
900.711	20377
900.83	20434
900.95	20476
901.069	20545
901.189	20164
901.308	20069
901.427	19959
901.546	19906
901.665	19970
901.784	20024
901.904	19849
902.023	19757
902.141	19540
902.26	19438
902.379	19575
902.498	19514
902.617	19453
902.735	19460
902.854	19499
902.973	19377
903.091	19156
903.21	19209
903.328	19084
903.446	19031
903.565	19015
903.683	18989
903.801	18863
903.919	18909
904.038	18951
904.156	18719
904.274	18738
904.392	18597
904.51	18700
904.627	18669
904.745	18806
904.863	18684
904.981	18555
905.098	18380
905.216	18380
905.334	18323
905.451	18357
905.569	18277
905.686	18448
905.803	18395
905.921	18213
906.038	18201
906.155	18247
906.272	18144
906.389	18060
906.506	18098
906.623	17935
906.74	17908
906.857	17817
906.974	17783
907.091	17923
907.208	17977
907.324	17984
907.441	17851
907.557	17638
907.674	17668
907.79	17528
907.907	17543
908.023	17634
908.139	17604
908.256	17532
908.372	17661
908.488	17509
908.604	17330
908.72	17273
908.836	17326
908.952	17212
909.068	17353
909.184	17261
909.3	17261
909.415	17376
909.531	17349
909.647	17079
909.762	17151
909.878	16968
909.993	17109
910.108	16934
910.224	16976
910.339	16976
910.454	16839
910.57	16881
910.685	16786
910.8	16991
910.915	16908
911.03	16755
911.145	16721
911.259	16653
911.374	16660
911.489	16649
911.604	16489
911.718	16413
911.833	16398
911.947	16204
912.062	16204
912.176	16295
912.291	16352
912.405	16333
912.519	16470
912.633	16462
912.748	16356
912.862	16432
912.976	16238
913.09	16040
913.204	16055
913.318	16162
913.431	16287
913.545	16314
913.659	16287
913.772	16086
913.886	16048
914	15998
914.113	16055
914.226	16093
914.34	16059
914.453	15884
914.566	16021
914.68	15975
914.793	15892
914.906	15652
915.019	15671
915.132	15447
915.245	15545
915.358	15648
915.47	15564
915.583	15450
915.696	15523
915.809	15599
915.921	15682
916.034	15511
916.146	15450
916.259	15519
916.371	15485
916.483	15488
916.595	15370
916.708	15393
916.82	15420
916.932	15370
917.044	15378
917.156	15405
917.268	15264
917.38	15188
917.491	15127
917.603	15207
917.715	15260
917.826	15348
917.938	15249
918.049	15020
918.161	15058
918.272	15275
918.384	15264
918.495	15161
918.606	14944
918.717	14979
918.828	15017
918.939	14967
919.05	14815
919.161	14921
919.272	14800
919.383	14712
919.494	14952
919.604	15108
919.715	14883
919.826	14762
919.936	14868
920.047	14952
920.157	14998
920.267	15116
920.378	14872
920.488	14845
920.598	14994
920.708	15268
920.818	15043
920.928	15020
921.038	15184
921.148	15093
921.258	14781
921.368	14743
921.477	14705
921.587	14625
921.697	14415
921.806	14640
921.916	14400
922.025	14309
922.134	14343
922.244	14180
922.353	14244
922.462	14183
922.571	14046
922.68	13902
922.789	13928
922.898	13951
923.007	13803
923.116	13906
923.224	13947
923.333	13803
923.442	13769
923.55	13693
923.659	13845
923.767	13799
923.876	13586
923.984	13807
924.092	13605
924.201	13632
924.309	13639
924.417	13643
924.525	13578
924.633	13586
924.741	14556
924.849	13422
924.956	13419
925.064	13297
925.172	13304
925.279	13362
925.387	13365
925.494	13316
925.602	13445
925.709	13350
925.816	13160
925.924	13206
926.031	13381
926.138	13209
926.245	13247
926.352	13141
926.459	13251
926.566	13270
926.673	13152
926.779	13031
926.886	13057
926.993	12878
927.099	12878
927.206	12928
927.312	12810
927.419	12833
927.525	12779
927.631	12856
927.737	12711
927.843	12601
927.95	12566
928.056	12745
928.162	12650
928.267	12722
928.373	13213
928.479	12738
928.585	12563
928.69	12631
928.796	12711
928.901	12456
929.007	12346
929.112	12544
929.218	12490
929.323	12319
929.428	12403
929.533	12593
929.638	12304
929.743	12403
929.848	12399
929.953	12311
930.058	12155
930.163	12102
930.267	12129
930.372	12136
930.477	12087
930.581	12209
930.685	12098
930.79	11870
930.894	11992
930.998	11958
931.103	12045
931.207	11745
931.311	11615
931.415	11543
931.519	11303
931.623	11311
