Data from test_V78500241_1533.txt Node
Date: Fri Mar 25 15:20:31 CST 2022
User: usil
Spectrometer: V785-0024
Trigger mode: 0
Integration Time (sec): 4.000000E-1
Scans to average: 1
Nonlinearity correction enabled: false
Boxcar width: 0
Storing dark spectrum: false
XAxis mode: Wavelengths
Number of Pixels in Spectrum: 1024
>>>>>Begin Spectral Data<<<<<
801.071	28139
801.214	28101
801.356	27728
801.499	27690
801.641	27644
801.783	27576
801.926	27709
802.068	27652
802.211	27534
802.353	27614
802.496	27416
802.638	27321
802.78	27294
802.923	27195
803.065	27252
803.208	27138
803.35	27287
803.492	27473
803.635	27488
803.777	27424
803.919	27568
804.061	27660
804.204	27599
804.346	27496
804.488	27427
804.63	27275
804.773	27572
804.915	27420
805.057	27736
805.199	27713
805.341	27606
805.483	27667
805.626	27660
805.768	27389
805.91	27701
806.052	27641
806.194	27519
806.336	27808
806.478	27618
806.62	27667
806.762	27736
806.904	28032
807.046	28109
807.188	28044
807.33	28086
807.472	28169
807.614	28002
807.756	28021
807.898	27934
808.04	27899
808.182	27808
808.324	27934
808.465	27934
808.607	28200
808.749	28360
808.891	28314
809.033	28333
809.174	28508
809.316	28303
809.458	28226
809.6	28265
809.741	28436
809.883	28577
810.025	28592
810.166	28546
810.308	28607
810.45	28432
810.591	28390
810.733	28424
810.875	28333
811.016	28230
811.158	28101
811.299	28333
811.441	28466
811.582	28440
811.724	28257
811.865	28303
812.007	28299
812.148	28325
812.29	28325
812.431	28398
812.573	28694
812.714	28759
812.855	28896
812.997	28953
813.138	29052
813.279	29018
813.421	28881
813.562	28755
813.703	28588
813.845	28584
813.986	28230
814.127	28067
814.268	28040
814.41	28044
814.551	27907
814.692	28169
814.833	28025
814.974	28017
815.115	27975
815.256	27812
815.397	27911
815.539	27983
815.68	27766
815.821	27831
815.962	27804
816.103	27637
816.244	27709
816.385	27557
816.526	27583
816.666	27363
816.807	27336
816.948	27374
817.089	27469
817.23	27359
817.371	27169
817.512	27332
817.653	27294
817.793	27233
817.934	27317
818.075	27222
818.216	27279
818.356	27272
818.497	27112
818.638	26948
818.778	27112
818.919	27062
819.06	27154
819.2	27298
819.341	27203
819.481	27211
819.622	27481
819.762	27629
819.903	27534
820.043	27325
820.184	27534
820.324	27393
820.465	27408
820.605	27450
820.746	27447
820.886	27218
821.026	27195
821.167	27233
821.307	27523
821.447	27287
821.588	27176
821.728	27119
821.868	26853
822.008	26746
822.149	26845
822.289	26716
822.429	26568
822.569	26453
822.709	26453
822.849	26298
822.99	26362
823.13	26225
823.27	26187
823.41	26100
823.55	26054
823.69	26024
823.83	26248
823.97	26065
824.11	25940
824.25	25734
824.389	26016
824.529	26031
824.669	25868
824.809	26130
824.949	25940
825.089	25940
825.228	26081
825.368	25795
825.508	25788
825.648	25818
825.787	25871
825.927	25803
826.067	25639
826.206	25712
826.346	25841
826.485	25807
826.625	25890
826.765	25772
826.904	25791
827.044	25575
827.183	25571
827.323	25571
827.462	25537
827.601	25529
827.741	25438
827.88	25479
828.02	25339
828.159	25415
828.298	25453
828.437	25525
828.577	25487
828.716	25510
828.855	25403
828.994	25358
829.134	25240
829.273	25198
829.412	25046
829.551	25122
829.69	25183
829.829	25099
829.968	25263
830.107	25365
830.246	25118
830.385	25148
830.524	25057
830.663	24992
830.802	24848
830.941	24764
831.08	24700
831.219	24935
831.357	25027
831.496	25050
831.635	24779
831.774	24734
831.913	24753
832.051	24475
832.19	24635
832.329	24585
832.467	24483
832.606	24509
832.744	24403
832.883	24448
833.022	24437
833.16	24311
833.299	24365
833.437	24578
833.576	24494
833.714	24490
833.852	24547
833.991	24566
834.129	24589
834.267	24479
834.406	24445
834.544	24521
834.682	24490
834.821	24483
834.959	24623
835.097	24441
835.235	24566
835.373	24547
835.511	24483
835.65	24426
835.788	24350
835.926	24224
836.064	24163
836.202	24148
836.34	24289
836.478	24361
836.615	24334
836.753	24308
836.891	24399
837.029	24216
837.167	24273
837.305	24262
837.443	24205
837.58	24110
837.718	24330
837.856	24114
837.993	24152
838.131	24133
838.269	23977
838.406	24087
838.544	23996
838.681	23779
838.819	23798
838.956	23516
839.094	23611
839.231	23733
839.369	23813
839.506	24110
839.643	23843
839.781	23733
839.918	23539
840.055	23543
840.193	23634
840.33	23486
840.467	23562
840.604	23570
840.742	23809
840.879	23398
841.016	23501
841.153	23535
841.29	23668
841.427	23604
841.564	23512
841.701	23433
841.838	23463
841.975	23474
842.112	23261
842.249	23364
842.385	23455
842.522	23486
842.659	23258
842.796	23379
842.933	23341
843.069	23246
843.206	23292
843.343	23372
843.479	23353
843.616	23288
843.752	23235
843.889	22984
844.025	23151
844.162	23166
844.298	23109
844.435	23022
844.571	23018
844.708	23128
844.844	23212
844.98	23208
845.117	23193
845.253	22847
845.389	22904
845.525	22976
845.661	22896
845.798	22790
845.934	22892
846.07	22885
846.206	22869
846.342	22824
846.478	22622
846.614	22573
846.75	22466
846.886	22592
847.022	22664
847.158	22611
847.294	22565
847.429	22557
847.565	22527
847.701	22793
847.837	22242
847.972	22291
848.108	22478
848.244	22284
848.379	22112
848.515	22204
848.65	22029
848.786	22158
848.921	22261
849.057	22124
849.192	22310
849.328	22017
849.463	22131
849.598	22093
849.734	22025
849.869	22002
850.004	21770
850.14	21869
850.275	21991
850.41	21755
850.545	21857
850.68	21869
850.815	21911
850.95	21911
851.085	21991
851.22	21975
851.355	22032
851.49	21907
851.625	21846
851.76	21842
851.895	21808
852.03	21827
852.165	21876
852.299	21892
852.434	22032
852.569	21766
852.703	21899
852.838	22021
852.973	21960
853.107	22006
853.242	21937
853.376	21762
853.511	21595
853.645	21698
853.78	21922
853.914	21831
854.048	21739
854.183	21724
854.317	21774
854.451	21781
854.585	21720
854.72	21713
854.854	21827
854.988	21610
855.122	21713
855.256	21644
855.39	21682
855.524	21690
855.658	21679
855.792	21705
855.926	21705
856.06	21785
856.194	21816
856.327	21736
856.461	21591
856.595	21743
856.729	21709
856.862	21892
856.996	21835
857.13	21781
857.263	21793
857.397	21789
857.53	21644
857.664	21759
857.797	21770
857.931	21800
858.064	21789
858.197	21808
858.331	21793
858.464	21694
858.597	21648
858.731	21652
858.864	21641
858.997	21622
859.13	21682
859.263	21671
859.396	21755
859.529	21694
859.662	21625
859.795	21663
859.928	21720
860.061	21713
860.194	21854
860.327	21671
860.46	21564
860.592	21774
860.725	21930
860.858	21888
860.99	21785
861.123	21610
861.256	21660
861.388	21743
861.521	22440
861.653	21504
861.786	21526
861.918	21542
862.05	21629
862.183	21625
862.315	21713
862.447	21709
862.58	21595
862.712	21336
862.844	21431
862.976	21523
863.108	21428
863.24	21816
863.372	21393
863.504	21439
863.636	21416
863.768	21416
863.9	21496
864.032	21226
864.164	21454
864.296	21519
864.428	21526
864.559	21481
864.691	21473
864.823	21534
864.954	21317
865.086	21340
865.217	21283
865.349	21214
865.48	21378
865.612	21272
865.743	21412
865.875	21332
866.006	21359
866.137	21351
866.269	21218
866.4	21370
866.531	21211
866.662	21321
866.793	21386
866.924	21131
867.055	21252
867.186	21230
867.317	21325
867.448	21047
867.579	21237
867.71	21028
867.841	21131
867.972	21321
868.103	21222
868.233	21211
868.364	21294
868.495	21252
868.625	21618
868.756	21496
868.886	21431
869.017	21397
869.147	21663
869.278	21603
869.408	21507
869.539	21557
869.669	21515
869.799	21428
869.929	21428
870.06	21519
870.19	21705
870.32	21682
870.45	21618
870.58	21964
870.71	21994
870.84	21937
870.97	21922
871.1	21861
871.23	22025
871.36	22135
871.489	22013
871.619	22120
871.749	21975
871.879	22017
872.008	22154
872.138	22082
872.267	22063
872.397	22025
872.526	21937
872.656	21994
872.785	21915
872.915	22097
873.044	22299
873.173	21991
873.303	22249
873.432	22082
873.561	22192
873.69	22090
873.819	22063
873.948	22166
874.077	22055
874.206	22021
874.335	22017
874.464	22181
874.593	22402
874.722	22272
874.851	22356
874.979	22375
875.108	22284
875.237	22223
875.365	22158
875.494	22249
875.623	22322
875.751	22261
875.88	22268
876.008	22455
876.136	22421
876.265	22607
876.393	22828
876.521	22752
876.65	22763
876.778	22782
876.906	22577
877.034	22607
877.162	22668
877.29	22538
877.418	22573
877.546	22607
877.674	22508
877.802	22691
877.93	22599
878.058	22599
878.185	22618
878.313	22546
878.441	22771
878.568	22485
878.696	22516
878.824	22725
878.951	22763
879.079	22706
879.206	22919
879.333	22896
879.461	22607
879.588	22694
879.715	22831
879.842	22961
879.97	22725
880.097	22504
880.224	22497
880.351	22481
880.478	22497
880.605	22512
880.732	22398
880.859	22584
880.986	22599
881.112	22588
881.239	22196
881.366	22200
881.493	22162
881.619	22040
881.746	22063
881.872	21994
881.999	21979
882.125	22059
882.252	21979
882.378	22010
882.505	21983
882.631	21850
882.757	21701
882.883	21816
883.01	21800
883.136	21682
883.262	21641
883.388	21530
883.514	21720
883.64	21732
883.766	21526
883.892	21435
884.018	21477
884.143	21717
884.269	21736
884.395	21363
884.52	21389
884.646	21447
884.772	21370
884.897	21199
885.023	21351
885.148	21454
885.274	21545
885.399	21382
885.524	21344
885.65	21397
885.775	21511
885.9	21367
886.025	21447
886.15	21374
886.275	21233
886.4	21397
886.525	21348
886.65	21131
886.775	21211
886.9	21416
887.025	21443
887.149	21325
887.274	21237
887.399	21100
887.523	21138
887.648	20971
887.773	21077
887.897	21077
888.021	21093
888.146	21009
888.27	21256
888.395	21089
888.519	21104
888.643	21192
888.767	21070
888.891	21062
889.015	20864
889.139	20921
889.263	20872
889.387	21062
889.511	21157
889.635	21009
889.759	20773
889.883	20849
890.006	21001
890.13	20921
890.254	20826
890.377	20895
890.501	20682
890.624	20682
890.748	20773
890.871	20560
890.995	20492
891.118	20533
891.241	20473
891.364	20381
891.488	20659
891.611	20606
891.734	20469
891.857	20571
891.98	20499
892.103	20552
892.226	20381
892.349	20328
892.471	20199
892.594	20286
892.717	20469
892.839	20339
892.962	20431
893.085	20370
893.207	20427
893.33	20263
893.452	20286
893.575	20564
893.697	20305
893.819	20393
893.941	20594
894.064	20598
894.186	20278
894.308	20305
894.43	20450
894.552	20579
894.674	20385
894.796	20317
894.918	20313
895.04	20320
895.161	20484
895.283	20457
895.405	20320
895.526	20275
895.648	20377
895.769	20423
895.891	20476
896.012	20492
896.134	20400
896.255	20480
896.376	20225
896.498	20358
896.619	20320
896.74	20370
896.861	20442
896.982	20644
897.103	20804
897.224	20579
897.345	20457
897.466	20518
897.587	20640
897.708	20720
897.828	20598
897.949	20533
898.07	20362
898.19	20541
898.311	20583
898.431	20495
898.552	20560
898.672	20697
898.792	20560
898.913	20571
899.033	20465
899.153	20366
899.273	20339
899.393	20328
899.513	20374
899.633	20278
899.753	20271
899.873	20324
899.993	20355
900.113	20324
900.232	20377
900.352	20278
900.472	20073
900.591	20149
900.711	20088
900.83	20012
900.95	20168
901.069	20111
901.189	20046
901.308	19849
901.427	19681
901.546	19563
901.665	19772
901.784	19769
901.904	19502
902.023	19468
902.141	19255
902.26	19217
902.379	19396
902.498	19099
902.617	19251
902.735	19259
902.854	19160
902.973	19076
903.091	18932
903.21	18863
903.328	18840
903.446	18779
903.565	18715
903.683	18627
903.801	18509
903.919	18578
904.038	18582
904.156	18498
904.274	18509
904.392	18418
904.51	18452
904.627	18372
904.745	18536
904.863	18414
904.981	18338
905.098	18159
905.216	18057
905.334	18205
905.451	18007
905.569	18129
905.686	18148
905.803	18022
905.921	17927
906.038	17977
906.155	17847
906.272	17741
906.389	17794
906.506	17684
906.623	17733
906.74	17691
906.857	17490
906.974	17585
907.091	17729
907.208	17760
907.324	17691
907.441	17482
907.557	17395
907.674	17337
907.79	17220
907.907	17326
908.023	17326
908.139	17429
908.256	17216
908.372	17284
908.488	17254
908.604	17132
908.72	17079
908.836	17029
908.952	16980
909.068	17162
909.184	17204
909.3	17098
909.415	17105
909.531	17064
909.647	16881
909.762	16793
909.878	16748
909.993	16767
910.108	16752
910.224	16683
910.339	16759
910.454	16656
910.57	16588
910.685	16565
910.8	16809
910.915	16702
911.03	16493
911.145	16390
911.259	16500
911.374	16356
911.489	16306
911.604	16154
911.718	16105
911.833	16188
911.947	16040
912.062	16029
912.176	16109
912.291	16097
912.405	16006
912.519	16242
912.633	16272
912.748	16158
912.862	16086
912.976	15911
913.09	15880
913.204	15918
913.318	15884
913.431	15930
913.545	16006
913.659	15979
913.772	15907
913.886	15778
914	15736
914.113	15838
914.226	15766
914.34	15797
914.453	15622
914.566	15793
914.68	15603
914.793	15572
914.906	15355
915.019	15367
915.132	15344
915.245	15272
915.358	15336
915.47	15359
915.583	15340
915.696	15329
915.809	15439
915.921	15370
916.034	15207
916.146	15146
916.259	15188
916.371	15370
916.483	15249
916.595	15184
916.708	15146
916.82	15074
916.932	15085
917.044	15100
917.156	15058
917.268	14872
917.38	15009
917.491	14906
917.603	14941
917.715	15100
917.826	15093
917.938	14944
918.049	14853
918.161	14906
918.272	14994
918.384	15085
918.495	14925
918.606	14781
918.717	14632
918.828	14708
918.939	14667
919.05	14564
919.161	14720
919.272	14545
919.383	14552
919.494	14697
919.604	14941
919.715	14731
919.826	14708
919.936	14689
920.047	14750
920.157	14689
920.267	14815
920.378	14640
920.488	14602
920.598	14857
920.708	14872
920.818	14804
920.928	14853
921.038	14971
921.148	14906
921.258	14621
921.368	14533
921.477	14393
921.587	14461
921.697	14275
921.806	14396
921.916	14214
922.025	14092
922.134	13997
922.244	14088
922.353	14073
922.462	13849
922.571	13845
922.68	13662
922.789	13704
922.898	13674
923.007	13700
923.116	13632
923.224	13643
923.333	13658
923.442	13487
923.55	13666
923.659	13491
923.767	13540
923.876	13449
923.984	13525
924.092	13365
924.201	13434
924.309	13464
924.417	13396
924.525	13343
924.633	13377
924.741	14142
924.849	13194
924.956	13339
925.064	13065
925.172	13110
925.279	13076
925.387	13122
925.494	13110
925.602	13225
925.709	13141
925.816	13004
925.924	13065
926.031	13164
926.138	13019
926.245	13050
926.352	12848
926.459	13015
926.566	13076
926.673	12932
926.779	12745
926.886	12749
926.993	12821
927.099	12711
927.206	12536
927.312	12589
927.419	12635
927.525	12570
927.631	12612
927.737	12578
927.843	12559
927.95	12448
928.056	12525
928.162	12414
928.267	12559
928.373	13118
928.479	12642
928.585	12224
928.69	12460
928.796	12506
928.901	12323
929.007	12254
929.112	12281
929.218	12266
929.323	12144
929.428	12190
929.533	12304
929.638	12182
929.743	12167
929.848	12140
929.953	12148
930.058	11885
930.163	11927
930.267	11897
930.372	12011
930.477	11897
930.581	12064
930.685	11916
930.79	11836
930.894	11855
930.998	11760
931.103	11889
931.207	11512
931.311	11379
931.415	11372
931.519	11227
931.623	11052
