Data from test_V78500241_186.txt Node
Date: Fri Mar 25 15:11:09 CST 2022
User: usil
Spectrometer: V785-0024
Trigger mode: 0
Integration Time (sec): 4.000000E-1
Scans to average: 1
Nonlinearity correction enabled: false
Boxcar width: 0
Storing dark spectrum: false
XAxis mode: Wavelengths
Number of Pixels in Spectrum: 1024
>>>>>Begin Spectral Data<<<<<
801.071	27633
801.214	27507
801.356	27279
801.499	27272
801.641	27131
801.783	27017
801.926	27199
802.068	27024
802.211	27043
802.353	27005
802.496	26762
802.638	26781
802.78	26933
802.923	26819
803.065	26804
803.208	26613
803.35	26613
803.492	26670
803.635	26743
803.777	26644
803.919	26785
804.061	27161
804.204	26952
804.346	26670
804.488	26727
804.63	26720
804.773	26598
804.915	26674
805.057	26895
805.199	26663
805.341	26811
805.483	26754
805.626	26982
805.768	26826
805.91	26998
806.052	26823
806.194	26773
806.336	26956
806.478	26739
806.62	26769
806.762	26982
806.904	27036
807.046	27332
807.188	27291
807.33	27218
807.472	27268
807.614	27173
807.756	27024
807.898	26956
808.04	27028
808.182	26937
808.324	26910
808.465	27138
808.607	27180
808.749	27397
808.891	27427
809.033	27610
809.174	27401
809.316	27340
809.458	27427
809.6	27401
809.741	27367
809.883	27462
810.025	27633
810.166	27599
810.308	27606
810.45	27538
810.591	27447
810.733	27443
810.875	27321
811.016	27157
811.158	27241
811.299	27397
811.441	27431
811.582	27435
811.724	27176
811.865	27245
812.007	27374
812.148	27218
812.29	27294
812.431	27458
812.573	27694
812.714	27736
812.855	27793
812.997	27979
813.138	28002
813.279	27850
813.421	27736
813.562	27717
813.703	27511
813.845	27492
813.986	27260
814.127	27032
814.268	26861
814.41	26826
814.551	26925
814.692	27005
814.833	26899
814.974	26746
815.115	26960
815.256	26727
815.397	26815
815.539	26785
815.68	26636
815.821	26541
815.962	26674
816.103	26621
816.244	26507
816.385	26469
816.526	26336
816.666	26142
816.807	26027
816.948	26210
817.089	26362
817.23	26062
817.371	25993
817.512	26077
817.653	26035
817.793	25989
817.934	26096
818.075	26031
818.216	26206
818.356	25993
818.497	25928
818.638	25742
818.778	25799
818.919	25742
819.06	25708
819.2	25928
819.341	25909
819.481	25894
819.622	26046
819.762	26347
819.903	26149
820.043	26138
820.184	26046
820.324	26046
820.465	26161
820.605	26149
820.746	26084
820.886	25978
821.026	26084
821.167	26008
821.307	26164
821.447	25936
821.588	25708
821.728	25674
821.868	25609
822.008	25453
822.149	25483
822.289	25525
822.429	25266
822.569	24977
822.709	25156
822.849	24909
822.99	24996
823.13	24958
823.27	24753
823.41	24585
823.55	24593
823.69	24810
823.83	24532
823.97	24509
824.11	24357
824.25	24433
824.389	24532
824.529	24631
824.669	24490
824.809	24608
824.949	24426
825.089	24547
825.228	24513
825.368	24285
825.508	24262
825.648	24380
825.787	24350
825.927	24388
826.067	24266
826.206	24239
826.346	24350
826.485	24410
826.625	24197
826.765	24407
826.904	24270
827.044	24003
827.183	24060
827.323	23935
827.462	23912
827.601	24072
827.741	23961
827.88	24003
828.02	23866
828.159	23950
828.298	24049
828.437	24133
828.577	23935
828.716	23965
828.855	23923
828.994	23589
829.134	23847
829.273	23672
829.412	23646
829.551	23592
829.69	23604
829.829	23722
829.968	23760
830.107	23668
830.246	23722
830.385	23562
830.524	23589
830.663	23452
830.802	23353
830.941	23303
831.08	23242
831.219	23383
831.357	23280
831.496	23444
831.635	23280
831.774	23048
831.913	23109
832.051	23155
832.19	22961
832.329	23022
832.467	22968
832.606	22908
832.744	22927
832.883	22953
833.022	22778
833.16	22892
833.299	22896
833.437	22869
833.576	23060
833.714	22892
833.852	22892
833.991	22877
834.129	22942
834.267	23029
834.406	22843
834.544	23075
834.682	23109
834.821	22900
834.959	23022
835.097	22873
835.235	22816
835.373	22999
835.511	22862
835.65	22869
835.788	22999
835.926	22683
836.064	22622
836.202	22637
836.34	22805
836.478	22793
836.615	22729
836.753	22774
836.891	22782
837.029	22915
837.167	22809
837.305	22679
837.443	22675
837.58	22615
837.718	22641
837.856	22626
837.993	22656
838.131	22554
838.269	22546
838.406	22489
838.544	22447
838.681	22276
838.819	22169
838.956	22074
839.094	22078
839.231	22082
839.369	22211
839.506	22573
839.643	22329
839.781	21983
839.918	22017
840.055	21998
840.193	22025
840.33	22074
840.467	21918
840.604	22074
840.742	22291
840.879	21819
841.016	21911
841.153	21728
841.29	22074
841.427	21953
841.564	22029
841.701	21991
841.838	21850
841.975	21838
842.112	21838
842.249	21682
842.385	21823
842.522	21888
842.659	21770
842.796	21755
842.933	21766
843.069	21675
843.206	21660
843.343	21660
843.479	21682
843.616	21804
843.752	21340
843.889	21587
844.025	21580
844.162	21412
844.298	21454
844.435	21473
844.571	21393
844.708	21469
844.844	21660
844.98	21587
845.117	21641
845.253	21363
845.389	21230
845.525	21336
845.661	21275
845.798	21074
845.934	21207
846.07	21188
846.206	21211
846.342	21188
846.478	21062
846.614	21020
846.75	20895
846.886	20834
847.022	21024
847.158	20853
847.294	20895
847.429	20956
847.565	20937
847.701	21218
847.837	20651
847.972	20655
848.108	20712
848.244	20674
848.379	20571
848.515	20564
848.65	20495
848.786	20412
848.921	20552
849.057	20518
849.192	20598
849.328	20579
849.463	20533
849.598	20533
849.734	20393
849.869	20370
850.004	20210
850.14	20195
850.275	20275
850.41	20191
850.545	20161
850.68	20233
850.815	20256
850.95	20225
851.085	20347
851.22	20343
851.355	20244
851.49	20240
851.625	20046
851.76	20183
851.895	20084
852.03	20164
852.165	20115
852.299	20286
852.434	20317
852.569	20225
852.703	20176
852.838	20237
852.973	20374
853.107	20317
853.242	20157
853.376	20168
853.511	19925
853.645	20027
853.78	20107
853.914	20062
854.048	20081
854.183	19932
854.317	20092
854.451	20202
854.585	20054
854.72	20008
854.854	20145
854.988	19986
855.122	19967
855.256	19883
855.39	19936
855.524	20115
855.658	19978
855.792	20031
855.926	20069
856.06	19993
856.194	20168
856.327	20016
856.461	19993
856.595	19902
856.729	20001
856.862	20149
856.996	20054
857.13	20084
857.263	20050
857.397	20088
857.53	20100
857.664	19993
857.797	20100
857.931	20191
858.064	20119
858.197	20229
858.331	19890
858.464	19978
858.597	19951
858.731	19871
858.864	19906
858.997	19944
859.13	19913
859.263	19986
859.396	20084
859.529	19849
859.662	19757
859.795	19928
859.928	19974
860.061	20195
860.194	20180
860.327	20149
860.46	20081
860.592	20180
860.725	20138
860.858	20054
860.99	19989
861.123	19890
861.256	19879
861.388	19970
861.521	20777
861.653	19803
861.786	19765
861.918	19902
862.05	19868
862.183	19909
862.315	19936
862.447	20069
862.58	19982
862.712	19811
862.844	19601
862.976	19830
863.108	19830
863.24	20145
863.372	19544
863.504	19746
863.636	19696
863.768	19746
863.9	19784
864.032	19655
864.164	19613
864.296	19696
864.428	19822
864.559	19734
864.691	19635
864.823	19666
864.954	19731
865.086	19658
865.217	19571
865.349	19445
865.48	19571
865.612	19582
865.743	19643
865.875	19753
866.006	19422
866.137	19571
866.269	19575
866.4	19578
866.531	19613
866.662	19529
866.793	19430
866.924	19506
867.055	19662
867.186	19468
867.317	19510
867.448	19518
867.579	19487
867.71	19430
867.841	19453
867.972	19563
868.103	19586
868.233	19483
868.364	19620
868.495	19624
868.625	19856
868.756	19883
868.886	19693
869.017	19795
869.147	19963
869.278	19921
869.408	19856
869.539	19681
869.669	19894
869.799	19772
869.929	19868
870.06	19868
870.19	20069
870.32	20149
870.45	20164
870.58	20225
870.71	20301
870.84	20214
870.97	20153
871.1	20183
871.23	20347
871.36	20358
871.489	20252
871.619	20313
871.749	20408
871.879	20476
872.008	20560
872.138	20412
872.267	20347
872.397	20233
872.526	20218
872.656	20168
872.785	20385
872.915	20324
873.044	20514
873.173	20339
873.303	20590
873.432	20511
873.561	20473
873.69	20400
873.819	20450
873.948	20488
874.077	20389
874.206	20385
874.335	20396
874.464	20522
874.593	20705
874.722	20651
874.851	20678
874.979	20674
875.108	20712
875.237	20636
875.365	20560
875.494	20659
875.623	20743
875.751	20743
875.88	20758
876.008	20785
876.136	20891
876.265	21081
876.393	21096
876.521	21142
876.65	21161
876.778	20979
876.906	21047
877.034	20986
877.162	21142
877.29	20994
877.418	20948
877.546	21077
877.674	21108
877.802	20941
877.93	21039
878.058	20868
878.185	20914
878.313	20979
878.441	21024
878.568	20842
878.696	20906
878.824	21123
878.951	21226
879.079	21245
879.206	21325
879.333	21188
879.461	21055
879.588	21203
879.715	21252
879.842	21272
879.97	21108
880.097	20743
880.224	20857
880.351	20868
880.478	20857
880.605	20750
880.732	20670
880.859	20998
880.986	20823
881.112	20887
881.239	20598
881.366	20571
881.493	20488
881.619	20431
881.746	20507
881.872	20488
881.999	20404
882.125	20431
882.252	20465
882.378	20465
882.505	20579
882.631	20461
882.757	20202
882.883	20278
883.01	20111
883.136	20103
883.262	20001
883.388	19997
883.514	20206
883.64	20115
883.766	20031
883.892	19967
884.018	19898
884.143	20077
884.269	20187
884.395	19982
884.52	19795
884.646	19746
884.772	19765
884.897	19833
885.023	19860
885.148	19963
885.274	19898
885.399	19921
885.524	19890
885.65	19791
885.775	19795
885.9	19734
886.025	19845
886.15	19868
886.275	19746
886.4	19772
886.525	19788
886.65	19757
886.775	19708
886.9	19852
887.025	20062
887.149	19818
887.274	19597
887.399	19662
887.523	19628
887.648	19521
887.773	19480
887.897	19590
888.021	19590
888.146	19506
888.27	19590
888.395	19655
888.519	19533
888.643	19571
888.767	19681
888.891	19472
889.015	19316
889.139	19434
889.263	19308
889.387	19533
889.511	19666
889.635	19362
889.759	19358
889.883	19438
890.006	19316
890.13	19411
890.254	19362
890.377	19225
890.501	19110
890.624	19069
890.748	19156
890.871	19095
890.995	18909
891.118	18909
891.241	18947
891.364	18848
891.488	19065
891.611	18954
891.734	18905
891.857	18993
891.98	18962
892.103	18989
892.226	19012
892.349	19008
892.471	18814
892.594	18966
892.717	18989
892.839	18867
892.962	18856
893.085	19000
893.207	18894
893.33	18802
893.452	18897
893.575	19012
893.697	18817
893.819	19126
893.941	19057
894.064	19042
894.186	18814
894.308	18700
894.43	18977
894.552	19118
894.674	19023
894.796	18825
894.918	18894
895.04	18951
895.161	18962
895.283	18913
895.405	18947
895.526	18798
895.648	18939
895.769	18935
895.891	18993
896.012	19008
896.134	19023
896.255	18863
896.376	18817
896.498	19015
896.619	18867
896.74	18909
896.861	19152
896.982	19247
897.103	19472
897.224	19247
897.345	19171
897.466	19141
897.587	19263
897.708	19316
897.828	19278
897.949	19110
898.07	19171
898.19	19122
898.311	19247
898.431	19061
898.552	19259
898.672	19198
898.792	19263
898.913	19168
899.033	19038
899.153	18909
899.273	18806
899.393	18871
899.513	18920
899.633	18996
899.753	18848
899.873	18821
899.993	18947
900.113	18829
900.232	18825
900.352	18760
900.472	18741
900.591	18684
900.711	18776
900.83	18623
900.95	18783
901.069	18814
901.189	18684
901.308	18414
901.427	18346
901.546	18323
901.665	18315
901.784	18224
901.904	18224
902.023	18091
902.141	17961
902.26	17783
902.379	17958
902.498	17779
902.617	17741
902.735	17878
902.854	17783
902.973	17695
903.091	17573
903.21	17436
903.328	17570
903.446	17391
903.565	17296
903.683	17315
903.801	17136
903.919	17273
904.038	17254
904.156	17204
904.274	17231
904.392	17102
904.51	17006
904.627	17128
904.745	17193
904.863	17090
904.981	16892
905.098	16740
905.216	16812
905.334	16790
905.451	16740
905.569	16797
905.686	16767
905.803	16710
905.921	16611
906.038	16626
906.155	16641
906.272	16394
906.389	16478
906.506	16379
906.623	16261
906.74	16375
906.857	16257
906.974	16143
907.091	16303
907.208	16390
907.324	16299
907.441	16173
907.557	16029
907.674	16101
907.79	15979
907.907	15850
908.023	16120
908.139	16055
908.256	15956
908.372	15895
908.488	15884
908.604	15800
908.72	15713
908.836	15675
908.952	15690
909.068	15751
909.184	15915
909.3	15686
909.415	15755
909.531	15648
909.647	15405
909.762	15507
909.878	15348
909.993	15481
910.108	15317
910.224	15298
910.339	15332
910.454	15230
910.57	15264
910.685	15264
910.8	15363
910.915	15481
911.03	15306
911.145	15112
911.259	15135
911.374	15104
911.489	15032
911.604	14895
911.718	14796
911.833	14754
911.947	14693
912.062	14583
912.176	14773
912.291	14762
912.405	14754
912.519	14910
912.633	14975
912.748	14724
912.862	14838
912.976	14549
913.09	14389
913.204	14545
913.318	14495
913.431	14644
913.545	14621
913.659	14689
913.772	14579
913.886	14480
914	14450
914.113	14480
914.226	14541
914.34	14465
914.453	14248
914.566	14415
914.68	14290
914.793	14347
914.906	14031
915.019	14119
915.132	14016
915.245	14111
915.358	14111
915.47	14100
915.583	14084
915.696	14050
915.809	14130
915.921	14214
916.034	14020
916.146	13970
916.259	14016
916.371	14020
916.483	13959
916.595	13879
916.708	13959
916.82	13959
916.932	13807
917.044	13849
917.156	13837
917.268	13734
917.38	13803
917.491	13753
917.603	13750
917.715	13811
917.826	13879
917.938	13628
918.049	13594
918.161	13723
918.272	13795
918.384	13731
918.495	13616
918.606	13495
918.717	13506
918.828	13552
918.939	13582
919.05	13422
919.161	13518
919.272	13236
919.383	13365
919.494	13506
919.604	13738
919.715	13449
919.826	13567
919.936	13430
920.047	13537
920.157	13445
920.267	13727
920.378	13510
920.488	13384
920.598	13632
920.708	13772
920.818	13624
920.928	13613
921.038	13795
921.148	13685
921.258	13415
921.368	13396
921.477	13255
921.587	13221
921.697	13152
921.806	13316
921.916	13137
922.025	12890
922.134	12890
922.244	12829
922.353	12878
922.462	12772
922.571	12810
922.68	12551
922.789	12547
922.898	12528
923.007	12528
923.116	12677
923.224	12521
923.333	12498
923.442	12399
923.55	12311
923.659	12311
923.767	12498
923.876	12289
923.984	12346
924.092	12319
924.201	12311
924.309	12281
924.417	12327
924.525	12224
924.633	12323
924.741	13057
924.849	12053
924.956	12117
925.064	12057
925.172	11893
925.279	11980
925.387	12041
925.494	12045
925.602	12155
925.709	12129
925.816	11965
925.924	12030
926.031	12057
926.138	11958
926.245	12087
926.352	11942
926.459	12015
926.566	12060
926.673	11813
926.779	11775
926.886	11805
926.993	11684
927.099	11535
927.206	11528
927.312	11562
927.419	11695
927.525	11539
927.631	11611
927.737	11478
927.843	11429
927.95	11376
928.056	11520
928.162	11490
928.267	11482
928.373	11996
928.479	11467
928.585	11265
928.69	11383
928.796	11512
928.901	11330
929.007	11235
929.112	11345
929.218	11273
929.323	11151
929.428	11231
929.533	11330
929.638	11151
929.743	11174
929.848	11117
929.953	11162
930.058	11067
930.163	10881
930.267	10877
930.372	11006
930.477	10915
930.581	11105
930.685	10942
930.79	10797
930.894	10873
930.998	10782
931.103	10911
931.207	10508
931.311	10504
931.415	10409
931.519	10173
931.623	10131
