Data from test_V78500241_2464.txt Node
Date: Fri Mar 25 15:27:00 CST 2022
User: usil
Spectrometer: V785-0024
Trigger mode: 0
Integration Time (sec): 4.000000E-1
Scans to average: 1
Nonlinearity correction enabled: false
Boxcar width: 0
Storing dark spectrum: false
XAxis mode: Wavelengths
Number of Pixels in Spectrum: 1024
>>>>>Begin Spectral Data<<<<<
801.071	27043
801.214	26998
801.356	26674
801.499	26549
801.641	26423
801.783	26347
801.926	26518
802.068	26393
802.211	26301
802.353	26446
802.496	26199
802.638	26046
802.78	26130
802.923	26103
803.065	26073
803.208	26092
803.35	26054
803.492	26046
803.635	26233
803.777	26115
803.919	26225
804.061	26545
804.204	26324
804.346	26145
804.488	26100
804.63	26282
804.773	26252
804.915	26313
805.057	26259
805.199	26263
805.341	26294
805.483	26317
805.626	26419
805.768	26271
805.91	26362
806.052	26282
806.194	26282
806.336	26366
806.478	26347
806.62	26355
806.762	26415
806.904	26613
807.046	26910
807.188	26617
807.33	26743
807.472	26629
807.614	26625
807.756	26754
807.898	26571
808.04	26488
808.182	26514
808.324	26469
808.465	26575
808.607	26811
808.749	26960
808.891	26967
809.033	27100
809.174	26952
809.316	26990
809.458	26861
809.6	26876
809.741	26948
809.883	27142
810.025	27131
810.166	27233
810.308	27260
810.45	27256
810.591	27032
810.733	26769
810.875	26944
811.016	26937
811.158	26845
811.299	27116
811.441	27093
811.582	27127
811.724	27017
811.865	26864
812.007	26960
812.148	26762
812.29	26853
812.431	26906
812.573	27089
812.714	27313
812.855	27386
812.997	27431
813.138	27618
813.279	27504
813.421	27431
813.562	27408
813.703	27119
813.845	26979
813.986	26750
814.127	26705
814.268	26568
814.41	26571
814.551	26549
814.692	26636
814.833	26575
814.974	26552
815.115	26488
815.256	26453
815.397	26408
815.539	26320
815.68	26320
815.821	26187
815.962	26377
816.103	26339
816.244	26290
816.385	26130
816.526	26130
816.666	26058
816.807	25658
816.948	25860
817.089	25780
817.23	25814
817.371	25807
817.512	25658
817.653	25841
817.793	25567
817.934	25822
818.075	25864
818.216	25894
818.356	25845
818.497	25594
818.638	25499
818.778	25502
818.919	25578
819.06	25491
819.2	25693
819.341	25674
819.481	25761
819.622	25776
819.762	26058
819.903	26069
820.043	25894
820.184	25909
820.324	25906
820.465	26005
820.605	25845
820.746	25883
820.886	25746
821.026	25871
821.167	25894
821.307	25947
821.447	25693
821.588	25715
821.728	25533
821.868	25396
822.008	25156
822.149	25217
822.289	25114
822.429	25065
822.569	24977
822.709	24958
822.849	24741
822.99	24688
823.13	24753
823.27	24642
823.41	24661
823.55	24467
823.69	24483
823.83	24528
823.97	24525
824.11	24361
824.25	24391
824.389	24372
824.529	24471
824.669	24308
824.809	24422
824.949	24369
825.089	24369
825.228	24407
825.368	24228
825.508	24365
825.648	24262
825.787	24220
825.927	24452
826.067	24338
826.206	24292
826.346	24388
826.485	24357
826.625	24220
826.765	24433
826.904	24266
827.044	24057
827.183	24106
827.323	23912
827.462	24152
827.601	23954
827.741	23988
827.88	23920
828.02	23832
828.159	23901
828.298	24064
828.437	24045
828.577	23916
828.716	23973
828.855	23931
828.994	23767
829.134	23741
829.273	23741
829.412	23570
829.551	23634
829.69	23745
829.829	23729
829.968	23695
830.107	23855
830.246	23729
830.385	23558
830.524	23497
830.663	23531
830.802	23337
830.941	23265
831.08	23273
831.219	23414
831.357	23273
831.496	23452
831.635	23235
831.774	23261
831.913	23208
832.051	23200
832.19	23044
832.329	23102
832.467	23075
832.606	22976
832.744	22949
832.883	22919
833.022	22843
833.16	22991
833.299	23052
833.437	22980
833.576	22980
833.714	22949
833.852	23109
833.991	23121
834.129	23178
834.267	23090
834.406	23105
834.544	22999
834.682	23052
834.821	23037
834.959	23178
835.097	23048
835.235	23181
835.373	23083
835.511	23056
835.65	22889
835.788	22824
835.926	22820
836.064	22706
836.202	22744
836.34	22801
836.478	22938
836.615	22900
836.753	22839
836.891	22831
837.029	22866
837.167	22748
837.305	22717
837.443	22854
837.58	22656
837.718	22694
837.856	22748
837.993	22793
838.131	22755
838.269	22565
838.406	22504
838.544	22546
838.681	22443
838.819	22276
838.956	22219
839.094	22238
839.231	22261
839.369	22523
839.506	22607
839.643	22474
839.781	22299
839.918	22192
840.055	22348
840.193	22219
840.33	22219
840.467	22173
840.604	22238
840.742	22531
840.879	22112
841.016	22101
841.153	22070
841.29	22268
841.427	22249
841.564	22185
841.701	22124
841.838	22105
841.975	22040
842.112	22162
842.249	22025
842.385	21964
842.522	22268
842.659	22124
842.796	21918
842.933	21987
843.069	21823
843.206	21956
843.343	21934
843.479	21918
843.616	21869
843.752	21580
843.889	21827
844.025	21895
844.162	21622
844.298	21800
844.435	21751
844.571	21641
844.708	21736
844.844	21884
844.98	21895
845.117	21838
845.253	21519
845.389	21599
845.525	21606
845.661	21663
845.798	21466
845.934	21447
846.07	21435
846.206	21561
846.342	21679
846.478	21374
846.614	21287
846.75	21100
846.886	21192
847.022	21119
847.158	21222
847.294	21180
847.429	21241
847.565	21165
847.701	21370
847.837	20998
847.972	20891
848.108	20990
848.244	20842
848.379	20785
848.515	20807
848.65	20792
848.786	20765
848.921	20750
849.057	20868
849.192	20880
849.328	20815
849.463	20792
849.598	20769
849.734	20670
849.869	20655
850.004	20606
850.14	20594
850.275	20503
850.41	20396
850.545	20522
850.68	20457
850.815	20514
850.95	20427
851.085	20678
851.22	20674
851.355	20492
851.49	20530
851.625	20503
851.76	20674
851.895	20454
852.03	20556
852.165	20598
852.299	20495
852.434	20564
852.569	20533
852.703	20480
852.838	20651
852.973	20731
853.107	20644
853.242	20507
853.376	20355
853.511	20214
853.645	20298
853.78	20564
853.914	20282
854.048	20320
854.183	20431
854.317	20374
854.451	20564
854.585	20415
854.72	20301
854.854	20415
854.988	20362
855.122	20408
855.256	20202
855.39	20355
855.524	20415
855.658	20381
855.792	20370
855.926	20309
856.06	20374
856.194	20393
856.327	20400
856.461	20271
856.595	20271
856.729	20385
856.862	20446
856.996	20385
857.13	20396
857.263	20514
857.397	20423
857.53	20366
857.664	20393
857.797	20469
857.931	20389
858.064	20374
858.197	20377
858.331	20336
858.464	20240
858.597	20324
858.731	20286
858.864	20256
858.997	20358
859.13	20374
859.263	20450
859.396	20434
859.529	20278
859.662	20362
859.795	20389
859.928	20237
860.061	20564
860.194	20552
860.327	20450
860.46	20438
860.592	20370
860.725	20427
860.858	20602
860.99	20347
861.123	20278
861.256	20320
861.388	20374
861.521	20918
861.653	20237
861.786	20142
861.918	20096
862.05	20210
862.183	20271
862.315	20324
862.447	20309
862.58	20294
862.712	20084
862.844	20183
862.976	20225
863.108	20278
863.24	20571
863.372	20001
863.504	20073
863.636	20065
863.768	20218
863.9	20024
864.032	20012
864.164	20126
864.296	20050
864.428	20115
864.559	20126
864.691	20122
864.823	20115
864.954	20062
865.086	20024
865.217	19951
865.349	19906
865.48	19993
865.612	19970
865.743	20187
865.875	20134
866.006	19974
866.137	19993
866.269	20050
866.4	19932
866.531	19909
866.662	19932
866.793	19890
866.924	19963
867.055	19974
867.186	20008
867.317	19932
867.448	19890
867.579	19879
867.71	19856
867.841	19921
867.972	20008
868.103	20031
868.233	19936
868.364	20043
868.495	19997
868.625	20153
868.756	20415
868.886	20073
869.017	20298
869.147	20286
869.278	20286
869.408	20172
869.539	20142
869.669	20252
869.799	20191
869.929	20332
870.06	20286
870.19	20514
870.32	20419
870.45	20507
870.58	20575
870.71	20800
870.84	20689
870.97	20590
871.1	20526
871.23	20773
871.36	20705
871.489	20712
871.619	20758
871.749	20708
871.879	20777
872.008	20880
872.138	20754
872.267	20750
872.397	20655
872.526	20606
872.656	20598
872.785	20568
872.915	20724
873.044	20872
873.173	20804
873.303	20864
873.432	20868
873.561	20975
873.69	20746
873.819	20868
873.948	20785
874.077	20796
874.206	20727
874.335	20914
874.464	20971
874.593	20994
874.722	21116
874.851	20975
874.979	21055
875.108	21104
875.237	21074
875.365	21047
875.494	20994
875.623	21058
875.751	20929
875.88	20990
876.008	21214
876.136	21230
876.265	21500
876.393	21542
876.521	21534
876.65	21648
876.778	21576
876.906	21367
877.034	21230
877.162	21424
877.29	21367
877.418	21351
877.546	21511
877.674	21462
877.802	21370
877.93	21397
878.058	21344
878.185	21405
878.313	21401
878.441	21447
878.568	21332
878.696	21507
878.824	21511
878.951	21405
879.079	21595
879.206	21789
879.333	21568
879.461	21386
879.588	21542
879.715	21587
879.842	21641
879.97	21481
880.097	21249
880.224	21272
880.351	21336
880.478	21252
880.605	21272
880.732	21298
880.859	21500
880.986	21264
881.112	21222
881.239	21093
881.366	20975
881.493	20845
881.619	20899
881.746	20773
881.872	20857
881.999	20785
882.125	20716
882.252	20815
882.378	20811
882.505	20941
882.631	20689
882.757	20488
882.883	20632
883.01	20583
883.136	20518
883.262	20267
883.388	20419
883.514	20431
883.64	20609
883.766	20522
883.892	20389
884.018	20427
884.143	20473
884.269	20636
884.395	20290
884.52	20153
884.646	20218
884.772	20122
884.897	20122
885.023	20206
885.148	20320
885.274	20355
885.399	20237
885.524	20142
885.65	20073
885.775	20153
885.9	20259
886.025	20282
886.15	20301
886.275	20180
886.4	19993
886.525	20115
886.65	20065
886.775	20012
886.9	20366
887.025	20324
887.149	20214
887.274	20065
887.399	19967
887.523	19940
887.648	19906
887.773	19826
887.897	20073
888.021	20084
888.146	19856
888.27	20073
888.395	20058
888.519	20035
888.643	20043
888.767	20012
888.891	19875
889.015	19837
889.139	19852
889.263	19765
889.387	19841
889.511	19860
889.635	19928
889.759	19795
889.883	19670
890.006	19761
890.13	19860
890.254	19510
890.377	19734
890.501	19472
890.624	19438
890.748	19628
890.871	19419
890.995	19449
891.118	19350
891.241	19525
891.364	19411
891.488	19449
891.611	19312
891.734	19403
891.857	19362
891.98	19381
892.103	19297
892.226	19373
892.349	19221
892.471	19103
892.594	19251
892.717	19362
892.839	19232
892.962	19304
893.085	19392
893.207	19259
893.33	19160
893.452	19198
893.575	19312
893.697	19183
893.819	19373
893.941	19487
894.064	19419
894.186	19183
894.308	19221
894.43	19320
894.552	19487
894.674	19407
894.796	19232
894.918	19232
895.04	19152
895.161	19346
895.283	19331
895.405	19289
895.526	19316
895.648	19259
895.769	19285
895.891	19335
896.012	19430
896.134	19411
896.255	19285
896.376	19312
896.498	19354
896.619	19350
896.74	19228
896.861	19266
896.982	19571
897.103	19753
897.224	19601
897.345	19495
897.466	19415
897.587	19525
897.708	19666
897.828	19540
897.949	19521
898.07	19426
898.19	19426
898.311	19571
898.431	19510
898.552	19476
898.672	19681
898.792	19552
898.913	19605
899.033	19422
899.153	19419
899.273	19145
899.393	19278
899.513	19396
899.633	19324
899.753	19270
899.873	19244
899.993	19266
900.113	19266
900.232	19270
900.352	19270
900.472	19042
900.591	18951
900.711	19080
900.83	19141
900.95	19145
901.069	19061
901.189	19065
901.308	18791
901.427	18612
901.546	18703
901.665	18620
901.784	18703
901.904	18536
902.023	18410
902.141	18148
902.26	18178
902.379	18235
902.498	18224
902.617	18038
902.735	18365
902.854	18129
902.973	18144
903.091	17958
903.21	17870
903.328	17805
903.446	17722
903.565	17695
903.683	17634
903.801	17608
903.919	17668
904.038	17691
904.156	17478
904.274	17410
904.392	17410
904.51	17429
904.627	17535
904.745	17414
904.863	17398
904.981	17227
905.098	17102
905.216	17185
905.334	17223
905.451	17185
905.569	17045
905.686	17200
905.803	17090
905.921	17003
906.038	17006
906.155	16949
906.272	16873
906.389	16713
906.506	16664
906.623	16790
906.74	16596
906.857	16603
906.974	16577
907.091	16805
907.208	16729
907.324	16694
907.441	16626
907.557	16409
907.674	16303
907.79	16375
907.907	16382
908.023	16451
908.139	16333
908.256	16253
908.372	16299
908.488	16257
908.604	16131
908.72	16116
908.836	16139
908.952	16082
909.068	16154
909.184	16284
909.3	16082
909.415	16097
909.531	16128
909.647	15831
909.762	15865
909.878	15816
909.993	16006
910.108	15785
910.224	15743
910.339	15804
910.454	15675
910.57	15720
910.685	15675
910.8	15876
910.915	15778
911.03	15545
911.145	15545
911.259	15428
911.374	15447
911.489	15329
911.604	15218
911.718	15226
911.833	15332
911.947	15169
912.062	15161
912.176	15332
912.291	15359
912.405	15363
912.519	15458
912.633	15344
912.748	15275
912.862	15150
912.976	15028
913.09	14937
913.204	14937
913.318	15013
913.431	15116
913.545	15093
913.659	15066
913.772	14952
913.886	14872
914	14804
914.113	14857
914.226	14944
914.34	14914
914.453	14750
914.566	14910
914.68	14739
914.793	14701
914.906	14518
915.019	14533
915.132	14427
915.245	14461
915.358	14522
915.47	14393
915.583	14404
915.696	14488
915.809	14583
915.921	14583
916.034	14351
916.146	14396
916.259	14465
916.371	14552
916.483	14419
916.595	14351
916.708	14218
916.82	14248
916.932	14294
917.044	14271
917.156	14126
917.268	14183
917.38	14237
917.491	14073
917.603	14168
917.715	14256
917.826	14240
917.938	14088
918.049	14005
918.161	14142
918.272	14176
918.384	14168
918.495	14096
918.606	13887
918.717	13822
918.828	13864
918.939	13932
919.05	13803
919.161	13894
919.272	13677
919.383	13818
919.494	13921
919.604	14145
919.715	13959
919.826	13814
919.936	13841
920.047	13894
920.157	13906
920.267	14130
920.378	13925
920.488	13837
920.598	14096
920.708	14195
920.818	14046
920.928	13947
921.038	14202
921.148	14069
921.258	13841
921.368	13704
921.477	13590
921.587	13655
921.697	13563
921.806	13624
921.916	13491
922.025	13358
922.134	13228
922.244	13270
922.353	13335
922.462	13175
922.571	13129
922.68	13065
922.789	12932
922.898	12943
923.007	12875
923.116	12977
923.224	13034
923.333	12882
923.442	12783
923.55	12726
923.659	12757
923.767	12764
923.876	12810
923.984	12757
924.092	12688
924.201	12665
924.309	12802
924.417	12757
924.525	12639
924.633	12608
924.741	13708
924.849	12410
924.956	12498
925.064	12410
925.172	12289
925.279	12304
925.387	12380
925.494	12372
925.602	12441
925.709	12403
925.816	12289
925.924	12365
926.031	12403
926.138	12289
926.245	12391
926.352	12266
926.459	12403
926.566	12346
926.673	12311
926.779	12110
926.886	12102
926.993	11946
927.099	11996
927.206	11897
927.312	11908
927.419	12057
927.525	11923
927.631	12019
927.737	11855
927.843	11866
927.95	11741
928.056	11802
928.162	11878
928.267	11931
928.373	12391
928.479	11874
928.585	11615
928.69	11745
928.796	11874
928.901	11741
929.007	11558
929.112	11623
929.218	11608
929.323	11608
929.428	11581
929.533	11756
929.638	11429
929.743	11493
929.848	11493
929.953	11573
930.058	11421
930.163	11216
930.267	11242
930.372	11512
930.477	11170
930.581	11417
930.685	11307
930.79	11185
930.894	11288
930.998	11094
931.103	11261
931.207	10938
931.311	10889
931.415	10694
931.519	10641
931.623	10527
