Data from test_V78500241_3022.txt Node
Date: Fri Mar 25 15:30:54 CST 2022
User: usil
Spectrometer: V785-0024
Trigger mode: 0
Integration Time (sec): 4.000000E-1
Scans to average: 1
Nonlinearity correction enabled: false
Boxcar width: 0
Storing dark spectrum: false
XAxis mode: Wavelengths
Number of Pixels in Spectrum: 1024
>>>>>Begin Spectral Data<<<<<
801.071	27272
801.214	27211
801.356	26979
801.499	27005
801.641	26842
801.783	26762
801.926	26902
802.068	26739
802.211	26686
802.353	26648
802.496	26461
802.638	26453
802.78	26408
802.923	26412
803.065	26248
803.208	26343
803.35	26301
803.492	26571
803.635	26670
803.777	26488
803.919	26511
804.061	26849
804.204	26606
804.346	26492
804.488	26484
804.63	26522
804.773	26484
804.915	26488
805.057	26670
805.199	26526
805.341	26552
805.483	26731
805.626	26663
805.768	26587
805.91	26579
806.052	26674
806.194	26632
806.336	26819
806.478	26629
806.62	26625
806.762	26735
806.904	26887
807.046	27142
807.188	27119
807.33	27055
807.472	27104
807.614	27077
807.756	27024
807.898	27055
808.04	26876
808.182	26708
808.324	27062
808.465	26975
808.607	27058
808.749	27294
808.891	27424
809.033	27507
809.174	27199
809.316	27275
809.458	27222
809.6	27336
809.741	27351
809.883	27427
810.025	27545
810.166	27599
810.308	27485
810.45	27427
810.591	27359
810.733	27336
810.875	27226
811.016	27420
811.158	27302
811.299	27435
811.441	27545
811.582	27583
811.724	27249
811.865	27351
812.007	27096
812.148	27329
812.29	27241
812.431	27485
812.573	27709
812.714	27648
812.855	27827
812.997	27720
813.138	28006
813.279	27857
813.421	27819
813.562	27934
813.703	27652
813.845	27431
813.986	27203
814.127	27131
814.268	26982
814.41	26986
814.551	26895
814.692	26979
814.833	26864
814.974	26929
815.115	27017
815.256	26819
815.397	26845
815.539	26689
815.68	26583
815.821	26598
815.962	26781
816.103	26762
816.244	26507
816.385	26484
816.526	26400
816.666	26195
816.807	26119
816.948	26164
817.089	26301
817.23	26320
817.371	26153
817.512	26100
817.653	26107
817.793	26084
817.934	26195
818.075	26202
818.216	26115
818.356	26130
818.497	26103
818.638	25734
818.778	25986
818.919	25826
819.06	25947
819.2	26054
819.341	26134
819.481	26214
819.622	26282
819.762	26636
819.903	26393
820.043	26332
820.184	26336
820.324	26263
820.465	26278
820.605	26328
820.746	26240
820.886	26138
821.026	26221
821.167	26164
821.307	26431
821.447	26107
821.588	26077
821.728	25928
821.868	25826
822.008	25609
822.149	25582
822.289	25529
822.429	25293
822.569	25339
822.709	25266
822.849	25221
822.99	25282
823.13	25213
823.27	25084
823.41	25065
823.55	24882
823.69	25072
823.83	24871
823.97	24882
824.11	24688
824.25	24791
824.389	24791
824.529	24791
824.669	24878
824.809	24810
824.949	24814
825.089	24890
825.228	24833
825.368	24677
825.508	24623
825.648	24597
825.787	24768
825.927	24745
826.067	24589
826.206	24563
826.346	24760
826.485	24776
826.625	24642
826.765	24738
826.904	24677
827.044	24547
827.183	24422
827.323	24395
827.462	24414
827.601	24365
827.741	24319
827.88	24273
828.02	24334
828.159	24262
828.298	24410
828.437	24456
828.577	24281
828.716	24422
828.855	24224
828.994	24045
829.134	24098
829.273	24068
829.412	23980
829.551	23992
829.69	24011
829.829	24133
829.968	24144
830.107	24091
830.246	24110
830.385	24015
830.524	23870
830.663	23764
830.802	23790
830.941	23779
831.08	23638
831.219	23691
831.357	23775
831.496	23847
831.635	23695
831.774	23592
831.913	23349
832.051	23417
832.19	23395
832.329	23376
832.467	23410
832.606	23318
832.744	23250
832.883	23440
833.022	23311
833.16	23299
833.299	23410
833.437	23360
833.576	23391
833.714	23360
833.852	23444
833.991	23497
834.129	23467
834.267	23463
834.406	23387
834.544	23417
834.682	23395
834.821	23459
834.959	23596
835.097	23277
835.235	23448
835.373	23318
835.511	23463
835.65	23334
835.788	23208
835.926	23147
836.064	23033
836.202	23010
836.34	23296
836.478	23345
836.615	23216
836.753	23117
836.891	23231
837.029	23280
837.167	23235
837.305	23204
837.443	23113
837.58	23006
837.718	23246
837.856	23128
837.993	22915
838.131	22984
838.269	22927
838.406	22991
838.544	23060
838.681	22763
838.819	22706
838.956	22485
839.094	22531
839.231	22573
839.369	22717
839.506	22896
839.643	22873
839.781	22546
839.918	22527
840.055	22542
840.193	22447
840.33	22538
840.467	22512
840.604	22546
840.742	22767
840.879	22440
841.016	22421
841.153	22371
841.29	22588
841.427	22546
841.564	22527
841.701	22497
841.838	22291
841.975	22329
842.112	22375
842.249	22325
842.385	22344
842.522	22459
842.659	22325
842.796	22238
842.933	22185
843.069	22181
843.206	22169
843.343	22272
843.479	22128
843.616	22303
843.752	22002
843.889	21953
844.025	22188
844.162	22048
844.298	22070
844.435	21930
844.571	21998
844.708	21956
844.844	22101
844.98	22090
845.117	22177
845.253	21979
845.389	21873
845.525	21945
845.661	21888
845.798	21766
845.934	21816
846.07	21663
846.206	21808
846.342	21926
846.478	21675
846.614	21587
846.75	21332
846.886	21428
847.022	21500
847.158	21603
847.294	21542
847.429	21488
847.565	21488
847.701	21595
847.837	21150
847.972	21237
848.108	21306
848.244	21260
848.379	21150
848.515	21100
848.65	21066
848.786	21009
848.921	21085
849.057	21146
849.192	21165
849.328	21112
849.463	21077
849.598	21081
849.734	20921
849.869	20929
850.004	20868
850.14	20826
850.275	20731
850.41	20769
850.545	20849
850.68	20773
850.815	20857
850.95	20826
851.085	20998
851.22	20823
851.355	20868
851.49	20842
851.625	20792
851.76	20758
851.895	20724
852.03	20838
852.165	20716
852.299	20864
852.434	21001
852.569	20876
852.703	20914
852.838	20861
852.973	20948
853.107	20838
853.242	20743
853.376	20708
853.511	20552
853.645	20583
853.78	20746
853.914	20629
854.048	20629
854.183	20735
854.317	20716
854.451	20864
854.585	20678
854.72	20716
854.854	20731
854.988	20575
855.122	20617
855.256	20533
855.39	20659
855.524	20716
855.658	20613
855.792	20663
855.926	20651
856.06	20796
856.194	20686
856.327	20590
856.461	20686
856.595	20552
856.729	20613
856.862	20838
856.996	20720
857.13	20667
857.263	20762
857.397	20682
857.53	20663
857.664	20587
857.797	20682
857.931	20796
858.064	20712
858.197	20716
858.331	20663
858.464	20594
858.597	20545
858.731	20587
858.864	20598
858.997	20625
859.13	20678
859.263	20678
859.396	20674
859.529	20693
859.662	20727
859.795	20552
859.928	20682
860.061	20838
860.194	20788
860.327	20686
860.46	20750
860.592	20834
860.725	20872
860.858	20750
860.99	20651
861.123	20682
861.256	20613
861.388	20765
861.521	21268
861.653	20469
861.786	20537
861.918	20434
862.05	20575
862.183	20537
862.315	20609
862.447	20739
862.58	20469
862.712	20377
862.844	20328
862.976	20473
863.108	20465
863.24	20811
863.372	20446
863.504	20339
863.636	20442
863.768	20343
863.9	20351
864.032	20305
864.164	20393
864.296	20385
864.428	20446
864.559	20423
864.691	20362
864.823	20309
864.954	20248
865.086	20362
865.217	20298
865.349	20168
865.48	20324
865.612	20218
865.743	20412
865.875	20267
866.006	20313
866.137	20267
866.269	20164
866.4	20313
866.531	20271
866.662	20214
866.793	20096
866.924	20271
867.055	20305
867.186	20168
867.317	20294
867.448	20138
867.579	20176
867.71	20206
867.841	20191
867.972	20161
868.103	20187
868.233	20336
868.364	20161
868.495	20298
868.625	20454
868.756	20518
868.886	20377
869.017	20461
869.147	20587
869.278	20431
869.408	20579
869.539	20492
869.669	20450
869.799	20419
869.929	20556
870.06	20556
870.19	20807
870.32	20754
870.45	20804
870.58	20857
870.71	20994
870.84	20883
870.97	20807
871.1	20899
871.23	21020
871.36	21089
871.489	21005
871.619	20975
871.749	21009
871.879	21188
872.008	21226
872.138	21047
872.267	20986
872.397	20864
872.526	20826
872.656	20967
872.785	20861
872.915	21020
873.044	21089
873.173	21081
873.303	21009
873.432	21138
873.561	21176
873.69	21184
873.819	21051
873.948	21157
874.077	21150
874.206	20998
874.335	21051
874.464	21146
874.593	21252
874.722	21359
874.851	21348
874.979	21370
875.108	21249
875.237	21245
875.365	21203
875.494	21252
875.623	21351
875.751	21218
875.88	21340
876.008	21405
876.136	21496
876.265	21637
876.393	21827
876.521	21774
876.65	21865
876.778	21774
876.906	21675
877.034	21747
877.162	21724
877.29	21660
877.418	21622
877.546	21713
877.674	21720
877.802	21739
877.93	21549
878.058	21625
878.185	21488
878.313	21603
878.441	21679
878.568	21469
878.696	21545
878.824	21682
878.951	21732
879.079	21850
879.206	21949
879.333	21930
879.461	21800
879.588	21766
879.715	21816
879.842	21945
879.97	21736
880.097	21534
880.224	21515
880.351	21572
880.478	21526
880.605	21450
880.732	21428
880.859	21751
880.986	21447
881.112	21553
881.239	21256
881.366	21207
881.493	21119
881.619	21077
881.746	21032
881.872	21036
881.999	21074
882.125	21036
882.252	21184
882.378	21081
882.505	21108
882.631	21055
882.757	20796
882.883	20796
883.01	20830
883.136	20701
883.262	20617
883.388	20689
883.514	20746
883.64	20834
883.766	20674
883.892	20507
884.018	20499
884.143	20815
884.269	20853
884.395	20537
884.52	20412
884.646	20415
884.772	20423
884.897	20317
885.023	20446
885.148	20651
885.274	20552
885.399	20579
885.524	20454
885.65	20450
885.775	20518
885.9	20431
886.025	20480
886.15	20594
886.275	20381
886.4	20259
886.525	20434
886.65	20377
886.775	20408
886.9	20568
887.025	20587
887.149	20317
887.274	20199
887.399	20309
887.523	20233
887.648	20183
887.773	20115
887.897	20366
888.021	20320
888.146	20183
888.27	20320
888.395	20377
888.519	20240
888.643	20233
888.767	20267
888.891	20100
889.015	20035
889.139	20050
889.263	19951
889.387	20100
889.511	20005
889.635	20191
889.759	20024
889.883	19944
890.006	19917
890.13	20058
890.254	19898
890.377	19928
890.501	19734
890.624	19719
890.748	19826
890.871	19761
890.995	19537
891.118	19632
891.241	19582
891.364	19518
891.488	19723
891.611	19582
891.734	19601
891.857	19556
891.98	19674
892.103	19571
892.226	19601
892.349	19510
892.471	19464
892.594	19476
892.717	19677
892.839	19575
892.962	19434
893.085	19499
893.207	19502
893.33	19502
893.452	19388
893.575	19628
893.697	19453
893.819	19693
893.941	19712
894.064	19601
894.186	19518
894.308	19415
894.43	19597
894.552	19651
894.674	19613
894.796	19327
894.918	19403
895.04	19506
895.161	19537
895.283	19552
895.405	19407
895.526	19601
895.648	19373
895.769	19518
895.891	19499
896.012	19529
896.134	19525
896.255	19658
896.376	19403
896.498	19472
896.619	19499
896.74	19639
896.861	19590
896.982	19875
897.103	19932
897.224	19731
897.345	19715
897.466	19696
897.587	19776
897.708	19921
897.828	19776
897.949	19761
898.07	19537
898.19	19651
898.311	19791
898.431	19719
898.552	19753
898.672	19757
898.792	19803
898.913	19761
899.033	19548
899.153	19609
899.273	19403
899.393	19605
899.513	19635
899.633	19495
899.753	19491
899.873	19476
899.993	19491
900.113	19476
900.232	19487
900.352	19449
900.472	19293
900.591	19168
900.711	19350
900.83	19221
900.95	19343
901.069	19346
901.189	19259
901.308	19091
901.427	18894
901.546	18859
901.665	18859
901.784	18878
901.904	18768
902.023	18700
902.141	18490
902.26	18452
902.379	18452
902.498	18490
902.617	18304
902.735	18460
902.854	18399
902.973	18334
903.091	18072
903.21	18026
903.328	18053
903.446	18007
903.565	18038
903.683	17828
903.801	17786
903.919	17783
904.038	17745
904.156	17729
904.274	17783
904.392	17661
904.51	17665
904.627	17608
904.745	17722
904.863	17691
904.981	17402
905.098	17318
905.216	17334
905.334	17364
905.451	17315
905.569	17326
905.686	17398
905.803	17490
905.921	17128
906.038	17311
906.155	17140
906.272	16961
906.389	17090
906.506	16915
906.623	16847
906.74	16869
906.857	16687
906.974	16710
907.091	16953
907.208	17086
907.324	16858
907.441	16816
907.557	16542
907.674	16580
907.79	16527
907.907	16577
908.023	16603
908.139	16561
908.256	16584
908.372	16459
908.488	16432
908.604	16375
908.72	16310
908.836	16295
908.952	16367
909.068	16280
909.184	16344
909.3	16291
909.415	16382
909.531	16325
909.647	16071
909.762	16040
909.878	16082
909.993	16093
910.108	16013
910.224	15953
910.339	16036
910.454	15937
910.57	15755
910.685	15827
910.8	16017
910.915	15956
911.03	15835
911.145	15755
911.259	15652
911.374	15759
911.489	15534
911.604	15500
911.718	15393
911.833	15412
911.947	15272
912.062	15272
912.176	15462
912.291	15420
912.405	15424
912.519	15610
912.633	15545
912.748	15428
912.862	15367
912.976	15192
913.09	15112
913.204	15154
913.318	15199
913.431	15317
913.545	15218
913.659	15264
913.772	15112
913.886	15085
914	15062
914.113	15135
914.226	14948
914.34	15032
914.453	14864
914.566	15104
914.68	14811
914.793	14902
914.906	14815
915.019	14590
915.132	14613
915.245	14651
915.358	14746
915.47	14640
915.583	14667
915.696	14743
915.809	14769
915.921	14792
916.034	14602
916.146	14495
916.259	14492
916.371	14682
916.483	14625
916.595	14438
916.708	14404
916.82	14522
916.932	14469
917.044	14415
917.156	14461
917.268	14358
917.38	14263
917.491	14263
917.603	14374
917.715	14423
917.826	14427
917.938	14271
918.049	14100
918.161	14210
918.272	14438
918.384	14377
918.495	14237
918.606	14157
918.717	13906
918.828	14081
918.939	14126
919.05	14008
919.161	14081
919.272	13951
919.383	13906
919.494	14119
919.604	14271
919.715	14050
919.826	13986
919.936	14027
920.047	14069
920.157	14138
920.267	14153
920.378	14073
920.488	14043
920.598	14282
920.708	14362
920.818	14202
920.928	14206
921.038	14313
921.148	14278
921.258	14027
921.368	13913
921.477	13860
921.587	13807
921.697	13769
921.806	13791
921.916	13647
922.025	13487
922.134	13468
922.244	13381
922.353	13468
922.462	13346
922.571	13293
922.68	13213
922.789	13084
922.898	13080
923.007	12970
923.116	13156
923.224	13015
923.333	13110
923.442	12970
923.55	12821
923.659	12913
923.767	12920
923.876	12833
923.984	12958
924.092	12829
924.201	12772
924.309	12886
924.417	12787
924.525	12806
924.633	12837
924.741	13521
924.849	12620
924.956	12722
925.064	12521
925.172	12490
925.279	12448
925.387	12570
925.494	12498
925.602	12654
925.709	12650
925.816	12391
925.924	12452
926.031	12601
926.138	12365
926.245	12547
926.352	12410
926.459	12570
926.566	12521
926.673	12483
926.779	12361
926.886	12330
926.993	12144
927.099	12114
927.206	12064
927.312	12064
927.419	12095
927.525	12034
927.631	12232
927.737	12038
927.843	11980
927.95	11855
928.056	11935
928.162	12015
928.267	11992
928.373	12593
928.479	11992
928.585	11676
928.69	11950
928.796	11939
928.901	11786
929.007	11733
929.112	11764
929.218	11817
929.323	11764
929.428	11623
929.533	11828
929.638	11634
929.743	11539
929.848	11817
929.953	11577
930.058	11528
930.163	11337
930.267	11429
930.372	11467
930.477	11421
930.581	11532
930.685	11433
930.79	11322
930.894	11341
930.998	11246
931.103	11417
931.207	11033
931.311	10991
931.415	10809
931.519	10577
931.623	10672
