Data from test_V78500241_2376.txt Node
Date: Fri Mar 25 15:26:24 CST 2022
User: usil
Spectrometer: V785-0024
Trigger mode: 0
Integration Time (sec): 4.000000E-1
Scans to average: 1
Nonlinearity correction enabled: false
Boxcar width: 0
Storing dark spectrum: false
XAxis mode: Wavelengths
Number of Pixels in Spectrum: 1024
>>>>>Begin Spectral Data<<<<<
801.071	27443
801.214	27447
801.356	27351
801.499	27154
801.641	27077
801.783	27024
801.926	27146
802.068	27081
802.211	26998
802.353	26910
802.496	26708
802.638	26602
802.78	26731
802.923	26598
803.065	26564
803.208	26564
803.35	26495
803.492	26746
803.635	26910
803.777	26659
803.919	26773
804.061	27074
804.204	26967
804.346	26788
804.488	26765
804.63	26838
804.773	26735
804.915	26929
805.057	26815
805.199	26845
805.341	26937
805.483	27089
805.626	26895
805.768	26849
805.91	26823
806.052	26914
806.194	26956
806.336	27184
806.478	26895
806.62	26940
806.762	27051
806.904	27298
807.046	27363
807.188	27408
807.33	27542
807.472	27583
807.614	27310
807.756	27275
807.898	27245
808.04	27192
808.182	27203
808.324	27378
808.465	27207
808.607	27572
808.749	27557
808.891	27561
809.033	27751
809.174	27679
809.316	27515
809.458	27610
809.6	27534
809.741	27568
809.883	27694
810.025	27861
810.166	28029
810.308	27808
810.45	27660
810.591	27781
810.733	27663
810.875	27603
811.016	27336
811.158	27310
811.299	27542
811.441	27660
811.582	27713
811.724	27545
811.865	27435
812.007	27401
812.148	27492
812.29	27701
812.431	27770
812.573	27838
812.714	27937
812.855	28082
812.997	28196
813.138	28261
813.279	28169
813.421	27934
813.562	27892
813.703	27819
813.845	27808
813.986	27534
814.127	27389
814.268	27249
814.41	27260
814.551	27199
814.692	27351
814.833	27123
814.974	27173
815.115	27275
815.256	27100
815.397	27062
815.539	27043
815.68	27180
815.821	26891
815.962	27093
816.103	27077
816.244	26788
816.385	26834
816.526	26678
816.666	26659
816.807	26473
816.948	26545
817.089	26522
817.23	26503
817.371	26442
817.512	26457
817.653	26575
817.793	26457
817.934	26533
818.075	26431
818.216	26370
818.356	26336
818.497	26385
818.638	26157
818.778	26122
818.919	26305
819.06	26339
819.2	26324
819.341	26507
819.481	26499
819.622	26579
819.762	26651
819.903	26625
820.043	26632
820.184	26636
820.324	26689
820.465	26594
820.605	26632
820.746	26507
820.886	26461
821.026	26526
821.167	26499
821.307	26518
821.447	26419
821.588	26343
821.728	26183
821.868	25989
822.008	25936
822.149	25940
822.289	25951
822.429	25708
822.569	25655
822.709	25655
822.849	25502
822.99	25468
823.13	25411
823.27	25388
823.41	25232
823.55	25129
823.69	25282
823.83	25255
823.97	25152
824.11	25088
824.25	25175
824.389	25198
824.529	25217
824.669	25308
824.809	25179
824.949	25103
825.089	25179
825.228	25171
825.368	24871
825.508	24867
825.648	25034
825.787	24962
825.927	25099
826.067	24890
826.206	24996
826.346	25099
826.485	25019
826.625	24992
826.765	25099
826.904	24954
827.044	24757
827.183	24738
827.323	24635
827.462	24768
827.601	24734
827.741	24654
827.88	24795
828.02	24525
828.159	24650
828.298	24673
828.437	24715
828.577	24540
828.716	24642
828.855	24563
828.994	24441
829.134	24357
829.273	24483
829.412	24266
829.551	24308
829.69	24266
829.829	24365
829.968	24407
830.107	24540
830.246	24391
830.385	24353
830.524	24323
830.663	24140
830.802	23988
830.941	24038
831.08	23950
831.219	24117
831.357	24117
831.496	24197
831.635	23942
831.774	23984
831.913	23988
832.051	23817
832.19	23794
832.329	23775
832.467	23665
832.606	23642
832.744	23566
832.883	23604
833.022	23615
833.16	23661
833.299	23726
833.437	23615
833.576	23710
833.714	23783
833.852	23821
833.991	23729
834.129	23824
834.267	23767
834.406	23805
834.544	23828
834.682	23752
834.821	23733
834.959	23847
835.097	23707
835.235	23813
835.373	23718
835.511	23638
835.65	23604
835.788	23634
835.926	23448
836.064	23425
836.202	23402
836.34	23695
836.478	23524
836.615	23509
836.753	23604
836.891	23661
837.029	23672
837.167	23531
837.305	23471
837.443	23395
837.58	23440
837.718	23512
837.856	23448
837.993	23410
838.131	23368
838.269	23269
838.406	23379
838.544	23280
838.681	23098
838.819	23109
838.956	23014
839.094	22790
839.231	22900
839.369	23178
839.506	23318
839.643	23003
839.781	22885
839.918	22965
840.055	23006
840.193	22904
840.33	22885
840.467	22839
840.604	22908
840.742	23090
840.879	22771
841.016	22729
841.153	22683
841.29	22854
841.427	22866
841.564	22721
841.701	22782
841.838	22831
841.975	22698
842.112	22774
842.249	22637
842.385	22702
842.522	22687
842.659	22653
842.796	22550
842.933	22599
843.069	22512
843.206	22421
843.343	22615
843.479	22611
843.616	22577
843.752	22352
843.889	22318
844.025	22504
844.162	22402
844.298	22375
844.435	22440
844.571	22325
844.708	22390
844.844	22554
844.98	22333
845.117	22542
845.253	22238
845.389	22265
845.525	22352
845.661	22234
845.798	22150
845.934	22135
846.07	22093
846.206	22086
846.342	22211
846.478	22097
846.614	21911
846.75	21903
846.886	21759
847.022	21804
847.158	21816
847.294	21804
847.429	21876
847.565	21717
847.701	22010
847.837	21542
847.972	21469
848.108	21701
848.244	21652
848.379	21481
848.515	21424
848.65	21306
848.786	21401
848.921	21462
849.057	21408
849.192	21614
849.328	21447
849.463	21370
849.598	21359
849.734	21302
849.869	21256
850.004	21218
850.14	21218
850.275	21195
850.41	21074
850.545	21070
850.68	21214
850.815	21211
850.95	21116
851.085	21317
851.22	21332
851.355	21142
851.49	21230
851.625	21161
851.76	21138
851.895	21089
852.03	21104
852.165	21089
852.299	21093
852.434	21184
852.569	21176
852.703	21146
852.838	21176
852.973	21389
853.107	21268
853.242	21165
853.376	20925
853.511	20887
853.645	20937
853.78	21017
853.914	20998
854.048	21043
854.183	21001
854.317	21074
854.451	21100
854.585	20906
854.72	21009
854.854	21066
854.988	20899
855.122	20975
855.256	20925
855.39	21074
855.524	21081
855.658	21051
855.792	21047
855.926	21047
856.06	20937
856.194	21055
856.327	20899
856.461	21013
856.595	21024
856.729	20998
856.862	21093
856.996	21032
857.13	21058
857.263	21119
857.397	21013
857.53	20982
857.664	21020
857.797	21077
857.931	21017
858.064	21074
858.197	21100
858.331	20944
858.464	20952
858.597	20986
858.731	21009
858.864	20971
858.997	20986
859.13	21024
859.263	20967
859.396	20994
859.529	21036
859.662	20956
859.795	20937
859.928	21039
860.061	21180
860.194	21214
860.327	21066
860.46	20941
860.592	21009
860.725	21161
860.858	21066
860.99	21020
861.123	21020
861.256	20880
861.388	20982
861.521	21595
861.653	20781
861.786	20750
861.918	20811
862.05	20781
862.183	21024
862.315	21032
862.447	21066
862.58	20834
862.712	20731
862.844	20693
862.976	20754
863.108	20773
863.24	21214
863.372	20716
863.504	20655
863.636	20720
863.768	20735
863.9	20735
864.032	20636
864.164	20735
864.296	20724
864.428	20975
864.559	20811
864.691	20788
864.823	20674
864.954	20781
865.086	20731
865.217	20579
865.349	20571
865.48	20587
865.612	20533
865.743	20868
865.875	20678
866.006	20583
866.137	20659
866.269	20556
866.4	20705
866.531	20659
866.662	20450
866.793	20495
866.924	20632
867.055	20617
867.186	20674
867.317	20587
867.448	20461
867.579	20541
867.71	20492
867.841	20423
867.972	20537
868.103	20412
868.233	20594
868.364	20454
868.495	20659
868.625	20670
868.756	20872
868.886	20750
869.017	20849
869.147	20910
869.278	20887
869.408	20727
869.539	20781
869.669	20807
869.799	20792
869.929	20864
870.06	20845
870.19	20994
870.32	21081
870.45	21146
870.58	21123
870.71	21336
870.84	21291
870.97	21230
871.1	21188
871.23	21367
871.36	21313
871.489	21192
871.619	21458
871.749	21313
871.879	21424
872.008	21523
872.138	21374
872.267	21416
872.397	21230
872.526	21256
872.656	21173
872.785	21230
872.915	21382
873.044	21466
873.173	21378
873.303	21420
873.432	21488
873.561	21526
873.69	21393
873.819	21420
873.948	21485
874.077	21386
874.206	21370
874.335	21447
874.464	21534
874.593	21705
874.722	21595
874.851	21644
874.979	21694
875.108	21523
875.237	21682
875.365	21549
875.494	21477
875.623	21667
875.751	21641
875.88	21625
876.008	21816
876.136	21831
876.265	22025
876.393	22139
876.521	22116
876.65	22093
876.778	22044
876.906	21903
877.034	22013
877.162	22040
877.29	21949
877.418	22032
877.546	22010
877.674	22021
877.802	21960
877.93	22013
878.058	22048
878.185	21854
878.313	21983
878.441	21998
878.568	21941
878.696	21865
878.824	21964
878.951	21922
879.079	21975
879.206	22211
879.333	22051
879.461	22036
879.588	22074
879.715	22169
879.842	22238
879.97	22070
880.097	21762
880.224	21728
880.351	21941
880.478	21873
880.605	21686
880.732	21831
880.859	22082
880.986	21823
881.112	21880
881.239	21599
881.366	21622
881.493	21462
881.619	21374
881.746	21401
881.872	21386
881.999	21447
882.125	21424
882.252	21351
882.378	21363
882.505	21401
882.631	21272
882.757	21127
882.883	21176
883.01	21150
883.136	21070
883.262	20960
883.388	20998
883.514	21058
883.64	21089
883.766	21047
883.892	20982
884.018	20887
884.143	21062
884.269	21096
884.395	20826
884.52	20743
884.646	20720
884.772	20701
884.897	20609
885.023	20705
885.148	20910
885.274	20918
885.399	20815
885.524	20819
885.65	20830
885.775	20739
885.9	20750
886.025	20853
886.15	20758
886.275	20754
886.4	20659
886.525	20697
886.65	20632
886.775	20670
886.9	20811
887.025	20960
887.149	20758
887.274	20560
887.399	20438
887.523	20495
887.648	20484
887.773	20324
887.897	20560
888.021	20518
888.146	20495
888.27	20575
888.395	20636
888.519	20575
888.643	20697
888.767	20571
888.891	20450
889.015	20244
889.139	20370
889.263	20328
889.387	20351
889.511	20450
889.635	20419
889.759	20263
889.883	20393
890.006	20336
890.13	20294
890.254	20263
890.377	20278
890.501	20043
890.624	20134
890.748	20065
890.871	20058
890.995	19906
891.118	19864
891.241	19925
891.364	19788
891.488	19959
891.611	19845
891.734	19841
891.857	19928
891.98	19959
892.103	19917
892.226	19814
892.349	19731
892.471	19658
892.594	19780
892.717	19856
892.839	19765
892.962	19864
893.085	19890
893.207	19746
893.33	19704
893.452	19750
893.575	19864
893.697	19868
893.819	19986
893.941	19970
894.064	19887
894.186	19776
894.308	19700
894.43	19772
894.552	19860
894.674	19883
894.796	19818
894.918	19738
895.04	19643
895.161	19845
895.283	19837
895.405	19731
895.526	19830
895.648	19696
895.769	19799
895.891	19902
896.012	19811
896.134	19769
896.255	19852
896.376	19753
896.498	19772
896.619	19852
896.74	19795
896.861	19940
896.982	20092
897.103	20218
897.224	20065
897.345	19967
897.466	20020
897.587	20054
897.708	20183
897.828	20115
897.949	19883
898.07	19947
898.19	19879
898.311	20202
898.431	19936
898.552	20062
898.672	20161
898.792	20149
898.913	20050
899.033	19868
899.153	19833
899.273	19788
899.393	19845
899.513	19795
899.633	19803
899.753	19784
899.873	19753
899.993	19780
900.113	19727
900.232	19765
900.352	19734
900.472	19548
900.591	19510
900.711	19601
900.83	19544
900.95	19696
901.069	19552
901.189	19392
901.308	19107
901.427	19141
901.546	19247
901.665	19126
901.784	19160
901.904	18996
902.023	18928
902.141	18726
902.26	18707
902.379	18795
902.498	18734
902.617	18734
902.735	18753
902.854	18612
902.973	18528
903.091	18334
903.21	18357
903.328	18388
903.446	18319
903.565	18190
903.683	18098
903.801	18121
903.919	18159
904.038	18102
904.156	18045
904.274	18064
904.392	18007
904.51	17821
904.627	17840
904.745	17988
904.863	17973
904.981	17726
905.098	17627
905.216	17524
905.334	17516
905.451	17585
905.569	17566
905.686	17653
905.803	17653
905.921	17444
906.038	17516
906.155	17376
906.272	17299
906.389	17330
906.506	17265
906.623	17181
906.74	17086
906.857	17037
906.974	17064
907.091	17124
907.208	17246
907.324	17200
907.441	17029
907.557	16881
907.674	16847
907.79	16790
907.907	16809
908.023	16809
908.139	16831
908.256	16869
908.372	16706
908.488	16694
908.604	16626
908.72	16592
908.836	16542
908.952	16584
909.068	16599
909.184	16607
909.3	16615
909.415	16679
909.531	16637
909.647	16303
909.762	16367
909.878	16185
909.993	16230
910.108	16272
910.224	16223
910.339	16249
910.454	16177
910.57	16097
910.685	16055
910.8	16215
910.915	16306
911.03	16063
911.145	15903
911.259	15907
911.374	15850
911.489	15800
911.604	15724
911.718	15572
911.833	15660
911.947	15564
912.062	15439
912.176	15557
912.291	15576
912.405	15500
912.519	15694
912.633	15789
912.748	15534
912.862	15622
912.976	15545
913.09	15275
913.204	15389
913.318	15496
913.431	15526
913.545	15576
913.659	15542
913.772	15416
913.886	15245
914	15192
914.113	15340
914.226	15462
914.34	15386
914.453	15192
914.566	15199
914.68	15154
914.793	15108
914.906	14883
915.019	14952
915.132	14701
915.245	14823
915.358	14944
915.47	14899
915.583	14838
915.696	14899
915.809	14971
915.921	15009
916.034	14785
916.146	14792
916.259	14754
916.371	14849
916.483	14834
916.595	14678
916.708	14697
916.82	14773
916.932	14674
917.044	14522
917.156	14480
917.268	14522
917.38	14492
917.491	14564
917.603	14480
917.715	14644
917.826	14564
917.938	14492
918.049	14347
918.161	14503
918.272	14651
918.384	14503
918.495	14492
918.606	14294
918.717	14324
918.828	14305
918.939	14366
919.05	14088
919.161	14263
919.272	14027
919.383	14073
919.494	14229
919.604	14476
919.715	14377
919.826	14100
919.936	14267
920.047	14358
920.157	14267
920.267	14465
920.378	14358
920.488	14176
920.598	14389
920.708	14457
920.818	14385
920.928	14370
921.038	14503
921.148	14419
921.258	14218
921.368	14164
921.477	13947
921.587	14001
921.697	13845
921.806	13982
921.916	13807
922.025	13685
922.134	13651
922.244	13525
922.353	13765
922.462	13567
922.571	13464
922.68	13259
922.789	13297
922.898	13411
923.007	13255
923.116	13274
923.224	13266
923.333	13285
923.442	13141
923.55	13168
923.659	13095
923.767	13114
923.876	13091
923.984	13034
924.092	13107
924.201	13046
924.309	13008
924.417	12996
924.525	12970
924.633	12989
924.741	13860
924.849	12764
924.956	12848
925.064	12787
925.172	12711
925.279	12753
925.387	12669
925.494	12662
925.602	12798
925.709	12802
925.816	12585
925.924	12711
926.031	12741
926.138	12616
926.245	12726
926.352	12604
926.459	12730
926.566	12726
926.673	12597
926.779	12513
926.886	12502
926.993	12289
927.099	12334
927.206	12353
927.312	12285
927.419	12281
927.525	12228
927.631	12361
927.737	12224
927.843	12114
927.95	11942
928.056	12083
928.162	12175
928.267	12155
928.373	12722
928.479	12205
928.585	11973
928.69	12117
928.796	12003
928.901	12003
929.007	11878
929.112	11961
929.218	11882
929.323	11912
929.428	11870
929.533	11927
929.638	11688
929.743	11798
929.848	11863
929.953	11832
930.058	11676
930.163	11528
930.267	11573
930.372	11657
930.477	11474
930.581	11688
930.685	11615
930.79	11345
930.894	11391
930.998	11318
931.103	11516
931.207	11174
931.311	11189
931.415	11048
931.519	10793
931.623	10820
