Data from test_V78500241_3286.txt Node
Date: Fri Mar 25 15:32:44 CST 2022
User: usil
Spectrometer: V785-0024
Trigger mode: 0
Integration Time (sec): 4.000000E-1
Scans to average: 1
Nonlinearity correction enabled: false
Boxcar width: 0
Storing dark spectrum: false
XAxis mode: Wavelengths
Number of Pixels in Spectrum: 1024
>>>>>Begin Spectral Data<<<<<
801.071	27230
801.214	27180
801.356	27096
801.499	26929
801.641	26720
801.783	26670
801.926	26842
802.068	26872
802.211	26792
802.353	26590
802.496	26537
802.638	26400
802.78	26442
802.923	26275
803.065	26442
803.208	26393
803.35	26465
803.492	26636
803.635	26693
803.777	26518
803.919	26495
804.061	26792
804.204	26625
804.346	26606
804.488	26423
804.63	26480
804.773	26450
804.915	26606
805.057	26667
805.199	26423
805.341	26712
805.483	26674
805.626	26712
805.768	26488
805.91	26594
806.052	26697
806.194	26629
806.336	26895
806.478	26579
806.62	26674
806.762	26800
806.904	26838
807.046	27214
807.188	27009
807.33	27188
807.472	27108
807.614	27020
807.756	27146
807.898	26906
808.04	26918
808.182	26769
808.324	27039
808.465	26975
808.607	27047
808.749	27397
808.891	27291
809.033	27389
809.174	27279
809.316	27165
809.458	27294
809.6	27157
809.741	27260
809.883	27340
810.025	27530
810.166	27542
810.308	27610
810.45	27557
810.591	27507
810.733	27367
810.875	27310
811.016	27237
811.158	27184
811.299	27435
811.441	27473
811.582	27317
811.724	27374
811.865	27222
812.007	27321
812.148	27252
812.29	27256
812.431	27424
812.573	27625
812.714	27698
812.855	27743
812.997	27835
813.138	27903
813.279	27819
813.421	27660
813.562	27667
813.703	27477
813.845	27492
813.986	27241
814.127	27058
814.268	26906
814.41	26906
814.551	26876
814.692	27017
814.833	26826
814.974	26883
815.115	26830
815.256	26815
815.397	26686
815.539	26853
815.68	26724
815.821	26720
815.962	26800
816.103	26769
816.244	26476
816.385	26530
816.526	26434
816.666	26195
816.807	26115
816.948	26351
817.089	26237
817.23	26134
817.371	26058
817.512	26271
817.653	26237
817.793	26092
817.934	26267
818.075	26130
818.216	26202
818.356	26210
818.497	26039
818.638	25890
818.778	26001
818.919	25978
819.06	26024
819.2	26100
819.341	26134
819.481	26164
819.622	26195
819.762	26556
819.903	26465
820.043	26522
820.184	26259
820.324	26263
820.465	26259
820.605	26256
820.746	26138
820.886	26092
821.026	26164
821.167	26275
821.307	26176
821.447	26180
821.588	26046
821.728	25940
821.868	25704
822.008	25670
822.149	25635
822.289	25563
822.429	25358
822.569	25263
822.709	25225
822.849	25301
822.99	25156
823.13	25000
823.27	25027
823.41	25046
823.55	24878
823.69	24966
823.83	24951
823.97	24935
824.11	24825
824.25	24821
824.389	24665
824.529	24810
824.669	24719
824.809	24856
824.949	24882
825.089	24795
825.228	24810
825.368	24623
825.508	24650
825.648	24776
825.787	24681
825.927	24707
826.067	24582
826.206	24730
826.346	24726
826.485	24707
826.625	24700
826.765	24749
826.904	24840
827.044	24486
827.183	24330
827.323	24342
827.462	24513
827.601	24445
827.741	24289
827.88	24475
828.02	24300
828.159	24239
828.298	24445
828.437	24486
828.577	24384
828.716	24498
828.855	24243
828.994	24068
829.134	24140
829.273	24201
829.412	24129
829.551	24136
829.69	24247
829.829	24232
829.968	24144
830.107	24083
830.246	24038
830.385	24076
830.524	24091
830.663	23904
830.802	23832
830.941	23714
831.08	23627
831.219	23680
831.357	23775
831.496	24026
831.635	23722
831.774	23619
831.913	23615
832.051	23467
832.19	23608
832.329	23630
832.467	23337
832.606	23349
832.744	23436
832.883	23455
833.022	23318
833.16	23440
833.299	23410
833.437	23406
833.576	23554
833.714	23493
833.852	23585
833.991	23505
834.129	23623
834.267	23512
834.406	23524
834.544	23528
834.682	23539
834.821	23490
834.959	23672
835.097	23562
835.235	23505
835.373	23455
835.511	23486
835.65	23436
835.788	23303
835.926	23170
836.064	23178
836.202	23155
836.34	23258
836.478	23383
836.615	23330
836.753	23379
836.891	23299
837.029	23273
837.167	23170
837.305	23235
837.443	23170
837.58	23147
837.718	23231
837.856	23258
837.993	23098
838.131	23143
838.269	23147
838.406	23170
838.544	23029
838.681	22911
838.819	22759
838.956	22580
839.094	22649
839.231	22675
839.369	22755
839.506	23060
839.643	22831
839.781	22603
839.918	22569
840.055	22698
840.193	22573
840.33	22679
840.467	22626
840.604	22618
840.742	22869
840.879	22462
841.016	22516
841.153	22516
841.29	22706
841.427	22550
841.564	22710
841.701	22656
841.838	22554
841.975	22462
842.112	22542
842.249	22455
842.385	22257
842.522	22702
842.659	22500
842.796	22310
842.933	22303
843.069	22367
843.206	22246
843.343	22299
843.479	22303
843.616	22386
843.752	22223
843.889	22249
844.025	22280
844.162	22093
844.298	22246
844.435	22200
844.571	22135
844.708	22166
844.844	22242
844.98	22268
845.117	22242
845.253	21983
845.389	21968
845.525	22032
845.661	22029
845.798	21831
845.934	21953
846.07	21800
846.206	21838
846.342	22017
846.478	21884
846.614	21671
846.75	21591
846.886	21641
847.022	21675
847.158	21542
847.294	21652
847.429	21701
847.565	21599
847.701	21774
847.837	21283
847.972	21283
848.108	21393
848.244	21447
848.379	21203
848.515	21199
848.65	21146
848.786	21157
848.921	21241
849.057	21245
849.192	21207
849.328	21287
849.463	21226
849.598	21089
849.734	21119
849.869	21055
850.004	21051
850.14	20887
850.275	21066
850.41	20861
850.545	20933
850.68	20876
850.815	20998
850.95	21108
851.085	21176
851.22	21131
851.355	21005
851.49	20944
851.625	20887
851.76	20788
851.895	20910
852.03	20902
852.165	20906
852.299	21028
852.434	20979
852.569	21013
852.703	20944
852.838	20975
852.973	21089
853.107	20933
853.242	20811
853.376	20815
853.511	20686
853.645	20678
853.78	20921
853.914	20830
854.048	20762
854.183	20838
854.317	20663
854.451	21081
854.585	20872
854.72	20750
854.854	20887
854.988	20678
855.122	20754
855.256	20785
855.39	20708
855.524	20743
855.658	20861
855.792	20765
855.926	20716
856.06	20937
856.194	20849
856.327	20830
856.461	20712
856.595	20727
856.729	20800
856.862	20834
856.996	20769
857.13	20830
857.263	20887
857.397	20918
857.53	20815
857.664	20819
857.797	20811
857.931	20872
858.064	20872
858.197	20887
858.331	20834
858.464	20735
858.597	20663
858.731	20880
858.864	20914
858.997	20895
859.13	20731
859.263	20693
859.396	20868
859.529	20838
859.662	20823
859.795	20826
859.928	20857
860.061	20895
860.194	20826
860.327	20925
860.46	20804
860.592	20902
860.725	20982
860.858	20910
860.99	20746
861.123	20689
861.256	20735
861.388	20785
861.521	21428
861.653	20655
861.786	20674
861.918	20571
862.05	20663
862.183	20678
862.315	20868
862.447	20823
862.58	20724
862.712	20408
862.844	20362
862.976	20632
863.108	20606
863.24	21009
863.372	20473
863.504	20564
863.636	20469
863.768	20568
863.9	20503
864.032	20404
864.164	20415
864.296	20568
864.428	20727
864.559	20655
864.691	20625
864.823	20442
864.954	20492
865.086	20495
865.217	20389
865.349	20298
865.48	20499
865.612	20492
865.743	20450
865.875	20377
866.006	20347
866.137	20374
866.269	20396
866.4	20336
866.531	20305
866.662	20305
866.793	20442
866.924	20366
867.055	20286
867.186	20313
867.317	20324
867.448	20187
867.579	20229
867.71	20355
867.841	20290
867.972	20355
868.103	20396
868.233	20366
868.364	20206
868.495	20400
868.625	20537
868.756	20644
868.886	20556
869.017	20602
869.147	20705
869.278	20712
869.408	20571
869.539	20651
869.669	20697
869.799	20552
869.929	20693
870.06	20613
870.19	20815
870.32	20853
870.45	20765
870.58	21036
870.71	21074
870.84	20963
870.97	20948
871.1	21055
871.23	21135
871.36	21131
871.489	21047
871.619	21142
871.749	21127
871.879	21264
872.008	21188
872.138	21252
872.267	21192
872.397	20986
872.526	20986
872.656	21020
872.785	20941
872.915	21081
873.044	21237
873.173	21260
873.303	21173
873.432	21081
873.561	21275
873.69	21252
873.819	21321
873.948	21256
874.077	21268
874.206	21077
874.335	21157
874.464	21389
874.593	21447
874.722	21454
874.851	21496
874.979	21458
875.108	21424
875.237	21420
875.365	21363
875.494	21420
875.623	21553
875.751	21431
875.88	21641
876.008	21542
876.136	21496
876.265	21918
876.393	21983
876.521	21972
876.65	21793
876.778	21937
876.906	21842
877.034	21701
877.162	21747
877.29	21831
877.418	21819
877.546	21892
877.674	21823
877.802	21774
877.93	21808
878.058	21781
878.185	21656
878.313	21705
878.441	21827
878.568	21736
878.696	21759
878.824	21835
878.951	21960
879.079	21979
879.206	22128
879.333	21934
879.461	21857
879.588	21854
879.715	21911
879.842	22051
879.97	21743
880.097	21549
880.224	21690
880.351	21698
880.478	21667
880.605	21477
880.732	21629
880.859	21922
880.986	21667
881.112	21618
881.239	21553
881.366	21351
881.493	21291
881.619	21192
881.746	21226
881.872	21150
881.999	21195
882.125	21108
882.252	21294
882.378	21089
882.505	21268
882.631	20986
882.757	21009
882.883	21161
883.01	20891
883.136	20811
883.262	20739
883.388	20777
883.514	20906
883.64	20975
883.766	20826
883.892	20804
884.018	20655
884.143	20864
884.269	20960
884.395	20663
884.52	20560
884.646	20613
884.772	20518
884.897	20461
885.023	20594
885.148	20606
885.274	20686
885.399	20629
885.524	20552
885.65	20590
885.775	20518
885.9	20499
886.025	20644
886.15	20644
886.275	20442
886.4	20526
886.525	20541
886.65	20518
886.775	20522
886.9	20621
887.025	20746
887.149	20568
887.274	20309
887.399	20313
887.523	20240
887.648	20202
887.773	20130
887.897	20377
888.021	20298
888.146	20278
888.27	20393
888.395	20404
888.519	20294
888.643	20389
888.767	20343
888.891	20244
889.015	20256
889.139	20187
889.263	20035
889.387	20206
889.511	20313
889.635	20252
889.759	20221
889.883	20069
890.006	20012
890.13	20191
890.254	20054
890.377	20073
890.501	19871
890.624	19837
890.748	19970
890.871	19913
890.995	19616
891.118	19681
891.241	19788
891.364	19658
891.488	19890
891.611	19700
891.734	19833
891.857	19704
891.98	19791
892.103	19841
892.226	19647
892.349	19666
892.471	19480
892.594	19628
892.717	19715
892.839	19632
892.962	19563
893.085	19681
893.207	19666
893.33	19552
893.452	19506
893.575	19757
893.697	19529
893.819	19845
893.941	19917
894.064	19761
894.186	19556
894.308	19491
894.43	19689
894.552	19742
894.674	19685
894.796	19464
894.918	19422
895.04	19514
895.161	19784
895.283	19651
895.405	19491
895.526	19681
895.648	19643
895.769	19643
895.891	19601
896.012	19788
896.134	19635
896.255	19655
896.376	19635
896.498	19624
896.619	19544
896.74	19613
896.861	19666
896.982	19909
897.103	20107
897.224	19925
897.345	19879
897.466	19868
897.587	19841
897.708	20012
897.828	19898
897.949	19852
898.07	19685
898.19	19803
898.311	19814
898.431	19818
898.552	19852
898.672	19909
898.792	20008
898.913	19898
899.033	19772
899.153	19761
899.273	19518
899.393	19693
899.513	19590
899.633	19609
899.753	19571
899.873	19563
899.993	19674
900.113	19559
900.232	19651
900.352	19575
900.472	19335
900.591	19308
900.711	19400
900.83	19419
900.95	19586
901.069	19434
901.189	19301
901.308	19034
901.427	18981
901.546	19027
901.665	19004
901.784	18970
901.904	18875
902.023	18776
902.141	18566
902.26	18525
902.379	18673
902.498	18536
902.617	18384
902.735	18585
902.854	18441
902.973	18391
903.091	18152
903.21	18197
903.328	18209
903.446	18060
903.565	18003
903.683	17973
903.801	17843
903.919	17977
904.038	17988
904.156	17608
904.274	17859
904.392	17684
904.51	17676
904.627	17786
904.745	17718
904.863	17809
904.981	17642
905.098	17524
905.216	17406
905.334	17539
905.451	17554
905.569	17398
905.686	17444
905.803	17482
905.921	17242
906.038	17395
906.155	17200
906.272	17151
906.389	17140
906.506	16881
906.623	17067
906.74	17041
906.857	16911
906.974	16877
907.091	17014
907.208	17113
907.324	17018
907.441	16881
907.557	16653
907.674	16729
907.79	16596
907.907	16573
908.023	16767
908.139	16660
908.256	16569
908.372	16588
908.488	16558
908.604	16409
908.72	16417
908.836	16527
908.952	16424
909.068	16440
909.184	16542
909.3	16402
909.415	16485
909.531	16337
909.647	16215
909.762	16139
909.878	16128
909.993	16131
910.108	16055
910.224	16071
910.339	16200
910.454	16002
910.57	15979
910.685	15850
910.8	16185
910.915	16067
911.03	15926
911.145	15755
911.259	15819
911.374	15705
911.489	15648
911.604	15644
911.718	15431
911.833	15519
911.947	15401
912.062	15374
912.176	15538
912.291	15595
912.405	15553
912.519	15656
912.633	15648
912.748	15561
912.862	15431
912.976	15313
913.09	15150
913.204	15264
913.318	15355
913.431	15378
913.545	15397
913.659	15488
913.772	15203
913.886	15081
914	15097
914.113	15218
914.226	15329
914.34	15245
914.453	15020
914.566	15184
914.68	15020
914.793	14937
914.906	14857
915.019	14697
915.132	14648
915.245	14625
915.358	14785
915.47	14781
915.583	14674
915.696	14739
915.809	14823
915.921	14937
916.034	14651
916.146	14549
916.259	14579
916.371	14693
916.483	14663
916.595	14621
916.708	14552
916.82	14659
916.932	14556
917.044	14564
917.156	14522
917.268	14343
917.38	14442
917.491	14336
917.603	14358
917.715	14541
917.826	14522
917.938	14362
918.049	14244
918.161	14393
918.272	14461
918.384	14537
918.495	14290
918.606	14256
918.717	14073
918.828	14214
918.939	14176
919.05	14065
919.161	14088
919.272	13902
919.383	14126
919.494	14157
919.604	14324
919.715	14149
919.826	14039
919.936	14111
920.047	14157
920.157	14096
920.267	14320
920.378	14168
920.488	14142
920.598	14301
920.708	14389
920.818	14271
920.928	14317
921.038	14526
921.148	14275
921.258	14039
921.368	14046
921.477	13947
921.587	13833
921.697	13772
921.806	13860
921.916	13761
922.025	13597
922.134	13582
922.244	13514
922.353	13613
922.462	13411
922.571	13331
922.68	13263
922.789	13194
922.898	13183
923.007	13084
923.116	13206
923.224	13175
923.333	13206
923.442	13065
923.55	13012
923.659	12954
923.767	13034
923.876	12989
923.984	12954
924.092	12901
924.201	12932
924.309	12901
924.417	12798
924.525	12745
924.633	12909
924.741	13734
924.849	12574
924.956	12821
925.064	12650
925.172	12601
925.279	12551
925.387	12662
925.494	12585
925.602	12726
925.709	12764
925.816	12544
925.924	12490
926.031	12684
926.138	12486
926.245	12608
926.352	12589
926.459	12532
926.566	12597
926.673	12525
926.779	12372
926.886	12380
926.993	12289
927.099	12163
927.206	12220
927.312	12144
927.419	12262
927.525	12140
927.631	12232
927.737	12148
927.843	12030
927.95	11935
928.056	11942
928.162	12060
928.267	12140
928.373	12707
928.479	12106
928.585	11878
928.69	12003
928.796	11996
928.901	11866
929.007	11832
929.112	11847
929.218	11722
929.323	11821
929.428	11748
929.533	11802
929.638	11646
929.743	11668
929.848	11684
929.953	11737
930.058	11649
930.163	11459
930.267	11463
930.372	11581
930.477	11398
930.581	11543
930.685	11512
930.79	11258
930.894	11356
930.998	11204
931.103	11379
931.207	11121
931.311	11056
931.415	10934
931.519	10660
931.623	10717
