Data from test_V78500241_2233.txt Node
Date: Fri Mar 25 15:25:24 CST 2022
User: usil
Spectrometer: V785-0024
Trigger mode: 0
Integration Time (sec): 4.000000E-1
Scans to average: 1
Nonlinearity correction enabled: false
Boxcar width: 0
Storing dark spectrum: false
XAxis mode: Wavelengths
Number of Pixels in Spectrum: 1024
>>>>>Begin Spectral Data<<<<<
801.071	27793
801.214	27774
801.356	27564
801.499	27344
801.641	27370
801.783	27264
801.926	27363
802.068	27294
802.211	27161
802.353	27146
802.496	27112
802.638	26925
802.78	26891
802.923	26933
803.065	26880
803.208	26925
803.35	26883
803.492	27077
803.635	27058
803.777	27028
803.919	27165
804.061	27481
804.204	27058
804.346	27070
804.488	26944
804.63	27089
804.773	27108
804.915	27051
805.057	27135
805.199	27135
805.341	27180
805.483	27275
805.626	27268
805.768	27176
805.91	27161
806.052	27207
806.194	27173
806.336	27492
806.478	27252
806.62	27237
806.762	27268
806.904	27557
807.046	27747
807.188	27618
807.33	27755
807.472	27701
807.614	27523
807.756	27496
807.898	27599
808.04	27519
808.182	27454
808.324	27526
808.465	27603
808.607	27747
808.749	27903
808.891	27994
809.033	27968
809.174	27895
809.316	27724
809.458	27876
809.6	28010
809.741	27998
809.883	27987
810.025	28204
810.166	28207
810.308	28291
810.45	28147
810.591	27994
810.733	27960
810.875	27816
811.016	27709
811.158	27618
811.299	27953
811.441	27899
811.582	27835
811.724	27888
811.865	27941
812.007	27873
812.148	27739
812.29	27865
812.431	28051
812.573	28162
812.714	28120
812.855	28253
812.997	28390
813.138	28599
813.279	28455
813.421	28424
813.562	28352
813.703	28249
813.845	28017
813.986	27793
814.127	27679
814.268	27545
814.41	27526
814.551	27538
814.692	27549
814.833	27519
814.974	27367
815.115	27660
815.256	27504
815.397	27405
815.539	27469
815.68	27287
815.821	27226
815.962	27469
816.103	27241
816.244	27214
816.385	27173
816.526	27077
816.666	26906
816.807	26819
816.948	26929
817.089	26842
817.23	26910
817.371	26861
817.512	26750
817.653	26834
817.793	26724
817.934	26777
818.075	26697
818.216	26804
818.356	26773
818.497	26796
818.638	26579
818.778	26594
818.919	26480
819.06	26632
819.2	26629
819.341	26769
819.481	26845
819.622	26979
819.762	27264
819.903	26979
820.043	27039
820.184	26971
820.324	26994
820.465	27005
820.605	26811
820.746	26872
820.886	26743
821.026	26990
821.167	26868
821.307	26956
821.447	26621
821.588	26746
821.728	26712
821.868	26503
822.008	26412
822.149	26453
822.289	26168
822.429	25951
822.569	25955
822.709	26088
822.849	25776
822.99	25856
823.13	25693
823.27	25674
823.41	25670
823.55	25559
823.69	25677
823.83	25674
823.97	25483
824.11	25297
824.25	25400
824.389	25403
824.529	25521
824.669	25438
824.809	25495
824.949	25434
825.089	25411
825.228	25468
825.368	25263
825.508	25396
825.648	25400
825.787	25358
825.927	25320
826.067	25274
826.206	25316
826.346	25362
826.485	25350
826.625	25274
826.765	25362
826.904	25476
827.044	25194
827.183	25103
827.323	24935
827.462	24966
827.601	24973
827.741	25103
827.88	24981
828.02	24890
828.159	24954
828.298	25069
828.437	24977
828.577	24947
828.716	25076
828.855	24894
828.994	24616
829.134	24749
829.273	24791
829.412	24574
829.551	24700
829.69	24798
829.829	24833
829.968	24833
830.107	24665
830.246	24703
830.385	24688
830.524	24604
830.663	24597
830.802	24384
830.941	24277
831.08	24330
831.219	24437
831.357	24422
831.496	24517
831.635	24403
831.774	24273
831.913	24251
832.051	24110
832.19	24053
832.329	24057
832.467	24087
832.606	24022
832.744	23908
832.883	23992
833.022	23988
833.16	24003
833.299	24022
833.437	24106
833.576	24018
833.714	24117
833.852	23984
833.991	23996
834.129	24079
834.267	24224
834.406	24007
834.544	24140
834.682	24106
834.821	24045
834.959	24121
835.097	24003
835.235	24091
835.373	24102
835.511	24018
835.65	23939
835.788	23893
835.926	23737
836.064	23821
836.202	23794
836.34	23939
836.478	24060
836.615	23965
836.753	23927
836.891	23931
837.029	23836
837.167	23786
837.305	23828
837.443	23798
837.58	23771
837.718	23912
837.856	23882
837.993	23802
838.131	23661
838.269	23600
838.406	23535
838.544	23707
838.681	23311
838.819	23383
838.956	23136
839.094	23208
839.231	23242
839.369	23288
839.506	23695
839.643	23516
839.781	23181
839.918	23212
840.055	23212
840.193	23200
840.33	23006
840.467	23128
840.604	23105
840.742	23269
840.879	22999
841.016	23090
841.153	23071
841.29	23151
841.427	23155
841.564	22980
841.701	23185
841.838	23113
841.975	22976
842.112	23067
842.249	22930
842.385	22911
842.522	23083
842.659	22961
842.796	22915
842.933	22866
843.069	22710
843.206	22805
843.343	22984
843.479	22702
843.616	22843
843.752	22691
843.889	22694
844.025	22904
844.162	22626
844.298	22687
844.435	22710
844.571	22622
844.708	22645
844.844	22736
844.98	22778
845.117	22637
845.253	22656
845.389	22546
845.525	22497
845.661	22577
845.798	22284
845.934	22447
846.07	22299
846.206	22485
846.342	22409
846.478	22314
846.614	22067
846.75	22067
846.886	22097
847.022	22257
847.158	22154
847.294	22013
847.429	22192
847.565	22112
847.701	22371
847.837	21945
847.972	21987
848.108	21983
848.244	21998
848.379	21755
848.515	21610
848.65	21606
848.786	21675
848.921	21686
849.057	21766
849.192	21728
849.328	21713
849.463	21633
849.598	21549
849.734	21694
849.869	21542
850.004	21420
850.14	21450
850.275	21519
850.41	21332
850.545	21287
850.68	21348
850.815	21488
850.95	21431
851.085	21698
851.22	21663
851.355	21488
851.49	21473
851.625	21252
851.76	21519
851.895	21393
852.03	21325
852.165	21374
852.299	21549
852.434	21561
852.569	21416
852.703	21481
852.838	21519
852.973	21587
853.107	21507
853.242	21283
853.376	21355
853.511	21241
853.645	21233
853.78	21447
853.914	21329
854.048	21283
854.183	21249
854.317	21370
854.451	21561
854.585	21256
854.72	21283
854.854	21226
854.988	21233
855.122	21378
855.256	21081
855.39	21294
855.524	21424
855.658	21477
855.792	21207
855.926	21428
856.06	21279
856.194	21287
856.327	21279
856.461	21230
856.595	21214
856.729	21260
856.862	21348
856.996	21412
857.13	21351
857.263	21428
857.397	21374
857.53	21264
857.664	21374
857.797	21405
857.931	21389
858.064	21287
858.197	21287
858.331	21226
858.464	21211
858.597	21199
858.731	21176
858.864	21157
858.997	21199
859.13	21203
859.263	21207
859.396	21359
859.529	21249
859.662	21176
859.795	21180
859.928	21310
860.061	21367
860.194	21549
860.327	21306
860.46	21237
860.592	21386
860.725	21443
860.858	21405
860.99	21203
861.123	21230
861.256	21306
861.388	21230
861.521	21846
861.653	21272
861.786	21112
861.918	21009
862.05	21176
862.183	21142
862.315	21283
862.447	21306
862.58	21184
862.712	20982
862.844	20872
862.976	21017
863.108	21104
863.24	21237
863.372	20838
863.504	20899
863.636	20971
863.768	20998
863.9	21039
864.032	20800
864.164	20956
864.296	21001
864.428	21142
864.559	21055
864.691	21047
864.823	21024
864.954	21013
865.086	21055
865.217	20807
865.349	20788
865.48	20796
865.612	20872
865.743	20967
865.875	20979
866.006	20861
866.137	20876
866.269	20895
866.4	20781
866.531	20800
866.662	20792
866.793	20830
866.924	20678
867.055	20754
867.186	20792
867.317	20663
867.448	20731
867.579	20743
867.71	20769
867.841	20708
867.972	20785
868.103	20929
868.233	20788
868.364	20819
868.495	20849
868.625	21077
868.756	21207
868.886	20975
869.017	21009
869.147	21135
869.278	21192
869.408	20948
869.539	21036
869.669	21203
869.799	21074
869.929	21207
870.06	21108
870.19	21367
870.32	21496
870.45	21443
870.58	21412
870.71	21557
870.84	21462
870.97	21473
871.1	21519
871.23	21675
871.36	21732
871.489	21507
871.619	21652
871.749	21568
871.879	21641
872.008	21686
872.138	21641
872.267	21656
872.397	21542
872.526	21545
872.656	21504
872.785	21519
872.915	21675
873.044	21732
873.173	21682
873.303	21778
873.432	21743
873.561	21705
873.69	21641
873.819	21629
873.948	21667
874.077	21739
874.206	21603
874.335	21724
874.464	21766
874.593	21675
874.722	21690
874.851	21793
874.979	21899
875.108	21975
875.237	21854
875.365	21732
875.494	21846
875.623	21934
875.751	21876
875.88	21857
876.008	22044
876.136	22055
876.265	22291
876.393	22405
876.521	22382
876.65	22261
876.778	22272
876.906	22211
877.034	22143
877.162	22238
877.29	22261
877.418	22253
877.546	22200
877.674	22166
877.802	22192
877.93	22162
878.058	22093
878.185	22093
878.313	22196
878.441	22310
878.568	21994
878.696	22299
878.824	22196
878.951	22424
879.079	22447
879.206	22421
879.333	22428
879.461	22207
879.588	22261
879.715	22531
879.842	22493
879.97	22226
880.097	22143
880.224	21934
880.351	22109
880.478	22154
880.605	21987
880.732	21987
880.859	22299
880.986	22002
881.112	22120
881.239	21895
881.366	21888
881.493	21690
881.619	21583
881.746	21808
881.872	21545
881.999	21686
882.125	21500
882.252	21599
882.378	21587
882.505	21663
882.631	21450
882.757	21272
882.883	21302
883.01	21298
883.136	21268
883.262	21146
883.388	21093
883.514	21207
883.64	21264
883.766	21306
883.892	21096
884.018	21150
884.143	21336
884.269	21241
884.395	21013
884.52	20861
884.646	20883
884.772	20815
884.897	20834
885.023	21123
885.148	21157
885.274	21058
885.399	21093
885.524	21013
885.65	20948
885.775	21005
885.9	21001
886.025	21127
886.15	21058
886.275	20826
886.4	20899
886.525	20883
886.65	20712
886.775	20880
886.9	20986
887.025	21085
887.149	20914
887.274	20708
887.399	20785
887.523	20796
887.648	20708
887.773	20678
887.897	20746
888.021	20815
888.146	20686
888.27	20864
888.395	20849
888.519	20800
888.643	20800
888.767	20777
888.891	20613
889.015	20564
889.139	20609
889.263	20423
889.387	20648
889.511	20758
889.635	20648
889.759	20518
889.883	20549
890.006	20583
890.13	20678
890.254	20522
890.377	20473
890.501	20248
890.624	20286
890.748	20305
890.871	20252
890.995	20111
891.118	20126
891.241	20069
891.364	20054
891.488	20161
891.611	20130
891.734	20073
891.857	20168
891.98	20183
892.103	20210
892.226	20210
892.349	20046
892.471	19921
892.594	20084
892.717	20046
892.839	20043
892.962	20054
893.085	20100
893.207	20119
893.33	20008
893.452	19970
893.575	20035
893.697	19974
893.819	20320
893.941	20199
894.064	20134
894.186	19860
894.308	19909
894.43	20100
894.552	20138
894.674	20214
894.796	19860
894.918	20024
895.04	19883
895.161	20046
895.283	20081
895.405	19879
895.526	20062
895.648	19883
895.769	19913
895.891	19932
896.012	20046
896.134	19921
896.255	20008
896.376	20031
896.498	20054
896.619	19913
896.74	20134
896.861	20031
896.982	20309
897.103	20419
897.224	20278
897.345	20229
897.466	20225
897.587	20195
897.708	20492
897.828	20252
897.949	20233
898.07	20145
898.19	20225
898.311	20336
898.431	20142
898.552	20191
898.672	20237
898.792	20320
898.913	20210
899.033	20187
899.153	19978
899.273	19955
899.393	19989
899.513	20050
899.633	20024
899.753	20050
899.873	19974
899.993	20138
900.113	19955
900.232	19940
900.352	19951
900.472	19871
900.591	19738
900.711	19772
900.83	19753
900.95	19856
901.069	19811
901.189	19632
901.308	19331
901.427	19297
901.546	19384
901.665	19403
901.784	19289
901.904	19228
902.023	19072
902.141	18886
902.26	18920
902.379	19046
902.498	18947
902.617	18844
902.735	18924
902.854	18897
902.973	18787
903.091	18506
903.21	18582
903.328	18433
903.446	18479
903.565	18391
903.683	18350
903.801	18235
903.919	18357
904.038	18308
904.156	18129
904.274	18110
904.392	18110
904.51	18098
904.627	18038
904.745	18129
904.863	18194
904.981	17874
905.098	17676
905.216	17859
905.334	17904
905.451	17786
905.569	17832
905.686	17840
905.803	17756
905.921	17535
906.038	17665
906.155	17604
906.272	17493
906.389	17414
906.506	17360
906.623	17284
906.74	17414
906.857	17079
906.974	17200
907.091	17433
907.208	17520
907.324	17299
907.441	17200
907.557	17090
907.674	17022
907.79	16911
907.907	16995
908.023	17090
908.139	16980
908.256	16987
908.372	16831
908.488	16881
908.604	16835
908.72	16805
908.836	16835
908.952	16771
909.068	16850
909.184	16790
909.3	16752
909.415	16790
909.531	16675
909.647	16516
909.762	16542
909.878	16394
909.993	16474
910.108	16375
910.224	16485
910.339	16424
910.454	16314
910.57	16329
910.685	16188
910.8	16447
910.915	16382
911.03	16242
911.145	16086
911.259	16017
911.374	16120
911.489	15941
911.604	15994
911.718	15793
911.833	15838
911.947	15739
912.062	15641
912.176	15774
912.291	15705
912.405	15774
912.519	15998
912.633	15892
912.748	15778
912.862	15850
912.976	15644
913.09	15515
913.204	15553
913.318	15625
913.431	15660
913.545	15660
913.659	15808
913.772	15717
913.886	15416
914	15397
914.113	15420
914.226	15523
914.34	15450
914.453	15348
914.566	15439
914.68	15431
914.793	15233
914.906	15055
915.019	14971
915.132	14982
915.245	14960
915.358	15161
915.47	15150
915.583	15062
915.696	15135
915.809	15165
915.921	15077
916.034	14937
916.146	14857
916.259	14861
916.371	15077
916.483	15005
916.595	14876
916.708	14914
916.82	14804
916.932	14826
917.044	14823
917.156	14861
917.268	14667
917.38	14712
917.491	14651
917.603	14727
917.715	14754
917.826	14762
917.938	14697
918.049	14514
918.161	14617
918.272	14826
918.384	14754
918.495	14682
918.606	14549
918.717	14457
918.828	14442
918.939	14533
919.05	14309
919.161	14438
919.272	14294
919.383	14309
919.494	14431
919.604	14617
919.715	14381
919.826	14362
919.936	14412
920.047	14476
920.157	14343
920.267	14625
920.378	14438
920.488	14332
920.598	14575
920.708	14720
920.818	14552
920.928	14533
921.038	14712
921.148	14613
921.258	14393
921.368	14229
921.477	14130
921.587	14256
921.697	13906
921.806	14103
921.916	14058
922.025	13868
922.134	13715
922.244	13769
922.353	13753
922.462	13666
922.571	13563
922.68	13525
922.789	13438
922.898	13422
923.007	13407
923.116	13476
923.224	13415
923.333	13301
923.442	13236
923.55	13194
923.659	13251
923.767	13346
923.876	13198
923.984	13282
924.092	13232
924.201	13209
924.309	13247
924.417	13240
924.525	13175
924.633	13069
924.741	13814
924.849	12943
924.956	13137
925.064	12924
925.172	12795
925.279	12802
925.387	12840
925.494	12859
925.602	13015
925.709	12825
925.816	12806
925.924	12764
926.031	12871
926.138	12802
926.245	12806
926.352	12662
926.459	12745
926.566	12859
926.673	12677
926.779	12612
926.886	12559
926.993	12460
927.099	12407
927.206	12403
927.312	12330
927.419	12426
927.525	12479
927.631	12486
927.737	12273
927.843	12315
927.95	12102
928.056	12171
928.162	12258
928.267	12388
928.373	12996
928.479	12350
928.585	12064
928.69	12224
928.796	12197
928.901	12125
929.007	11939
929.112	12022
929.218	12068
929.323	12041
929.428	11954
929.533	12076
929.638	11874
929.743	11916
929.848	11916
929.953	11885
930.058	11836
930.163	11642
930.267	11680
930.372	11805
930.477	11646
930.581	11855
930.685	11699
930.79	11566
930.894	11543
930.998	11592
931.103	11672
931.207	11277
931.311	11204
931.415	11147
931.519	10904
931.623	10892
