Data from test_V78500241_2375.txt Node
Date: Fri Mar 25 15:26:23 CST 2022
User: usil
Spectrometer: V785-0024
Trigger mode: 0
Integration Time (sec): 4.000000E-1
Scans to average: 1
Nonlinearity correction enabled: false
Boxcar width: 0
Storing dark spectrum: false
XAxis mode: Wavelengths
Number of Pixels in Spectrum: 1024
>>>>>Begin Spectral Data<<<<<
801.071	27443
801.214	27492
801.356	27298
801.499	27093
801.641	27066
801.783	27013
801.926	27051
802.068	27089
802.211	26902
802.353	26883
802.496	26777
802.638	26625
802.78	26617
802.923	26396
803.065	26598
803.208	26579
803.35	26735
803.492	26750
803.635	26842
803.777	26663
803.919	26758
804.061	27138
804.204	26902
804.346	26845
804.488	26731
804.63	26887
804.773	26830
804.915	26800
805.057	26956
805.199	26777
805.341	26986
805.483	26967
805.626	26845
805.768	26864
805.91	26891
806.052	26887
806.194	26899
806.336	26986
806.478	26883
806.62	26857
806.762	26899
806.904	27199
807.046	27450
807.188	27291
807.33	27359
807.472	27435
807.614	27370
807.756	27237
807.898	27104
808.04	27146
808.182	27039
808.324	27214
808.465	27089
808.607	27511
808.749	27450
808.891	27466
809.033	27755
809.174	27542
809.316	27344
809.458	27515
809.6	27466
809.741	27603
809.883	27610
810.025	27720
810.166	27869
810.308	27766
810.45	27797
810.591	27739
810.733	27637
810.875	27481
811.016	27256
811.158	27344
811.299	27511
811.441	27671
811.582	27587
811.724	27500
811.865	27431
812.007	27553
812.148	27511
812.29	27511
812.431	27679
812.573	27945
812.714	27876
812.855	27994
812.997	28276
813.138	28234
813.279	28204
813.421	28029
813.562	27934
813.703	27789
813.845	27701
813.986	27443
814.127	27340
814.268	27176
814.41	27241
814.551	27188
814.692	27173
814.833	27192
814.974	27020
815.115	27214
815.256	27089
815.397	26937
815.539	27028
815.68	26944
815.821	26960
815.962	26899
816.103	27028
816.244	26861
816.385	26667
816.526	26842
816.666	26556
816.807	26332
816.948	26514
817.089	26518
817.23	26453
817.371	26431
817.512	26343
817.653	26484
817.793	26431
817.934	26461
818.075	26434
818.216	26495
818.356	26351
818.497	26164
818.638	26214
818.778	26259
818.919	26183
819.06	26301
819.2	26396
819.341	26419
819.481	26469
819.622	26648
819.762	26815
819.903	26712
820.043	26765
820.184	26708
820.324	26480
820.465	26613
820.605	26488
820.746	26366
820.886	26404
821.026	26507
821.167	26560
821.307	26400
821.447	26377
821.588	26298
821.728	26172
821.868	26039
822.008	25902
822.149	25963
822.289	25989
822.429	25712
822.569	25590
822.709	25635
822.849	25476
822.99	25457
823.13	25327
823.27	25419
823.41	25327
823.55	25107
823.69	25289
823.83	25247
823.97	25141
824.11	25061
824.25	24951
824.389	24890
824.529	25171
824.669	25034
824.809	25122
824.949	25053
825.089	25091
825.228	25084
825.368	24970
825.508	24989
825.648	24856
825.787	24943
825.927	24977
826.067	24772
826.206	24741
826.346	24954
826.485	25000
826.625	24958
826.765	25091
826.904	24932
827.044	24741
827.183	24768
827.323	24521
827.462	24715
827.601	24669
827.741	24479
827.88	24589
828.02	24445
828.159	24597
828.298	24692
828.437	24711
828.577	24532
828.716	24692
828.855	24475
828.994	24327
829.134	24369
829.273	24498
829.412	24372
829.551	24216
829.69	24361
829.829	24300
829.968	24338
830.107	24437
830.246	24296
830.385	24308
830.524	24190
830.663	24117
830.802	24011
830.941	23958
831.08	24026
831.219	23904
831.357	24159
831.496	24159
831.635	23984
831.774	23866
831.913	23893
832.051	23752
832.19	23809
832.329	23916
832.467	23745
832.606	23707
832.744	23570
832.883	23581
833.022	23589
833.16	23630
833.299	23684
833.437	23691
833.576	23646
833.714	23726
833.852	23779
833.991	23779
834.129	23813
834.267	23805
834.406	23722
834.544	23729
834.682	23642
834.821	23649
834.959	23863
835.097	23680
835.235	23687
835.373	23707
835.511	23551
835.65	23539
835.788	23695
835.926	23376
836.064	23417
836.202	23414
836.34	23452
836.478	23589
836.615	23482
836.753	23474
836.891	23524
837.029	23695
837.167	23448
837.305	23364
837.443	23337
837.58	23421
837.718	23436
837.856	23433
837.993	23356
838.131	23258
838.269	23269
838.406	23326
838.544	23269
838.681	23124
838.819	22968
838.956	22839
839.094	22831
839.231	22835
839.369	23033
839.506	23292
839.643	23037
839.781	22889
839.918	22755
840.055	22946
840.193	22828
840.33	22892
840.467	22721
840.604	22824
840.742	23044
840.879	22622
841.016	22698
841.153	22752
841.29	22683
841.427	22698
841.564	22672
841.701	22839
841.838	22744
841.975	22626
842.112	22805
842.249	22535
842.385	22500
842.522	22588
842.659	22679
842.796	22489
842.933	22573
843.069	22337
843.206	22421
843.343	22561
843.479	22557
843.616	22478
843.752	22325
843.889	22413
844.025	22432
844.162	22287
844.298	22413
844.435	22322
844.571	22143
844.708	22276
844.844	22508
844.98	22516
845.117	22303
845.253	22303
845.389	22166
845.525	22124
845.661	22169
845.798	21991
845.934	21991
846.07	21934
846.206	22036
846.342	22067
846.478	22040
846.614	21846
846.75	21690
846.886	21739
847.022	21797
847.158	21827
847.294	21785
847.429	21854
847.565	21759
847.701	22063
847.837	21557
847.972	21458
848.108	21595
848.244	21538
848.379	21382
848.515	21424
848.65	21351
848.786	21241
848.921	21443
849.057	21492
849.192	21610
849.328	21458
849.463	21424
849.598	21325
849.734	21268
849.869	21214
850.004	21077
850.14	21184
850.275	21116
850.41	21093
850.545	21157
850.68	21146
850.815	21226
850.95	21169
851.085	21332
851.22	21230
851.355	21157
851.49	21218
851.625	21108
851.76	21108
851.895	21077
852.03	21089
852.165	21138
852.299	21116
852.434	21249
852.569	21077
852.703	21074
852.838	21150
852.973	21351
853.107	21226
853.242	21070
853.376	21085
853.511	20861
853.645	20948
853.78	21013
853.914	21005
854.048	20971
854.183	20941
854.317	21055
854.451	21260
854.585	20956
854.72	20952
854.854	21161
854.988	20994
855.122	20941
855.256	20906
855.39	20944
855.524	20971
855.658	21013
855.792	21013
855.926	21100
856.06	21001
856.194	21036
856.327	20998
856.461	21062
856.595	21043
856.729	21062
856.862	21192
856.996	21017
857.13	21119
857.263	21036
857.397	21024
857.53	20948
857.664	21135
857.797	21081
857.931	21184
858.064	21013
858.197	21104
858.331	20986
858.464	20967
858.597	20921
858.731	20918
858.864	21039
858.997	20899
859.13	20921
859.263	20914
859.396	21051
859.529	21047
859.662	20929
859.795	20944
859.928	21013
860.061	21256
860.194	21241
860.327	21036
860.46	20982
860.592	21135
860.725	21211
860.858	21085
860.99	20906
861.123	20876
861.256	20960
861.388	21028
861.521	21462
861.653	20883
861.786	20762
861.918	20731
862.05	21009
862.183	20857
862.315	20975
862.447	20990
862.58	20792
862.712	20693
862.844	20651
862.976	20811
863.108	20674
863.24	21176
863.372	20659
863.504	20693
863.636	20735
863.768	20720
863.9	20746
864.032	20765
864.164	20636
864.296	20758
864.428	20750
864.559	20872
864.691	20785
864.823	20842
864.954	20735
865.086	20750
865.217	20568
865.349	20617
865.48	20541
865.612	20560
865.743	20621
865.875	20670
866.006	20606
866.137	20659
866.269	20560
866.4	20598
866.531	20587
866.662	20454
866.793	20594
866.924	20488
867.055	20545
867.186	20552
867.317	20454
867.448	20495
867.579	20579
867.71	20488
867.841	20473
867.972	20526
868.103	20575
868.233	20568
868.364	20632
868.495	20621
868.625	20781
868.756	20842
868.886	20762
869.017	20746
869.147	21009
869.278	20941
869.408	20750
869.539	20819
869.669	20773
869.799	20864
869.929	20914
870.06	20826
870.19	21020
870.32	21176
870.45	20952
870.58	21009
870.71	21268
870.84	21291
870.97	21119
871.1	21150
871.23	21302
871.36	21275
871.489	21233
871.619	21302
871.749	21370
871.879	21370
872.008	21496
872.138	21393
872.267	21454
872.397	21283
872.526	21096
872.656	21252
872.785	21176
872.915	21507
873.044	21416
873.173	21355
873.303	21401
873.432	21428
873.561	21515
873.69	21405
873.819	21325
873.948	21542
874.077	21393
874.206	21279
874.335	21336
874.464	21572
874.593	21641
874.722	21629
874.851	21606
874.979	21759
875.108	21701
875.237	21713
875.365	21564
875.494	21663
875.623	21724
875.751	21572
875.88	21629
876.008	21728
876.136	21789
876.265	21941
876.393	22093
876.521	22181
876.65	22219
876.778	22021
876.906	21991
877.034	21831
877.162	21972
877.29	21926
877.418	22158
877.546	22048
877.674	21945
877.802	21998
877.93	22044
878.058	21987
878.185	21907
878.313	21941
878.441	22010
878.568	21835
878.696	21953
878.824	22017
878.951	22055
879.079	22242
879.206	22261
879.333	22124
879.461	22090
879.588	22051
879.715	22082
879.842	22265
879.97	22025
880.097	21789
880.224	21747
880.351	21755
880.478	21770
880.605	21797
880.732	21842
880.859	22013
880.986	21854
881.112	21884
881.239	21770
881.366	21622
881.493	21572
881.619	21367
881.746	21435
881.872	21332
881.999	21386
882.125	21408
882.252	21420
882.378	21450
882.505	21348
882.631	21207
882.757	21062
882.883	21066
883.01	21047
883.136	21062
883.262	21028
883.388	20876
883.514	21009
883.64	20941
883.766	21089
883.892	20914
884.018	20918
884.143	21051
884.269	21203
884.395	20743
884.52	20765
884.646	20750
884.772	20708
884.897	20609
885.023	20807
885.148	20895
885.274	20842
885.399	20807
885.524	20716
885.65	20773
885.775	20701
885.9	20583
886.025	20796
886.15	20792
886.275	20705
886.4	20686
886.525	20598
886.65	20655
886.775	20571
886.9	20792
887.025	21043
887.149	20758
887.274	20682
887.399	20503
887.523	20450
887.648	20442
887.773	20347
887.897	20606
888.021	20465
888.146	20427
888.27	20629
888.395	20522
888.519	20503
888.643	20446
888.767	20583
888.891	20408
889.015	20332
889.139	20389
889.263	20328
889.387	20450
889.511	20549
889.635	20415
889.759	20366
889.883	20305
890.006	20267
890.13	20362
890.254	20172
890.377	20233
890.501	20149
890.624	20111
890.748	20206
890.871	19940
890.995	19921
891.118	19845
891.241	20001
891.364	19963
891.488	20100
891.611	19955
891.734	19818
891.857	19928
891.98	19830
892.103	19791
892.226	19837
892.349	19890
892.471	19643
892.594	19734
892.717	19811
892.839	19738
892.962	19833
893.085	19723
893.207	19879
893.33	19734
893.452	19704
893.575	19852
893.697	19837
893.819	19974
893.941	20046
894.064	19887
894.186	19750
894.308	19776
894.43	19989
894.552	19936
894.674	19795
894.796	19674
894.918	19788
895.04	19738
895.161	19894
895.283	19837
895.405	19723
895.526	19822
895.648	19845
895.769	19738
895.891	19902
896.012	19902
896.134	19830
896.255	19921
896.376	19731
896.498	19746
896.619	19818
896.74	19750
896.861	19849
896.982	20092
897.103	20366
897.224	19955
897.345	20001
897.466	19898
897.587	20054
897.708	20134
897.828	20088
897.949	19898
898.07	19807
898.19	19887
898.311	20126
898.431	19944
898.552	19993
898.672	20111
898.792	20111
898.913	20043
899.033	19887
899.153	19780
899.273	19761
899.393	19799
899.513	19788
899.633	19761
899.753	19852
899.873	19685
899.993	19734
900.113	19666
900.232	19849
900.352	19746
900.472	19632
900.591	19537
900.711	19556
900.83	19499
900.95	19594
901.069	19658
901.189	19449
901.308	19346
901.427	19129
901.546	19091
901.665	19122
901.784	19247
901.904	19019
902.023	18878
902.141	18867
902.26	18700
902.379	18764
902.498	18738
902.617	18612
902.735	18665
902.854	18635
902.973	18574
903.091	18369
903.21	18399
903.328	18330
903.446	18197
903.565	18174
903.683	18205
903.801	18030
903.919	18209
904.038	18026
904.156	17973
904.274	17965
904.392	17897
904.51	17836
904.627	17939
904.745	17999
904.863	17961
904.981	17741
905.098	17486
905.216	17573
905.334	17672
905.451	17573
905.569	17551
905.686	17676
905.803	17642
905.921	17440
906.038	17543
906.155	17318
906.272	17353
906.389	17315
906.506	17147
906.623	17117
906.74	17117
906.857	17124
906.974	17025
907.091	17227
907.208	17151
907.324	17094
907.441	17037
907.557	16953
907.674	16896
907.79	16782
907.907	16752
908.023	16915
908.139	16824
908.256	16786
908.372	16710
908.488	16717
908.604	16603
908.72	16523
908.836	16569
908.952	16592
909.068	16527
909.184	16645
909.3	16603
909.415	16626
909.531	16561
909.647	16261
909.762	16287
909.878	16215
909.993	16356
910.108	16192
910.224	16226
910.339	16207
910.454	16177
910.57	16051
910.685	15998
910.8	16352
910.915	16226
911.03	16067
911.145	15937
911.259	15926
911.374	15876
911.489	15831
911.604	15713
911.718	15679
911.833	15667
911.947	15572
912.062	15454
912.176	15622
912.291	15618
912.405	15568
912.519	15770
912.633	15732
912.748	15690
912.862	15698
912.976	15469
913.09	15355
913.204	15401
913.318	15428
913.431	15545
913.545	15511
913.659	15485
913.772	15363
913.886	15272
914	15230
914.113	15245
914.226	15355
914.34	15329
914.453	15131
914.566	15275
914.68	15112
914.793	15161
914.906	14906
915.019	14902
915.132	14811
915.245	14891
915.358	14933
915.47	14807
915.583	14872
915.696	14842
915.809	14994
915.921	15039
916.034	14792
916.146	14659
916.259	14663
916.371	14857
916.483	14792
916.595	14644
916.708	14610
916.82	14636
916.932	14598
917.044	14613
917.156	14610
917.268	14526
917.38	14522
917.491	14571
917.603	14526
917.715	14670
917.826	14636
917.938	14492
918.049	14317
918.161	14377
918.272	14629
918.384	14530
918.495	14492
918.606	14301
918.717	14195
918.828	14336
918.939	14294
919.05	14202
919.161	14305
919.272	14084
919.383	14096
919.494	14301
919.604	14514
919.715	14210
919.826	14107
919.936	14157
920.047	14374
920.157	14282
920.267	14385
920.378	14286
920.488	14157
920.598	14431
920.708	14537
920.818	14442
920.928	14431
921.038	14552
921.148	14469
921.258	14244
921.368	14130
921.477	13993
921.587	13959
921.697	13887
921.806	14058
921.916	13799
922.025	13689
922.134	13731
922.244	13601
922.353	13750
922.462	13559
922.571	13434
922.68	13293
922.789	13373
922.898	13362
923.007	13198
923.116	13327
923.224	13304
923.333	13228
923.442	13160
923.55	13126
923.659	13171
923.767	13255
923.876	13141
923.984	13190
924.092	13027
924.201	12962
924.309	13126
924.417	13126
924.525	12913
924.633	12996
924.741	13936
924.849	12852
924.956	12947
925.064	12741
925.172	12711
925.279	12612
925.387	12787
925.494	12677
925.602	12920
925.709	12772
925.816	12654
925.924	12738
926.031	12738
926.138	12684
926.245	12749
926.352	12582
926.459	12764
926.566	12726
926.673	12597
926.779	12570
926.886	12380
926.993	12365
927.099	12372
927.206	12232
927.312	12296
927.419	12361
927.525	12289
927.631	12296
927.737	12186
927.843	12178
927.95	12133
928.056	12175
928.162	12129
928.267	12205
928.373	12802
928.479	12140
928.585	12060
928.69	12022
928.796	12163
928.901	11973
929.007	11836
929.112	12003
929.218	11916
929.323	11958
929.428	11863
929.533	11965
929.638	11920
929.743	11843
929.848	11859
929.953	11745
930.058	11741
930.163	11490
930.267	11623
930.372	11745
930.477	11634
930.581	11699
930.685	11638
930.79	11509
930.894	11471
930.998	11429
931.103	11539
931.207	11250
931.311	11121
931.415	11025
931.519	10900
931.623	10801
