Data from test_V78500241_3364.txt Node
Date: Fri Mar 25 15:33:17 CST 2022
User: usil
Spectrometer: V785-0024
Trigger mode: 0
Integration Time (sec): 4.000000E-1
Scans to average: 1
Nonlinearity correction enabled: false
Boxcar width: 0
Storing dark spectrum: false
XAxis mode: Wavelengths
Number of Pixels in Spectrum: 1024
>>>>>Begin Spectral Data<<<<<
801.071	27142
801.214	27039
801.356	26823
801.499	26781
801.641	26697
801.783	26739
801.926	26777
802.068	26625
802.211	26651
802.353	26632
802.496	26488
802.638	26294
802.78	26309
802.923	26305
803.065	26218
803.208	26168
803.35	26374
803.492	26381
803.635	26461
803.777	26256
803.919	26461
804.061	26872
804.204	26609
804.346	26412
804.488	26305
804.63	26377
804.773	26377
804.915	26507
805.057	26461
805.199	26377
805.341	26537
805.483	26636
805.626	26541
805.768	26469
805.91	26461
806.052	26606
806.194	26530
806.336	26693
806.478	26583
806.62	26556
806.762	26613
806.904	26667
807.046	27039
807.188	26940
807.33	27024
807.472	27112
807.614	26735
807.756	26823
807.898	26796
808.04	26746
808.182	26727
808.324	26807
808.465	26887
808.607	27039
808.749	27199
808.891	27188
809.033	27279
809.174	27317
809.316	27039
809.458	27287
809.6	27252
809.741	27279
809.883	27313
810.025	27443
810.166	27344
810.308	27538
810.45	27249
810.591	27374
810.733	27245
810.875	27199
811.016	27108
811.158	27047
811.299	27104
811.441	27230
811.582	27344
811.724	27184
811.865	27070
812.007	27009
812.148	27211
812.29	27256
812.431	27291
812.573	27397
812.714	27469
812.855	27835
812.997	27751
813.138	27793
813.279	27823
813.421	27720
813.562	27603
813.703	27458
813.845	27332
813.986	26861
814.127	26826
814.268	26906
814.41	26845
814.551	26792
814.692	26864
814.833	26632
814.974	26701
815.115	26804
815.256	26727
815.397	26659
815.539	26705
815.68	26606
815.821	26533
815.962	26594
816.103	26590
816.244	26389
816.385	26237
816.526	26172
816.666	26164
816.807	26054
816.948	26187
817.089	26077
817.23	25963
817.371	26005
817.512	26016
817.653	26046
817.793	26012
817.934	26084
818.075	26020
818.216	26065
818.356	25921
818.497	25947
818.638	25814
818.778	25757
818.919	25826
819.06	25852
819.2	25818
819.341	25974
819.481	26077
819.622	26229
819.762	26351
819.903	26317
820.043	26263
820.184	26130
820.324	26180
820.465	26225
820.605	26058
820.746	26111
820.886	26092
821.026	26214
821.167	26122
821.307	26168
821.447	25993
821.588	26024
821.728	25940
821.868	25693
822.008	25453
822.149	25483
822.289	25449
822.429	25263
822.569	25171
822.709	25255
822.849	24977
822.99	24985
823.13	25004
823.27	24897
823.41	24943
823.55	24688
823.69	24867
823.83	24913
823.97	24783
824.11	24608
824.25	24631
824.389	24684
824.529	24738
824.669	24665
824.809	24768
824.949	24745
825.089	24856
825.228	24741
825.368	24555
825.508	24426
825.648	24528
825.787	24547
825.927	24623
826.067	24414
826.206	24540
826.346	24582
826.485	24513
826.625	24566
826.765	24688
826.904	24498
827.044	24281
827.183	24365
827.323	24270
827.462	24327
827.601	24311
827.741	24163
827.88	24254
828.02	24038
828.159	24277
828.298	24308
828.437	24384
828.577	24171
828.716	24323
828.855	24243
828.994	23908
829.134	23996
829.273	23935
829.412	24003
829.551	24007
829.69	24064
829.829	23984
829.968	24068
830.107	24053
830.246	24041
830.385	23969
830.524	23912
830.663	23851
830.802	23737
830.941	23615
831.08	23649
831.219	23627
831.357	23684
831.496	23646
831.635	23516
831.774	23520
831.913	23433
832.051	23402
832.19	23330
832.329	23474
832.467	23284
832.606	23299
832.744	23235
832.883	23364
833.022	23143
833.16	23273
833.299	23307
833.437	23227
833.576	23356
833.714	23376
833.852	23368
833.991	23334
834.129	23554
834.267	23505
834.406	23277
834.544	23330
834.682	23341
834.821	23288
834.959	23417
835.097	23318
835.235	23482
835.373	23410
835.511	23417
835.65	23250
835.788	23147
835.926	23075
836.064	23044
836.202	22961
836.34	23185
836.478	23334
836.615	23471
836.753	23200
836.891	23227
837.029	23121
837.167	23204
837.305	23071
837.443	23090
837.58	23014
837.718	23006
837.856	22900
837.993	23006
838.131	23109
838.269	22980
838.406	22923
838.544	22854
838.681	22668
838.819	22675
838.956	22626
839.094	22497
839.231	22687
839.369	22664
839.506	22786
839.643	22752
839.781	22535
839.918	22447
840.055	22561
840.193	22497
840.33	22432
840.467	22356
840.604	22470
840.742	22790
840.879	22284
841.016	22382
841.153	22379
841.29	22485
841.427	22455
841.564	22527
841.701	22500
841.838	22508
841.975	22329
842.112	22207
842.249	22386
842.385	22219
842.522	22405
842.659	22230
842.796	22238
842.933	22135
843.069	22147
843.206	22215
843.343	22276
843.479	22185
843.616	22196
843.752	21994
843.889	21922
844.025	22196
844.162	22032
844.298	22086
844.435	21903
844.571	22025
844.708	22093
844.844	22207
844.98	22162
845.117	22032
845.253	21994
845.389	21831
845.525	21907
845.661	21842
845.798	21663
845.934	21781
846.07	21755
846.206	21899
846.342	21778
846.478	21675
846.614	21576
846.75	21473
846.886	21462
847.022	21576
847.158	21473
847.294	21485
847.429	21500
847.565	21507
847.701	21770
847.837	21279
847.972	21195
848.108	21420
848.244	21218
848.379	21108
848.515	21161
848.65	20975
848.786	21066
848.921	21135
849.057	21184
849.192	21123
849.328	21055
849.463	21062
849.598	21005
849.734	21005
849.869	21013
850.004	20845
850.14	20804
850.275	20838
850.41	20872
850.545	20724
850.68	20823
850.815	20891
850.95	20762
851.085	20925
851.22	20967
851.355	20765
851.49	20815
851.625	20826
851.76	20807
851.895	20674
852.03	20689
852.165	20811
852.299	20735
852.434	20838
852.569	20967
852.703	20834
852.838	20952
852.973	20899
853.107	20948
853.242	20773
853.376	20716
853.511	20431
853.645	20617
853.78	20842
853.914	20678
854.048	20606
854.183	20682
854.317	20632
854.451	20845
854.585	20716
854.72	20625
854.854	20727
854.988	20636
855.122	20583
855.256	20503
855.39	20640
855.524	20651
855.658	20727
855.792	20621
855.926	20716
856.06	20762
856.194	20674
856.327	20644
856.461	20606
856.595	20541
856.729	20575
856.862	20655
856.996	20746
857.13	20724
857.263	20758
857.397	20735
857.53	20583
857.664	20788
857.797	20769
857.931	20731
858.064	20590
858.197	20830
858.331	20724
858.464	20549
858.597	20549
858.731	20492
858.864	20689
858.997	20598
859.13	20792
859.263	20830
859.396	20697
859.529	20537
859.662	20602
859.795	20484
859.928	20686
860.061	20902
860.194	20849
860.327	20800
860.46	20701
860.592	20807
860.725	20899
860.858	20724
860.99	20697
861.123	20492
861.256	20480
861.388	20629
861.521	21348
861.653	20545
861.786	20484
861.918	20522
862.05	20590
862.183	20716
862.315	20571
862.447	20708
862.58	20609
862.712	20473
862.844	20381
862.976	20617
863.108	20556
863.24	20765
863.372	20305
863.504	20423
863.636	20282
863.768	20423
863.9	20446
864.032	20320
864.164	20301
864.296	20454
864.428	20503
864.559	20412
864.691	20514
864.823	20389
864.954	20351
865.086	20317
865.217	20347
865.349	20161
865.48	20244
865.612	20317
865.743	20396
865.875	20305
866.006	20275
866.137	20294
866.269	20286
866.4	20343
866.531	20180
866.662	20214
866.793	20199
866.924	20115
867.055	20259
867.186	20320
867.317	20218
867.448	20088
867.579	20164
867.71	20187
867.841	20054
867.972	20294
868.103	20164
868.233	20229
868.364	20237
868.495	20355
868.625	20408
868.756	20549
868.886	20408
869.017	20503
869.147	20526
869.278	20602
869.408	20549
869.539	20488
869.669	20526
869.799	20522
869.929	20537
870.06	20461
870.19	20769
870.32	20708
870.45	20834
870.58	20838
870.71	20982
870.84	21005
870.97	20743
871.1	20834
871.23	21024
871.36	21066
871.489	20960
871.619	21085
871.749	21096
871.879	21123
872.008	21150
872.138	21055
872.267	21066
872.397	21036
872.526	20834
872.656	20948
872.785	20944
872.915	21104
873.044	21135
873.173	20944
873.303	21058
873.432	21138
873.561	21241
873.69	21116
873.819	21173
873.948	21112
874.077	21043
874.206	20994
874.335	21074
874.464	21214
874.593	21214
874.722	21249
874.851	21477
874.979	21344
875.108	21310
875.237	21268
875.365	21306
875.494	21416
875.623	21386
875.751	21336
875.88	21428
876.008	21641
876.136	21538
876.265	21800
876.393	21850
876.521	21899
876.65	21709
876.778	21755
876.906	21755
877.034	21728
877.162	21739
877.29	21652
877.418	21713
877.546	21599
877.674	21808
877.802	21701
877.93	21713
878.058	21587
878.185	21660
878.313	21690
878.441	21587
878.568	21500
878.696	21530
878.824	21800
878.951	21785
879.079	21857
879.206	21949
879.333	21918
879.461	21637
879.588	21736
879.715	21728
879.842	22078
879.97	21724
880.097	21519
880.224	21542
880.351	21576
880.478	21492
880.605	21374
880.732	21576
880.859	21644
880.986	21538
881.112	21587
881.239	21237
881.366	21222
881.493	21119
881.619	21188
881.746	21024
881.872	21161
881.999	21074
882.125	21013
882.252	21009
882.378	20986
882.505	21142
882.631	20921
882.757	20944
882.883	20979
883.01	20811
883.136	20693
883.262	20689
883.388	20602
883.514	20765
883.64	20842
883.766	20762
883.892	20651
884.018	20632
884.143	20750
884.269	20853
884.395	20625
884.52	20317
884.646	20476
884.772	20434
884.897	20351
885.023	20366
885.148	20667
885.274	20564
885.399	20629
885.524	20450
885.65	20385
885.775	20427
885.9	20438
886.025	20739
886.15	20564
886.275	20396
886.4	20298
886.525	20415
886.65	20419
886.775	20317
886.9	20518
887.025	20617
887.149	20400
887.274	20221
887.399	20358
887.523	20164
887.648	20153
887.773	20126
887.897	20256
888.021	20248
888.146	20259
888.27	20263
888.395	20347
888.519	20119
888.643	20233
888.767	20199
888.891	20191
889.015	20035
889.139	19989
889.263	19974
889.387	20062
889.511	20252
889.635	20199
889.759	20035
889.883	19947
890.006	20103
890.13	20058
890.254	19860
890.377	19936
890.501	19776
890.624	19731
890.748	19849
890.871	19594
890.995	19575
891.118	19559
891.241	19655
891.364	19635
891.488	19624
891.611	19624
891.734	19635
891.857	19628
891.98	19605
892.103	19647
892.226	19533
892.349	19510
892.471	19426
892.594	19453
892.717	19575
892.839	19377
892.962	19552
893.085	19533
893.207	19544
893.33	19354
893.452	19362
893.575	19464
893.697	19472
893.819	19708
893.941	19750
894.064	19643
894.186	19540
894.308	19377
894.43	19708
894.552	19681
894.674	19544
894.796	19464
894.918	19514
895.04	19441
895.161	19696
895.283	19571
895.405	19487
895.526	19365
895.648	19483
895.769	19537
895.891	19548
896.012	19559
896.134	19514
896.255	19400
896.376	19495
896.498	19624
896.619	19518
896.74	19552
896.861	19495
896.982	19814
897.103	20001
897.224	19845
897.345	19765
897.466	19677
897.587	19715
897.708	19909
897.828	19811
897.949	19712
898.07	19700
898.19	19708
898.311	19947
898.431	19731
898.552	19734
898.672	19807
898.792	19860
898.913	19833
899.033	19620
899.153	19540
899.273	19377
899.393	19590
899.513	19540
899.633	19499
899.753	19434
899.873	19548
899.993	19537
900.113	19457
900.232	19567
900.352	19419
900.472	19316
900.591	19244
900.711	19308
900.83	19297
900.95	19331
901.069	19415
901.189	19152
901.308	18928
901.427	18973
901.546	18913
901.665	18886
901.784	18909
901.904	18631
902.023	18635
902.141	18521
902.26	18422
902.379	18536
902.498	18422
902.617	18418
902.735	18448
902.854	18334
902.973	18410
903.091	18110
903.21	18022
903.328	18095
903.446	17973
903.565	17904
903.683	17889
903.801	17771
903.919	17798
904.038	17836
904.156	17703
904.274	17783
904.392	17634
904.51	17577
904.627	17619
904.745	17741
904.863	17627
904.981	17421
905.098	17315
905.216	17376
905.334	17341
905.451	17341
905.569	17277
905.686	17368
905.803	17330
905.921	17109
906.038	17288
906.155	17136
906.272	17090
906.389	17022
906.506	16904
906.623	16866
906.74	16847
906.857	16835
906.974	16809
907.091	16946
907.208	17052
907.324	16801
907.441	16850
907.557	16611
907.674	16691
907.79	16561
907.907	16721
908.023	16675
908.139	16538
908.256	16535
908.372	16615
908.488	16443
908.604	16295
908.72	16291
908.836	16329
908.952	16318
909.068	16333
909.184	16402
909.3	16341
909.415	16398
909.531	16371
909.647	16143
909.762	16013
909.878	15884
909.993	16036
910.108	15964
910.224	15945
910.339	16063
910.454	15915
910.57	15846
910.685	15797
910.8	16078
910.915	16013
911.03	15850
911.145	15660
911.259	15747
911.374	15587
911.489	15701
911.604	15523
911.718	15408
911.833	15348
911.947	15336
912.062	15340
912.176	15439
912.291	15477
912.405	15466
912.519	15603
912.633	15625
912.748	15473
912.862	15363
912.976	15306
913.09	15081
913.204	15230
913.318	15291
913.431	15317
913.545	15249
913.659	15222
913.772	15268
913.886	15055
914	15013
914.113	15184
914.226	15131
914.34	15089
914.453	15009
914.566	15036
914.68	14990
914.793	14857
914.906	14758
915.019	14587
915.132	14590
915.245	14648
915.358	14632
915.47	14568
915.583	14678
915.696	14613
915.809	14705
915.921	14830
916.034	14541
916.146	14499
916.259	14473
916.371	14590
916.483	14465
916.595	14518
916.708	14442
916.82	14549
916.932	14438
917.044	14408
917.156	14400
917.268	14339
917.38	14347
917.491	14278
917.603	14301
917.715	14362
917.826	14415
917.938	14263
918.049	14202
918.161	14286
918.272	14374
918.384	14282
918.495	14233
918.606	14138
918.717	14001
918.828	14176
918.939	14183
919.05	14096
919.161	14065
919.272	13978
919.383	13879
919.494	14191
919.604	14347
919.715	14012
919.826	13986
919.936	13887
920.047	14084
920.157	14039
920.267	14164
920.378	14050
920.488	14008
920.598	14195
920.708	14290
920.818	14164
920.928	14210
921.038	14454
921.148	14305
921.258	13947
921.368	13936
921.477	13757
921.587	13795
921.697	13693
921.806	13807
921.916	13769
922.025	13449
922.134	13487
922.244	13350
922.353	13491
922.462	13324
922.571	13331
922.68	13171
922.789	13091
922.898	13084
923.007	13034
923.116	13160
923.224	13145
923.333	13031
923.442	13031
923.55	12989
923.659	12837
923.767	12970
923.876	12886
923.984	12985
924.092	12810
924.201	12913
924.309	12871
924.417	12825
924.525	12760
924.633	12726
924.741	13769
924.849	12604
924.956	12772
925.064	12563
925.172	12456
925.279	12555
925.387	12627
925.494	12540
925.602	12715
925.709	12563
925.816	12456
925.924	12578
926.031	12635
926.138	12464
926.245	12589
926.352	12441
926.459	12433
926.566	12582
926.673	12445
926.779	12239
926.886	12273
926.993	12171
927.099	12121
927.206	12133
927.312	12129
927.419	12213
927.525	12106
927.631	12117
927.737	12049
927.843	11969
927.95	11821
928.056	11950
928.162	11942
928.267	12034
928.373	12532
928.479	12049
928.585	11783
928.69	11931
928.796	12003
928.901	11832
929.007	11733
929.112	11748
929.218	11767
929.323	11718
929.428	11672
929.533	11794
929.638	11585
929.743	11611
929.848	11668
929.953	11665
930.058	11611
930.163	11379
930.267	11436
930.372	11509
930.477	11368
930.581	11581
930.685	11471
930.79	11197
930.894	11288
930.998	11170
931.103	11406
931.207	11018
931.311	10968
931.415	10885
931.519	10664
931.623	10653
