Data from test_V78500241_3197.txt Node
Date: Fri Mar 25 15:32:07 CST 2022
User: usil
Spectrometer: V785-0024
Trigger mode: 0
Integration Time (sec): 4.000000E-1
Scans to average: 1
Nonlinearity correction enabled: false
Boxcar width: 0
Storing dark spectrum: false
XAxis mode: Wavelengths
Number of Pixels in Spectrum: 1024
>>>>>Begin Spectral Data<<<<<
801.071	26982
801.214	26773
801.356	26781
801.499	26609
801.641	26488
801.783	26480
801.926	26549
802.068	26457
802.211	26351
802.353	26404
802.496	26130
802.638	26187
802.78	25944
802.923	26191
803.065	26043
803.208	26073
803.35	26039
803.492	26122
803.635	26278
803.777	26100
803.919	26252
804.061	26438
804.204	26400
804.346	26237
804.488	26077
804.63	26278
804.773	26077
804.915	26168
805.057	26259
805.199	26218
805.341	26252
805.483	26377
805.626	26427
805.768	26221
805.91	26366
806.052	26461
806.194	26309
806.336	26400
806.478	26408
806.62	26259
806.762	26305
806.904	26609
807.046	26769
807.188	26929
807.33	26701
807.472	26754
807.614	26750
807.756	26705
807.898	26549
808.04	26473
808.182	26533
808.324	26579
808.465	26583
808.607	26830
808.749	26868
808.891	27058
809.033	27043
809.174	26861
809.316	26861
809.458	26933
809.6	26864
809.741	26899
809.883	27001
810.025	27123
810.166	27222
810.308	27218
810.45	27173
810.591	27100
810.733	26815
810.875	26967
811.016	26735
811.158	26773
811.299	27081
811.441	27024
811.582	27032
811.724	26887
811.865	26826
812.007	26929
812.148	26853
812.29	27005
812.431	27043
812.573	27336
812.714	27264
812.855	27348
812.997	27363
813.138	27644
813.279	27492
813.421	27363
813.562	27340
813.703	27123
813.845	27150
813.986	26872
814.127	26621
814.268	26575
814.41	26659
814.551	26629
814.692	26541
814.833	26587
814.974	26488
815.115	26651
815.256	26423
815.397	26488
815.539	26377
815.68	26305
815.821	26046
815.962	26339
816.103	26396
816.244	26168
816.385	26046
816.526	26164
816.666	25894
816.807	25795
816.948	25909
817.089	25833
817.23	25731
817.371	25681
817.512	25830
817.653	25677
817.793	25708
817.934	25715
818.075	25837
818.216	25871
818.356	25833
818.497	25670
818.638	25487
818.778	25556
818.919	25468
819.06	25563
819.2	25597
819.341	25784
819.481	25780
819.622	25818
819.762	26069
819.903	25951
820.043	25966
820.184	25837
820.324	25837
820.465	25959
820.605	25906
820.746	25822
820.886	25712
821.026	25928
821.167	25780
821.307	26005
821.447	25776
821.588	25540
821.728	25582
821.868	25407
822.008	25171
822.149	25270
822.289	25266
822.429	24901
822.569	24939
822.709	24947
822.849	24810
822.99	24806
823.13	24791
823.27	24684
823.41	24604
823.55	24528
823.69	24566
823.83	24604
823.97	24380
824.11	24395
824.25	24319
824.389	24418
824.529	24536
824.669	24464
824.809	24593
824.949	24429
825.089	24437
825.228	24464
825.368	24133
825.508	24266
825.648	24251
825.787	24311
825.927	24285
826.067	24273
826.206	24300
826.346	24285
826.485	24327
826.625	24247
826.765	24308
826.904	24273
827.044	24007
827.183	24034
827.323	23885
827.462	24072
827.601	24060
827.741	23863
827.88	23927
828.02	23882
828.159	23897
828.298	23973
828.437	23980
828.577	23973
828.716	24087
828.855	23901
828.994	23707
829.134	23684
829.273	23642
829.412	23539
829.551	23649
829.69	23592
829.829	23638
829.968	23798
830.107	23783
830.246	23668
830.385	23566
830.524	23566
830.663	23524
830.802	23524
830.941	23402
831.08	23311
831.219	23467
831.357	23391
831.496	23581
831.635	23334
831.774	23136
831.913	23193
832.051	23064
832.19	23166
832.329	23128
832.467	22927
832.606	22942
832.744	22847
832.883	22923
833.022	23022
833.16	22938
833.299	22984
833.437	22968
833.576	23041
833.714	23102
833.852	23105
833.991	23094
834.129	23113
834.267	23185
834.406	23121
834.544	23147
834.682	23029
834.821	23014
834.959	23284
835.097	22965
835.235	23212
835.373	23109
835.511	23018
835.65	23121
835.788	22930
835.926	22790
836.064	22668
836.202	22847
836.34	22801
836.478	23056
836.615	22930
836.753	22854
836.891	22953
837.029	22885
837.167	22698
837.305	22843
837.443	22694
837.58	22847
837.718	22740
837.856	22877
837.993	22664
838.131	22706
838.269	22656
838.406	22596
838.544	22599
838.681	22466
838.819	22409
838.956	22234
839.094	22291
839.231	22299
839.369	22367
839.506	22459
839.643	22428
839.781	22249
839.918	22261
840.055	22181
840.193	22204
840.33	22147
840.467	22154
840.604	22238
840.742	22565
840.879	22040
841.016	22131
841.153	22124
841.29	22295
841.427	22040
841.564	22173
841.701	22242
841.838	22192
841.975	22036
842.112	22040
842.249	21949
842.385	21880
842.522	22276
842.659	21987
842.796	21922
842.933	22032
843.069	21835
843.206	21895
843.343	22044
843.479	22059
843.616	21918
843.752	21606
843.889	21850
844.025	21869
844.162	21728
844.298	21846
844.435	21618
844.571	21774
844.708	21660
844.844	21964
844.98	21781
845.117	21762
845.253	21625
845.389	21545
845.525	21606
845.661	21507
845.798	21454
845.934	21526
846.07	21355
846.206	21412
846.342	21641
846.478	21447
846.614	21283
846.75	21291
846.886	21146
847.022	21249
847.158	21287
847.294	21127
847.429	21112
847.565	21169
847.701	21435
847.837	20921
847.972	20838
848.108	21043
848.244	21039
848.379	20765
848.515	20830
848.65	20769
848.786	20895
848.921	20868
849.057	20804
849.192	20929
849.328	20826
849.463	20750
849.598	20705
849.734	20678
849.869	20625
850.004	20621
850.14	20667
850.275	20583
850.41	20568
850.545	20564
850.68	20587
850.815	20545
850.95	20530
851.085	20853
851.22	20651
851.355	20609
851.49	20495
851.625	20476
851.76	20533
851.895	20442
852.03	20488
852.165	20518
852.299	20602
852.434	20746
852.569	20739
852.703	20598
852.838	20659
852.973	20701
853.107	20705
853.242	20560
853.376	20480
853.511	20298
853.645	20404
853.78	20507
853.914	20400
854.048	20317
854.183	20385
854.317	20476
854.451	20594
854.585	20358
854.72	20457
854.854	20590
854.988	20400
855.122	20377
855.256	20336
855.39	20358
855.524	20465
855.658	20507
855.792	20476
855.926	20454
856.06	20526
856.194	20412
856.327	20465
856.461	20317
856.595	20290
856.729	20381
856.862	20514
856.996	20385
857.13	20442
857.263	20564
857.397	20446
857.53	20377
857.664	20457
857.797	20450
857.931	20488
858.064	20393
858.197	20518
858.331	20511
858.464	20358
858.597	20267
858.731	20412
858.864	20530
858.997	20408
859.13	20427
859.263	20393
859.396	20530
859.529	20389
859.662	20434
859.795	20332
859.928	20469
860.061	20518
860.194	20705
860.327	20492
860.46	20351
860.592	20568
860.725	20484
860.858	20583
860.99	20423
861.123	20298
861.256	20324
861.388	20469
861.521	20937
861.653	20317
861.786	20267
861.918	20252
862.05	20282
862.183	20301
862.315	20396
862.447	20309
862.58	20366
862.712	20122
862.844	20107
862.976	20237
863.108	20221
863.24	20629
863.372	20027
863.504	20111
863.636	20122
863.768	20084
863.9	20138
864.032	20157
864.164	20145
864.296	20164
864.428	20168
864.559	20130
864.691	20210
864.823	20084
864.954	20062
865.086	20142
865.217	19921
865.349	20016
865.48	19978
865.612	20149
865.743	20199
865.875	20024
866.006	19898
866.137	20012
866.269	20092
866.4	20039
866.531	19982
866.662	19967
866.793	19875
866.924	19940
867.055	20050
867.186	19871
867.317	19860
867.448	19871
867.579	19890
867.71	19902
867.841	19852
867.972	19894
868.103	19811
868.233	20008
868.364	19970
868.495	20084
868.625	20164
868.756	20362
868.886	20142
869.017	20202
869.147	20298
869.278	20252
869.408	20172
869.539	20111
869.669	20358
869.799	20218
869.929	20370
870.06	20358
870.19	20446
870.32	20526
870.45	20514
870.58	20689
870.71	20606
870.84	20796
870.97	20644
871.1	20613
871.23	20678
871.36	20819
871.489	20731
871.619	20883
871.749	20819
871.879	20815
872.008	20906
872.138	20857
872.267	20868
872.397	20712
872.526	20651
872.656	20708
872.785	20632
872.915	20716
873.044	20918
873.173	20971
873.303	20880
873.432	20921
873.561	20895
873.69	20887
873.819	20880
873.948	20929
874.077	20853
874.206	20796
874.335	20796
874.464	20910
874.593	21096
874.722	20952
874.851	21112
874.979	21192
875.108	21028
875.237	21066
875.365	20990
875.494	20929
875.623	21173
875.751	21085
875.88	21116
876.008	21222
876.136	21287
876.265	21447
876.393	21580
876.521	21473
876.65	21564
876.778	21568
876.906	21302
877.034	21393
877.162	21428
877.29	21431
877.418	21523
877.546	21595
877.674	21462
877.802	21450
877.93	21405
878.058	21450
878.185	21249
878.313	21477
878.441	21340
878.568	21211
878.696	21321
878.824	21374
878.951	21542
879.079	21629
879.206	21819
879.333	21660
879.461	21469
879.588	21557
879.715	21614
879.842	21785
879.97	21526
880.097	21211
880.224	21260
880.351	21386
880.478	21161
880.605	21222
880.732	21367
880.859	21564
880.986	21275
881.112	21203
881.239	21005
881.366	20979
881.493	20899
881.619	20941
881.746	20933
881.872	20769
881.999	20845
882.125	20750
882.252	20902
882.378	20872
882.505	20899
882.631	20739
882.757	20514
882.883	20720
883.01	20625
883.136	20507
883.262	20499
883.388	20389
883.514	20617
883.64	20442
883.766	20541
883.892	20294
884.018	20431
884.143	20571
884.269	20686
884.395	20180
884.52	20164
884.646	20320
884.772	20145
884.897	20119
885.023	20248
885.148	20298
885.274	20218
885.399	20191
885.524	20214
885.65	20229
885.775	20191
885.9	20199
886.025	20454
886.15	20275
886.275	20119
886.4	20050
886.525	20119
886.65	20164
886.775	20100
886.9	20336
887.025	20465
887.149	20126
887.274	20008
887.399	19955
887.523	19955
887.648	19989
887.773	19856
887.897	20084
888.021	20035
888.146	19811
888.27	20107
888.395	20256
888.519	20024
888.643	20024
888.767	20008
888.891	19811
889.015	19746
889.139	19772
889.263	19761
889.387	19978
889.511	19944
889.635	19932
889.759	19704
889.883	19769
890.006	19852
890.13	19887
890.254	19689
890.377	19704
890.501	19552
890.624	19430
890.748	19582
890.871	19407
890.995	19331
891.118	19369
891.241	19308
891.364	19365
891.488	19411
891.611	19396
891.734	19327
891.857	19483
891.98	19358
892.103	19354
892.226	19354
892.349	19445
892.471	19221
892.594	19438
892.717	19278
892.839	19403
892.962	19396
893.085	19270
893.207	19266
893.33	19206
893.452	19263
893.575	19316
893.697	19316
893.819	19449
893.941	19373
894.064	19438
894.186	19217
894.308	19270
894.43	19343
894.552	19548
894.674	19400
894.796	19175
894.918	19263
895.04	19320
895.161	19476
895.283	19308
895.405	19278
895.526	19297
895.648	19316
895.769	19297
895.891	19301
896.012	19396
896.134	19354
896.255	19331
896.376	19244
896.498	19244
896.619	19388
896.74	19308
896.861	19388
896.982	19696
897.103	19890
897.224	19582
897.345	19480
897.466	19506
897.587	19445
897.708	19594
897.828	19689
897.949	19411
898.07	19381
898.19	19521
898.311	19578
898.431	19510
898.552	19582
898.672	19559
898.792	19765
898.913	19537
899.033	19464
899.153	19320
899.273	19285
899.393	19244
899.513	19236
899.633	19369
899.753	19263
899.873	19324
899.993	19274
900.113	19148
900.232	19244
900.352	19194
900.472	19145
900.591	19110
900.711	19126
900.83	19053
900.95	19179
901.069	19190
901.189	18897
901.308	18806
901.427	18631
901.546	18696
901.665	18817
901.784	18825
901.904	18494
902.023	18384
902.141	18296
902.26	18266
902.379	18213
902.498	18171
902.617	18076
902.735	18159
902.854	18140
902.973	18174
903.091	17920
903.21	17691
903.328	17885
903.446	17794
903.565	17737
903.683	17695
903.801	17581
903.919	17661
904.038	17623
904.156	17398
904.274	17668
904.392	17417
904.51	17490
904.627	17433
904.745	17604
904.863	17490
904.981	17265
905.098	17060
905.216	17109
905.334	17185
905.451	17052
905.569	17189
905.686	17239
905.803	17109
905.921	16942
906.038	17151
906.155	16854
906.272	16904
906.389	16835
906.506	16748
906.623	16790
906.74	16679
906.857	16558
906.974	16618
907.091	16782
907.208	16858
907.324	16683
907.441	16535
907.557	16523
907.674	16413
907.79	16348
907.907	16405
908.023	16500
908.139	16421
908.256	16375
908.372	16242
908.488	16421
908.604	16246
908.72	16147
908.836	16150
908.952	16154
909.068	16105
909.184	16223
909.3	16200
909.415	16124
909.531	16124
909.647	15865
909.762	15895
909.878	15835
909.993	15892
910.108	15781
910.224	15903
910.339	15797
910.454	15739
910.57	15648
910.685	15610
910.8	15915
910.915	15835
911.03	15701
911.145	15504
911.259	15405
911.374	15412
911.489	15420
911.604	15420
911.718	15241
911.833	15218
911.947	15199
912.062	15097
912.176	15245
912.291	15389
912.405	15275
912.519	15382
912.633	15416
912.748	15199
912.862	15260
912.976	15058
913.09	15028
913.204	15009
913.318	14994
913.431	15100
913.545	15100
913.659	15195
913.772	14994
913.886	14971
914	14853
914.113	14986
914.226	14902
914.34	14952
914.453	14724
914.566	14857
914.68	14686
914.793	14655
914.906	14484
915.019	14473
915.132	14389
915.245	14396
915.358	14408
915.47	14427
915.583	14476
915.696	14476
915.809	14503
915.921	14617
916.034	14438
916.146	14412
916.259	14324
916.371	14545
916.483	14347
916.595	14317
916.708	14313
916.82	14271
916.932	14385
917.044	14229
917.156	14351
917.268	14202
917.38	14172
917.491	14191
917.603	14149
917.715	14210
917.826	14240
917.938	14024
918.049	14012
918.161	14126
918.272	14240
918.384	14214
918.495	14157
918.606	13982
918.717	13940
918.828	13925
918.939	13993
919.05	13814
919.161	13860
919.272	13761
919.383	13757
919.494	13997
919.604	14103
919.715	13974
919.826	13772
919.936	13852
920.047	13894
920.157	13944
920.267	14069
920.378	13940
920.488	13830
920.598	14164
920.708	14100
920.818	14008
920.928	14027
921.038	14145
921.148	14126
921.258	13822
921.368	13742
921.477	13662
921.587	13601
921.697	13499
921.806	13655
921.916	13502
922.025	13346
922.134	13343
922.244	13324
922.353	13369
922.462	13217
922.571	13160
922.68	12954
922.789	12913
922.898	12981
923.007	12920
923.116	12962
923.224	12947
923.333	12943
923.442	12840
923.55	12806
923.659	12806
923.767	12817
923.876	12711
923.984	12798
924.092	12608
924.201	12730
924.309	12681
924.417	12681
924.525	12669
924.633	12589
924.741	13514
924.849	12502
924.956	12623
925.064	12391
925.172	12399
925.279	12410
925.387	12460
925.494	12357
925.602	12570
925.709	12467
925.816	12357
925.924	12361
926.031	12475
926.138	12376
926.245	12342
926.352	12205
926.459	12429
926.566	12361
926.673	12213
926.779	12277
926.886	12178
926.993	12007
927.099	11999
927.206	11969
927.312	11973
927.419	12015
927.525	11897
927.631	12019
927.737	11847
927.843	11863
927.95	11737
928.056	11786
928.162	11840
928.267	11931
928.373	12479
928.479	11885
928.585	11619
928.69	11684
928.796	11828
928.901	11638
929.007	11528
929.112	11676
929.218	11676
929.323	11570
929.428	11547
929.533	11668
929.638	11459
929.743	11471
929.848	11471
929.953	11505
930.058	11376
930.163	11258
930.267	11239
930.372	11398
930.477	11212
930.581	11467
930.685	11292
930.79	11128
930.894	11204
930.998	11155
931.103	11296
931.207	10923
931.311	10866
931.415	10763
931.519	10519
931.623	10447
