Data from test_V78500241_845.txt Node
Date: Fri Mar 25 15:15:44 CST 2022
User: usil
Spectrometer: V785-0024
Trigger mode: 0
Integration Time (sec): 4.000000E-1
Scans to average: 1
Nonlinearity correction enabled: false
Boxcar width: 0
Storing dark spectrum: false
XAxis mode: Wavelengths
Number of Pixels in Spectrum: 1024
>>>>>Begin Spectral Data<<<<<
801.071	28360
801.214	28207
801.356	27880
801.499	27797
801.641	27903
801.783	27903
801.926	27888
802.068	27892
802.211	27751
802.353	27545
802.496	27374
802.638	27488
802.78	27481
802.923	27378
803.065	27462
803.208	27370
803.35	27401
803.492	27534
803.635	27713
803.777	27622
803.919	27648
804.061	28112
804.204	27724
804.346	27542
804.488	27622
804.63	27705
804.773	27648
804.915	27732
805.057	27831
805.199	27709
805.341	27793
805.483	27903
805.626	27831
805.768	27644
805.91	27762
806.052	27854
806.194	27732
806.336	28010
806.478	27937
806.62	27778
806.762	27926
806.904	28154
807.046	28249
807.188	28272
807.33	28207
807.472	28386
807.614	28219
807.756	28143
807.898	28105
808.04	27983
808.182	28040
808.324	28116
808.465	28246
808.607	28329
808.749	28504
808.891	28481
809.033	28706
809.174	28660
809.316	28462
809.458	28527
809.6	28603
809.741	28538
809.883	28679
810.025	28805
810.166	28778
810.308	28672
810.45	28759
810.591	28630
810.733	28588
810.875	28478
811.016	28436
811.158	28367
811.299	28630
811.441	28809
811.582	28504
811.724	28394
811.865	28523
812.007	28550
812.148	28516
812.29	28630
812.431	28645
812.573	28862
812.714	28805
812.855	29159
812.997	29075
813.138	29296
813.279	29178
813.421	29178
813.562	28957
813.703	28809
813.845	28790
813.986	28474
814.127	28306
814.268	28401
814.41	28234
814.551	28363
814.692	28226
814.833	28063
814.974	28162
815.115	28185
815.256	28093
815.397	27949
815.539	28097
815.68	28006
815.821	27972
815.962	28021
816.103	28002
816.244	27968
816.385	27755
816.526	27724
816.666	27496
816.807	27523
816.948	27675
817.089	27690
817.23	27576
817.371	27530
817.512	27538
817.653	27568
817.793	27667
817.934	27641
818.075	27603
818.216	27553
818.356	27473
818.497	27439
818.638	27317
818.778	27211
818.919	27298
819.06	27424
819.2	27408
819.341	27526
819.481	27462
819.622	27694
819.762	27857
819.903	27816
820.043	27789
820.184	27698
820.324	27720
820.465	27637
820.605	27671
820.746	27553
820.886	27485
821.026	27591
821.167	27603
821.307	27618
821.447	27462
821.588	27382
821.728	27466
821.868	27066
822.008	26937
822.149	26864
822.289	26887
822.429	26674
822.569	26651
822.709	26579
822.849	26545
822.99	26590
823.13	26408
823.27	26568
823.41	26259
823.55	26206
823.69	26362
823.83	26317
823.97	26453
824.11	26149
824.25	26096
824.389	26062
824.529	26153
824.669	26077
824.809	26229
824.949	26370
825.089	26161
825.228	26221
825.368	25974
825.508	26012
825.648	26039
825.787	26172
825.927	26081
826.067	26077
826.206	26081
826.346	26138
826.485	26046
826.625	26005
826.765	26122
826.904	26062
827.044	25780
827.183	25871
827.323	25780
827.462	25803
827.601	25677
827.741	25765
827.88	25731
828.02	25582
828.159	25795
828.298	25693
828.437	25807
828.577	25651
828.716	25898
828.855	25681
828.994	25479
829.134	25479
829.273	25510
829.412	25354
829.551	25335
829.69	25419
829.829	25476
829.968	25597
830.107	25415
830.246	25434
830.385	25510
830.524	25339
830.663	25251
830.802	25198
830.941	25088
831.08	25065
831.219	25091
831.357	25175
831.496	25396
831.635	25046
831.774	25008
831.913	24901
832.051	24783
832.19	24935
832.329	24810
832.467	24730
832.606	24635
832.744	24681
832.883	24703
833.022	24620
833.16	24635
833.299	24856
833.437	24658
833.576	24878
833.714	24711
833.852	24764
833.991	24844
834.129	24943
834.267	24726
834.406	24779
834.544	24920
834.682	24787
834.821	24696
834.959	24890
835.097	24802
835.235	24905
835.373	24722
835.511	24787
835.65	24547
835.788	24597
835.926	24502
836.064	24578
836.202	24460
836.34	24601
836.478	24741
836.615	24627
836.753	24631
836.891	24620
837.029	24681
837.167	24631
837.305	24555
837.443	24505
837.58	24315
837.718	24601
837.856	24502
837.993	24414
838.131	24372
838.269	24369
838.406	24243
838.544	24205
838.681	24087
838.819	24098
838.956	23882
839.094	24018
839.231	24011
839.369	24087
839.506	24311
839.643	24186
839.781	23996
839.918	23866
840.055	23980
840.193	23863
840.33	23771
840.467	23851
840.604	23897
840.742	24159
840.879	23729
841.016	23798
841.153	23638
841.29	23969
841.427	23687
841.564	23847
841.701	23684
841.838	23748
841.975	23592
842.112	23863
842.249	23558
842.385	23551
842.522	23805
842.659	23642
842.796	23608
842.933	23551
843.069	23551
843.206	23562
843.343	23619
843.479	23501
843.616	23634
843.752	23280
843.889	23307
844.025	23425
844.162	23345
844.298	23353
844.435	23364
844.571	23356
844.708	23322
844.844	23528
844.98	23463
845.117	23467
845.253	23200
845.389	23212
845.525	23258
845.661	23220
845.798	23105
845.934	23083
846.07	22976
846.206	23010
846.342	23322
846.478	23223
846.614	22847
846.75	22908
846.886	22725
847.022	22850
847.158	22710
847.294	22812
847.429	22805
847.565	22801
847.701	23014
847.837	22554
847.972	22542
848.108	22611
848.244	22603
848.379	22398
848.515	22451
848.65	22367
848.786	22428
848.921	22497
849.057	22443
849.192	22478
849.328	22478
849.463	22375
849.598	22314
849.734	22185
849.869	22234
850.004	22200
850.14	22268
850.275	22162
850.41	22086
850.545	22090
850.68	22124
850.815	22211
850.95	22112
851.085	22284
851.22	22295
851.355	22131
851.49	22303
851.625	22135
851.76	22238
851.895	21983
852.03	22181
852.165	22192
852.299	22188
852.434	22310
852.569	22257
852.703	22158
852.838	22211
852.973	22143
853.107	22318
853.242	22067
853.376	21979
853.511	21873
853.645	22067
853.78	22090
853.914	22021
854.048	21835
854.183	22017
854.317	22036
854.451	22006
854.585	22006
854.72	21819
854.854	22067
854.988	21903
855.122	21994
855.256	21983
855.39	21987
855.524	22101
855.658	21880
855.792	21941
855.926	22002
856.06	21907
856.194	22074
856.327	22013
856.461	21899
856.595	21884
856.729	21873
856.862	22059
856.996	22032
857.13	22120
857.263	22051
857.397	21998
857.53	21960
857.664	21964
857.797	22139
857.931	22139
858.064	22029
858.197	22029
858.331	21956
858.464	21949
858.597	21876
858.731	21869
858.864	21983
858.997	21880
859.13	21865
859.263	22067
859.396	22063
859.529	21895
859.662	22040
859.795	21934
859.928	21991
860.061	22162
860.194	22257
860.327	22082
860.46	22013
860.592	22135
860.725	22242
860.858	22029
860.99	21998
861.123	21842
861.256	21907
861.388	21899
861.521	22691
861.653	21865
861.786	21732
861.918	21762
862.05	21934
862.183	21922
862.315	21857
862.447	21907
862.58	21911
862.712	21603
862.844	21641
862.976	21720
863.108	21720
863.24	22063
863.372	21633
863.504	21694
863.636	21739
863.768	21770
863.9	21652
864.032	21656
864.164	21614
864.296	21652
864.428	21713
864.559	21724
864.691	21663
864.823	21656
864.954	21564
865.086	21618
865.217	21587
865.349	21443
865.48	21557
865.612	21511
865.743	21705
865.875	21549
866.006	21492
866.137	21542
866.269	21557
866.4	21545
866.531	21492
866.662	21511
866.793	21500
866.924	21420
867.055	21515
867.186	21545
867.317	21321
867.448	21454
867.579	21431
867.71	21370
867.841	21344
867.972	21534
868.103	21389
868.233	21469
868.364	21466
868.495	21587
868.625	21705
868.756	21785
868.886	21747
869.017	21675
869.147	21835
869.278	21895
869.408	21736
869.539	21751
869.669	21797
869.799	21778
869.929	21831
870.06	21778
870.19	21930
870.32	22063
870.45	22055
870.58	22090
870.71	22166
870.84	22291
870.97	22109
871.1	22124
871.23	22291
871.36	22314
871.489	22147
871.619	22211
871.749	22348
871.879	22424
872.008	22348
872.138	22268
872.267	22356
872.397	22101
872.526	22093
872.656	22143
872.785	22169
872.915	22405
873.044	22356
873.173	22375
873.303	22367
873.432	22276
873.561	22375
873.69	22299
873.819	22462
873.948	22394
874.077	22417
874.206	22337
874.335	22398
874.464	22440
874.593	22538
874.722	22497
874.851	22573
874.979	22554
875.108	22626
875.237	22417
875.365	22527
875.494	22500
875.623	22641
875.751	22599
875.88	22599
876.008	22717
876.136	22672
876.265	22801
876.393	22968
876.521	22976
876.65	23079
876.778	22984
876.906	23010
877.034	22816
877.162	22961
877.29	22866
877.418	22938
877.546	22824
877.674	22961
877.802	22824
877.93	22915
878.058	22911
878.185	22873
878.313	22805
878.441	22866
878.568	22725
878.696	22881
878.824	22908
878.951	22927
879.079	23109
879.206	23288
879.333	23025
879.461	22919
879.588	22915
879.715	22987
879.842	23174
879.97	22877
880.097	22740
880.224	22675
880.351	22729
880.478	22656
880.605	22554
880.732	22603
880.859	22900
880.986	22641
881.112	22717
881.239	22660
881.366	22405
881.493	22402
881.619	22352
881.746	22291
881.872	22344
881.999	22238
882.125	22188
882.252	22166
882.378	22200
882.505	22204
882.631	22093
882.757	22021
882.883	22055
883.01	22002
883.136	21991
883.262	21941
883.388	21800
883.514	21895
883.64	22059
883.766	21876
883.892	21759
884.018	21808
884.143	21808
884.269	21987
884.395	21641
884.52	21614
884.646	21595
884.772	21564
884.897	21428
885.023	21564
885.148	21633
885.274	21873
885.399	21778
885.524	21477
885.65	21705
885.775	21690
885.9	21553
886.025	21739
886.15	21690
886.275	21530
886.4	21507
886.525	21603
886.65	21389
886.775	21405
886.9	21610
887.025	21785
887.149	21462
887.274	21310
887.399	21306
887.523	21287
887.648	21260
887.773	21348
887.897	21393
888.021	21500
888.146	21230
888.27	21420
888.395	21545
888.519	21393
888.643	21363
888.767	21389
888.891	21275
889.015	21096
889.139	21272
889.263	21150
889.387	21348
889.511	21412
889.635	21310
889.759	21127
889.883	21009
890.006	21169
890.13	21211
890.254	21112
890.377	21070
890.501	20952
890.624	20849
890.748	20918
890.871	20785
890.995	20678
891.118	20701
891.241	20739
891.364	20655
891.488	20826
891.611	20701
891.734	20811
891.857	20796
891.98	20697
892.103	20750
892.226	20754
892.349	20640
892.471	20473
892.594	20583
892.717	20727
892.839	20556
892.962	20609
893.085	20632
893.207	20655
893.33	20579
893.452	20560
893.575	20598
893.697	20571
893.819	20663
893.941	20781
894.064	20678
894.186	20549
894.308	20465
894.43	20579
894.552	20758
894.674	20625
894.796	20537
894.918	20530
895.04	20609
895.161	20575
895.283	20773
895.405	20598
895.526	20636
895.648	20598
895.769	20670
895.891	20606
896.012	20670
896.134	20640
896.255	20476
896.376	20526
896.498	20579
896.619	20644
896.74	20552
896.861	20629
896.982	20830
897.103	20937
897.224	20941
897.345	20914
897.466	20640
897.587	20758
897.708	20815
897.828	20712
897.949	20800
898.07	20731
898.19	20743
898.311	20902
898.431	20765
898.552	20834
898.672	20861
898.792	20891
898.913	20727
899.033	20765
899.153	20678
899.273	20560
899.393	20450
899.513	20560
899.633	20617
899.753	20484
899.873	20473
899.993	20541
900.113	20522
900.232	20549
900.352	20404
900.472	20351
900.591	20225
900.711	20282
900.83	20259
900.95	20377
901.069	20324
901.189	20225
901.308	19982
901.427	19932
901.546	19898
901.665	19849
901.784	19978
901.904	19864
902.023	19738
902.141	19529
902.26	19445
902.379	19518
902.498	19392
902.617	19377
902.735	19457
902.854	19506
902.973	19282
903.091	19225
903.21	19034
903.328	19072
903.446	18909
903.565	18913
903.683	18856
903.801	18825
903.919	18787
904.038	18886
904.156	18642
904.274	18711
904.392	18525
904.51	18692
904.627	18589
904.745	18692
904.863	18642
904.981	18502
905.098	18266
905.216	18281
905.334	18388
905.451	18334
905.569	18228
905.686	18376
905.803	18388
905.921	18110
906.038	18163
906.155	18022
906.272	17973
906.389	18003
906.506	17901
906.623	17878
906.74	17843
906.857	17748
906.974	17649
907.091	17859
907.208	17836
907.324	17836
907.441	17707
907.557	17596
907.674	17554
907.79	17429
907.907	17444
908.023	17562
908.139	17608
908.256	17463
908.372	17474
908.488	17425
908.604	17273
908.72	17212
908.836	17280
908.952	17277
909.068	17235
909.184	17398
909.3	17265
909.415	17204
909.531	17280
909.647	17029
909.762	16908
909.878	16972
909.993	16908
910.108	16873
910.224	16911
910.339	16900
910.454	16782
910.57	16748
910.685	16694
910.8	16892
910.915	16885
911.03	16801
911.145	16607
911.259	16550
911.374	16493
911.489	16481
911.604	16409
911.718	16287
911.833	16246
911.947	16226
912.062	16185
912.176	16265
912.291	16234
912.405	16177
912.519	16474
912.633	16413
912.748	16246
912.862	16386
912.976	16150
913.09	15941
913.204	16078
913.318	16093
913.431	16135
913.545	16147
913.659	16143
913.772	16029
913.886	15918
914	15804
914.113	16036
914.226	16013
914.34	15915
914.453	15778
914.566	15930
914.68	15827
914.793	15743
914.906	15568
915.019	15515
915.132	15431
915.245	15454
915.358	15591
915.47	15462
915.583	15466
915.696	15481
915.809	15576
915.921	15625
916.034	15443
916.146	15340
916.259	15321
916.371	15447
916.483	15439
916.595	15348
916.708	15252
916.82	15378
916.932	15279
917.044	15218
917.156	15272
917.268	15085
917.38	15157
917.491	15074
917.603	15165
917.715	15173
917.826	15192
917.938	15085
918.049	15024
918.161	15047
918.272	15154
918.384	15169
918.495	15108
918.606	14902
918.717	14857
918.828	14792
918.939	14796
919.05	14735
919.161	14861
919.272	14568
919.383	14682
919.494	14849
919.604	15058
919.715	14819
919.826	14781
919.936	14811
920.047	14880
920.157	14845
920.267	14994
920.378	14876
920.488	14876
920.598	14963
920.708	15131
920.818	14887
920.928	14883
921.038	15097
921.148	15093
921.258	14693
921.368	14682
921.477	14552
921.587	14552
921.697	14480
921.806	14537
921.916	14309
922.025	14355
922.134	14176
922.244	14153
922.353	14244
922.462	14027
922.571	13982
922.68	13875
922.789	13845
922.898	13833
923.007	13723
923.116	13887
923.224	13925
923.333	13818
923.442	13655
923.55	13582
923.659	13624
923.767	13738
923.876	13605
923.984	13689
924.092	13594
924.201	13677
924.309	13578
924.417	13582
924.525	13544
924.633	13590
924.741	14267
924.849	13282
924.956	13464
925.064	13209
925.172	13168
925.279	13255
925.387	13270
925.494	13324
925.602	13343
925.709	13236
925.816	13145
925.924	13183
926.031	13194
926.138	13232
926.245	13171
926.352	13069
926.459	13202
926.566	13206
926.673	13133
926.779	12989
926.886	12909
926.993	12802
927.099	12806
927.206	12650
927.312	12681
927.419	12757
927.525	12776
927.631	12875
927.737	12677
927.843	12684
927.95	12494
928.056	12646
928.162	12570
928.267	12814
928.373	13209
928.479	12662
928.585	12399
928.69	12536
928.796	12536
928.901	12391
929.007	12372
929.112	12372
929.218	12380
929.323	12342
929.428	12308
929.533	12479
929.638	12251
929.743	12277
929.848	12292
929.953	12323
930.058	12087
930.163	11984
930.267	11980
930.372	12064
930.477	11904
930.581	12129
930.685	12022
930.79	11901
930.894	11893
930.998	11878
931.103	11984
931.207	11684
931.311	11600
931.415	11417
931.519	11311
931.623	11227
