Data from test_V78500241_2122.txt Node
Date: Fri Mar 25 15:24:38 CST 2022
User: usil
Spectrometer: V785-0024
Trigger mode: 0
Integration Time (sec): 4.000000E-1
Scans to average: 1
Nonlinearity correction enabled: false
Boxcar width: 0
Storing dark spectrum: false
XAxis mode: Wavelengths
Number of Pixels in Spectrum: 1024
>>>>>Begin Spectral Data<<<<<
801.071	27648
801.214	27420
801.356	27386
801.499	27389
801.641	27184
801.783	27214
801.926	27283
802.068	27256
802.211	27074
802.353	27047
802.496	26914
802.638	26758
802.78	26765
802.923	26769
803.065	26541
803.208	26781
803.35	26811
803.492	26971
803.635	27077
803.777	26952
803.919	27096
804.061	27420
804.204	26994
804.346	27043
804.488	26952
804.63	26952
804.773	26937
804.915	27089
805.057	27116
805.199	27055
805.341	27032
805.483	27161
805.626	27001
805.768	26937
805.91	27138
806.052	27237
806.194	27036
806.336	27230
806.478	27173
806.62	27074
806.762	27279
806.904	27507
807.046	27606
807.188	27637
807.33	27447
807.472	27641
807.614	27507
807.756	27401
807.898	27553
808.04	27310
808.182	27450
808.324	27393
808.465	27340
808.607	27583
808.749	27690
808.891	27736
809.033	27968
809.174	27804
809.316	27694
809.458	27698
809.6	27762
809.741	27876
809.883	27838
810.025	27941
810.166	28124
810.308	27865
810.45	27934
810.591	27800
810.733	27785
810.875	27762
811.016	27633
811.158	27519
811.299	27663
811.441	27682
811.582	27819
811.724	27770
811.865	27717
812.007	27667
812.148	27686
812.29	27705
812.431	27934
812.573	28082
812.714	28116
812.855	28398
812.997	28329
813.138	28519
813.279	28485
813.421	28348
813.562	28090
813.703	28032
813.845	27869
813.986	27736
814.127	27443
814.268	27454
814.41	27587
814.551	27317
814.692	27439
814.833	27439
814.974	27294
815.115	27439
815.256	27401
815.397	27256
815.539	27211
815.68	27161
815.821	27096
815.962	27169
816.103	27127
816.244	27074
816.385	26864
816.526	26910
816.666	26750
816.807	26716
816.948	26727
817.089	26781
817.23	26708
817.371	26705
817.512	26667
817.653	26533
817.793	26571
817.934	26659
818.075	26617
818.216	26689
818.356	26701
818.497	26651
818.638	26434
818.778	26465
818.919	26370
819.06	26473
819.2	26583
819.341	26564
819.481	26583
819.622	26731
819.762	27039
819.903	26910
820.043	26731
820.184	26785
820.324	26826
820.465	26872
820.605	26773
820.746	26746
820.886	26765
821.026	26705
821.167	26716
821.307	26868
821.447	26735
821.588	26594
821.728	26530
821.868	26317
822.008	26183
822.149	26202
822.289	26020
822.429	25776
822.569	25769
822.709	25772
822.849	25666
822.99	25556
823.13	25594
823.27	25559
823.41	25556
823.55	25308
823.69	25430
823.83	25407
823.97	25358
824.11	25285
824.25	25221
824.389	25247
824.529	25335
824.669	25312
824.809	25327
824.949	25320
825.089	25308
825.228	25255
825.368	25091
825.508	25198
825.648	25171
825.787	25228
825.927	25190
826.067	25091
826.206	25228
826.346	25133
826.485	25129
826.625	25118
826.765	25202
826.904	25179
827.044	24928
827.183	24837
827.323	24875
827.462	24817
827.601	24825
827.741	24802
827.88	24722
828.02	24738
828.159	24681
828.298	24852
828.437	24920
828.577	24726
828.716	24913
828.855	24890
828.994	24448
829.134	24513
829.273	24551
829.412	24517
829.551	24517
829.69	24532
829.829	24589
829.968	24608
830.107	24597
830.246	24505
830.385	24551
830.524	24456
830.663	24437
830.802	24239
830.941	24152
831.08	24174
831.219	24205
831.357	24213
831.496	24384
831.635	24129
831.774	24057
831.913	23999
832.051	23992
832.19	23965
832.329	23954
832.467	23802
832.606	23802
832.744	23809
832.883	23866
833.022	23840
833.16	23798
833.299	23794
833.437	23885
833.576	23931
833.714	23874
833.852	23999
833.991	23984
834.129	23961
834.267	23965
834.406	23912
834.544	23984
834.682	23927
834.821	23718
834.959	23992
835.097	23863
835.235	23863
835.373	23893
835.511	23748
835.65	23821
835.788	23661
835.926	23608
836.064	23471
836.202	23524
836.34	23623
836.478	23623
836.615	23657
836.753	23771
836.891	23741
837.029	23680
837.167	23543
837.305	23440
837.443	23528
837.58	23615
837.718	23680
837.856	23562
837.993	23531
838.131	23387
838.269	23436
838.406	23402
838.544	23391
838.681	23353
838.819	23200
838.956	23083
839.094	23064
839.231	23083
839.369	23223
839.506	23364
839.643	23151
839.781	23083
839.918	22889
840.055	23010
840.193	22919
840.33	22911
840.467	23079
840.604	22949
840.742	23060
840.879	22904
841.016	22816
841.153	22782
841.29	22930
841.427	22828
841.564	22946
841.701	22968
841.838	22923
841.975	22854
842.112	22755
842.249	22755
842.385	22763
842.522	22816
842.659	22774
842.796	22698
842.933	22592
843.069	22763
843.206	22527
843.343	22752
843.479	22774
843.616	22622
843.752	22538
843.889	22352
844.025	22656
844.162	22409
844.298	22554
844.435	22459
844.571	22497
844.708	22451
844.844	22577
844.98	22550
845.117	22683
845.253	22249
845.389	22356
845.525	22295
845.661	22341
845.798	22162
845.934	22234
846.07	22265
846.206	22226
846.342	22333
846.478	22219
846.614	21991
846.75	21835
846.886	21823
847.022	21964
847.158	21827
847.294	21907
847.429	22040
847.565	21903
847.701	22158
847.837	21603
847.972	21595
848.108	21663
848.244	21751
848.379	21606
848.515	21466
848.65	21469
848.786	21481
848.921	21492
849.057	21644
849.192	21644
849.328	21545
849.463	21447
849.598	21462
849.734	21466
849.869	21428
850.004	21294
850.14	21325
850.275	21252
850.41	21237
850.545	21355
850.68	21195
850.815	21298
850.95	21260
851.085	21500
851.22	21511
851.355	21344
851.49	21351
851.625	21112
851.76	21226
851.895	21176
852.03	21226
852.165	21313
852.299	21378
852.434	21317
852.569	21279
852.703	21214
852.838	21359
852.973	21519
853.107	21344
853.242	21161
853.376	21154
853.511	21058
853.645	21039
853.78	21135
853.914	21017
854.048	21188
854.183	21093
854.317	21135
854.451	21408
854.585	21104
854.72	21096
854.854	21184
854.988	21028
855.122	21089
855.256	20937
855.39	21074
855.524	21275
855.658	21161
855.792	21112
855.926	21138
856.06	21199
856.194	21135
856.327	21058
856.461	21062
856.595	21119
856.729	21123
856.862	21203
856.996	21245
857.13	21142
857.263	21211
857.397	21192
857.53	21100
857.664	21180
857.797	21112
857.931	21096
858.064	21108
858.197	21150
858.331	21074
858.464	21085
858.597	21146
858.731	21085
858.864	21150
858.997	21055
859.13	21135
859.263	21039
859.396	21283
859.529	21169
859.662	21093
859.795	21173
859.928	21176
860.061	21321
860.194	21237
860.327	21222
860.46	21051
860.592	21241
860.725	21279
860.858	21218
860.99	21207
861.123	21058
861.256	21017
861.388	21009
861.521	21724
861.653	20933
861.786	20914
861.918	20960
862.05	20956
862.183	20944
862.315	21066
862.447	21047
862.58	21104
862.712	21020
862.844	20815
862.976	20872
863.108	20902
863.24	21317
863.372	20807
863.504	20864
863.636	20815
863.768	20811
863.9	20887
864.032	20693
864.164	20815
864.296	20765
864.428	20963
864.559	20933
864.691	20956
864.823	20826
864.954	20731
865.086	20754
865.217	20651
865.349	20560
865.48	20777
865.612	20724
865.743	20792
865.875	20678
866.006	20678
866.137	20670
866.269	20678
866.4	20644
866.531	20632
866.662	20594
866.793	20598
866.924	20670
867.055	20701
867.186	20648
867.317	20621
867.448	20533
867.579	20560
867.71	20450
867.841	20514
867.972	20568
868.103	20697
868.233	20758
868.364	20670
868.495	20823
868.625	20754
868.756	21001
868.886	20765
869.017	20868
869.147	20906
869.278	21055
869.408	20849
869.539	20819
869.669	20994
869.799	21062
869.929	20979
870.06	21154
870.19	21119
870.32	21028
870.45	21317
870.58	21207
870.71	21340
870.84	21348
870.97	21275
871.1	21291
871.23	21519
871.36	21378
871.489	21351
871.619	21507
871.749	21553
871.879	21599
872.008	21542
872.138	21431
872.267	21504
872.397	21325
872.526	21458
872.656	21329
872.785	21348
872.915	21568
873.044	21603
873.173	21488
873.303	21405
873.432	21614
873.561	21485
873.69	21458
873.819	21538
873.948	21492
874.077	21576
874.206	21488
874.335	21504
874.464	21500
874.593	21766
874.722	21720
874.851	21915
874.979	21709
875.108	21808
875.237	21679
875.365	21606
875.494	21751
875.623	21774
875.751	21728
875.88	21720
876.008	21827
876.136	21911
876.265	22086
876.393	22169
876.521	22128
876.65	22196
876.778	22177
876.906	22063
877.034	22059
877.162	22150
877.29	22112
877.418	22063
877.546	21998
877.674	22154
877.802	22040
877.93	22006
878.058	22067
878.185	22010
878.313	22055
878.441	22131
878.568	21918
878.696	22112
878.824	22093
878.951	22207
879.079	22128
879.206	22341
879.333	22204
879.461	22002
879.588	22116
879.715	22124
879.842	22310
879.97	22055
880.097	21922
880.224	21857
880.351	21937
880.478	21880
880.605	21717
880.732	21884
880.859	22154
880.986	21907
881.112	21972
881.239	21751
881.366	21652
881.493	21599
881.619	21485
881.746	21397
881.872	21435
881.999	21363
882.125	21370
882.252	21466
882.378	21443
882.505	21553
882.631	21481
882.757	21203
882.883	21199
883.01	21237
883.136	21188
883.262	21131
883.388	21074
883.514	21146
883.64	21169
883.766	21119
883.892	20933
884.018	20982
884.143	21138
884.269	21222
884.395	21001
884.52	20796
884.646	20861
884.772	20739
884.897	20697
885.023	20800
885.148	21001
885.274	20975
885.399	20963
885.524	20842
885.65	20845
885.775	20807
885.9	20815
886.025	21028
886.15	20861
886.275	20705
886.4	20781
886.525	20739
886.65	20712
886.775	20720
886.9	20967
887.025	21055
887.149	20864
887.274	20609
887.399	20617
887.523	20583
887.648	20446
887.773	20564
887.897	20648
888.021	20632
888.146	20473
888.27	20568
888.395	20804
888.519	20632
888.643	20450
888.767	20617
888.891	20492
889.015	20393
889.139	20465
889.263	20366
889.387	20556
889.511	20613
889.635	20556
889.759	20347
889.883	20393
890.006	20419
890.13	20412
890.254	20355
890.377	20355
890.501	20149
890.624	20195
890.748	20172
890.871	20043
890.995	19902
891.118	19894
891.241	20001
891.364	19894
891.488	20065
891.611	19902
891.734	19890
891.857	19909
891.98	20027
892.103	19967
892.226	19898
892.349	19868
892.471	19795
892.594	19757
892.717	19944
892.839	19887
892.962	19887
893.085	20046
893.207	19807
893.33	19791
893.452	19868
893.575	19814
893.697	19826
893.819	19970
893.941	20122
894.064	20012
894.186	19879
894.308	19871
894.43	19932
894.552	19928
894.674	19921
894.796	19890
894.918	19807
895.04	19845
895.161	20001
895.283	19860
895.405	19788
895.526	19925
895.648	19761
895.769	19917
895.891	19868
896.012	19932
896.134	20016
896.255	19868
896.376	19868
896.498	19822
896.619	19913
896.74	19959
896.861	19856
896.982	20062
897.103	20317
897.224	20130
897.345	20100
897.466	19940
897.587	20077
897.708	20317
897.828	20149
897.949	20027
898.07	19898
898.19	20001
898.311	20229
898.431	20103
898.552	20103
898.672	20225
898.792	20187
898.913	20157
899.033	20081
899.153	19917
899.273	19864
899.393	19833
899.513	19879
899.633	19860
899.753	19883
899.873	19845
899.993	19986
900.113	19791
900.232	19860
900.352	19746
900.472	19712
900.591	19696
900.711	19704
900.83	19605
900.95	19753
901.069	19674
901.189	19510
901.308	19369
901.427	19221
901.546	19206
901.665	19396
901.784	19164
901.904	19160
902.023	19012
902.141	18806
902.26	18791
902.379	18920
902.498	18749
902.617	18726
902.735	18730
902.854	18639
902.973	18566
903.091	18509
903.21	18338
903.328	18448
903.446	18338
903.565	18243
903.683	18251
903.801	18155
903.919	18076
904.038	18194
904.156	17961
904.274	18155
904.392	17988
904.51	17954
904.627	18095
904.745	18144
904.863	18030
904.981	17840
905.098	17589
905.216	17657
905.334	17668
905.451	17623
905.569	17596
905.686	17703
905.803	17707
905.921	17436
906.038	17623
906.155	17520
906.272	17402
906.389	17383
906.506	17140
906.623	17231
906.74	17212
906.857	17140
906.974	17094
907.091	17315
907.208	17425
907.324	17227
907.441	17083
907.557	16877
907.674	16850
907.79	16843
907.907	16942
908.023	16949
908.139	16968
908.256	16797
908.372	16706
908.488	16820
908.604	16637
908.72	16710
908.836	16740
908.952	16584
909.068	16694
909.184	16828
909.3	16672
909.415	16634
909.531	16592
909.647	16512
909.762	16436
909.878	16291
909.993	16398
910.108	16413
910.224	16344
910.339	16356
910.454	16226
910.57	16246
910.685	16051
910.8	16413
910.915	16261
911.03	16238
911.145	15899
911.259	15979
911.374	15994
911.489	15880
911.604	15823
911.718	15679
911.833	15705
911.947	15549
912.062	15454
912.176	15618
912.291	15663
912.405	15641
912.519	15873
912.633	15850
912.748	15652
912.862	15641
912.976	15428
913.09	15435
913.204	15359
913.318	15553
913.431	15526
913.545	15511
913.659	15606
913.772	15428
913.886	15298
914	15268
914.113	15401
914.226	15412
914.34	15351
914.453	15127
914.566	15310
914.68	15123
914.793	15154
914.906	14906
915.019	14910
915.132	14830
915.245	14880
915.358	14918
915.47	14823
915.583	14975
915.696	14891
915.809	15036
915.921	15005
916.034	14811
916.146	14895
916.259	14716
916.371	14921
916.483	14819
916.595	14796
916.708	14781
916.82	14792
916.932	14731
917.044	14670
917.156	14644
917.268	14522
917.38	14613
917.491	14495
917.603	14533
917.715	14670
917.826	14644
917.938	14537
918.049	14408
918.161	14457
918.272	14648
918.384	14610
918.495	14450
918.606	14442
918.717	14305
918.828	14396
918.939	14431
919.05	14168
919.161	14282
919.272	14164
919.383	14157
919.494	14404
919.604	14503
919.715	14275
919.826	14218
919.936	14351
920.047	14400
920.157	14317
920.267	14446
920.378	14240
920.488	14263
920.598	14438
920.708	14648
920.818	14400
920.928	14480
921.038	14663
921.148	14636
921.258	14164
921.368	14161
921.477	14054
921.587	14054
921.697	13951
921.806	14001
921.916	13894
922.025	13677
922.134	13795
922.244	13651
922.353	13708
922.462	13582
922.571	13407
922.68	13373
922.789	13365
922.898	13327
923.007	13289
923.116	13403
923.224	13320
923.333	13263
923.442	13225
923.55	13156
923.659	13228
923.767	13202
923.876	13160
923.984	13145
924.092	13126
924.201	13107
924.309	13080
924.417	13156
924.525	12970
924.633	13027
924.741	13868
924.849	12920
924.956	12894
925.064	12817
925.172	12745
925.279	12802
925.387	12806
925.494	12741
925.602	12863
925.709	12814
925.816	12719
925.924	12734
926.031	12783
926.138	12730
926.245	12757
926.352	12642
926.459	12757
926.566	12764
926.673	12646
926.779	12486
926.886	12483
926.993	12384
927.099	12281
927.206	12350
927.312	12296
927.419	12338
927.525	12300
927.631	12365
927.737	12190
927.843	12144
927.95	12038
928.056	12148
928.162	12152
928.267	12133
928.373	12760
928.479	12273
928.585	11988
928.69	12205
928.796	12171
928.901	12038
929.007	11950
929.112	11996
929.218	11939
929.323	11946
929.428	11783
929.533	12019
929.638	11855
929.743	11821
929.848	11863
929.953	11878
930.058	11745
930.163	11524
930.267	11638
930.372	11680
930.477	11562
930.581	11737
930.685	11684
930.79	11459
930.894	11425
930.998	11463
931.103	11600
931.207	11250
931.311	11094
931.415	11132
931.519	10900
931.623	10869
