Data from test_V78500241_485.txt Node
Date: Fri Mar 25 15:13:14 CST 2022
User: usil
Spectrometer: V785-0024
Trigger mode: 0
Integration Time (sec): 4.000000E-1
Scans to average: 1
Nonlinearity correction enabled: false
Boxcar width: 0
Storing dark spectrum: false
XAxis mode: Wavelengths
Number of Pixels in Spectrum: 1024
>>>>>Begin Spectral Data<<<<<
801.071	27374
801.214	27447
801.356	27214
801.499	27165
801.641	27138
801.783	27020
801.926	27089
802.068	26876
802.211	26857
802.353	26796
802.496	26617
802.638	26640
802.78	26480
802.923	26488
803.065	26686
803.208	26602
803.35	26526
803.492	26804
803.635	26918
803.777	26648
803.919	26811
804.061	27093
804.204	26804
804.346	26727
804.488	26682
804.63	26819
804.773	26868
804.915	26823
805.057	26883
805.199	26895
805.341	26834
805.483	26834
805.626	26990
805.768	26724
805.91	26804
806.052	26933
806.194	26853
806.336	27077
806.478	27093
806.62	27009
806.762	27028
806.904	27150
807.046	27370
807.188	27298
807.33	27279
807.472	27431
807.614	27256
807.756	27150
807.898	27230
808.04	27173
808.182	27165
808.324	27195
808.465	27100
808.607	27340
808.749	27370
808.891	27682
809.033	27705
809.174	27679
809.316	27542
809.458	27553
809.6	27397
809.741	27759
809.883	27785
810.025	27797
810.166	27743
810.308	27728
810.45	27808
810.591	27800
810.733	27663
810.875	27557
811.016	27336
811.158	27359
811.299	27736
811.441	27610
811.582	27641
811.724	27435
811.865	27595
812.007	27439
812.148	27424
812.29	27542
812.431	27644
812.573	27983
812.714	27991
812.855	27960
812.997	28124
813.138	28196
813.279	28287
813.421	28109
813.562	28002
813.703	27831
813.845	27739
813.986	27283
814.127	27233
814.268	27165
814.41	27226
814.551	27112
814.692	27264
814.833	27093
814.974	27085
815.115	27233
815.256	27150
815.397	26929
815.539	27157
815.68	26910
815.821	27036
815.962	26998
816.103	26868
816.244	26678
816.385	26697
816.526	26609
816.666	26659
816.807	26370
816.948	26556
817.089	26590
817.23	26412
817.371	26602
817.512	26461
817.653	26488
817.793	26381
817.934	26526
818.075	26484
818.216	26545
818.356	26320
818.497	26332
818.638	26225
818.778	26244
818.919	26233
819.06	26267
819.2	26404
819.341	26465
819.481	26453
819.622	26705
819.762	26804
819.903	26655
820.043	26644
820.184	26568
820.324	26602
820.465	26571
820.605	26598
820.746	26667
820.886	26385
821.026	26469
821.167	26412
821.307	26594
821.447	26434
821.588	26442
821.728	26324
821.868	26111
822.008	25898
822.149	26001
822.289	25913
822.429	25552
822.569	25681
822.709	25620
822.849	25518
822.99	25285
823.13	25339
823.27	25282
823.41	25118
823.55	25114
823.69	25251
823.83	25308
823.97	25244
824.11	24966
824.25	24992
824.389	25148
824.529	25114
824.669	25084
824.809	25343
824.949	25240
825.089	25080
825.228	25221
825.368	24962
825.508	24951
825.648	25000
825.787	24867
825.927	24947
826.067	24894
826.206	24924
826.346	24992
826.485	25038
826.625	24935
826.765	24981
826.904	25023
827.044	24730
827.183	24810
827.323	24711
827.462	24821
827.601	24738
827.741	24703
827.88	24585
828.02	24502
828.159	24650
828.298	24703
828.437	24886
828.577	24669
828.716	24772
828.855	24585
828.994	24426
829.134	24365
829.273	24505
829.412	24308
829.551	24395
829.69	24441
829.829	24505
829.968	24578
830.107	24547
830.246	24418
830.385	24441
830.524	24281
830.663	24266
830.802	24087
830.941	23935
831.08	24003
831.219	24049
831.357	24076
831.496	24289
831.635	23954
831.774	23992
831.913	23946
832.051	23836
832.19	23904
832.329	23851
832.467	23722
832.606	23684
832.744	23840
832.883	23805
833.022	23615
833.16	23809
833.299	23649
833.437	23798
833.576	23779
833.714	23653
833.852	23859
833.991	23863
834.129	23824
834.267	23836
834.406	23832
834.544	23729
834.682	23889
834.821	23832
834.959	23988
835.097	23615
835.235	23699
835.373	23756
835.511	23604
835.65	23619
835.788	23627
835.926	23440
836.064	23425
836.202	23433
836.34	23608
836.478	23672
836.615	23547
836.753	23630
836.891	23668
837.029	23512
837.167	23493
837.305	23608
837.443	23490
837.58	23421
837.718	23474
837.856	23474
837.993	23455
838.131	23436
838.269	23360
838.406	23368
838.544	23273
838.681	23090
838.819	23037
838.956	22881
839.094	22915
839.231	23052
839.369	23121
839.506	23258
839.643	23239
839.781	22984
839.918	22790
840.055	22847
840.193	22980
840.33	22858
840.467	22896
840.604	22908
840.742	23044
840.879	22824
841.016	22736
841.153	22866
841.29	22889
841.427	22786
841.564	22835
841.701	22877
841.838	22752
841.975	22561
842.112	22778
842.249	22824
842.385	22645
842.522	22828
842.659	22580
842.796	22649
842.933	22565
843.069	22592
843.206	22580
843.343	22694
843.479	22683
843.616	22660
843.752	22432
843.889	22348
844.025	22542
844.162	22398
844.298	22462
844.435	22462
844.571	22322
844.708	22523
844.844	22649
844.98	22489
845.117	22459
845.253	22219
845.389	22291
845.525	22265
845.661	22325
845.798	22036
845.934	22200
846.07	22025
846.206	22337
846.342	22147
846.478	22055
846.614	21968
846.75	21930
846.886	21812
847.022	21987
847.158	21778
847.294	21854
847.429	21903
847.565	21827
847.701	22010
847.837	21587
847.972	21454
848.108	21713
848.244	21629
848.379	21557
848.515	21534
848.65	21447
848.786	21610
848.921	21488
849.057	21507
849.192	21561
849.328	21519
849.463	21397
849.598	21408
849.734	21367
849.869	21283
850.004	21336
850.14	21287
850.275	21146
850.41	21138
850.545	21192
850.68	21195
850.815	21249
850.95	21142
851.085	21287
851.22	21355
851.355	21161
851.49	21203
851.625	21222
851.76	21043
851.895	21058
852.03	21009
852.165	21146
852.299	21214
852.434	21344
852.569	21222
852.703	21112
852.838	21260
852.973	21268
853.107	21340
853.242	21085
853.376	20979
853.511	20990
853.645	21055
853.78	21032
853.914	21108
854.048	20982
854.183	21005
854.317	20986
854.451	21188
854.585	21096
854.72	21024
854.854	21070
854.988	20929
855.122	21036
855.256	20823
855.39	21070
855.524	21180
855.658	21272
855.792	21077
855.926	21066
856.06	21123
856.194	21150
856.327	21070
856.461	20925
856.595	21017
856.729	21032
856.862	21051
856.996	21096
857.13	21066
857.263	21188
857.397	21096
857.53	21116
857.664	21039
857.797	21070
857.931	21104
858.064	21116
858.197	21070
858.331	21119
858.464	21032
858.597	20948
858.731	20998
858.864	20910
858.997	21005
859.13	20982
859.263	21028
859.396	21180
859.529	21039
859.662	20975
859.795	21005
859.928	21154
860.061	21188
860.194	21192
860.327	21043
860.46	21062
860.592	21249
860.725	21233
860.858	21135
860.99	21062
861.123	21039
861.256	21032
861.388	21024
861.521	21827
861.653	21020
861.786	20670
861.918	20838
862.05	20918
862.183	20982
862.315	20918
862.447	20982
862.58	20902
862.712	20754
862.844	20644
862.976	20834
863.108	20815
863.24	21252
863.372	20708
863.504	20727
863.636	20697
863.768	20796
863.9	20857
864.032	20708
864.164	20708
864.296	20739
864.428	20823
864.559	20807
864.691	20758
864.823	20689
864.954	20743
865.086	20686
865.217	20606
865.349	20621
865.48	20648
865.612	20629
865.743	20705
865.875	20712
866.006	20651
866.137	20674
866.269	20651
866.4	20663
866.531	20575
866.662	20629
866.793	20602
866.924	20693
867.055	20644
867.186	20583
867.317	20579
867.448	20393
867.579	20450
867.71	20450
867.841	20480
867.972	20644
868.103	20507
868.233	20590
868.364	20507
868.495	20651
868.625	20773
868.756	20982
868.886	20853
869.017	20868
869.147	20921
869.278	20944
869.408	20830
869.539	20758
869.669	20925
869.799	20899
869.929	20895
870.06	20906
870.19	21150
870.32	21062
870.45	21199
870.58	21291
870.71	21310
870.84	21378
870.97	21272
871.1	21199
871.23	21355
871.36	21469
871.489	21249
871.619	21454
871.749	21443
871.879	21363
872.008	21511
872.138	21462
872.267	21370
872.397	21336
872.526	21291
872.656	21302
872.785	21260
872.915	21393
873.044	21500
873.173	21408
873.303	21454
873.432	21572
873.561	21542
873.69	21416
873.819	21477
873.948	21515
874.077	21412
874.206	21473
874.335	21450
874.464	21606
874.593	21652
874.722	21492
874.851	21698
874.979	21713
875.108	21751
875.237	21580
875.365	21667
875.494	21720
875.623	21648
875.751	21583
875.88	21660
876.008	21865
876.136	21728
876.265	22078
876.393	22139
876.521	22097
876.65	22109
876.778	22040
876.906	21964
877.034	21911
877.162	21960
877.29	21926
877.418	21968
877.546	21972
877.674	22036
877.802	22074
877.93	21991
878.058	22090
878.185	21918
878.313	21930
878.441	21926
878.568	21785
878.696	22017
878.824	22082
878.951	22010
879.079	22242
879.206	22272
879.333	22276
879.461	22059
879.588	22154
879.715	22226
879.842	22120
879.97	22105
880.097	21934
880.224	21892
880.351	21888
880.478	21895
880.605	21808
880.732	21876
880.859	22059
880.986	21770
881.112	21892
881.239	21823
881.366	21686
881.493	21530
881.619	21393
881.746	21473
881.872	21504
881.999	21488
882.125	21351
882.252	21492
882.378	21367
882.505	21435
882.631	21321
882.757	21195
882.883	21291
883.01	21154
883.136	21066
883.262	21150
883.388	20944
883.514	21112
883.64	21180
883.766	21108
883.892	20857
884.018	21005
884.143	20921
884.269	21169
884.395	20785
884.52	20724
884.646	20701
884.772	20716
884.897	20621
885.023	20876
885.148	20834
885.274	20804
885.399	20910
885.524	20739
885.65	20697
885.775	20838
885.9	20720
886.025	20842
886.15	20750
886.275	20842
886.4	20526
886.525	20579
886.65	20598
886.775	20663
886.9	20823
887.025	21020
887.149	20701
887.274	20556
887.399	20549
887.523	20484
887.648	20522
887.773	20427
887.897	20667
888.021	20507
888.146	20511
888.27	20568
888.395	20659
888.519	20678
888.643	20583
888.767	20511
888.891	20514
889.015	20271
889.139	20305
889.263	20317
889.387	20358
889.511	20480
889.635	20507
889.759	20275
889.883	20393
890.006	20355
890.13	20381
890.254	20294
890.377	20282
890.501	20073
890.624	20043
890.748	20096
890.871	19967
890.995	19883
891.118	19890
891.241	19909
891.364	19982
891.488	20103
891.611	19860
891.734	19921
891.857	19955
891.98	19982
892.103	19928
892.226	20012
892.349	19856
892.471	19651
892.594	19902
892.717	19845
892.839	19902
892.962	19738
893.085	19925
893.207	19734
893.33	19624
893.452	19830
893.575	19902
893.697	19833
893.819	19936
893.941	19940
894.064	19940
894.186	19890
894.308	19746
894.43	19909
894.552	19837
894.674	19925
894.796	19750
894.918	19856
895.04	19780
895.161	19776
895.283	19849
895.405	19860
895.526	19811
895.648	19715
895.769	19849
895.891	19868
896.012	19970
896.134	19909
896.255	19913
896.376	19742
896.498	19830
896.619	19856
896.74	19879
896.861	19913
896.982	20088
897.103	20377
897.224	20100
897.345	19959
897.466	19963
897.587	20005
897.708	20077
897.828	20138
897.949	19997
898.07	19833
898.19	19871
898.311	19989
898.431	19978
898.552	20122
898.672	20081
898.792	20088
898.913	20096
899.033	19925
899.153	19928
899.273	19769
899.393	19814
899.513	19883
899.633	19875
899.753	19818
899.873	19742
899.993	19868
900.113	19696
900.232	19852
900.352	19731
900.472	19643
900.591	19544
900.711	19613
900.83	19597
900.95	19616
901.069	19632
901.189	19460
901.308	19350
901.427	19263
901.546	19183
901.665	19240
901.784	19194
901.904	18996
902.023	18833
902.141	18783
902.26	18677
902.379	18821
902.498	18749
902.617	18673
902.735	18741
902.854	18692
902.973	18616
903.091	18418
903.21	18357
903.328	18334
903.446	18334
903.565	18262
903.683	18243
903.801	18076
903.919	18102
904.038	18102
904.156	18030
904.274	18026
904.392	18049
904.51	17847
904.627	17942
904.745	18022
904.863	17954
904.981	17657
905.098	17630
905.216	17551
905.334	17524
905.451	17661
905.569	17596
905.686	17623
905.803	17589
905.921	17433
906.038	17585
906.155	17482
906.272	17261
906.389	17334
906.506	17136
906.623	17090
906.74	17178
906.857	17086
906.974	17045
907.091	17273
907.208	17227
907.324	17220
907.441	17025
907.557	16869
907.674	16812
907.79	16786
907.907	16889
908.023	16984
908.139	16881
908.256	16809
908.372	16725
908.488	16831
908.604	16622
908.72	16546
908.836	16668
908.952	16519
909.068	16721
909.184	16713
909.3	16622
909.415	16641
909.531	16622
909.647	16295
909.762	16325
909.878	16341
909.993	16306
910.108	16257
910.224	16188
910.339	16207
910.454	16223
910.57	16143
910.685	16017
910.8	16352
910.915	16242
911.03	16063
911.145	15956
911.259	15926
911.374	15861
911.489	15778
911.604	15785
911.718	15629
911.833	15637
911.947	15469
912.062	15488
912.176	15618
912.291	15652
912.405	15606
912.519	15827
912.633	15827
912.748	15804
912.862	15641
912.976	15466
913.09	15462
913.204	15435
913.318	15492
913.431	15469
913.545	15572
913.659	15515
913.772	15386
913.886	15389
914	15272
914.113	15329
914.226	15454
914.34	15222
914.453	15077
914.566	15291
914.68	15135
914.793	15093
914.906	14952
915.019	14834
915.132	14777
915.245	14872
915.358	14849
915.47	14941
915.583	14861
915.696	14876
915.809	14925
915.921	14944
916.034	14819
916.146	14663
916.259	14674
916.371	14853
916.483	14868
916.595	14670
916.708	14716
916.82	14769
916.932	14777
917.044	14659
917.156	14594
917.268	14602
917.38	14541
917.491	14488
917.603	14530
917.715	14686
917.826	14564
917.938	14442
918.049	14366
918.161	14522
918.272	14663
918.384	14629
918.495	14511
918.606	14362
918.717	14278
918.828	14343
918.939	14336
919.05	14183
919.161	14244
919.272	14168
919.383	14191
919.494	14408
919.604	14446
919.715	14271
919.826	14252
919.936	14263
920.047	14320
920.157	14324
920.267	14499
920.378	14168
920.488	14263
920.598	14431
920.708	14682
920.818	14381
920.928	14450
921.038	14670
921.148	14514
921.258	14221
921.368	14081
921.477	14043
921.587	13989
921.697	13856
921.806	14092
921.916	13868
922.025	13753
922.134	13666
922.244	13563
922.353	13734
922.462	13548
922.571	13529
922.68	13316
922.789	13362
922.898	13358
923.007	13297
923.116	13194
923.224	13282
923.333	13289
923.442	13168
923.55	13084
923.659	13156
923.767	13240
923.876	13103
923.984	13187
924.092	13038
924.201	13065
924.309	13034
924.417	13080
924.525	12989
924.633	12989
924.741	13947
924.849	12844
924.956	12901
925.064	12726
925.172	12681
925.279	12681
925.387	12741
925.494	12719
925.602	12909
925.709	12764
925.816	12734
925.924	12646
926.031	12833
926.138	12662
926.245	12719
926.352	12673
926.459	12703
926.566	12779
926.673	12654
926.779	12498
926.886	12441
926.993	12315
927.099	12270
927.206	12254
927.312	12182
927.419	12365
927.525	12273
927.631	12296
927.737	12182
927.843	12136
927.95	12076
928.056	12186
928.162	12136
928.267	12163
928.373	12669
928.479	12232
928.585	11954
928.69	12095
928.796	12140
928.901	12003
929.007	11756
929.112	11954
929.218	11878
929.323	11904
929.428	11790
929.533	12041
929.638	11855
929.743	11764
929.848	11821
929.953	11851
930.058	11684
930.163	11615
930.267	11585
930.372	11703
930.477	11478
930.581	11729
930.685	11646
930.79	11482
930.894	11493
930.998	11433
931.103	11562
931.207	11132
931.311	11102
931.415	11090
931.519	10820
931.623	10858
