Data from test_V78500241_732.txt Node
Date: Fri Mar 25 15:14:57 CST 2022
User: usil
Spectrometer: V785-0024
Trigger mode: 0
Integration Time (sec): 4.000000E-1
Scans to average: 1
Nonlinearity correction enabled: false
Boxcar width: 0
Storing dark spectrum: false
XAxis mode: Wavelengths
Number of Pixels in Spectrum: 1024
>>>>>Begin Spectral Data<<<<<
801.071	27762
801.214	27614
801.356	27420
801.499	27401
801.641	27237
801.783	27173
801.926	27283
802.068	27188
802.211	27138
802.353	27096
802.496	26921
802.638	26982
802.78	26902
802.923	26868
803.065	26830
803.208	26811
803.35	26765
803.492	26990
803.635	26986
803.777	26994
803.919	27024
804.061	27283
804.204	27119
804.346	27047
804.488	27051
804.63	27001
804.773	27047
804.915	27142
805.057	27077
805.199	27131
805.341	27119
805.483	27192
805.626	27237
805.768	27085
805.91	27256
806.052	27100
806.194	27127
806.336	27317
806.478	27214
806.62	27150
806.762	27325
806.904	27424
807.046	27755
807.188	27610
807.33	27576
807.472	27564
807.614	27568
807.756	27443
807.898	27485
808.04	27523
808.182	27397
808.324	27587
808.465	27500
808.607	27682
808.749	27838
808.891	27953
809.033	27930
809.174	27895
809.316	27827
809.458	27869
809.6	27903
809.741	27964
809.883	27941
810.025	28120
810.166	28128
810.308	28067
810.45	28158
810.591	28051
810.733	27937
810.875	27816
811.016	27751
811.158	27713
811.299	27972
811.441	28086
811.582	27930
811.724	27705
811.865	27778
812.007	27778
812.148	27835
812.29	27953
812.431	28029
812.573	28093
812.714	28272
812.855	28470
812.997	28401
813.138	28599
813.279	28527
813.421	28447
813.562	28394
813.703	28200
813.845	28109
813.986	27793
814.127	27622
814.268	27564
814.41	27542
814.551	27488
814.692	27557
814.833	27496
814.974	27549
815.115	27603
815.256	27279
815.397	27405
815.539	27420
815.68	27386
815.821	27306
815.962	27408
816.103	27207
816.244	27077
816.385	26998
816.526	27032
816.666	26918
816.807	26788
816.948	26979
817.089	27017
817.23	26887
817.371	26940
817.512	26785
817.653	26807
817.793	26785
817.934	26781
818.075	26834
818.216	26857
818.356	26686
818.497	26625
818.638	26518
818.778	26590
818.919	26621
819.06	26674
819.2	26746
819.341	26929
819.481	26762
819.622	26861
819.762	27150
819.903	27154
820.043	26979
820.184	26899
820.324	26857
820.465	26971
820.605	26914
820.746	26804
820.886	26868
821.026	26937
821.167	26876
821.307	26914
821.447	26807
821.588	26743
821.728	26503
821.868	26552
822.008	26248
822.149	26199
822.289	26408
822.429	26069
822.569	26107
822.709	25955
822.849	25902
822.99	25799
823.13	25700
823.27	25727
823.41	25830
823.55	25575
823.69	25495
823.83	25590
823.97	25434
824.11	25430
824.25	25464
824.389	25312
824.529	25544
824.669	25422
824.809	25578
824.949	25582
825.089	25616
825.228	25407
825.368	25335
825.508	25301
825.648	25236
825.787	25384
825.927	25415
826.067	25312
826.206	25263
826.346	25373
826.485	25274
826.625	25251
826.765	25491
826.904	25369
827.044	25160
827.183	25019
827.323	25072
827.462	24989
827.601	25103
827.741	24943
827.88	25004
828.02	24928
828.159	25046
828.298	25012
828.437	25156
828.577	24844
828.716	25171
828.855	25038
828.994	24719
829.134	24871
829.273	24753
829.412	24753
829.551	24707
829.69	24734
829.829	24757
829.968	24943
830.107	24867
830.246	24700
830.385	24707
830.524	24654
830.663	24403
830.802	24479
830.941	24239
831.08	24129
831.219	24327
831.357	24403
831.496	24475
831.635	24372
831.774	24213
831.913	24163
832.051	24159
832.19	24049
832.329	24087
832.467	24041
832.606	23996
832.744	23889
832.883	23942
833.022	24034
833.16	23965
833.299	24148
833.437	24087
833.576	24121
833.714	23935
833.852	24083
833.991	24003
834.129	24163
834.267	24239
834.406	24053
834.544	24102
834.682	23969
834.821	23954
834.959	24194
835.097	24022
835.235	24174
835.373	23969
835.511	24007
835.65	23912
835.788	23927
835.926	23733
836.064	23794
836.202	23661
836.34	23961
836.478	24003
836.615	23870
836.753	23939
836.891	23908
837.029	23931
837.167	23805
837.305	23767
837.443	23718
837.58	23570
837.718	23779
837.856	23748
837.993	23680
838.131	23570
838.269	23653
838.406	23611
838.544	23528
838.681	23277
838.819	23345
838.956	23235
839.094	23159
839.231	23162
839.369	23436
839.506	23562
839.643	23391
839.781	23090
839.918	23060
840.055	23269
840.193	23200
840.33	23071
840.467	22984
840.604	23200
840.742	23292
840.879	22946
841.016	23041
841.153	22991
841.29	23204
841.427	23143
841.564	23067
841.701	23105
841.838	22911
841.975	22995
842.112	23022
842.249	22873
842.385	22843
842.522	23079
842.659	22843
842.796	22778
842.933	22915
843.069	22759
843.206	22820
843.343	22862
843.479	22820
843.616	22858
843.752	22729
843.889	22664
844.025	22759
844.162	22634
844.298	22725
844.435	22573
844.571	22656
844.708	22675
844.844	22839
844.98	22698
845.117	22710
845.253	22706
845.389	22493
845.525	22596
845.661	22443
845.798	22341
845.934	22489
846.07	22390
846.206	22466
846.342	22402
846.478	22265
846.614	22253
846.75	22044
846.886	22147
847.022	22310
847.158	22059
847.294	22181
847.429	22207
847.565	22116
847.701	22371
847.837	21892
847.972	21857
848.108	21934
848.244	21926
848.379	21751
848.515	21698
848.65	21641
848.786	21644
848.921	21656
849.057	21762
849.192	21800
849.328	21774
849.463	21705
849.598	21667
849.734	21587
849.869	21557
850.004	21443
850.14	21496
850.275	21458
850.41	21420
850.545	21420
850.68	21435
850.815	21450
850.95	21359
851.085	21458
851.22	21576
851.355	21519
851.49	21439
851.625	21485
851.76	21485
851.895	21203
852.03	21348
852.165	21416
852.299	21488
852.434	21485
852.569	21473
852.703	21389
852.838	21534
852.973	21507
853.107	21564
853.242	21378
853.376	21313
853.511	21279
853.645	21226
853.78	21458
853.914	21386
854.048	21249
854.183	21359
854.317	21291
854.451	21477
854.585	21325
854.72	21329
854.854	21348
854.988	21237
855.122	21332
855.256	21173
855.39	21161
855.524	21424
855.658	21355
855.792	21363
855.926	21363
856.06	21249
856.194	21310
856.327	21275
856.461	21260
856.595	21138
856.729	21302
856.862	21279
856.996	21298
857.13	21310
857.263	21378
857.397	21428
857.53	21302
857.664	21317
857.797	21382
857.931	21256
858.064	21321
858.197	21401
858.331	21264
858.464	21283
858.597	21230
858.731	21260
858.864	21226
858.997	21169
859.13	21256
859.263	21370
859.396	21370
859.529	21119
859.662	21256
859.795	21188
859.928	21306
860.061	21496
860.194	21534
860.327	21298
860.46	21279
860.592	21386
860.725	21462
860.858	21359
860.99	21287
861.123	21256
861.256	21249
861.388	21207
861.521	22090
861.653	21211
861.786	21081
861.918	21218
862.05	21275
862.183	21188
862.315	21291
862.447	21188
862.58	21039
862.712	21036
862.844	20994
862.976	21024
863.108	21020
863.24	21313
863.372	20944
863.504	20956
863.636	21005
863.768	21074
863.9	20956
864.032	20960
864.164	20979
864.296	20952
864.428	21138
864.559	21028
864.691	20948
864.823	21058
864.954	21032
865.086	21017
865.217	20948
865.349	20861
865.48	20971
865.612	20960
865.743	21104
865.875	20819
866.006	20769
866.137	20982
866.269	20880
866.4	20796
866.531	20830
866.662	20842
866.793	20807
866.924	20800
867.055	20838
867.186	20929
867.317	20731
867.448	20849
867.579	20857
867.71	20746
867.841	20823
867.972	20743
868.103	20716
868.233	20735
868.364	20781
868.495	20887
868.625	20994
868.756	21116
868.886	20990
869.017	21020
869.147	21138
869.278	21142
869.408	21013
869.539	21077
869.669	21176
869.799	21093
869.929	21089
870.06	21154
870.19	21329
870.32	21317
870.45	21443
870.58	21405
870.71	21511
870.84	21447
870.97	21496
871.1	21511
871.23	21633
871.36	21603
871.489	21580
871.619	21568
871.749	21603
871.879	21644
872.008	21770
872.138	21675
872.267	21698
872.397	21629
872.526	21511
872.656	21496
872.785	21462
872.915	21637
873.044	21698
873.173	21538
873.303	21789
873.432	21690
873.561	21705
873.69	21747
873.819	21599
873.948	21633
874.077	21648
874.206	21641
874.335	21724
874.464	21781
874.593	21934
874.722	21869
874.851	21861
874.979	21895
875.108	22090
875.237	21899
875.365	21835
875.494	21762
875.623	21888
875.751	21937
875.88	21876
876.008	21937
876.136	22059
876.265	22230
876.393	22481
876.521	22360
876.65	22276
876.778	22257
876.906	22246
877.034	22272
877.162	22295
877.29	22219
877.418	22169
877.546	22276
877.674	22249
877.802	22299
877.93	22265
878.058	22276
878.185	22124
878.313	22204
878.441	22162
878.568	22082
878.696	22044
878.824	22341
878.951	22341
879.079	22535
879.206	22516
879.333	22402
879.461	22337
879.588	22306
879.715	22310
879.842	22569
879.97	22348
880.097	22082
880.224	22200
880.351	22055
880.478	22131
880.605	22067
880.732	22048
880.859	22226
880.986	21998
881.112	21960
881.239	21968
881.366	21797
881.493	21755
881.619	21511
881.746	21682
881.872	21671
881.999	21633
882.125	21625
882.252	21827
882.378	21603
882.505	21762
882.631	21496
882.757	21336
882.883	21283
883.01	21294
883.136	21340
883.262	21260
883.388	21180
883.514	21317
883.64	21466
883.766	21310
883.892	21264
884.018	21043
884.143	21317
884.269	21382
884.395	21123
884.52	20986
884.646	20998
884.772	20804
884.897	20872
885.023	20944
885.148	21085
885.274	21173
885.399	21062
885.524	20887
885.65	20944
885.775	20910
885.9	20986
886.025	21142
886.15	21058
886.275	20921
886.4	20899
886.525	20982
886.65	20929
886.775	20762
886.9	21066
887.025	21154
887.149	21013
887.274	20720
887.399	20750
887.523	20712
887.648	20689
887.773	20537
887.897	20830
888.021	20735
888.146	20807
888.27	20861
888.395	20941
888.519	20796
888.643	20792
888.767	20910
888.891	20655
889.015	20514
889.139	20594
889.263	20404
889.387	20648
889.511	20705
889.635	20663
889.759	20499
889.883	20537
890.006	20541
890.13	20560
890.254	20377
890.377	20396
890.501	20351
890.624	20320
890.748	20317
890.871	20221
890.995	20126
891.118	20088
891.241	20050
891.364	20195
891.488	20195
891.611	20145
891.734	20130
891.857	20092
891.98	20244
892.103	20119
892.226	20073
892.349	20027
892.471	19845
892.594	20065
892.717	20134
892.839	19967
892.962	20027
893.085	20195
893.207	20024
893.33	19906
893.452	19917
893.575	20054
893.697	19917
893.819	20153
893.941	20309
894.064	20119
894.186	19974
894.308	19944
894.43	20073
894.552	20195
894.674	20043
894.796	19963
894.918	20020
895.04	20001
895.161	19989
895.283	20046
895.405	19894
895.526	20046
895.648	19902
895.769	20012
895.891	20077
896.012	20043
896.134	20027
896.255	20035
896.376	19932
896.498	19936
896.619	20054
896.74	20111
896.861	20149
896.982	20385
897.103	20419
897.224	20252
897.345	20252
897.466	20233
897.587	20225
897.708	20415
897.828	20275
897.949	20073
898.07	20088
898.19	20218
898.311	20256
898.431	20191
898.552	20153
898.672	20259
898.792	20347
898.913	20237
899.033	20107
899.153	19978
899.273	19951
899.393	19898
899.513	20069
899.633	20058
899.753	20039
899.873	20001
899.993	20012
900.113	19967
900.232	19913
900.352	19917
900.472	19742
900.591	19708
900.711	19856
900.83	19769
900.95	19921
901.069	19875
901.189	19643
901.308	19445
901.427	19354
901.546	19297
901.665	19324
901.784	19407
901.904	19289
902.023	19065
902.141	18962
902.26	18867
902.379	18932
902.498	18916
902.617	18776
902.735	18859
902.854	18863
902.973	18806
903.091	18544
903.21	18601
903.328	18528
903.446	18536
903.565	18346
903.683	18365
903.801	18262
903.919	18334
904.038	18285
904.156	18213
904.274	18068
904.392	18152
904.51	18091
904.627	18133
904.745	18235
904.863	18072
904.981	17973
905.098	17809
905.216	17783
905.334	17783
905.451	17752
905.569	17828
905.686	17817
905.803	17703
905.921	17589
906.038	17554
906.155	17726
906.272	17436
906.389	17459
906.506	17379
906.623	17383
906.74	17425
906.857	17151
906.974	17246
907.091	17326
907.208	17459
907.324	17356
907.441	17242
907.557	17029
907.674	17090
907.79	17006
907.907	17079
908.023	17166
908.139	17064
908.256	17064
908.372	17010
908.488	16946
908.604	16790
908.72	16778
908.836	16797
908.952	16790
909.068	16767
909.184	16896
909.3	16812
909.415	16873
909.531	16782
909.647	16531
909.762	16447
909.878	16405
909.993	16538
910.108	16493
910.224	16474
910.339	16417
910.454	16348
910.57	16363
910.685	16204
910.8	16409
910.915	16455
911.03	16265
911.145	16086
911.259	15983
911.374	16071
911.489	16025
911.604	16025
911.718	15728
911.833	15808
911.947	15766
912.062	15751
912.176	15781
912.291	15774
912.405	15785
912.519	15983
912.633	15949
912.748	15895
912.862	15644
912.976	15568
913.09	15481
913.204	15534
913.318	15587
913.431	15732
913.545	15584
913.659	15648
913.772	15526
913.886	15507
914	15412
914.113	15545
914.226	15458
914.34	15447
914.453	15230
914.566	15416
914.68	15252
914.793	15294
914.906	15188
915.019	14982
915.132	14982
915.245	15097
915.358	15150
915.47	15005
915.583	15081
915.696	15070
915.809	15173
915.921	15226
916.034	15013
916.146	14963
916.259	15001
916.371	14982
916.483	15089
916.595	14823
916.708	14697
916.82	14899
916.932	14921
917.044	14811
917.156	14735
917.268	14731
917.38	14724
917.491	14720
917.603	14712
917.715	14773
917.826	14769
917.938	14708
918.049	14488
918.161	14655
918.272	14823
918.384	14785
918.495	14743
918.606	14507
918.717	14446
918.828	14522
918.939	14575
919.05	14454
919.161	14522
919.272	14237
919.383	14263
919.494	14549
919.604	14785
919.715	14457
919.826	14400
919.936	14358
920.047	14503
920.157	14385
920.267	14632
920.378	14507
920.488	14336
920.598	14552
920.708	14716
920.818	14590
920.928	14640
921.038	14739
921.148	14610
921.258	14412
921.368	14385
921.477	14210
921.587	14244
921.697	14145
921.806	14161
921.916	14123
922.025	13906
922.134	13868
922.244	13822
922.353	13940
922.462	13738
922.571	13719
922.68	13571
922.789	13544
922.898	13586
923.007	13384
923.116	13468
923.224	13403
923.333	13476
923.442	13362
923.55	13255
923.659	13339
923.767	13388
923.876	13362
923.984	13388
924.092	13213
924.201	13270
924.309	13190
924.417	13221
924.525	13164
924.633	13160
924.741	13959
924.849	13019
924.956	13133
925.064	12951
925.172	12833
925.279	12844
925.387	12859
925.494	12958
925.602	13015
925.709	12989
925.816	12848
925.924	12886
926.031	12932
926.138	12913
926.245	12840
926.352	12738
926.459	12867
926.566	12924
926.673	12741
926.779	12749
926.886	12620
926.993	12532
927.099	12456
927.206	12456
927.312	12388
927.419	12593
927.525	12437
927.631	12452
927.737	12342
927.843	12285
927.95	12292
928.056	12262
928.162	12300
928.267	12300
928.373	12935
928.479	12464
928.585	12144
928.69	12235
928.796	12277
928.901	12205
929.007	11988
929.112	12228
929.218	12155
929.323	11988
929.428	11961
929.533	12155
929.638	11935
929.743	11935
929.848	12095
929.953	11946
930.058	11828
930.163	11726
930.267	11805
930.372	11904
930.477	11672
930.581	11977
930.685	11817
930.79	11585
930.894	11695
930.998	11672
931.103	11729
931.207	11353
931.311	11349
931.415	11174
931.519	10934
931.623	10984
