Data from test_V78500241_724.txt Node
Date: Fri Mar 25 15:14:54 CST 2022
User: usil
Spectrometer: V785-0024
Trigger mode: 0
Integration Time (sec): 4.000000E-1
Scans to average: 1
Nonlinearity correction enabled: false
Boxcar width: 0
Storing dark spectrum: false
XAxis mode: Wavelengths
Number of Pixels in Spectrum: 1024
>>>>>Begin Spectral Data<<<<<
801.071	28128
801.214	27983
801.356	27816
801.499	27838
801.641	27713
801.783	27549
801.926	27781
802.068	27709
802.211	27538
802.353	27386
802.496	27325
802.638	27329
802.78	27275
802.923	27275
803.065	27336
803.208	27359
803.35	27355
803.492	27488
803.635	27526
803.777	27416
803.919	27450
804.061	27694
804.204	27679
804.346	27530
804.488	27268
804.63	27450
804.773	27367
804.915	27564
805.057	27599
805.199	27382
805.341	27679
805.483	27652
805.626	27667
805.768	27496
805.91	27625
806.052	27759
806.194	27618
806.336	27838
806.478	27701
806.62	27732
806.762	27793
806.904	27880
807.046	28185
807.188	27998
807.33	28036
807.472	28139
807.614	28013
807.756	28082
807.898	28032
808.04	27998
808.182	27987
808.324	27914
808.465	27968
808.607	28162
808.749	28204
808.891	28394
809.033	28527
809.174	28447
809.316	28249
809.458	28401
809.6	28303
809.741	28462
809.883	28561
810.025	28455
810.166	28577
810.308	28592
810.45	28645
810.591	28626
810.733	28443
810.875	28249
811.016	28249
811.158	28200
811.299	28363
811.441	28451
811.582	28352
811.724	28211
811.865	28051
812.007	28303
812.148	28226
812.29	28291
812.431	28493
812.573	28713
812.714	28786
812.855	28835
812.997	29121
813.138	29189
813.279	29014
813.421	29143
813.562	28797
813.703	28691
813.845	28474
813.986	28253
814.127	28074
814.268	28025
814.41	28154
814.551	28063
814.692	28101
814.833	27819
814.974	27994
815.115	28086
815.256	27975
815.397	27945
815.539	27979
815.68	27785
815.821	27857
815.962	27739
816.103	27861
816.244	27797
816.385	27580
816.526	27583
816.666	27408
816.807	27329
816.948	27420
817.089	27538
817.23	27481
817.371	27462
817.512	27431
817.653	27351
817.793	27230
817.934	27321
818.075	27195
818.216	27287
818.356	27348
818.497	27184
818.638	27005
818.778	27108
818.919	27104
819.06	27108
819.2	27348
819.341	27363
819.481	27279
819.622	27397
819.762	27637
819.903	27576
820.043	27568
820.184	27507
820.324	27526
820.465	27412
820.605	27435
820.746	27507
820.886	27332
821.026	27408
821.167	27302
821.307	27618
821.447	27340
821.588	27291
821.728	27058
821.868	26956
822.008	26864
822.149	26788
822.289	26712
822.429	26579
822.569	26442
822.709	26473
822.849	26457
822.99	26343
823.13	26301
823.27	26271
823.41	26145
823.55	26176
823.69	26221
823.83	26001
823.97	26081
824.11	26024
824.25	26073
824.389	25951
824.529	26081
824.669	25986
824.809	26058
824.949	26001
825.089	25959
825.228	25944
825.368	25791
825.508	25814
825.648	25951
825.787	25925
825.927	25940
826.067	25868
826.206	25906
826.346	25860
826.485	25818
826.625	25776
826.765	25898
826.904	25750
827.044	25613
827.183	25655
827.323	25559
827.462	25590
827.601	25552
827.741	25594
827.88	25544
828.02	25430
828.159	25601
828.298	25643
828.437	25632
828.577	25445
828.716	25628
828.855	25514
828.994	25426
829.134	25225
829.273	25343
829.412	25202
829.551	25244
829.69	25240
829.829	25228
829.968	25285
830.107	25426
830.246	25255
830.385	25038
830.524	25202
830.663	24920
830.802	24977
830.941	24970
831.08	24844
831.219	24848
831.357	24970
831.496	25069
831.635	24973
831.774	24757
831.913	24692
832.051	24597
832.19	24525
832.329	24627
832.467	24593
832.606	24479
832.744	24540
832.883	24479
833.022	24509
833.16	24483
833.299	24528
833.437	24555
833.576	24635
833.714	24623
833.852	24707
833.991	24669
834.129	24452
834.267	24570
834.406	24627
834.544	24620
834.682	24608
834.821	24578
834.959	24745
835.097	24547
835.235	24620
835.373	24627
835.511	24551
835.65	24513
835.788	24315
835.926	24178
836.064	24232
836.202	24296
836.34	24403
836.478	24376
836.615	24403
836.753	24391
836.891	24505
837.029	24414
837.167	24346
837.305	24304
837.443	24315
837.58	24171
837.718	24418
837.856	24342
837.993	24342
838.131	24152
838.269	24095
838.406	24148
838.544	24011
838.681	23912
838.819	23832
838.956	23630
839.094	23665
839.231	23741
839.369	23863
839.506	24041
839.643	23923
839.781	23676
839.918	23680
840.055	23661
840.193	23707
840.33	23558
840.467	23611
840.604	23680
840.742	23745
840.879	23501
841.016	23535
841.153	23482
841.29	23737
841.427	23554
841.564	23554
841.701	23600
841.838	23509
841.975	23509
842.112	23543
842.249	23429
842.385	23303
842.522	23619
842.659	23395
842.796	23539
842.933	23322
843.069	23208
843.206	23410
843.343	23337
843.479	23425
843.616	23318
843.752	23303
843.889	23174
844.025	23250
844.162	23041
844.298	23318
844.435	23071
844.571	23151
844.708	23178
844.844	23288
844.98	23208
845.117	23189
845.253	23204
845.389	23178
845.525	23033
845.661	23033
845.798	22934
845.934	22930
846.07	22866
846.206	22839
846.342	23185
846.478	22771
846.614	22740
846.75	22603
846.886	22645
847.022	22630
847.158	22592
847.294	22721
847.429	22683
847.565	22577
847.701	22900
847.837	22432
847.972	22352
848.108	22322
848.244	22375
848.379	22375
848.515	22329
848.65	22215
848.786	22200
848.921	22188
849.057	22341
849.192	22219
849.328	22329
849.463	22219
849.598	22078
849.734	22093
849.869	22078
850.004	21911
850.14	22074
850.275	22139
850.41	21949
850.545	21831
850.68	21873
850.815	21964
850.95	22078
851.085	22226
851.22	22059
851.355	22032
851.49	21915
851.625	21911
851.76	21842
851.895	21892
852.03	21876
852.165	21987
852.299	22032
852.434	22082
852.569	22093
852.703	21922
852.838	22112
852.973	22109
853.107	22010
853.242	21808
853.376	21743
853.511	21690
853.645	21819
853.78	21873
853.914	21873
854.048	21728
854.183	21873
854.317	21869
854.451	21987
854.585	21751
854.72	21747
854.854	21759
854.988	21804
855.122	21709
855.256	21576
855.39	21762
855.524	21838
855.658	21873
855.792	21717
855.926	21812
856.06	21789
856.194	21850
856.327	21789
856.461	21625
856.595	21686
856.729	21819
856.862	21941
856.996	21880
857.13	21895
857.263	21918
857.397	21873
857.53	21892
857.664	21781
857.797	21751
857.931	21953
858.064	21835
858.197	21926
858.331	21656
858.464	21732
858.597	21709
858.731	21743
858.864	21698
858.997	21686
859.13	21762
859.263	21739
859.396	21945
859.529	21793
859.662	21759
859.795	21720
859.928	21717
860.061	21838
860.194	21930
860.327	21789
860.46	21679
860.592	21869
860.725	21888
860.858	22025
860.99	21587
861.123	21671
861.256	21789
861.388	21850
861.521	22481
861.653	21591
861.786	21542
861.918	21515
862.05	21599
862.183	21648
862.315	21682
862.447	21743
862.58	21656
862.712	21488
862.844	21370
862.976	21553
863.108	21705
863.24	21930
863.372	21412
863.504	21504
863.636	21511
863.768	21435
863.9	21469
864.032	21313
864.164	21386
864.296	21469
864.428	21606
864.559	21538
864.691	21603
864.823	21378
864.954	21568
865.086	21424
865.217	21515
865.349	21317
865.48	21325
865.612	21447
865.743	21469
865.875	21302
866.006	21477
866.137	21428
866.269	21306
866.4	21268
866.531	21298
866.662	21214
866.793	21211
866.924	21336
867.055	21393
867.186	21329
867.317	21135
867.448	21184
867.579	21321
867.71	21195
867.841	21283
867.972	21260
868.103	21119
868.233	21306
868.364	21332
868.495	21435
868.625	21618
868.756	21694
868.886	21424
869.017	21530
869.147	21603
869.278	21599
869.408	21462
869.539	21492
869.669	21542
869.799	21545
869.929	21637
870.06	21648
870.19	21781
870.32	21842
870.45	21842
870.58	21884
870.71	22021
870.84	22128
870.97	21823
871.1	21888
871.23	22032
871.36	22177
871.489	21972
871.619	22116
871.749	22105
871.879	22086
872.008	22246
872.138	22166
872.267	22124
872.397	21964
872.526	21850
872.656	21926
872.785	21861
872.915	22082
873.044	22207
873.173	22135
873.303	22192
873.432	22162
873.561	22287
873.69	22215
873.819	22284
873.948	22337
874.077	22093
874.206	22131
874.335	22211
874.464	22280
874.593	22432
874.722	22371
874.851	22341
874.979	22394
875.108	22447
875.237	22284
875.365	22310
875.494	22314
875.623	22333
875.751	22428
875.88	22230
876.008	22630
876.136	22565
876.265	22755
876.393	22839
876.521	22843
876.65	22786
876.778	22752
876.906	22637
877.034	22577
877.162	22767
877.29	22691
877.418	22702
877.546	22752
877.674	22634
877.802	22603
877.93	22759
878.058	22599
878.185	22622
878.313	22645
878.441	22672
878.568	22436
878.696	22561
878.824	22721
878.951	22793
879.079	22934
879.206	22968
879.333	22919
879.461	22759
879.588	22744
879.715	22900
879.842	22934
879.97	22744
880.097	22497
880.224	22493
880.351	22622
880.478	22565
880.605	22367
880.732	22596
880.859	22725
880.986	22497
881.112	22489
881.239	22242
881.366	22120
881.493	22246
881.619	22055
881.746	22246
881.872	22150
881.999	22207
882.125	22032
882.252	22207
882.378	22051
882.505	22074
882.631	21876
882.757	21800
882.883	21975
883.01	21846
883.136	21789
883.262	21671
883.388	21663
883.514	21819
883.64	21819
883.766	21766
883.892	21485
884.018	21587
884.143	21827
884.269	21663
884.395	21462
884.52	21374
884.646	21405
884.772	21424
884.897	21203
885.023	21405
885.148	21622
885.274	21523
885.399	21492
885.524	21458
885.65	21374
885.775	21515
885.9	21511
886.025	21557
886.15	21526
886.275	21306
886.4	21336
886.525	21500
886.65	21367
886.775	21222
886.9	21439
887.025	21519
887.149	21477
887.274	21367
887.399	21264
887.523	21112
887.648	21169
887.773	21138
887.897	21283
888.021	21142
888.146	21081
888.27	21275
888.395	21237
888.519	21279
888.643	21230
888.767	21214
888.891	21119
889.015	21001
889.139	20979
889.263	20895
889.387	21127
889.511	21218
889.635	21173
889.759	20887
889.883	20975
890.006	20990
890.13	21066
890.254	20944
890.377	20826
890.501	20708
890.624	20781
890.748	20773
890.871	20670
890.995	20495
891.118	20549
891.241	20533
891.364	20503
891.488	20708
891.611	20602
891.734	20606
891.857	20590
891.98	20606
892.103	20606
892.226	20629
892.349	20476
892.471	20415
892.594	20499
892.717	20442
892.839	20396
892.962	20400
893.085	20476
893.207	20476
893.33	20343
893.452	20370
893.575	20408
893.697	20374
893.819	20640
893.941	20678
894.064	20549
894.186	20355
894.308	20240
894.43	20537
894.552	20583
894.674	20583
894.796	20339
894.918	20343
895.04	20374
895.161	20518
895.283	20492
895.405	20374
895.526	20488
895.648	20457
895.769	20480
895.891	20393
896.012	20583
896.134	20480
896.255	20503
896.376	20427
896.498	20305
896.619	20492
896.74	20450
896.861	20419
896.982	20724
897.103	20891
897.224	20754
897.345	20678
897.466	20507
897.587	20705
897.708	20811
897.828	20648
897.949	20454
898.07	20480
898.19	20537
898.311	20682
898.431	20511
898.552	20727
898.672	20796
898.792	20689
898.913	20549
899.033	20602
899.153	20495
899.273	20370
899.393	20374
899.513	20492
899.633	20339
899.753	20301
899.873	20336
899.993	20419
900.113	20305
900.232	20362
900.352	20332
900.472	20206
900.591	20149
900.711	20229
900.83	20180
900.95	20195
901.069	20164
901.189	19959
901.308	19909
901.427	19704
901.546	19772
901.665	19852
901.784	19772
901.904	19677
902.023	19632
902.141	19251
902.26	19343
902.379	19346
902.498	19274
902.617	19350
902.735	19274
902.854	19156
902.973	19103
903.091	19027
903.21	18894
903.328	18985
903.446	18977
903.565	18711
903.683	18741
903.801	18654
903.919	18627
904.038	18707
904.156	18448
904.274	18555
904.392	18391
904.51	18369
904.627	18433
904.745	18532
904.863	18525
904.981	18159
905.098	18197
905.216	18224
905.334	18262
905.451	18174
905.569	18197
905.686	18243
905.803	18159
905.921	17916
906.038	18144
906.155	17920
906.272	17942
906.389	17889
906.506	17741
906.623	17817
906.74	17665
906.857	17642
906.974	17646
907.091	17687
907.208	17790
907.324	17771
907.441	17634
907.557	17421
907.674	17459
907.79	17360
907.907	17326
908.023	17421
908.139	17410
908.256	17322
908.372	17395
908.488	17292
908.604	17208
908.72	17136
908.836	17109
908.952	17197
909.068	17212
909.184	17155
909.3	17132
909.415	17162
909.531	17204
909.647	16786
909.762	16896
909.878	16824
909.993	16892
910.108	16782
910.224	16763
910.339	16869
910.454	16653
910.57	16634
910.685	16596
910.8	16957
910.915	16816
911.03	16687
911.145	16405
911.259	16459
911.374	16375
911.489	16310
911.604	16192
911.718	16150
911.833	16204
911.947	16036
912.062	16063
912.176	16143
912.291	16040
912.405	16071
912.519	16253
912.633	16356
912.748	16166
912.862	16082
912.976	16040
913.09	15865
913.204	16002
913.318	15956
913.431	15972
913.545	16040
913.659	16059
913.772	15888
913.886	15827
914	15781
914.113	15747
914.226	15998
914.34	15937
914.453	15580
914.566	15720
914.68	15736
914.793	15572
914.906	15424
915.019	15268
915.132	15340
915.245	15374
915.358	15424
915.47	15401
915.583	15447
915.696	15313
915.809	15500
915.921	15511
916.034	15291
916.146	15287
916.259	15336
916.371	15256
916.483	15291
916.595	15211
916.708	15214
916.82	15256
916.932	15093
917.044	15017
917.156	15066
917.268	14967
917.38	15062
917.491	15028
917.603	14998
917.715	15146
917.826	15039
917.938	14998
918.049	14864
918.161	14948
918.272	15207
918.384	15032
918.495	14948
918.606	14785
918.717	14781
918.828	14792
918.939	14754
919.05	14575
919.161	14727
919.272	14625
919.383	14571
919.494	14788
919.604	14975
919.715	14773
919.826	14686
919.936	14686
920.047	14883
920.157	14632
920.267	14830
920.378	14636
920.488	14701
920.598	14792
920.708	14990
920.818	14895
920.928	14804
921.038	14921
921.148	14963
921.258	14594
921.368	14533
921.477	14476
921.587	14431
921.697	14298
921.806	14393
921.916	14271
922.025	14172
922.134	14058
922.244	14046
922.353	14149
922.462	14001
922.571	13970
922.68	13772
922.789	13784
922.898	13765
923.007	13765
923.116	13757
923.224	13727
923.333	13658
923.442	13552
923.55	13578
923.659	13594
923.767	13693
923.876	13537
923.984	13616
924.092	13449
924.201	13457
924.309	13521
924.417	13434
924.525	13384
924.633	13438
924.741	14100
924.849	13194
924.956	13403
925.064	13247
925.172	13137
925.279	13103
925.387	13145
925.494	13217
925.602	13331
925.709	13133
925.816	13050
925.924	13076
926.031	13137
926.138	13027
926.245	13137
926.352	12973
926.459	13110
926.566	13061
926.673	13057
926.779	12947
926.886	12817
926.993	12764
927.099	12719
927.206	12623
927.312	12707
927.419	12722
927.525	12627
927.631	12650
927.737	12574
927.843	12582
927.95	12456
928.056	12467
928.162	12494
928.267	12585
928.373	13122
928.479	12585
928.585	12304
928.69	12467
928.796	12418
928.901	12338
929.007	12254
929.112	12372
929.218	12327
929.323	12213
929.428	12258
929.533	12342
929.638	12201
929.743	12220
929.848	12216
929.953	12144
930.058	12091
930.163	11882
930.267	11855
930.372	12095
930.477	11901
930.581	12083
930.685	12022
930.79	11855
930.894	11821
930.998	11699
931.103	11870
931.207	11566
931.311	11459
931.415	11467
931.519	11197
931.623	11143
