Data from test_V78500241_1159.txt Node
Date: Fri Mar 25 15:17:55 CST 2022
User: usil
Spectrometer: V785-0024
Trigger mode: 0
Integration Time (sec): 4.000000E-1
Scans to average: 1
Nonlinearity correction enabled: false
Boxcar width: 0
Storing dark spectrum: false
XAxis mode: Wavelengths
Number of Pixels in Spectrum: 1024
>>>>>Begin Spectral Data<<<<<
801.071	28451
801.214	28318
801.356	28139
801.499	28002
801.641	27785
801.783	27930
801.926	27949
802.068	27892
802.211	27770
802.353	27903
802.496	27595
802.638	27667
802.78	27591
802.923	27469
803.065	27549
803.208	27500
803.35	27648
803.492	27686
803.635	27808
803.777	27591
803.919	27922
804.061	27994
804.204	27755
804.346	27713
804.488	27591
804.63	27743
804.773	27629
804.915	27812
805.057	28002
805.199	27892
805.341	27873
805.483	27956
805.626	27911
805.768	27922
805.91	27918
806.052	27895
806.194	27873
806.336	28074
806.478	27960
806.62	27972
806.762	28116
806.904	28219
807.046	28424
807.188	28432
807.33	28417
807.472	28466
807.614	28287
807.756	28280
807.898	28272
808.04	28188
808.182	28329
808.324	28284
808.465	28265
808.607	28531
808.749	28527
808.891	28771
809.033	28790
809.174	28592
809.316	28752
809.458	28656
809.6	28668
809.741	28809
809.883	28847
810.025	28892
810.166	28904
810.308	28831
810.45	28763
810.591	28816
810.733	28637
810.875	28641
811.016	28664
811.158	28828
811.299	28668
811.441	28801
811.582	28725
811.724	28675
811.865	28622
812.007	28569
812.148	28569
812.29	28694
812.431	28858
812.573	29041
812.714	28968
812.855	29246
812.997	29284
813.138	29417
813.279	29379
813.421	29334
813.562	29060
813.703	28946
813.845	28873
813.986	28592
814.127	28489
814.268	28386
814.41	28451
814.551	28356
814.692	28508
814.833	28325
814.974	28352
815.115	28386
815.256	28196
815.397	28200
815.539	28154
815.68	28139
815.821	28188
815.962	28082
816.103	28185
816.244	28150
816.385	27907
816.526	27960
816.666	27804
816.807	27656
816.948	27800
817.089	27831
817.23	27747
817.371	27610
817.512	27603
817.653	27800
817.793	27614
817.934	27614
818.075	27671
818.216	27755
818.356	27736
818.497	27519
818.638	27370
818.778	27389
818.919	27496
819.06	27485
819.2	27511
819.341	27709
819.481	27671
819.622	27835
819.762	28006
819.903	28032
820.043	27998
820.184	27888
820.324	27960
820.465	27884
820.605	27728
820.746	27800
820.886	27614
821.026	27911
821.167	27766
821.307	27808
821.447	27682
821.588	27663
821.728	27492
821.868	27268
822.008	27203
822.149	27047
822.289	27195
822.429	26853
822.569	27036
822.709	26880
822.849	26617
822.99	26644
823.13	26708
823.27	26655
823.41	26438
823.55	26400
823.69	26533
823.83	26522
823.97	26621
824.11	26317
824.25	26195
824.389	26317
824.529	26351
824.669	26313
824.809	26336
824.949	26495
825.089	26362
825.228	26412
825.368	26176
825.508	26320
825.648	26221
825.787	26229
825.927	26199
826.067	26286
826.206	26103
826.346	26202
826.485	26431
826.625	26229
826.765	26461
826.904	26301
827.044	26020
827.183	26016
827.323	25906
827.462	26027
827.601	25974
827.741	25856
827.88	26016
828.02	25818
828.159	25883
828.298	25989
828.437	25928
828.577	25776
828.716	26016
828.855	25841
828.994	25704
829.134	25628
829.273	25700
829.412	25723
829.551	25571
829.69	25708
829.829	25746
829.968	25696
830.107	25689
830.246	25620
830.385	25571
830.524	25548
830.663	25468
830.802	25350
830.941	25274
831.08	25103
831.219	25350
831.357	25381
831.496	25487
831.635	25324
831.774	25240
831.913	25198
832.051	25031
832.19	25091
832.329	25232
832.467	25103
832.606	25008
832.744	24787
832.883	24920
833.022	24935
833.16	24894
833.299	25072
833.437	24878
833.576	25050
833.714	25095
833.852	25019
833.991	25065
834.129	25148
834.267	25072
834.406	24920
834.544	25103
834.682	24981
834.821	25050
834.959	25156
835.097	25080
835.235	25091
835.373	24966
835.511	24901
835.65	24905
835.788	24837
835.926	24814
836.064	24597
836.202	24738
836.34	24867
836.478	24954
836.615	24825
836.753	24806
836.891	25000
837.029	24844
837.167	24924
837.305	24810
837.443	24627
837.58	24574
837.718	24722
837.856	24741
837.993	24578
838.131	24654
838.269	24665
838.406	24703
838.544	24403
838.681	24414
838.819	24342
838.956	24136
839.094	24201
839.231	24216
839.369	24471
839.506	24540
839.643	24448
839.781	24171
839.918	24102
840.055	24216
840.193	24079
840.33	24106
840.467	24190
840.604	24144
840.742	24262
840.879	23992
841.016	24045
841.153	24068
841.29	24144
841.427	23950
841.564	24247
841.701	24079
841.838	23973
841.975	23828
842.112	24041
842.249	23855
842.385	23764
842.522	24083
842.659	23828
842.796	23764
842.933	23771
843.069	23802
843.206	23737
843.343	23916
843.479	23802
843.616	23859
843.752	23619
843.889	23570
844.025	23691
844.162	23726
844.298	23543
844.435	23638
844.571	23486
844.708	23623
844.844	23619
844.98	23615
845.117	23748
845.253	23512
845.389	23444
845.525	23520
845.661	23372
845.798	23440
845.934	23448
846.07	23330
846.206	23105
846.342	23509
846.478	23356
846.614	23166
846.75	23102
846.886	23041
847.022	23128
847.158	23029
847.294	23052
847.429	23025
847.565	23022
847.701	23326
847.837	22713
847.972	22736
848.108	22889
848.244	22850
848.379	22645
848.515	22649
848.65	22580
848.786	22634
848.921	22622
849.057	22759
849.192	22828
849.328	22691
849.463	22691
849.598	22588
849.734	22504
849.869	22504
850.004	22440
850.14	22485
850.275	22337
850.41	22303
850.545	22413
850.68	22459
850.815	22348
850.95	22371
851.085	22573
851.22	22504
851.355	22497
851.49	22428
851.625	22436
851.76	22291
851.895	22276
852.03	22371
852.165	22299
852.299	22257
852.434	22538
852.569	22485
852.703	22409
852.838	22542
852.973	22409
853.107	22584
853.242	22375
853.376	22219
853.511	22219
853.645	22181
853.78	22276
853.914	22280
854.048	22219
854.183	22226
854.317	22238
854.451	22470
854.585	22272
854.72	22306
854.854	22306
854.988	22131
855.122	22177
855.256	22162
855.39	22105
855.524	22265
855.658	22261
855.792	22257
855.926	22192
856.06	22192
856.194	22207
856.327	22215
856.461	22143
856.595	22139
856.729	22318
856.862	22314
856.996	22291
857.13	22299
857.263	22226
857.397	22299
857.53	22090
857.664	22223
857.797	22280
857.931	22272
858.064	22230
858.197	22432
858.331	22166
858.464	22124
858.597	22280
858.731	22188
858.864	22223
858.997	22200
859.13	22162
859.263	22230
859.396	22169
859.529	22192
859.662	22169
859.795	22234
859.928	22211
860.061	22436
860.194	22344
860.327	22253
860.46	22249
860.592	22367
860.725	22367
860.858	22455
860.99	22333
861.123	22082
861.256	22116
861.388	22382
861.521	23090
861.653	22169
861.786	22021
861.918	22025
862.05	21987
862.183	22147
862.315	22025
862.447	22128
862.58	22097
862.712	21850
862.844	21876
862.976	21953
863.108	22078
863.24	22215
863.372	21865
863.504	21911
863.636	21991
863.768	21842
863.9	22017
864.032	21838
864.164	21842
864.296	21827
864.428	22059
864.559	21915
864.691	21991
864.823	21907
864.954	21816
865.086	21922
865.217	21869
865.349	21778
865.48	21873
865.612	21800
865.743	21911
865.875	21648
866.006	21892
866.137	21656
866.269	21720
866.4	21751
866.531	21720
866.662	21838
866.793	21648
866.924	21774
867.055	21755
867.186	21812
867.317	21778
867.448	21660
867.579	21728
867.71	21743
867.841	21576
867.972	21751
868.103	21778
868.233	21720
868.364	21701
868.495	21663
868.625	22021
868.756	22055
868.886	21770
869.017	21888
869.147	21994
869.278	22082
869.408	22010
869.539	21945
869.669	22097
869.799	21960
869.929	22078
870.06	22131
870.19	22291
870.32	22238
870.45	22333
870.58	22375
870.71	22375
870.84	22375
870.97	22337
871.1	22409
871.23	22527
871.36	22580
871.489	22497
871.619	22535
871.749	22538
871.879	22584
872.008	22664
872.138	22535
872.267	22565
872.397	22504
872.526	22291
872.656	22352
872.785	22451
872.915	22592
873.044	22626
873.173	22607
873.303	22660
873.432	22717
873.561	22596
873.69	22596
873.819	22675
873.948	22706
874.077	22634
874.206	22554
874.335	22508
874.464	22713
874.593	22771
874.722	22691
874.851	22850
874.979	22965
875.108	22816
875.237	22733
875.365	22691
875.494	22710
875.623	22824
875.751	22668
875.88	22816
876.008	22858
876.136	22881
876.265	23109
876.393	23318
876.521	23277
876.65	23254
876.778	23197
876.906	23185
877.034	23090
877.162	23117
877.29	23052
877.418	23033
877.546	23166
877.674	23143
877.802	23090
877.93	23189
878.058	23086
878.185	23025
878.313	23117
878.441	23155
878.568	22927
878.696	23037
878.824	23227
878.951	23185
879.079	23345
879.206	23433
879.333	23341
879.461	23094
879.588	23193
879.715	23277
879.842	23280
879.97	23166
880.097	22938
880.224	22999
880.351	22961
880.478	22873
880.605	22953
880.732	22820
880.859	23220
880.986	22877
881.112	23006
881.239	22778
881.366	22577
881.493	22531
881.619	22516
881.746	22531
881.872	22538
881.999	22500
882.125	22512
882.252	22592
882.378	22386
882.505	22740
882.631	22512
882.757	22200
882.883	22238
883.01	22226
883.136	22215
883.262	22143
883.388	22158
883.514	22249
883.64	22150
883.766	22120
883.892	22013
884.018	21918
884.143	22078
884.269	22246
884.395	21922
884.52	21831
884.646	21865
884.772	21797
884.897	21762
885.023	21918
885.148	21934
885.274	21998
885.399	21949
885.524	21823
885.65	21854
885.775	21842
885.9	21766
886.025	21869
886.15	21876
886.275	21671
886.4	21709
886.525	21835
886.65	21641
886.775	21770
886.9	21918
887.025	21960
887.149	21755
887.274	21701
887.399	21675
887.523	21591
887.648	21450
887.773	21629
887.897	21690
888.021	21717
888.146	21534
888.27	21720
888.395	21713
888.519	21549
888.643	21545
888.767	21641
888.891	21416
889.015	21329
889.139	21488
889.263	21405
889.387	21450
889.511	21595
889.635	21538
889.759	21355
889.883	21450
890.006	21443
890.13	21401
890.254	21203
890.377	21256
890.501	21188
890.624	21100
890.748	21169
890.871	21062
890.995	20948
891.118	20929
891.241	20956
891.364	20906
891.488	21047
891.611	20960
891.734	20982
891.857	20929
891.98	20929
892.103	20925
892.226	20952
892.349	20979
892.471	20724
892.594	20777
892.717	20933
892.839	20902
892.962	20918
893.085	21001
893.207	20861
893.33	20777
893.452	20746
893.575	21001
893.697	20876
893.819	21161
893.941	21043
894.064	21093
894.186	20754
894.308	20708
894.43	20925
894.552	20963
894.674	20906
894.796	20777
894.918	20724
895.04	20762
895.161	20975
895.283	20887
895.405	20724
895.526	20906
895.648	20788
895.769	20842
895.891	20800
896.012	20971
896.134	20925
896.255	20845
896.376	20849
896.498	20823
896.619	20777
896.74	20788
896.861	20838
896.982	21089
897.103	21222
897.224	20941
897.345	21066
897.466	20937
897.587	21055
897.708	21077
897.828	21062
897.949	20971
898.07	20906
898.19	20899
898.311	21043
898.431	20948
898.552	21013
898.672	20960
898.792	21043
898.913	21096
899.033	20838
899.153	20815
899.273	20651
899.393	20670
899.513	20914
899.633	20746
899.753	20762
899.873	20682
899.993	20731
900.113	20667
900.232	20693
900.352	20568
900.472	20393
900.591	20427
900.711	20495
900.83	20465
900.95	20514
901.069	20522
901.189	20434
901.308	20126
901.427	20016
901.546	20142
901.665	20111
901.784	20065
901.904	20024
902.023	19890
902.141	19719
902.26	19632
902.379	19677
902.498	19662
902.617	19525
902.735	19628
902.854	19453
902.973	19472
903.091	19251
903.21	19270
903.328	19206
903.446	19202
903.565	19088
903.683	19019
903.801	18993
903.919	18947
904.038	18924
904.156	18821
904.274	18878
904.392	18738
904.51	18814
904.627	18837
904.745	18989
904.863	18844
904.981	18582
905.098	18559
905.216	18498
905.334	18585
905.451	18471
905.569	18407
905.686	18429
905.803	18452
905.921	18220
906.038	18273
906.155	18182
906.272	18121
906.389	18133
906.506	18110
906.623	18091
906.74	17988
906.857	17878
906.974	18034
907.091	18007
907.208	18148
907.324	18026
907.441	17912
907.557	17840
907.674	17707
907.79	17691
907.907	17638
908.023	17718
908.139	17771
908.256	17672
908.372	17570
908.488	17592
908.604	17474
908.72	17497
908.836	17482
908.952	17444
909.068	17474
909.184	17581
909.3	17269
909.415	17452
909.531	17417
909.647	17200
909.762	17109
909.878	17132
909.993	17189
910.108	17052
910.224	17105
910.339	17197
910.454	17003
910.57	16911
910.685	16965
910.8	17166
910.915	17033
911.03	16949
911.145	16816
911.259	16698
911.374	16740
911.489	16767
911.604	16660
911.718	16519
911.833	16485
911.947	16322
912.062	16329
912.176	16421
912.291	16413
912.405	16386
912.519	16535
912.633	16607
912.748	16470
912.862	16565
912.976	16299
913.09	16284
913.204	16226
913.318	16280
913.431	16402
913.545	16337
913.659	16360
913.772	16173
913.886	16063
914	16116
914.113	16162
914.226	16135
914.34	16040
914.453	15926
914.566	16032
914.68	15903
914.793	15880
914.906	15682
915.019	15648
915.132	15694
915.245	15705
915.358	15690
915.47	15728
915.583	15732
915.696	15701
915.809	15701
915.921	15873
916.034	15644
916.146	15511
916.259	15511
916.371	15671
916.483	15511
916.595	15488
916.708	15507
916.82	15534
916.932	15412
917.044	15481
917.156	15351
917.268	15298
917.38	15332
917.491	15222
917.603	15321
917.715	15424
917.826	15332
917.938	15173
918.049	15074
918.161	15203
918.272	15435
918.384	15264
918.495	15214
918.606	15097
918.717	14952
918.828	15055
918.939	15020
919.05	14971
919.161	15112
919.272	14838
919.383	14906
919.494	15066
919.604	15237
919.715	14990
919.826	14918
919.936	14933
920.047	15085
920.157	14979
920.267	15146
920.378	14914
920.488	15028
920.598	15066
920.708	15302
920.818	15119
920.928	15150
921.038	15256
921.148	15306
921.258	14956
921.368	14758
921.477	14785
921.587	14651
921.697	14530
921.806	14678
921.916	14537
922.025	14370
922.134	14248
922.244	14195
922.353	14320
922.462	14161
922.571	14206
922.68	14043
922.789	14046
922.898	13989
923.007	13894
923.116	14107
923.224	14054
923.333	13913
923.442	13871
923.55	13833
923.659	13845
923.767	13883
923.876	13780
923.984	13849
924.092	13681
924.201	13704
924.309	13761
924.417	13715
924.525	13616
924.633	13677
924.741	14549
924.849	13441
924.956	13552
925.064	13472
925.172	13350
925.279	13403
925.387	13358
925.494	13464
925.602	13510
925.709	13415
925.816	13236
925.924	13293
926.031	13403
926.138	13274
926.245	13293
926.352	13171
926.459	13285
926.566	13343
926.673	13240
926.779	13072
926.886	13168
926.993	12878
927.099	12924
927.206	12844
927.312	12897
927.419	12920
927.525	12916
927.631	12939
927.737	12798
927.843	12810
927.95	12730
928.056	12662
928.162	12665
928.267	12817
928.373	13293
928.479	12741
928.585	12585
928.69	12597
928.796	12593
928.901	12532
929.007	12456
929.112	12597
929.218	12589
929.323	12490
929.428	12433
929.533	12593
929.638	12369
929.743	12376
929.848	12483
929.953	12334
930.058	12323
930.163	12182
930.267	12117
930.372	12232
930.477	12125
930.581	12289
930.685	12201
930.79	11980
930.894	11939
930.998	11965
931.103	12079
931.207	11767
931.311	11684
931.415	11661
931.519	11379
931.623	11330
