Data from test_V78500241_1857.txt Node
Date: Fri Mar 25 15:22:47 CST 2022
User: usil
Spectrometer: V785-0024
Trigger mode: 0
Integration Time (sec): 4.000000E-1
Scans to average: 1
Nonlinearity correction enabled: false
Boxcar width: 0
Storing dark spectrum: false
XAxis mode: Wavelengths
Number of Pixels in Spectrum: 1024
>>>>>Begin Spectral Data<<<<<
801.071	27850
801.214	27941
801.356	27564
801.499	27545
801.641	27481
801.783	27351
801.926	27420
802.068	27374
802.211	27226
802.353	27260
802.496	27036
802.638	27039
802.78	27055
802.923	26967
803.065	26933
803.208	26914
803.35	27093
803.492	27268
803.635	27199
803.777	27077
803.919	27085
804.061	27420
804.204	27291
804.346	27195
804.488	27062
804.63	27317
804.773	27085
804.915	27077
805.057	27214
805.199	27142
805.341	27192
805.483	27336
805.626	27195
805.768	27226
805.91	27405
806.052	27359
806.194	27195
806.336	27587
806.478	27321
806.62	27233
806.762	27545
806.904	27553
807.046	27732
807.188	27690
807.33	27759
807.472	27709
807.614	27633
807.756	27682
807.898	27701
808.04	27690
808.182	27477
808.324	27652
808.465	27652
808.607	27937
808.749	28025
808.891	28067
809.033	28188
809.174	27983
809.316	27994
809.458	27884
809.6	27884
809.741	28067
809.883	27945
810.025	28139
810.166	28287
810.308	28356
810.45	28207
810.591	28070
810.733	27960
810.875	27941
811.016	27743
811.158	27774
811.299	28025
811.441	28219
811.582	28025
811.724	28006
811.865	27778
812.007	27838
812.148	27972
812.29	27987
812.431	28109
812.573	28147
812.714	28291
812.855	28588
812.997	28405
813.138	28630
813.279	28626
813.421	28546
813.562	28447
813.703	28276
813.845	28143
813.986	27922
814.127	27827
814.268	27641
814.41	27576
814.551	27622
814.692	27739
814.833	27496
814.974	27694
815.115	27724
815.256	27690
815.397	27557
815.539	27523
815.68	27363
815.821	27291
815.962	27211
816.103	27545
816.244	27279
816.385	27146
816.526	27222
816.666	27051
816.807	26899
816.948	26933
817.089	27089
817.23	26914
817.371	26967
817.512	26849
817.653	26899
817.793	26815
817.934	26880
818.075	26906
818.216	27062
818.356	26689
818.497	26769
818.638	26583
818.778	26739
818.919	26693
819.06	26750
819.2	26693
819.341	26796
819.481	26800
819.622	27043
819.762	27310
819.903	27138
820.043	27157
820.184	27039
820.324	26952
820.465	27135
820.605	27108
820.746	27028
820.886	26918
821.026	27116
821.167	26971
821.307	27039
821.447	26910
821.588	26868
821.728	26830
821.868	26556
822.008	26442
822.149	26309
822.289	26263
822.429	26210
822.569	26065
822.709	26172
822.849	25704
822.99	25909
823.13	25944
823.27	25791
823.41	25830
823.55	25616
823.69	25727
823.83	25772
823.97	25609
824.11	25476
824.25	25476
824.389	25575
824.529	25613
824.669	25571
824.809	25655
824.949	25624
825.089	25639
825.228	25510
825.368	25464
825.508	25441
825.648	25483
825.787	25449
825.927	25457
826.067	25430
826.206	25464
826.346	25487
826.485	25457
826.625	25457
826.765	25521
826.904	25346
827.044	25266
827.183	25232
827.323	25168
827.462	25179
827.601	25110
827.741	25129
827.88	25209
828.02	25076
828.159	25129
828.298	25103
828.437	25228
828.577	25118
828.716	25171
828.855	25156
828.994	24909
829.134	24848
829.273	24943
829.412	24772
829.551	24757
829.69	24776
829.829	24897
829.968	24954
830.107	24875
830.246	24814
830.385	24749
830.524	24825
830.663	24681
830.802	24589
830.941	24544
831.08	24426
831.219	24536
831.357	24551
831.496	24703
831.635	24639
831.774	24418
831.913	24410
832.051	24292
832.19	24311
832.329	24136
832.467	24197
832.606	23980
832.744	24125
832.883	24209
833.022	24003
833.16	24133
833.299	24178
833.437	24232
833.576	24174
833.714	24254
833.852	24186
833.991	24190
834.129	24388
834.267	24232
834.406	24148
834.544	24270
834.682	24235
834.821	24125
834.959	24357
835.097	24163
835.235	24342
835.373	24098
835.511	24224
835.65	24209
835.788	24049
835.926	23878
836.064	24041
836.202	23908
836.34	24045
836.478	24182
836.615	24079
836.753	23942
836.891	24079
837.029	24026
837.167	23958
837.305	23958
837.443	24007
837.58	24015
837.718	23863
837.856	23954
837.993	23821
838.131	23931
838.269	23832
838.406	23805
838.544	23585
838.681	23577
838.819	23497
838.956	23429
839.094	23531
839.231	23448
839.369	23707
839.506	23760
839.643	23566
839.781	23383
839.918	23296
840.055	23311
840.193	23349
840.33	23170
840.467	23410
840.604	23258
840.742	23505
840.879	23189
841.016	23265
841.153	23235
841.29	23368
841.427	23360
841.564	23140
841.701	23349
841.838	23235
841.975	23170
842.112	23292
842.249	23136
842.385	22930
842.522	23326
842.659	23029
842.796	23029
842.933	23200
843.069	22923
843.206	23025
843.343	23147
843.479	22995
843.616	22984
843.752	22816
843.889	22873
844.025	23014
844.162	22759
844.298	22824
844.435	22774
844.571	22774
844.708	22820
844.844	22908
844.98	22942
845.117	22930
845.253	22733
845.389	22683
845.525	22672
845.661	22706
845.798	22588
845.934	22470
846.07	22588
846.206	22386
846.342	22626
846.478	22428
846.614	22360
846.75	22367
846.886	22280
847.022	22386
847.158	22291
847.294	22303
847.429	22443
847.565	22287
847.701	22546
847.837	22032
847.972	22017
848.108	22048
848.244	22112
848.379	21816
848.515	21861
848.65	21873
848.786	21983
848.921	21949
849.057	21998
849.192	21964
849.328	21846
849.463	21831
849.598	21835
849.734	21755
849.869	21804
850.004	21599
850.14	21682
850.275	21641
850.41	21530
850.545	21504
850.68	21580
850.815	21774
850.95	21622
851.085	21842
851.22	21762
851.355	21523
851.49	21701
851.625	21686
851.76	21466
851.895	21557
852.03	21530
852.165	21572
852.299	21705
852.434	21648
852.569	21713
852.703	21663
852.838	21698
852.973	21709
853.107	21717
853.242	21629
853.376	21412
853.511	21348
853.645	21450
853.78	21530
853.914	21485
854.048	21382
854.183	21496
854.317	21488
854.451	21705
854.585	21382
854.72	21538
854.854	21648
854.988	21306
855.122	21515
855.256	21450
855.39	21416
855.524	21561
855.658	21458
855.792	21496
855.926	21462
856.06	21557
856.194	21610
856.327	21443
856.461	21397
856.595	21466
856.729	21462
856.862	21561
856.996	21458
857.13	21542
857.263	21606
857.397	21618
857.53	21610
857.664	21625
857.797	21515
857.931	21542
858.064	21504
858.197	21553
858.331	21439
858.464	21382
858.597	21477
858.731	21389
858.864	21405
858.997	21473
859.13	21428
859.263	21488
859.396	21583
859.529	21488
859.662	21477
859.795	21496
859.928	21401
860.061	21606
860.194	21728
860.327	21519
860.46	21485
860.592	21534
860.725	21496
860.858	21587
860.99	21458
861.123	21378
861.256	21397
861.388	21629
861.521	22128
861.653	21340
861.786	21207
861.918	21203
862.05	21283
862.183	21329
862.315	21370
862.447	21439
862.58	21321
862.712	21047
862.844	21233
862.976	21222
863.108	21199
863.24	21561
863.372	21085
863.504	21077
863.636	21119
863.768	21275
863.9	21188
864.032	21024
864.164	21119
864.296	21218
864.428	21241
864.559	21317
864.691	21173
864.823	21165
864.954	21032
865.086	21195
865.217	21218
865.349	20975
865.48	21077
865.612	21100
865.743	21169
865.875	21013
866.006	21028
866.137	21047
866.269	21123
866.4	21043
866.531	20967
866.662	20982
866.793	20929
866.924	20967
867.055	20963
867.186	21005
867.317	20998
867.448	21020
867.579	20994
867.71	20899
867.841	20910
867.972	20967
868.103	20891
868.233	21009
868.364	21005
868.495	21116
868.625	21317
868.756	21393
868.886	21252
869.017	21252
869.147	21321
869.278	21275
869.408	21291
869.539	21230
869.669	21237
869.799	21313
869.929	21332
870.06	21466
870.19	21485
870.32	21477
870.45	21481
870.58	21606
870.71	21762
870.84	21762
870.97	21682
871.1	21610
871.23	21857
871.36	21793
871.489	21762
871.619	21728
871.749	21797
871.879	21895
872.008	21945
872.138	21964
872.267	21880
872.397	21724
872.526	21709
872.656	21671
872.785	21629
872.915	21759
873.044	21827
873.173	21846
873.303	22010
873.432	21759
873.561	21956
873.69	21876
873.819	21880
873.948	21934
874.077	21880
874.206	21823
874.335	21831
874.464	21956
874.593	21964
874.722	22067
874.851	22219
874.979	22017
875.108	22059
875.237	21934
875.365	21994
875.494	22067
875.623	22090
875.751	22048
875.88	22143
876.008	22120
876.136	22306
876.265	22402
876.393	22630
876.521	22436
876.65	22504
876.778	22455
876.906	22500
877.034	22360
877.162	22508
877.29	22405
877.418	22478
877.546	22386
877.674	22451
877.802	22428
877.93	22436
878.058	22409
878.185	22299
878.313	22394
878.441	22413
878.568	22390
878.696	22462
878.824	22557
878.951	22573
879.079	22679
879.206	22618
879.333	22500
879.461	22394
879.588	22569
879.715	22603
879.842	22630
879.97	22447
880.097	22238
880.224	22238
880.351	22371
880.478	22257
880.605	22192
880.732	22242
880.859	22561
880.986	22249
881.112	22284
881.239	22109
881.366	21956
881.493	21983
881.619	21793
881.746	21804
881.872	21778
881.999	21876
882.125	21656
882.252	21804
882.378	21762
882.505	21869
882.631	21671
882.757	21618
882.883	21671
883.01	21458
883.136	21424
883.262	21466
883.388	21332
883.514	21526
883.64	21606
883.766	21454
883.892	21306
884.018	21344
884.143	21424
884.269	21485
884.395	21321
884.52	21154
884.646	21192
884.772	21020
884.897	20990
885.023	21135
885.148	21252
885.274	21272
885.399	21214
885.524	21184
885.65	21108
885.775	21135
885.9	21241
886.025	21310
886.15	21211
886.275	21108
886.4	21108
886.525	21020
886.65	21051
886.775	21131
886.9	21176
887.025	21393
887.149	21123
887.274	21047
887.399	20994
887.523	20937
887.648	20895
887.773	20887
887.897	21017
888.021	20861
888.146	20872
888.27	20963
888.395	21192
888.519	21112
888.643	20906
888.767	21013
888.891	20872
889.015	20716
889.139	20823
889.263	20674
889.387	20781
889.511	20857
889.635	20781
889.759	20670
889.883	20735
890.006	20686
890.13	20811
890.254	20640
890.377	20530
890.501	20564
890.624	20503
890.748	20579
890.871	20374
890.995	20275
891.118	20256
891.241	20343
891.364	20351
891.488	20511
891.611	20218
891.734	20275
891.857	20317
891.98	20370
892.103	20370
892.226	20317
892.349	20317
892.471	20107
892.594	20199
892.717	20286
892.839	20168
892.962	20309
893.085	20290
893.207	20138
893.33	20138
893.452	20096
893.575	20339
893.697	20130
893.819	20290
893.941	20476
894.064	20339
894.186	20138
894.308	20176
894.43	20267
894.552	20309
894.674	20256
894.796	20081
894.918	20172
895.04	20191
895.161	20317
895.283	20275
895.405	20164
895.526	20229
895.648	20263
895.769	20214
895.891	20168
896.012	20244
896.134	20210
896.255	20180
896.376	20134
896.498	20199
896.619	20142
896.74	20225
896.861	20218
896.982	20450
897.103	20556
897.224	20389
897.345	20358
897.466	20332
897.587	20336
897.708	20473
897.828	20396
897.949	20332
898.07	20290
898.19	20275
898.311	20507
898.431	20347
898.552	20412
898.672	20473
898.792	20427
898.913	20412
899.033	20317
899.153	20199
899.273	20027
899.393	20069
899.513	20294
899.633	20168
899.753	20100
899.873	20233
899.993	20202
900.113	20134
900.232	20161
900.352	20016
900.472	20096
900.591	19860
900.711	19875
900.83	19860
900.95	20035
901.069	19974
901.189	19761
901.308	19582
901.427	19430
901.546	19647
901.665	19525
901.784	19616
901.904	19411
902.023	19251
902.141	19095
902.26	19008
902.379	19122
902.498	19072
902.617	18905
902.735	18989
902.854	18886
902.973	19000
903.091	18730
903.21	18779
903.328	18696
903.446	18627
903.565	18403
903.683	18532
903.801	18357
903.919	18559
904.038	18380
904.156	18186
904.274	18327
904.392	18266
904.51	18323
904.627	18190
904.745	18292
904.863	18254
904.981	18083
905.098	17916
905.216	17897
905.334	17969
905.451	17942
905.569	17851
905.686	17965
905.803	17882
905.921	17695
906.038	17843
906.155	17798
906.272	17627
906.389	17657
906.506	17459
906.623	17539
906.74	17490
906.857	17455
906.974	17341
907.091	17497
907.208	17589
907.324	17547
907.441	17402
907.557	17155
907.674	17254
907.79	17075
907.907	17162
908.023	17288
908.139	17185
908.256	17121
908.372	16976
908.488	17018
908.604	16953
908.72	16896
908.836	16953
908.952	16854
909.068	16790
909.184	17003
909.3	16900
909.415	16927
909.531	16961
909.647	16702
909.762	16679
909.878	16672
909.993	16622
910.108	16580
910.224	16634
910.339	16603
910.454	16565
910.57	16333
910.685	16310
910.8	16584
910.915	16603
911.03	16371
911.145	16276
911.259	16261
911.374	16348
911.489	16048
911.604	16128
911.718	15895
911.833	15895
911.947	15857
912.062	15789
912.176	15930
912.291	15979
912.405	15846
912.519	16109
912.633	16082
912.748	16025
912.862	15911
912.976	15778
913.09	15823
913.204	15679
913.318	15797
913.431	15838
913.545	15747
913.659	15781
913.772	15682
913.886	15686
914	15580
914.113	15743
914.226	15629
914.34	15622
914.453	15397
914.566	15557
914.68	15450
914.793	15466
914.906	15287
915.019	15138
915.132	15097
915.245	15188
915.358	15249
915.47	15135
915.583	15230
915.696	15233
915.809	15272
915.921	15241
916.034	15131
916.146	15081
916.259	15062
916.371	15192
916.483	15135
916.595	15070
916.708	14998
916.82	15077
916.932	14944
917.044	14944
917.156	14902
917.268	14800
917.38	14788
917.491	14834
917.603	14765
917.715	14933
917.826	14971
917.938	14826
918.049	14708
918.161	14804
918.272	14899
918.384	14891
918.495	14781
918.606	14689
918.717	14606
918.828	14552
918.939	14549
919.05	14454
919.161	14568
919.272	14339
919.383	14400
919.494	14594
919.604	14739
919.715	14621
919.826	14495
919.936	14598
920.047	14632
920.157	14682
920.267	14659
920.378	14606
920.488	14476
920.598	14663
920.708	14762
920.818	14697
920.928	14644
921.038	14834
921.148	14765
921.258	14499
921.368	14355
921.477	14298
921.587	14286
921.697	14206
921.806	14263
921.916	14195
922.025	13993
922.134	13871
922.244	13868
922.353	13871
922.462	13814
922.571	13780
922.68	13670
922.789	13552
922.898	13563
923.007	13540
923.116	13533
923.224	13636
923.333	13556
923.442	13407
923.55	13377
923.659	13403
923.767	13480
923.876	13316
923.984	13396
924.092	13225
924.201	13266
924.309	13373
924.417	13316
924.525	13221
924.633	13190
924.741	14138
924.849	12996
924.956	13069
925.064	13034
925.172	12954
925.279	12993
925.387	12966
925.494	12993
925.602	13118
925.709	13038
925.816	12852
925.924	12901
926.031	13034
926.138	12856
926.245	12951
926.352	12715
926.459	12928
926.566	13000
926.673	12825
926.779	12673
926.886	12711
926.993	12532
927.099	12631
927.206	12517
927.312	12502
927.419	12582
927.525	12513
927.631	12555
927.737	12350
927.843	12388
927.95	12254
928.056	12224
928.162	12410
928.267	12361
928.373	12905
928.479	12475
928.585	12175
928.69	12277
928.796	12422
928.901	12171
929.007	12091
929.112	12232
929.218	12205
929.323	12125
929.428	12091
929.533	12163
929.638	11977
929.743	12015
929.848	12053
929.953	11984
930.058	11984
930.163	11813
930.267	11863
930.372	11901
930.477	11760
930.581	11977
930.685	11817
930.79	11596
930.894	11691
930.998	11570
931.103	11752
931.207	11372
931.311	11364
931.415	11307
931.519	11052
931.623	11052
