Data from test_V78500241_3162.txt Node
Date: Fri Mar 25 15:31:52 CST 2022
User: usil
Spectrometer: V785-0024
Trigger mode: 0
Integration Time (sec): 4.000000E-1
Scans to average: 1
Nonlinearity correction enabled: false
Boxcar width: 0
Storing dark spectrum: false
XAxis mode: Wavelengths
Number of Pixels in Spectrum: 1024
>>>>>Begin Spectral Data<<<<<
801.071	27077
801.214	27074
801.356	26830
801.499	26823
801.641	26750
801.783	26731
801.926	26621
802.068	26708
802.211	26636
802.353	26575
802.496	26434
802.638	26522
802.78	26282
802.923	26328
803.065	26107
803.208	26320
803.35	26248
803.492	26457
803.635	26431
803.777	26412
803.919	26530
804.061	26796
804.204	26370
804.346	26469
804.488	26229
804.63	26511
804.773	26336
804.915	26442
805.057	26408
805.199	26434
805.341	26450
805.483	26575
805.626	26568
805.768	26503
805.91	26560
806.052	26571
806.194	26644
806.336	26724
806.478	26552
806.62	26594
806.762	26659
806.904	27039
807.046	27154
807.188	27142
807.33	26948
807.472	26982
807.614	26883
807.756	26872
807.898	26864
808.04	26712
808.182	26743
808.324	26876
808.465	26925
808.607	27051
808.749	27237
808.891	27294
809.033	27408
809.174	27321
809.316	27043
809.458	27214
809.6	27055
809.741	27386
809.883	27313
810.025	27298
810.166	27542
810.308	27526
810.45	27374
810.591	27332
810.733	27256
810.875	27074
811.016	27089
811.158	27062
811.299	27317
811.441	27348
811.582	27222
811.724	27146
811.865	27135
812.007	27195
812.148	27104
812.29	27192
812.431	27393
812.573	27481
812.714	27705
812.855	27686
812.997	27903
813.138	27880
813.279	27873
813.421	27599
813.562	27667
813.703	27504
813.845	27245
813.986	27154
814.127	26872
814.268	26807
814.41	26792
814.551	26743
814.692	27020
814.833	26899
814.974	26739
815.115	26834
815.256	26708
815.397	26750
815.539	26731
815.68	26636
815.821	26526
815.962	26522
816.103	26438
816.244	26541
816.385	26381
816.526	26320
816.666	26111
816.807	26054
816.948	26187
817.089	26237
817.23	26107
817.371	26119
817.512	26073
817.653	25997
817.793	25963
817.934	26054
818.075	26081
818.216	26142
818.356	25947
818.497	26001
818.638	25940
818.778	25978
818.919	25963
819.06	26027
819.2	25894
819.341	25997
819.481	26024
819.622	26157
819.762	26381
819.903	26233
820.043	26229
820.184	26206
820.324	26096
820.465	26164
820.605	26221
820.746	26138
820.886	26069
821.026	26096
821.167	26046
821.307	26252
821.447	26164
821.588	25970
821.728	25803
821.868	25681
822.008	25460
822.149	25502
822.289	25453
822.429	25247
822.569	25263
822.709	25232
822.849	25126
822.99	25019
823.13	24985
823.27	24970
823.41	24859
823.55	24837
823.69	24821
823.83	24798
823.97	24837
824.11	24593
824.25	24646
824.389	24604
824.529	24677
824.669	24646
824.809	24726
824.949	24768
825.089	24696
825.228	24814
825.368	24395
825.508	24403
825.648	24486
825.787	24620
825.927	24578
826.067	24578
826.206	24471
826.346	24604
826.485	24635
826.625	24620
826.765	24612
826.904	24570
827.044	24483
827.183	24384
827.323	24315
827.462	24388
827.601	24285
827.741	24182
827.88	24330
828.02	24098
828.159	24247
828.298	24163
828.437	24224
828.577	24239
828.716	24254
828.855	24167
828.994	23950
829.134	24030
829.273	24007
829.412	23942
829.551	23897
829.69	23912
829.829	24163
829.968	24060
830.107	23946
830.246	23931
830.385	23874
830.524	23885
830.663	23707
830.802	23646
830.941	23657
831.08	23611
831.219	23577
831.357	23585
831.496	23843
831.635	23619
831.774	23566
831.913	23478
832.051	23444
832.19	23315
832.329	23349
832.467	23334
832.606	23170
832.744	23185
832.883	23231
833.022	23220
833.16	23178
833.299	23341
833.437	23223
833.576	23353
833.714	23353
833.852	23372
833.991	23303
834.129	23269
834.267	23337
834.406	23265
834.544	23254
834.682	23307
834.821	23277
834.959	23421
835.097	23208
835.235	23311
835.373	23330
835.511	23315
835.65	23143
835.788	23181
835.926	22820
836.064	22889
836.202	23083
836.34	23098
836.478	23341
836.615	23041
836.753	23284
836.891	23360
837.029	23181
837.167	23056
837.305	22999
837.443	23022
837.58	22987
837.718	23159
837.856	23083
837.993	23162
838.131	22999
838.269	22797
838.406	22908
838.544	22843
838.681	22630
838.819	22702
838.956	22519
839.094	22550
839.231	22546
839.369	22748
839.506	22927
839.643	22748
839.781	22519
839.918	22363
840.055	22504
840.193	22432
840.33	22405
840.467	22466
840.604	22417
840.742	22752
840.879	22344
841.016	22405
841.153	22352
841.29	22504
841.427	22382
841.564	22432
841.701	22363
841.838	22443
841.975	22386
842.112	22356
842.249	22143
842.385	22169
842.522	22367
842.659	22204
842.796	22135
842.933	22173
843.069	22048
843.206	22082
843.343	22261
843.479	22181
843.616	22173
843.752	22063
843.889	21857
844.025	22074
844.162	21899
844.298	22017
844.435	21915
844.571	21918
844.708	22021
844.844	22059
844.98	22051
845.117	21979
845.253	21865
845.389	21732
845.525	21861
845.661	21888
845.798	21720
845.934	21789
846.07	21679
846.206	21747
846.342	21770
846.478	21724
846.614	21549
846.75	21340
846.886	21447
847.022	21416
847.158	21538
847.294	21481
847.429	21378
847.565	21485
847.701	21610
847.837	21146
847.972	21070
848.108	21329
848.244	21119
848.379	21028
848.515	20967
848.65	21009
848.786	21036
848.921	21009
849.057	21142
849.192	21070
849.328	21085
849.463	21055
849.598	20929
849.734	20952
849.869	20830
850.004	20807
850.14	20975
850.275	20754
850.41	20621
850.545	20735
850.68	20804
850.815	20735
850.95	20826
851.085	20872
851.22	20956
851.355	20853
851.49	20731
851.625	20830
851.76	20731
851.895	20785
852.03	20804
852.165	20735
852.299	20849
852.434	20845
852.569	20785
852.703	20838
852.838	20826
852.973	20937
853.107	20773
853.242	20716
853.376	20621
853.511	20442
853.645	20678
853.78	20609
853.914	20533
854.048	20724
854.183	20556
854.317	20682
854.451	20697
854.585	20754
854.72	20609
854.854	20583
854.988	20522
855.122	20575
855.256	20617
855.39	20648
855.524	20678
855.658	20785
855.792	20686
855.926	20689
856.06	20590
856.194	20792
856.327	20594
856.461	20560
856.595	20537
856.729	20552
856.862	20712
856.996	20712
857.13	20640
857.263	20785
857.397	20674
857.53	20522
857.664	20594
857.797	20667
857.931	20708
858.064	20568
858.197	20693
858.331	20670
858.464	20632
858.597	20526
858.731	20617
858.864	20667
858.997	20556
859.13	20549
859.263	20568
859.396	20708
859.529	20526
859.662	20640
859.795	20606
859.928	20663
860.061	20887
860.194	20731
860.327	20693
860.46	20636
860.592	20674
860.725	20880
860.858	20693
860.99	20697
861.123	20503
861.256	20556
861.388	20400
861.521	21180
861.653	20488
861.786	20530
861.918	20427
862.05	20408
862.183	20659
862.315	20556
862.447	20758
862.58	20549
862.712	20343
862.844	20396
862.976	20518
863.108	20370
863.24	20617
863.372	20233
863.504	20176
863.636	20343
863.768	20320
863.9	20275
864.032	20256
864.164	20313
864.296	20267
864.428	20438
864.559	20370
864.691	20385
864.823	20415
864.954	20377
865.086	20210
865.217	20199
865.349	20237
865.48	20229
865.612	20301
865.743	20301
865.875	20206
866.006	20313
866.137	20240
866.269	20267
866.4	20225
866.531	20244
866.662	20187
866.793	20298
866.924	20225
867.055	20214
867.186	20149
867.317	20107
867.448	20130
867.579	20103
867.71	20046
867.841	20016
867.972	20229
868.103	20320
868.233	20206
868.364	20206
868.495	20286
868.625	20381
868.756	20564
868.886	20358
869.017	20415
869.147	20560
869.278	20533
869.408	20404
869.539	20385
869.669	20564
869.799	20450
869.929	20556
870.06	20674
870.19	20712
870.32	20682
870.45	20739
870.58	20823
870.71	20834
870.84	20986
870.97	20853
871.1	20891
871.23	20990
871.36	21020
871.489	20933
871.619	20929
871.749	21146
871.879	21032
872.008	21173
872.138	21036
872.267	21161
872.397	20842
872.526	20853
872.656	20857
872.785	20830
872.915	20929
873.044	21096
873.173	21093
873.303	21077
873.432	21142
873.561	21062
873.69	21001
873.819	21119
873.948	21245
874.077	21051
874.206	21062
874.335	21020
874.464	21161
874.593	21302
874.722	21203
874.851	21378
874.979	21355
875.108	21306
875.237	21192
875.365	21199
875.494	21188
875.623	21329
875.751	21256
875.88	21294
876.008	21412
876.136	21443
876.265	21682
876.393	21713
876.521	21789
876.65	21747
876.778	21671
876.906	21561
877.034	21591
877.162	21698
877.29	21526
877.418	21686
877.546	21622
877.674	21614
877.802	21622
877.93	21770
878.058	21603
878.185	21504
878.313	21564
878.441	21644
878.568	21397
878.696	21587
878.824	21743
878.951	21701
879.079	21770
879.206	21972
879.333	21751
879.461	21572
879.588	21679
879.715	21876
879.842	21831
879.97	21774
880.097	21485
880.224	21424
880.351	21534
880.478	21530
880.605	21351
880.732	21447
880.859	21682
880.986	21420
881.112	21382
881.239	21222
881.366	21173
881.493	21150
881.619	21081
881.746	21085
881.872	21062
881.999	21055
882.125	21039
882.252	21096
882.378	20948
882.505	21024
882.631	20902
882.757	20777
882.883	20849
883.01	20686
883.136	20834
883.262	20526
883.388	20579
883.514	20792
883.64	20746
883.766	20678
883.892	20575
884.018	20522
884.143	20735
884.269	20743
884.395	20377
884.52	20336
884.646	20404
884.772	20370
884.897	20374
885.023	20465
885.148	20492
885.274	20518
885.399	20438
885.524	20381
885.65	20434
885.775	20339
885.9	20400
886.025	20568
886.15	20457
886.275	20385
886.4	20161
886.525	20431
886.65	20294
886.775	20328
886.9	20568
887.025	20667
887.149	20328
887.274	20275
887.399	20275
887.523	20183
887.648	20149
887.773	20115
887.897	20221
888.021	20164
888.146	20259
888.27	20214
888.395	20218
888.519	20164
888.643	20172
888.767	20122
888.891	20016
889.015	20081
889.139	20088
889.263	19921
889.387	20119
889.511	20290
889.635	20157
889.759	20035
889.883	19898
890.006	20005
890.13	20092
890.254	19883
890.377	19909
890.501	19742
890.624	19731
890.748	19727
890.871	19666
890.995	19563
891.118	19590
891.241	19712
891.364	19594
891.488	19609
891.611	19662
891.734	19567
891.857	19552
891.98	19685
892.103	19563
892.226	19552
892.349	19514
892.471	19255
892.594	19480
892.717	19472
892.839	19491
892.962	19552
893.085	19464
893.207	19506
893.33	19506
893.452	19384
893.575	19552
893.697	19556
893.819	19594
893.941	19693
894.064	19609
894.186	19339
894.308	19377
894.43	19567
894.552	19670
894.674	19552
894.796	19457
894.918	19438
895.04	19445
895.161	19552
895.283	19529
895.405	19449
895.526	19457
895.648	19483
895.769	19464
895.891	19434
896.012	19666
896.134	19674
896.255	19457
896.376	19510
896.498	19609
896.619	19563
896.74	19438
896.861	19514
896.982	19909
897.103	20043
897.224	19719
897.345	19700
897.466	19715
897.587	19681
897.708	19814
897.828	19750
897.949	19643
898.07	19510
898.19	19780
898.311	19822
898.431	19670
898.552	19727
898.672	19803
898.792	19734
898.913	19750
899.033	19651
899.153	19464
899.273	19350
899.393	19514
899.513	19681
899.633	19445
899.753	19453
899.873	19388
899.993	19521
900.113	19411
900.232	19506
900.352	19392
900.472	19415
900.591	19263
900.711	19335
900.83	19148
900.95	19312
901.069	19346
901.189	19175
901.308	19042
901.427	18810
901.546	18958
901.665	18897
901.784	18935
901.904	18692
902.023	18753
902.141	18486
902.26	18433
902.379	18559
902.498	18399
902.617	18281
902.735	18456
902.854	18334
902.973	18258
903.091	18140
903.21	18098
903.328	18019
903.446	17992
903.565	17935
903.683	17809
903.801	17767
903.919	17783
904.038	17775
904.156	17745
904.274	17714
904.392	17554
904.51	17646
904.627	17627
904.745	17570
904.863	17741
904.981	17379
905.098	17315
905.216	17334
905.334	17353
905.451	17311
905.569	17326
905.686	17258
905.803	17303
905.921	17079
906.038	17246
906.155	17246
906.272	17067
906.389	17025
906.506	16889
906.623	16877
906.74	16847
906.857	16763
906.974	16752
907.091	16885
907.208	17041
907.324	16816
907.441	16687
907.557	16580
907.674	16573
907.79	16523
907.907	16569
908.023	16584
908.139	16481
908.256	16497
908.372	16402
908.488	16481
908.604	16280
908.72	16173
908.836	16402
908.952	16306
909.068	16303
909.184	16333
909.3	16257
909.415	16432
909.531	16360
909.647	16059
909.762	15941
909.878	16021
909.993	15975
910.108	15934
910.224	16090
910.339	15804
910.454	15835
910.57	15873
910.685	15739
910.8	16071
910.915	15968
911.03	15835
911.145	15694
911.259	15587
911.374	15603
911.489	15530
911.604	15405
911.718	15336
911.833	15412
911.947	15245
912.062	15226
912.176	15359
912.291	15466
912.405	15382
912.519	15500
912.633	15568
912.748	15408
912.862	15287
912.976	15249
913.09	15058
913.204	15085
913.318	15226
913.431	15272
913.545	15241
913.659	15294
913.772	15192
913.886	15020
914	14963
914.113	15131
914.226	15184
914.34	15028
914.453	14804
914.566	15062
914.68	14967
914.793	14918
914.906	14705
915.019	14598
915.132	14568
915.245	14655
915.358	14644
915.47	14552
915.583	14693
915.696	14602
915.809	14659
915.921	14697
916.034	14518
916.146	14495
916.259	14465
916.371	14438
916.483	14670
916.595	14454
916.708	14469
916.82	14469
916.932	14492
917.044	14370
917.156	14263
917.268	14298
917.38	14336
917.491	14275
917.603	14351
917.715	14294
917.826	14423
917.938	14244
918.049	14149
918.161	14210
918.272	14465
918.384	14317
918.495	14225
918.606	14031
918.717	14096
918.828	14180
918.939	14077
919.05	13963
919.161	14039
919.272	13845
919.383	13795
919.494	14001
919.604	14145
919.715	14126
919.826	13989
919.936	14016
920.047	14027
920.157	14062
920.267	14153
920.378	13963
920.488	14084
920.598	14138
920.708	14347
920.818	14183
920.928	14191
921.038	14355
921.148	14343
921.258	14050
921.368	13963
921.477	13803
921.587	13674
921.697	13639
921.806	13852
921.916	13677
922.025	13381
922.134	13457
922.244	13373
922.353	13586
922.462	13293
922.571	13346
922.68	13099
922.789	13217
922.898	13141
923.007	13000
923.116	13137
923.224	13042
923.333	13088
923.442	12939
923.55	12833
923.659	12920
923.767	13031
923.876	12859
923.984	12985
924.092	12920
924.201	12897
924.309	12840
924.417	12901
924.525	12719
924.633	12703
924.741	13681
924.849	12498
924.956	12768
925.064	12608
925.172	12563
925.279	12475
925.387	12540
925.494	12452
925.602	12574
925.709	12601
925.816	12391
925.924	12483
926.031	12536
926.138	12399
926.245	12464
926.352	12456
926.459	12452
926.566	12547
926.673	12403
926.779	12220
926.886	12235
926.993	12175
927.099	12083
927.206	12178
927.312	12201
927.419	12007
927.525	12106
927.631	12057
927.737	12072
927.843	12022
927.95	11836
928.056	11980
928.162	11904
928.267	11984
928.373	12612
928.479	12003
928.585	11775
928.69	11840
928.796	11904
928.901	11794
929.007	11665
929.112	11786
929.218	11718
929.323	11680
929.428	11665
929.533	11737
929.638	11695
929.743	11638
929.848	11695
929.953	11592
930.058	11501
930.163	11398
930.267	11395
930.372	11436
930.477	11292
930.581	11433
930.685	11429
930.79	11246
930.894	11269
930.998	11216
931.103	11318
931.207	11022
931.311	10885
931.415	10854
931.519	10748
931.623	10615
