Data from test_V78500241_1747.txt Node
Date: Fri Mar 25 15:22:01 CST 2022
User: usil
Spectrometer: V785-0024
Trigger mode: 0
Integration Time (sec): 4.000000E-1
Scans to average: 1
Nonlinearity correction enabled: false
Boxcar width: 0
Storing dark spectrum: false
XAxis mode: Wavelengths
Number of Pixels in Spectrum: 1024
>>>>>Begin Spectral Data<<<<<
801.071	27808
801.214	27774
801.356	27545
801.499	27492
801.641	27424
801.783	27416
801.926	27317
802.068	27378
802.211	27279
802.353	27165
802.496	26986
802.638	26944
802.78	26956
802.923	26979
803.065	26990
803.208	26979
803.35	27055
803.492	27245
803.635	27192
803.777	27032
803.919	27116
804.061	27568
804.204	27157
804.346	27260
804.488	27081
804.63	27195
804.773	26990
804.915	27291
805.057	27180
805.199	27123
805.341	27325
805.483	27443
805.626	27306
805.768	27157
805.91	27279
806.052	27389
806.194	27252
806.336	27473
806.478	27214
806.62	27473
806.762	27355
806.904	27629
807.046	27869
807.188	27698
807.33	27766
807.472	27808
807.614	27580
807.756	27728
807.898	27770
808.04	27606
808.182	27561
808.324	27603
808.465	27698
808.607	27903
808.749	27953
808.891	27979
809.033	28044
809.174	28025
809.316	27888
809.458	27949
809.6	28082
809.741	27975
809.883	28173
810.025	28246
810.166	28078
810.308	28124
810.45	28166
810.591	28097
810.733	27911
810.875	27911
811.016	27823
811.158	27789
811.299	28097
811.441	27975
811.582	28040
811.724	28029
811.865	27838
812.007	27964
812.148	27914
812.29	27918
812.431	28044
812.573	28196
812.714	28371
812.855	28474
812.997	28470
813.138	28637
813.279	28523
813.421	28386
813.562	28379
813.703	28238
813.845	28074
813.986	27861
814.127	27682
814.268	27724
814.41	27762
814.551	27625
814.692	27671
814.833	27637
814.974	27587
815.115	27580
815.256	27504
815.397	27526
815.539	27450
815.68	27435
815.821	27473
815.962	27458
816.103	27298
816.244	27203
816.385	27176
816.526	27188
816.666	27047
816.807	26910
816.948	26979
817.089	26963
817.23	26895
817.371	26887
817.512	26937
817.653	26902
817.793	26876
817.934	26773
818.075	26902
818.216	26906
818.356	26811
818.497	26788
818.638	26670
818.778	26659
818.919	26674
819.06	26788
819.2	26842
819.341	26948
819.481	26880
819.622	27009
819.762	27268
819.903	27264
820.043	27062
820.184	27051
820.324	27039
820.465	27081
820.605	27009
820.746	27070
820.886	26967
821.026	26971
821.167	26960
821.307	27127
821.447	26982
821.588	26895
821.728	26697
821.868	26606
822.008	26613
822.149	26507
822.289	26450
822.429	26145
822.569	25997
822.709	26107
822.849	25883
822.99	25868
823.13	25890
823.27	25868
823.41	25788
823.55	25571
823.69	25700
823.83	25776
823.97	25712
824.11	25491
824.25	25510
824.389	25396
824.529	25666
824.669	25620
824.809	25849
824.949	25689
825.089	25731
825.228	25445
825.368	25445
825.508	25438
825.648	25426
825.787	25460
825.927	25495
826.067	25282
826.206	25331
826.346	25377
826.485	25339
826.625	25358
826.765	25495
826.904	25537
827.044	25293
827.183	25228
827.323	25012
827.462	25244
827.601	25244
827.741	25034
827.88	25293
828.02	24966
828.159	25251
828.298	25206
828.437	25076
828.577	25050
828.716	25171
828.855	25027
828.994	24890
829.134	24863
829.273	24920
829.412	24802
829.551	24890
829.69	24966
829.829	24897
829.968	24913
830.107	24897
830.246	24905
830.385	24722
830.524	24616
830.663	24623
830.802	24658
830.941	24448
831.08	24422
831.219	24456
831.357	24467
831.496	24582
831.635	24471
831.774	24308
831.913	24376
832.051	24270
832.19	24190
832.329	24452
832.467	24209
832.606	24045
832.744	24140
832.883	24197
833.022	24140
833.16	24068
833.299	24129
833.437	24121
833.576	24270
833.714	24220
833.852	24289
833.991	24273
834.129	24296
834.267	24319
834.406	24159
834.544	24292
834.682	24064
834.821	24232
834.959	24266
835.097	24136
835.235	24369
835.373	24201
835.511	24068
835.65	24057
835.788	24038
835.926	23958
836.064	23908
836.202	23866
836.34	24087
836.478	24140
836.615	24003
836.753	24057
836.891	23950
837.029	24148
837.167	24034
837.305	23836
837.443	23942
837.58	23821
837.718	23897
837.856	23916
837.993	23786
838.131	23897
838.269	23775
838.406	23794
838.544	23665
838.681	23619
838.819	23493
838.956	23391
839.094	23235
839.231	23239
839.369	23436
839.506	23741
839.643	23600
839.781	23349
839.918	23299
840.055	23337
840.193	23296
840.33	23277
840.467	23372
840.604	23273
840.742	23501
840.879	23121
841.016	23303
841.153	23250
841.29	23360
841.427	23185
841.564	23280
841.701	23265
841.838	23128
841.975	23193
842.112	23105
842.249	23044
842.385	22991
842.522	23193
842.659	23124
842.796	23075
842.933	23117
843.069	23037
843.206	23022
843.343	23079
843.479	22972
843.616	22965
843.752	22740
843.889	22942
844.025	23010
844.162	22759
844.298	23010
844.435	22740
844.571	22805
844.708	22782
844.844	22972
844.98	22919
845.117	22873
845.253	22679
845.389	22668
845.525	22641
845.661	22561
845.798	22611
845.934	22672
846.07	22504
846.206	22554
846.342	22618
846.478	22596
846.614	22276
846.75	22310
846.886	22192
847.022	22440
847.158	22284
847.294	22344
847.429	22230
847.565	22257
847.701	22546
847.837	22070
847.972	22002
848.108	21987
848.244	22154
848.379	21800
848.515	21949
848.65	21778
848.786	21876
848.921	21770
849.057	21903
849.192	21846
849.328	21873
849.463	21857
849.598	21781
849.734	21793
849.869	21800
850.004	21606
850.14	21698
850.275	21568
850.41	21545
850.545	21477
850.68	21549
850.815	21614
850.95	21564
851.085	21835
851.22	21644
851.355	21724
851.49	21686
851.625	21629
851.76	21485
851.895	21679
852.03	21481
852.165	21610
852.299	21667
852.434	21774
852.569	21717
852.703	21545
852.838	21686
852.973	21652
853.107	21766
853.242	21656
853.376	21515
853.511	21382
853.645	21473
853.78	21488
853.914	21485
854.048	21374
854.183	21534
854.317	21428
854.451	21450
854.585	21473
854.72	21378
854.854	21488
854.988	21428
855.122	21336
855.256	21230
855.39	21382
855.524	21386
855.658	21496
855.792	21447
855.926	21340
856.06	21500
856.194	21507
856.327	21447
856.461	21393
856.595	21530
856.729	21294
856.862	21595
856.996	21511
857.13	21549
857.263	21633
857.397	21614
857.53	21401
857.664	21431
857.797	21488
857.931	21561
858.064	21439
858.197	21534
858.331	21408
858.464	21329
858.597	21382
858.731	21458
858.864	21488
858.997	21443
859.13	21416
859.263	21405
859.396	21481
859.529	21420
859.662	21348
859.795	21416
859.928	21504
860.061	21511
860.194	21614
860.327	21507
860.46	21545
860.592	21538
860.725	21610
860.858	21572
860.99	21351
861.123	21397
861.256	21420
861.388	21420
861.521	22131
861.653	21249
861.786	21294
861.918	21332
862.05	21256
862.183	21325
862.315	21382
862.447	21321
862.58	21424
862.712	21150
862.844	21127
862.976	21275
863.108	21203
863.24	21603
863.372	21017
863.504	21176
863.636	21119
863.768	21298
863.9	21112
864.032	21108
864.164	21077
864.296	21176
864.428	21260
864.559	21154
864.691	21241
864.823	21154
864.954	21096
865.086	21252
865.217	20979
865.349	21039
865.48	21100
865.612	21100
865.743	21123
865.875	21089
866.006	20971
866.137	20967
866.269	20944
866.4	21001
866.531	20891
866.662	21036
866.793	20891
866.924	20975
867.055	20975
867.186	21017
867.317	20948
867.448	20864
867.579	20849
867.71	20891
867.841	20956
867.972	20975
868.103	20937
868.233	20929
868.364	20960
868.495	21081
868.625	21195
868.756	21233
868.886	21184
869.017	21116
869.147	21317
869.278	21344
869.408	21203
869.539	21389
869.669	21359
869.799	21359
869.929	21408
870.06	21256
870.19	21583
870.32	21595
870.45	21561
870.58	21553
870.71	21690
870.84	21755
870.97	21648
871.1	21629
871.23	21709
871.36	21884
871.489	21774
871.619	21762
871.749	21831
871.879	21797
872.008	21987
872.138	21831
872.267	21720
872.397	21785
872.526	21759
872.656	21603
872.785	21667
872.915	21819
873.044	21869
873.173	21781
873.303	21895
873.432	21991
873.561	21991
873.69	21945
873.819	21846
873.948	21926
874.077	21865
874.206	21694
874.335	21869
874.464	22025
874.593	21987
874.722	22002
874.851	22173
874.979	22109
875.108	22128
875.237	22074
875.365	21861
875.494	22006
875.623	22124
875.751	22029
875.88	22139
876.008	22261
876.136	22246
876.265	22569
876.393	22489
876.521	22421
876.65	22554
876.778	22447
876.906	22405
877.034	22322
877.162	22421
877.29	22474
877.418	22443
877.546	22405
877.674	22386
877.802	22310
877.93	22375
878.058	22306
878.185	22303
878.313	22371
878.441	22352
878.568	22226
878.696	22379
878.824	22386
878.951	22413
879.079	22687
879.206	22577
879.333	22508
879.461	22500
879.588	22363
879.715	22584
879.842	22763
879.97	22519
880.097	22169
880.224	22143
880.351	22219
880.478	22226
880.605	22234
880.732	22242
880.859	22478
880.986	22166
881.112	22169
881.239	22112
881.366	21880
881.493	21994
881.619	21838
881.746	21861
881.872	21876
881.999	21743
882.125	21774
882.252	21835
882.378	21793
882.505	21895
882.631	21778
882.757	21595
882.883	21580
883.01	21526
883.136	21408
883.262	21466
883.388	21275
883.514	21454
883.64	21538
883.766	21408
883.892	21249
884.018	21374
884.143	21469
884.269	21557
884.395	21291
884.52	21108
884.646	21230
884.772	20975
884.897	21096
885.023	21085
885.148	21154
885.274	21325
885.399	21192
885.524	21192
885.65	21214
885.775	21325
885.9	21009
886.025	21199
886.15	21123
886.275	21085
886.4	21043
886.525	21150
886.65	21070
886.775	21036
886.9	21207
887.025	21214
887.149	21119
887.274	20956
887.399	20967
887.523	20899
887.648	20872
887.773	20777
887.897	21051
888.021	20891
888.146	20750
888.27	20956
888.395	21093
888.519	20941
888.643	20864
888.767	20933
888.891	20944
889.015	20746
889.139	20792
889.263	20655
889.387	20762
889.511	20956
889.635	20925
889.759	20762
889.883	20693
890.006	20659
890.13	20864
890.254	20598
890.377	20655
890.501	20385
890.624	20320
890.748	20564
890.871	20328
890.995	20294
891.118	20248
891.241	20275
891.364	20229
891.488	20442
891.611	20358
891.734	20248
891.857	20374
891.98	20324
892.103	20294
892.226	20290
892.349	20225
892.471	20027
892.594	20218
892.717	20172
892.839	20172
892.962	20134
893.085	20202
893.207	20081
893.33	20031
893.452	20153
893.575	20282
893.697	20122
893.819	20294
893.941	20336
894.064	20381
894.186	20202
894.308	20145
894.43	20244
894.552	20366
894.674	20286
894.796	20069
894.918	20168
895.04	20031
895.161	20237
895.283	20039
895.405	20149
895.526	20248
895.648	20084
895.769	20252
895.891	20180
896.012	20183
896.134	20210
896.255	20233
896.376	20088
896.498	20142
896.619	20191
896.74	20115
896.861	20206
896.982	20514
897.103	20518
897.224	20446
897.345	20355
897.466	20339
897.587	20480
897.708	20480
897.828	20366
897.949	20286
898.07	20187
898.19	20366
898.311	20400
898.431	20332
898.552	20450
898.672	20526
898.792	20533
898.913	20431
899.033	20263
899.153	20180
899.273	20164
899.393	20119
899.513	20153
899.633	20161
899.753	20138
899.873	20008
899.993	20210
900.113	20130
900.232	20065
900.352	20039
900.472	19913
900.591	19845
900.711	19868
900.83	19974
900.95	20012
901.069	20043
901.189	19772
901.308	19635
901.427	19464
901.546	19510
901.665	19590
901.784	19430
901.904	19396
902.023	19289
902.141	19091
902.26	19034
902.379	19061
902.498	18989
902.617	19034
902.735	19080
902.854	19046
902.973	18905
903.091	18688
903.21	18585
903.328	18582
903.446	18646
903.565	18517
903.683	18506
903.801	18403
903.919	18486
904.038	18460
904.156	18209
904.274	18330
904.392	18159
904.51	18190
904.627	18213
904.745	18209
904.863	18429
904.981	18098
905.098	18007
905.216	18011
905.334	17901
905.451	17916
905.569	17973
905.686	18057
905.803	17790
905.921	17710
906.038	17855
906.155	17821
906.272	17558
906.389	17532
906.506	17452
906.623	17493
906.74	17455
906.857	17444
906.974	17474
907.091	17455
907.208	17573
907.324	17512
907.441	17273
907.557	17337
907.674	17052
907.79	17212
907.907	17086
908.023	17136
908.139	17056
908.256	17105
908.372	17083
908.488	17003
908.604	16953
908.72	16900
908.836	16927
908.952	16847
909.068	16858
909.184	16984
909.3	16866
909.415	16900
909.531	16900
909.647	16740
909.762	16630
909.878	16577
909.993	16569
910.108	16622
910.224	16489
910.339	16489
910.454	16573
910.57	16466
910.685	16303
910.8	16523
910.915	16538
911.03	16493
911.145	16223
911.259	16196
911.374	16177
911.489	16204
911.604	16021
911.718	15911
911.833	15838
911.947	15876
912.062	15766
912.176	15922
912.291	15857
912.405	15854
912.519	16074
912.633	16135
912.748	15899
912.862	15915
912.976	15816
913.09	15675
913.204	15648
913.318	15797
913.431	15850
913.545	15770
913.659	15865
913.772	15637
913.886	15557
914	15576
914.113	15591
914.226	15698
914.34	15660
914.453	15435
914.566	15606
914.68	15435
914.793	15450
914.906	15211
915.019	15173
915.132	15077
915.245	15195
915.358	15161
915.47	15180
915.583	15173
915.696	15199
915.809	15264
915.921	15195
916.034	15047
916.146	15108
916.259	15001
916.371	15062
916.483	15127
916.595	15020
916.708	15013
916.82	15017
916.932	14902
917.044	14895
917.156	14868
917.268	14788
917.38	14823
917.491	14819
917.603	14773
917.715	14864
917.826	14944
917.938	14629
918.049	14705
918.161	14773
918.272	14853
918.384	14842
918.495	14716
918.606	14636
918.717	14446
918.828	14587
918.939	14594
919.05	14480
919.161	14495
919.272	14320
919.383	14290
919.494	14571
919.604	14765
919.715	14514
919.826	14450
919.936	14431
920.047	14579
920.157	14473
920.267	14735
920.378	14579
920.488	14404
920.598	14659
920.708	14899
920.818	14720
920.928	14648
921.038	14750
921.148	14754
921.258	14431
921.368	14370
921.477	14328
921.587	14355
921.697	14225
921.806	14210
921.916	14172
922.025	14020
922.134	13894
922.244	13856
922.353	13963
922.462	13742
922.571	13746
922.68	13556
922.789	13559
922.898	13655
923.007	13441
923.116	13506
923.224	13468
923.333	13388
923.442	13438
923.55	13324
923.659	13381
923.767	13373
923.876	13354
923.984	13304
924.092	13202
924.201	13339
924.309	13244
924.417	13289
924.525	13129
924.633	13160
924.741	13871
924.849	13023
924.956	13141
925.064	12996
925.172	12970
925.279	12928
925.387	12993
925.494	12905
925.602	13069
925.709	12966
925.816	12939
925.924	12935
926.031	13042
926.138	12947
926.245	12886
926.352	12700
926.459	12943
926.566	12935
926.673	12776
926.779	12730
926.886	12623
926.993	12627
927.099	12555
927.206	12525
927.312	12494
927.419	12498
927.525	12494
927.631	12551
927.737	12448
927.843	12289
927.95	12273
928.056	12407
928.162	12403
928.267	12323
928.373	12962
928.479	12418
928.585	12159
928.69	12243
928.796	12266
928.901	12232
929.007	12057
929.112	12251
929.218	12152
929.323	12140
929.428	12117
929.533	12232
929.638	11965
929.743	12083
929.848	11984
929.953	12030
930.058	11950
930.163	11783
930.267	11767
930.372	11965
930.477	11718
930.581	11897
930.685	11748
930.79	11649
930.894	11653
930.998	11528
931.103	11726
931.207	11376
931.311	11376
931.415	11170
931.519	11075
931.623	11041
