Data from test_V78500241_2778.txt Node
Date: Fri Mar 25 15:29:12 CST 2022
User: usil
Spectrometer: V785-0024
Trigger mode: 0
Integration Time (sec): 4.000000E-1
Scans to average: 1
Nonlinearity correction enabled: false
Boxcar width: 0
Storing dark spectrum: false
XAxis mode: Wavelengths
Number of Pixels in Spectrum: 1024
>>>>>Begin Spectral Data<<<<<
801.071	27203
801.214	27081
801.356	26792
801.499	26807
801.641	26625
801.783	26651
801.926	26602
802.068	26720
802.211	26648
802.353	26606
802.496	26408
802.638	26294
802.78	26408
802.923	26309
803.065	26275
803.208	26317
803.35	26328
803.492	26351
803.635	26415
803.777	26199
803.919	26419
804.061	26807
804.204	26564
804.346	26389
804.488	26358
804.63	26290
804.773	26419
804.915	26480
805.057	26457
805.199	26412
805.341	26651
805.483	26590
805.626	26575
805.768	26389
805.91	26495
806.052	26480
806.194	26423
806.336	26663
806.478	26583
806.62	26583
806.762	26655
806.904	26807
807.046	26902
807.188	26960
807.33	27001
807.472	26971
807.614	26819
807.756	26792
807.898	26982
808.04	26720
808.182	26594
808.324	26826
808.465	26902
808.607	27070
808.749	27218
808.891	27135
809.033	27340
809.174	27233
809.316	27150
809.458	27169
809.6	27093
809.741	27218
809.883	27370
810.025	27439
810.166	27344
810.308	27553
810.45	27256
810.591	27439
810.733	27256
810.875	27173
811.016	26990
811.158	27047
811.299	27249
811.441	27325
811.582	27306
811.724	27169
811.865	27058
812.007	26994
812.148	27108
812.29	27138
812.431	27386
812.573	27572
812.714	27386
812.855	27549
812.997	27728
813.138	27789
813.279	27819
813.421	27686
813.562	27545
813.703	27317
813.845	27272
813.986	27017
814.127	26880
814.268	26765
814.41	26853
814.551	26819
814.692	26804
814.833	26777
814.974	26746
815.115	26785
815.256	26632
815.397	26617
815.539	26670
815.68	26575
815.821	26389
815.962	26621
816.103	26492
816.244	26351
816.385	26347
816.526	26172
816.666	26164
816.807	26050
816.948	26084
817.089	26199
817.23	26088
817.371	26130
817.512	26039
817.653	26058
817.793	26016
817.934	25902
818.075	26115
818.216	26187
818.356	25906
818.497	25826
818.638	25772
818.778	25826
818.919	25818
819.06	25887
819.2	25925
819.341	26043
819.481	26096
819.622	26176
819.762	26366
819.903	26412
820.043	26370
820.184	26024
820.324	26142
820.465	26324
820.605	26088
820.746	26168
820.886	25940
821.026	26126
821.167	26259
821.307	26195
821.447	26035
821.588	25993
821.728	25742
821.868	25734
822.008	25586
822.149	25586
822.289	25453
822.429	25228
822.569	25206
822.709	25156
822.849	25027
822.99	24932
823.13	24882
823.27	24840
823.41	24681
823.55	24867
823.69	24787
823.83	24901
823.97	24753
824.11	24544
824.25	24509
824.389	24650
824.529	24722
824.669	24566
824.809	24654
824.949	24677
825.089	24741
825.228	24719
825.368	24460
825.508	24426
825.648	24597
825.787	24475
825.927	24471
826.067	24498
826.206	24391
826.346	24540
826.485	24456
826.625	24452
826.765	24604
826.904	24525
827.044	24315
827.183	24308
827.323	24197
827.462	24323
827.601	24133
827.741	24190
827.88	24285
828.02	24155
828.159	24155
828.298	24258
828.437	24399
828.577	24114
828.716	24273
828.855	24068
828.994	23775
829.134	23870
829.273	23965
829.412	23802
829.551	23878
829.69	23904
829.829	23809
829.968	23965
830.107	23954
830.246	23847
830.385	23847
830.524	23760
830.663	23718
830.802	23726
830.941	23493
831.08	23433
831.219	23528
831.357	23608
831.496	23714
831.635	23566
831.774	23372
831.913	23395
832.051	23379
832.19	23406
832.329	23379
832.467	23341
832.606	23124
832.744	23117
832.883	23166
833.022	23181
833.16	23067
833.299	23166
833.437	23242
833.576	23223
833.714	23140
833.852	23250
833.991	23242
834.129	23254
834.267	23303
834.406	23322
834.544	23200
834.682	23181
834.821	23341
834.959	23459
835.097	23124
835.235	23269
835.373	23250
835.511	23159
835.65	23128
835.788	23117
835.926	22839
836.064	23006
836.202	22850
836.34	23018
836.478	23086
836.615	22976
836.753	23155
836.891	23060
837.029	23121
837.167	22839
837.305	22938
837.443	22896
837.58	22858
837.718	22972
837.856	22896
837.993	22942
838.131	22896
838.269	22881
838.406	22942
838.544	22828
838.681	22519
838.819	22519
838.956	22409
839.094	22417
839.231	22493
839.369	22611
839.506	22805
839.643	22687
839.781	22443
839.918	22405
840.055	22375
840.193	22375
840.33	22341
840.467	22375
840.604	22516
840.742	22637
840.879	22284
841.016	22276
841.153	22234
841.29	22280
841.427	22356
841.564	22322
841.701	22284
841.838	22310
841.975	22306
842.112	22242
842.249	22219
842.385	22177
842.522	22276
842.659	22200
842.796	22215
842.933	22078
843.069	22116
843.206	22055
843.343	22158
843.479	22143
843.616	22090
843.752	21884
843.889	21880
844.025	21987
844.162	21812
844.298	21922
844.435	21850
844.571	21736
844.708	21899
844.844	22010
844.98	22032
845.117	21899
845.253	21827
845.389	21873
845.525	21736
845.661	21747
845.798	21633
845.934	21800
846.07	21614
846.206	21660
846.342	21713
846.478	21542
846.614	21344
846.75	21306
846.886	21393
847.022	21386
847.158	21450
847.294	21519
847.429	21310
847.565	21367
847.701	21530
847.837	20979
847.972	21051
848.108	21203
848.244	21165
848.379	20956
848.515	20918
848.65	20834
848.786	20906
848.921	20891
849.057	21039
849.192	21062
849.328	20948
849.463	20967
849.598	21036
849.734	20830
849.869	20796
850.004	20773
850.14	20769
850.275	20598
850.41	20518
850.545	20617
850.68	20590
850.815	20613
850.95	20693
851.085	20963
851.22	20758
851.355	20788
851.49	20792
851.625	20724
851.76	20746
851.895	20697
852.03	20571
852.165	20689
852.299	20785
852.434	20811
852.569	20644
852.703	20727
852.838	20754
852.973	20861
853.107	20735
853.242	20644
853.376	20530
853.511	20507
853.645	20617
853.78	20617
853.914	20488
854.048	20514
854.183	20629
854.317	20632
854.451	20670
854.585	20526
854.72	20587
854.854	20644
854.988	20393
855.122	20560
855.256	20522
855.39	20526
855.524	20556
855.658	20533
855.792	20530
855.926	20575
856.06	20617
856.194	20625
856.327	20423
856.461	20442
856.595	20495
856.729	20339
856.862	20613
856.996	20552
857.13	20564
857.263	20594
857.397	20667
857.53	20629
857.664	20587
857.797	20556
857.931	20781
858.064	20533
858.197	20648
858.331	20473
858.464	20480
858.597	20351
858.731	20552
858.864	20564
858.997	20495
859.13	20530
859.263	20518
859.396	20568
859.529	20617
859.662	20480
859.795	20492
859.928	20609
860.061	20735
860.194	20762
860.327	20579
860.46	20571
860.592	20644
860.725	20727
860.858	20602
860.99	20571
861.123	20408
861.256	20541
861.388	20473
861.521	21096
861.653	20362
861.786	20332
861.918	20415
862.05	20454
862.183	20415
862.315	20503
862.447	20492
862.58	20431
862.712	20263
862.844	20164
862.976	20366
863.108	20237
863.24	20762
863.372	20153
863.504	20126
863.636	20210
863.768	20313
863.9	20149
864.032	20172
864.164	20218
864.296	20355
864.428	20374
864.559	20187
864.691	20256
864.823	20267
864.954	20180
865.086	20214
865.217	20248
865.349	20062
865.48	20142
865.612	20142
865.743	20347
865.875	20130
866.006	20119
866.137	20180
866.269	20138
866.4	20172
866.531	20176
866.662	20054
866.793	20050
866.924	20218
867.055	20103
867.186	20077
867.317	20035
867.448	19959
867.579	19955
867.71	20054
867.841	20065
867.972	20233
868.103	20050
868.233	20130
868.364	20069
868.495	20145
868.625	20286
868.756	20347
868.886	20153
869.017	20351
869.147	20419
869.278	20374
869.408	20446
869.539	20294
869.669	20351
869.799	20423
869.929	20454
870.06	20434
870.19	20781
870.32	20765
870.45	20640
870.58	20834
870.71	20804
870.84	20807
870.97	20724
871.1	20864
871.23	20937
871.36	20823
871.489	20796
871.619	20956
871.749	20941
871.879	21005
872.008	21047
872.138	21001
872.267	20952
872.397	20701
872.526	20792
872.656	20693
872.785	20750
872.915	20895
873.044	21108
873.173	20914
873.303	21047
873.432	20883
873.561	21093
873.69	20944
873.819	20899
873.948	20971
874.077	20880
874.206	20990
874.335	20929
874.464	21165
874.593	21260
874.722	21192
874.851	21249
874.979	21138
875.108	21256
875.237	21233
875.365	21039
875.494	21249
875.623	21401
875.751	21176
875.88	21283
876.008	21351
876.136	21443
876.265	21595
876.393	21690
876.521	21622
876.65	21644
876.778	21675
876.906	21568
877.034	21572
877.162	21428
877.29	21500
877.418	21519
877.546	21553
877.674	21564
877.802	21553
877.93	21485
878.058	21507
878.185	21329
878.313	21580
878.441	21595
878.568	21306
878.696	21507
878.824	21507
878.951	21542
879.079	21705
879.206	21778
879.333	21728
879.461	21675
879.588	21671
879.715	21720
879.842	21873
879.97	21644
880.097	21428
880.224	21485
880.351	21545
880.478	21363
880.605	21412
880.732	21473
880.859	21644
880.986	21485
881.112	21378
881.239	21294
881.366	21127
881.493	21161
881.619	20921
881.746	20963
881.872	20975
881.999	20902
882.125	20819
882.252	21085
882.378	20929
882.505	20994
882.631	20864
882.757	20773
882.883	20682
883.01	20640
883.136	20735
883.262	20541
883.388	20442
883.514	20590
883.64	20705
883.766	20636
883.892	20404
884.018	20518
884.143	20629
884.269	20655
884.395	20343
884.52	20317
884.646	20492
884.772	20225
884.897	20252
885.023	20320
885.148	20507
885.274	20465
885.399	20469
885.524	20263
885.65	20415
885.775	20290
885.9	20237
886.025	20408
886.15	20484
886.275	20278
886.4	20237
886.525	20328
886.65	20229
886.775	20202
886.9	20431
887.025	20431
887.149	20252
887.274	20214
887.399	19913
887.523	20115
887.648	20084
887.773	20111
887.897	20180
888.021	20206
888.146	20142
888.27	20187
888.395	20157
888.519	20138
888.643	20084
888.767	20153
888.891	20001
889.015	19890
889.139	20001
889.263	19959
889.387	20065
889.511	20119
889.635	20142
889.759	19982
889.883	19909
890.006	20001
890.13	20073
890.254	19772
890.377	19837
890.501	19693
890.624	19700
890.748	19746
890.871	19548
890.995	19476
891.118	19457
891.241	19594
891.364	19613
891.488	19571
891.611	19624
891.734	19590
891.857	19594
891.98	19616
892.103	19624
892.226	19521
892.349	19457
892.471	19358
892.594	19499
892.717	19567
892.839	19373
892.962	19468
893.085	19529
893.207	19320
893.33	19350
893.452	19426
893.575	19514
893.697	19457
893.819	19571
893.941	19567
894.064	19613
894.186	19419
894.308	19251
894.43	19426
894.552	19529
894.674	19586
894.796	19400
894.918	19468
895.04	19346
895.161	19483
895.283	19468
895.405	19411
895.526	19449
895.648	19559
895.769	19525
895.891	19430
896.012	19468
896.134	19438
896.255	19445
896.376	19403
896.498	19453
896.619	19403
896.74	19419
896.861	19510
896.982	19845
897.103	19963
897.224	19799
897.345	19666
897.466	19658
897.587	19643
897.708	19841
897.828	19822
897.949	19624
898.07	19620
898.19	19731
898.311	19753
898.431	19559
898.552	19750
898.672	19883
898.792	19742
898.913	19807
899.033	19674
899.153	19521
899.273	19419
899.393	19354
899.513	19567
899.633	19487
899.753	19373
899.873	19312
899.993	19396
900.113	19384
900.232	19369
900.352	19324
900.472	19308
900.591	19259
900.711	19350
900.83	19095
900.95	19316
901.069	19407
901.189	19164
901.308	19023
901.427	18875
901.546	18928
901.665	18814
901.784	18848
901.904	18665
902.023	18597
902.141	18403
902.26	18407
902.379	18395
902.498	18429
902.617	18365
902.735	18300
902.854	18327
902.973	18338
903.091	18038
903.21	17969
903.328	18155
903.446	17893
903.565	17824
903.683	17821
903.801	17718
903.919	17851
904.038	17764
904.156	17581
904.274	17817
904.392	17570
904.51	17649
904.627	17680
904.745	17680
904.863	17680
904.981	17398
905.098	17277
905.216	17315
905.334	17391
905.451	17345
905.569	17246
905.686	17341
905.803	17231
905.921	17075
906.038	17083
906.155	17029
906.272	16968
906.389	16999
906.506	16911
906.623	16828
906.74	16820
906.857	16774
906.974	16801
907.091	16908
907.208	16984
907.324	16767
907.441	16801
907.557	16573
907.674	16512
907.79	16512
907.907	16478
908.023	16561
908.139	16470
908.256	16512
908.372	16504
908.488	16497
908.604	16268
908.72	16303
908.836	16246
908.952	16303
909.068	16268
909.184	16405
909.3	16268
909.415	16303
909.531	16246
909.647	16040
909.762	15926
909.878	15949
909.993	16006
910.108	15949
910.224	15915
910.339	15873
910.454	15899
910.57	15804
910.685	15785
910.8	16071
910.915	15918
911.03	15762
911.145	15618
911.259	15542
911.374	15526
911.489	15530
911.604	15504
911.718	15382
911.833	15332
911.947	15283
912.062	15192
912.176	15382
912.291	15393
912.405	15393
912.519	15641
912.633	15625
912.748	15340
912.862	15310
912.976	15161
913.09	15108
913.204	15104
913.318	15161
913.431	15222
913.545	15241
913.659	15332
913.772	15146
913.886	14887
914	14990
914.113	15074
914.226	15131
914.34	15043
914.453	14902
914.566	15039
914.68	14868
914.793	14941
914.906	14678
915.019	14568
915.132	14556
915.245	14518
915.358	14602
915.47	14590
915.583	14602
915.696	14667
915.809	14644
915.921	14659
916.034	14564
916.146	14415
916.259	14442
916.371	14602
916.483	14484
916.595	14450
916.708	14469
916.82	14469
916.932	14347
917.044	14419
917.156	14355
917.268	14328
917.38	14294
917.491	14176
917.603	14286
917.715	14240
917.826	14263
917.938	14145
918.049	14172
918.161	14225
918.272	14446
918.384	14362
918.495	14195
918.606	14058
918.717	13967
918.828	14039
918.939	14005
919.05	13974
919.161	13997
919.272	13856
919.383	13875
919.494	14065
919.604	14183
919.715	14001
919.826	13906
919.936	13993
920.047	13997
920.157	14046
920.267	14161
920.378	14005
920.488	13951
920.598	14195
920.708	14240
920.818	14119
920.928	14084
921.038	14301
921.148	14210
921.258	13917
921.368	13883
921.477	13746
921.587	13826
921.697	13616
921.806	13769
921.916	13643
922.025	13403
922.134	13434
922.244	13320
922.353	13518
922.462	13255
922.571	13247
922.68	13168
922.789	13046
922.898	13145
923.007	12958
923.116	13179
923.224	13004
923.333	12894
923.442	12970
923.55	12951
923.659	12859
923.767	12913
923.876	12909
923.984	12871
924.092	12817
924.201	12875
924.309	12844
924.417	12810
924.525	12681
924.633	12806
924.741	13575
924.849	12597
924.956	12631
925.064	12403
925.172	12513
925.279	12429
925.387	12506
925.494	12517
925.602	12650
925.709	12597
925.816	12395
925.924	12513
926.031	12540
926.138	12471
926.245	12483
926.352	12384
926.459	12528
926.566	12532
926.673	12475
926.779	12273
926.886	12194
926.993	12125
927.099	12091
927.206	12030
927.312	12034
927.419	12125
927.525	12087
927.631	12117
927.737	12049
927.843	11961
927.95	11863
928.056	11950
928.162	11923
928.267	11980
928.373	12570
928.479	11961
928.585	11794
928.69	11893
928.796	11939
928.901	11775
929.007	11699
929.112	11802
929.218	11748
929.323	11608
929.428	11634
929.533	11786
929.638	11551
929.743	11623
929.848	11608
929.953	11634
930.058	11440
930.163	11288
930.267	11356
930.372	11448
930.477	11311
930.581	11573
930.685	11410
930.79	11303
930.894	11341
930.998	11193
931.103	11345
931.207	10949
931.311	10934
931.415	10873
931.519	10599
931.623	10622
