Data from test_V78500241_530.txt Node
Date: Fri Mar 25 15:13:32 CST 2022
User: usil
Spectrometer: V785-0024
Trigger mode: 0
Integration Time (sec): 4.000000E-1
Scans to average: 1
Nonlinearity correction enabled: false
Boxcar width: 0
Storing dark spectrum: false
XAxis mode: Wavelengths
Number of Pixels in Spectrum: 1024
>>>>>Begin Spectral Data<<<<<
801.071	27412
801.214	27325
801.356	27260
801.499	27195
801.641	26956
801.783	27017
801.926	26979
802.068	26940
802.211	26902
802.353	26842
802.496	26609
802.638	26530
802.78	26640
802.923	26571
803.065	26644
803.208	26655
803.35	26537
803.492	26758
803.635	26701
803.777	26705
803.919	26777
804.061	26914
804.204	26727
804.346	26758
804.488	26636
804.63	26689
804.773	26602
804.915	26754
805.057	26765
805.199	26697
805.341	26826
805.483	26864
805.626	26834
805.768	26697
805.91	26765
806.052	26956
806.194	26845
806.336	27062
806.478	26864
806.62	26788
806.762	26956
806.904	27077
807.046	27435
807.188	27268
807.33	27245
807.472	27283
807.614	27298
807.756	27207
807.898	27157
808.04	27051
808.182	27070
808.324	27009
808.465	27135
808.607	27241
808.749	27431
808.891	27572
809.033	27644
809.174	27614
809.316	27439
809.458	27408
809.6	27500
809.741	27583
809.883	27515
810.025	27705
810.166	27705
810.308	27842
810.45	27739
810.591	27663
810.733	27462
810.875	27363
811.016	27393
811.158	27275
811.299	27534
811.441	27671
811.582	27511
811.724	27534
811.865	27515
812.007	27431
812.148	27515
812.29	27469
812.431	27519
812.573	27720
812.714	27960
812.855	27914
812.997	28093
813.138	28185
813.279	28162
813.421	28078
813.562	28078
813.703	27861
813.845	27751
813.986	27405
814.127	27355
814.268	27131
814.41	27009
814.551	27074
814.692	27169
814.833	26975
814.974	27116
815.115	27066
815.256	26998
815.397	27127
815.539	27028
815.68	26880
815.821	27013
815.962	26940
816.103	26940
816.244	26807
816.385	26769
816.526	26648
816.666	26571
816.807	26480
816.948	26518
817.089	26511
817.23	26568
817.371	26476
817.512	26355
817.653	26305
817.793	26374
817.934	26434
818.075	26431
818.216	26469
818.356	26446
818.497	26343
818.638	26176
818.778	26088
818.919	26202
819.06	26176
819.2	26256
819.341	26408
819.481	26408
819.622	26594
819.762	26819
819.903	26746
820.043	26568
820.184	26579
820.324	26404
820.465	26708
820.605	26602
820.746	26457
820.886	26453
821.026	26514
821.167	26598
821.307	26423
821.447	26404
821.588	26313
821.728	26103
821.868	26100
822.008	25928
822.149	25830
822.289	25955
822.429	25590
822.569	25533
822.709	25624
822.849	25472
822.99	25464
823.13	25362
823.27	25308
823.41	25202
823.55	25183
823.69	25122
823.83	25141
823.97	25141
824.11	24943
824.25	25046
824.389	24985
824.529	25107
824.669	24958
824.809	25148
824.949	25213
825.089	25141
825.228	25168
825.368	24825
825.508	24901
825.648	25057
825.787	24970
825.927	24928
826.067	24875
826.206	24867
826.346	24882
826.485	24890
826.625	24875
826.765	25000
826.904	24802
827.044	24726
827.183	24620
827.323	24505
827.462	24642
827.601	24616
827.741	24574
827.88	24692
828.02	24403
828.159	24540
828.298	24631
828.437	24745
828.577	24528
828.716	24623
828.855	24574
828.994	24247
829.134	24369
829.273	24281
829.412	24319
829.551	24247
829.69	24388
829.829	24357
829.968	24517
830.107	24494
830.246	24334
830.385	24167
830.524	24315
830.663	24018
830.802	24003
830.941	23828
831.08	23863
831.219	24060
831.357	24091
831.496	24117
831.635	23847
831.774	23927
831.913	23927
832.051	23699
832.19	23646
832.329	23665
832.467	23509
832.606	23668
832.744	23687
832.883	23615
833.022	23634
833.16	23615
833.299	23604
833.437	23790
833.576	23649
833.714	23729
833.852	23661
833.991	23764
834.129	23760
834.267	23798
834.406	23695
834.544	23566
834.682	23832
834.821	23680
834.959	23824
835.097	23611
835.235	23843
835.373	23767
835.511	23611
835.65	23512
835.788	23646
835.926	23421
836.064	23322
836.202	23311
836.34	23535
836.478	23634
836.615	23535
836.753	23623
836.891	23493
837.029	23528
837.167	23531
837.305	23341
837.443	23486
837.58	23376
837.718	23474
837.856	23372
837.993	23337
838.131	23376
838.269	23277
838.406	23159
838.544	23170
838.681	22957
838.819	22995
838.956	22892
839.094	22752
839.231	22850
839.369	23033
839.506	23216
839.643	23067
839.781	22885
839.918	22816
840.055	22869
840.193	22691
840.33	22850
840.467	22752
840.604	22801
840.742	22968
840.879	22744
841.016	22618
841.153	22687
841.29	22869
841.427	22675
841.564	22885
841.701	22862
841.838	22664
841.975	22698
842.112	22607
842.249	22561
842.385	22451
842.522	22637
842.659	22618
842.796	22516
842.933	22459
843.069	22500
843.206	22542
843.343	22694
843.479	22493
843.616	22462
843.752	22371
843.889	22284
844.025	22466
844.162	22295
844.298	22489
844.435	22280
844.571	22234
844.708	22443
844.844	22459
844.98	22348
845.117	22303
845.253	22238
845.389	22162
845.525	22280
845.661	22101
845.798	22086
845.934	22128
846.07	22067
846.206	22063
846.342	22181
846.478	21903
846.614	21827
846.75	21713
846.886	21789
847.022	21873
847.158	21857
847.294	21732
847.429	21804
847.565	21656
847.701	21994
847.837	21519
847.972	21435
848.108	21618
848.244	21698
848.379	21443
848.515	21424
848.65	21321
848.786	21443
848.921	21306
849.057	21534
849.192	21408
849.328	21466
849.463	21325
849.598	21363
849.734	21386
849.869	21294
850.004	21051
850.14	21161
850.275	21138
850.41	21032
850.545	21104
850.68	21108
850.815	21218
850.95	21028
851.085	21389
851.22	21310
851.355	21180
851.49	21058
851.625	21192
851.76	21077
851.895	21161
852.03	21066
852.165	21161
852.299	21146
852.434	21218
852.569	21062
852.703	21138
852.838	21176
852.973	21317
853.107	21173
853.242	21051
853.376	21074
853.511	20830
853.645	20925
853.78	20952
853.914	20948
854.048	20994
854.183	20998
854.317	20914
854.451	21218
854.585	20979
854.72	21009
854.854	21036
854.988	20918
855.122	20895
855.256	20769
855.39	21013
855.524	21131
855.658	20990
855.792	20864
855.926	20971
856.06	21043
856.194	21036
856.327	21024
856.461	21024
856.595	20899
856.729	20838
856.862	21005
856.996	20944
857.13	21036
857.263	21310
857.397	21104
857.53	20994
857.664	21051
857.797	21116
857.931	21108
858.064	21013
858.197	21104
858.331	20941
858.464	20876
858.597	20743
858.731	20899
858.864	20933
858.997	20963
859.13	21051
859.263	20929
859.396	20956
859.529	20937
859.662	20937
859.795	20876
859.928	20979
860.061	21062
860.194	21127
860.327	21093
860.46	21001
860.592	20967
860.725	21070
860.858	21024
860.99	20971
861.123	20849
861.256	20960
861.388	20998
861.521	21686
861.653	21009
861.786	20861
861.918	20701
862.05	20849
862.183	20914
862.315	20967
862.447	20929
862.58	20739
862.712	20716
862.844	20644
862.976	20659
863.108	20838
863.24	21028
863.372	20602
863.504	20705
863.636	20644
863.768	20674
863.9	20735
864.032	20579
864.164	20598
864.296	20765
864.428	20765
864.559	20682
864.691	20587
864.823	20625
864.954	20724
865.086	20636
865.217	20465
865.349	20579
865.48	20552
865.612	20663
865.743	20705
865.875	20640
866.006	20571
866.137	20568
866.269	20598
866.4	20514
866.531	20537
866.662	20518
866.793	20374
866.924	20571
867.055	20476
867.186	20503
867.317	20526
867.448	20469
867.579	20362
867.71	20476
867.841	20450
867.972	20511
868.103	20419
868.233	20457
868.364	20511
868.495	20651
868.625	20701
868.756	20823
868.886	20708
869.017	20739
869.147	20906
869.278	20986
869.408	20720
869.539	20777
869.669	20811
869.799	20701
869.929	20876
870.06	20971
870.19	21135
870.32	21001
870.45	21055
870.58	21104
870.71	21165
870.84	21169
870.97	21192
871.1	21150
871.23	21294
871.36	21374
871.489	21093
871.619	21344
871.749	21329
871.879	21344
872.008	21454
872.138	21310
872.267	21393
872.397	21222
872.526	21237
872.656	21233
872.785	21214
872.915	21389
873.044	21340
873.173	21370
873.303	21393
873.432	21431
873.561	21462
873.69	21332
873.819	21382
873.948	21473
874.077	21408
874.206	21435
874.335	21363
874.464	21485
874.593	21572
874.722	21610
874.851	21644
874.979	21614
875.108	21778
875.237	21507
875.365	21397
875.494	21564
875.623	21595
875.751	21515
875.88	21595
876.008	21762
876.136	21819
876.265	21987
876.393	22143
876.521	22124
876.65	22063
876.778	21964
876.906	21918
877.034	22063
877.162	21884
877.29	21922
877.418	21930
877.546	22021
877.674	21972
877.802	21964
877.93	21854
878.058	21895
878.185	21823
878.313	21911
878.441	21968
878.568	21850
878.696	21926
878.824	22006
878.951	21861
879.079	22238
879.206	22310
879.333	22063
879.461	22013
879.588	22006
879.715	22215
879.842	22261
879.97	21994
880.097	21793
880.224	21831
880.351	21907
880.478	21785
880.605	21774
880.732	21747
880.859	21892
880.986	21747
881.112	21736
881.239	21553
881.366	21538
881.493	21469
881.619	21363
881.746	21363
881.872	21382
881.999	21279
882.125	21340
882.252	21336
882.378	21329
882.505	21477
882.631	21226
882.757	21058
882.883	21089
883.01	21161
883.136	20986
883.262	20796
883.388	20891
883.514	20990
883.64	21081
883.766	20941
883.892	20891
884.018	20872
884.143	20994
884.269	21020
884.395	20682
884.52	20579
884.646	20689
884.772	20609
884.897	20727
885.023	20765
885.148	20815
885.274	20937
885.399	20788
885.524	20765
885.65	20769
885.775	20716
885.9	20739
886.025	20872
886.15	20754
886.275	20720
886.4	20758
886.525	20609
886.65	20644
886.775	20625
886.9	20842
887.025	20872
887.149	20651
887.274	20461
887.399	20415
887.523	20423
887.648	20442
887.773	20358
887.897	20549
888.021	20473
888.146	20408
888.27	20640
888.395	20465
888.519	20511
888.643	20499
888.767	20434
888.891	20366
889.015	20313
889.139	20298
889.263	20244
889.387	20400
889.511	20530
889.635	20408
889.759	20225
889.883	20233
890.006	20313
890.13	20374
890.254	20286
890.377	20259
890.501	20001
890.624	20031
890.748	20016
890.871	19909
890.995	19803
891.118	19761
891.241	19845
891.364	19761
891.488	19890
891.611	19841
891.734	19879
891.857	19902
891.98	19814
892.103	19951
892.226	19887
892.349	19795
892.471	19685
892.594	19769
892.717	19704
892.839	19830
892.962	19723
893.085	19780
893.207	19765
893.33	19677
893.452	19662
893.575	19780
893.697	19776
893.819	19860
893.941	19947
894.064	19830
894.186	19662
894.308	19723
894.43	19871
894.552	19909
894.674	19814
894.796	19635
894.918	19753
895.04	19769
895.161	19795
895.283	19746
895.405	19628
895.526	19731
895.648	19715
895.769	19826
895.891	19753
896.012	19868
896.134	19879
896.255	19635
896.376	19814
896.498	19712
896.619	19628
896.74	19704
896.861	19887
896.982	20050
897.103	20221
897.224	19906
897.345	20142
897.466	20001
897.587	20031
897.708	20077
897.828	19986
897.949	20035
898.07	19856
898.19	19883
898.311	20012
898.431	19875
898.552	19936
898.672	20073
898.792	20050
898.913	19940
899.033	19852
899.153	19898
899.273	19639
899.393	19791
899.513	19757
899.633	19811
899.753	19788
899.873	19750
899.993	19841
900.113	19776
900.232	19841
900.352	19616
900.472	19544
900.591	19525
900.711	19476
900.83	19400
900.95	19544
901.069	19529
901.189	19384
901.308	19202
901.427	19141
901.546	19198
901.665	19088
901.784	19129
901.904	18863
902.023	18825
902.141	18757
902.26	18604
902.379	18741
902.498	18665
902.617	18673
902.735	18677
902.854	18582
902.973	18688
903.091	18330
903.21	18376
903.328	18289
903.446	18133
903.565	18057
903.683	18152
903.801	17980
903.919	18041
904.038	17999
904.156	17950
904.274	17961
904.392	17882
904.51	17916
904.627	17904
904.745	17832
904.863	18019
904.981	17737
905.098	17532
905.216	17668
905.334	17551
905.451	17512
905.569	17615
905.686	17634
905.803	17524
905.921	17383
906.038	17509
906.155	17429
906.272	17250
906.389	17269
906.506	17166
906.623	17235
906.74	17121
906.857	17094
906.974	17045
907.091	17193
907.208	17364
907.324	17083
907.441	17124
907.557	16850
907.674	16816
907.79	16782
907.907	16984
908.023	16774
908.139	16828
908.256	16828
908.372	16736
908.488	16763
908.604	16584
908.72	16478
908.836	16611
908.952	16736
909.068	16569
909.184	16706
909.3	16542
909.415	16618
909.531	16603
909.647	16329
909.762	16337
909.878	16280
909.993	16284
910.108	16223
910.224	16226
910.339	16268
910.454	16128
910.57	16150
910.685	15983
910.8	16261
910.915	16226
911.03	16082
911.145	15903
911.259	15911
911.374	15835
911.489	15846
911.604	15838
911.718	15671
911.833	15637
911.947	15606
912.062	15447
912.176	15663
912.291	15671
912.405	15538
912.519	15880
912.633	15857
912.748	15587
912.862	15641
912.976	15488
913.09	15283
913.204	15439
913.318	15481
913.431	15454
913.545	15542
913.659	15576
913.772	15302
913.886	15313
914	15142
914.113	15249
914.226	15435
914.34	15279
914.453	15188
914.566	15291
914.68	15116
914.793	15146
914.906	14971
915.019	14895
915.132	14811
915.245	14861
915.358	14880
915.47	14857
915.583	14902
915.696	14849
915.809	14994
915.921	14998
916.034	14785
916.146	14777
916.259	14838
916.371	14891
916.483	14842
916.595	14750
916.708	14667
916.82	14712
916.932	14670
917.044	14689
917.156	14686
917.268	14602
917.38	14590
917.491	14507
917.603	14598
917.715	14507
917.826	14655
917.938	14526
918.049	14370
918.161	14484
918.272	14670
918.384	14640
918.495	14465
918.606	14381
918.717	14309
918.828	14199
918.939	14332
919.05	14244
919.161	14313
919.272	14020
919.383	14149
919.494	14355
919.604	14575
919.715	14244
919.826	14259
919.936	14180
920.047	14408
920.157	14240
920.267	14511
920.378	14278
920.488	14214
920.598	14320
920.708	14549
920.818	14377
920.928	14282
921.038	14537
921.148	14552
921.258	14187
921.368	14161
921.477	14088
921.587	13989
921.697	13837
921.806	14020
921.916	13917
922.025	13738
922.134	13662
922.244	13639
922.353	13586
922.462	13518
922.571	13407
922.68	13426
922.789	13335
922.898	13350
923.007	13373
923.116	13324
923.224	13259
923.333	13324
923.442	13187
923.55	13156
923.659	13198
923.767	13145
923.876	13084
923.984	13236
924.092	12970
924.201	13141
924.309	13065
924.417	13004
924.525	12928
924.633	12973
924.741	13776
924.849	12779
924.956	12901
925.064	12692
925.172	12757
925.279	12730
925.387	12848
925.494	12696
925.602	12852
925.709	12726
925.816	12620
925.924	12719
926.031	12700
926.138	12703
926.245	12726
926.352	12597
926.459	12662
926.566	12817
926.673	12646
926.779	12479
926.886	12407
926.993	12296
927.099	12239
927.206	12194
927.312	12213
927.419	12254
927.525	12281
927.631	12292
927.737	12300
927.843	12148
927.95	12079
928.056	12106
928.162	12121
928.267	12220
928.373	12722
928.479	12228
928.585	11958
928.69	12155
928.796	12155
928.901	12003
929.007	11767
929.112	11988
929.218	11992
929.323	11851
929.428	11832
929.533	12079
929.638	11790
929.743	11836
929.848	11931
929.953	11771
930.058	11634
930.163	11558
930.267	11581
930.372	11672
930.477	11558
930.581	11680
930.685	11642
930.79	11417
930.894	11414
930.998	11490
931.103	11516
931.207	11170
931.311	11121
931.415	11037
931.519	10877
931.623	10885
