Data from test_V78500241_1848.txt Node
Date: Fri Mar 25 15:22:43 CST 2022
User: usil
Spectrometer: V785-0024
Trigger mode: 0
Integration Time (sec): 4.000000E-1
Scans to average: 1
Nonlinearity correction enabled: false
Boxcar width: 0
Storing dark spectrum: false
XAxis mode: Wavelengths
Number of Pixels in Spectrum: 1024
>>>>>Begin Spectral Data<<<<<
801.071	27804
801.214	27614
801.356	27458
801.499	27629
801.641	27306
801.783	27245
801.926	27367
802.068	27256
802.211	27245
802.353	27302
802.496	26986
802.638	27032
802.78	26891
802.923	27020
803.065	26834
803.208	26762
803.35	26906
803.492	26937
803.635	27207
803.777	27028
803.919	27268
804.061	27359
804.204	27230
804.346	27055
804.488	27009
804.63	27077
804.773	27062
804.915	27157
805.057	27279
805.199	27055
805.341	27131
805.483	27370
805.626	27199
805.768	27161
805.91	27370
806.052	27211
806.194	27081
806.336	27511
806.478	27241
806.62	27169
806.762	27401
806.904	27481
807.046	27648
807.188	27599
807.33	27671
807.472	27701
807.614	27545
807.756	27679
807.898	27420
808.04	27431
808.182	27454
808.324	27534
808.465	27500
808.607	27724
808.749	27895
808.891	28086
809.033	27922
809.174	27991
809.316	27861
809.458	27838
809.6	27994
809.741	27884
809.883	27941
810.025	28246
810.166	28074
810.308	28150
810.45	28093
810.591	28051
810.733	27941
810.875	27808
811.016	27690
811.158	27637
811.299	27941
811.441	28078
811.582	27968
811.724	27766
811.865	27899
812.007	27698
812.148	27755
812.29	27865
812.431	28200
812.573	28173
812.714	28295
812.855	28413
812.997	28432
813.138	28508
813.279	28459
813.421	28249
813.562	28295
813.703	28177
813.845	27903
813.986	27861
814.127	27557
814.268	27523
814.41	27591
814.551	27485
814.692	27682
814.833	27481
814.974	27359
815.115	27572
815.256	27367
815.397	27504
815.539	27416
815.68	27332
815.821	27412
815.962	27458
816.103	27317
816.244	27203
816.385	27100
816.526	27085
816.666	26940
816.807	26864
816.948	26785
817.089	26899
817.23	26891
817.371	26800
817.512	26845
817.653	26861
817.793	26754
817.934	26842
818.075	26975
818.216	26925
818.356	26868
818.497	26762
818.638	26636
818.778	26526
818.919	26674
819.06	26499
819.2	26674
819.341	26819
819.481	26861
819.622	26918
819.762	27119
819.903	27020
820.043	26990
820.184	26868
820.324	27066
820.465	26990
820.605	26883
820.746	27024
820.886	26800
821.026	26849
821.167	26925
821.307	27017
821.447	26815
821.588	26796
821.728	26579
821.868	26434
822.008	26294
822.149	26271
822.289	26244
822.429	26046
822.569	25966
822.709	25993
822.849	25890
822.99	25856
823.13	25799
823.27	25788
823.41	25651
823.55	25441
823.69	25696
823.83	25533
823.97	25616
824.11	25377
824.25	25263
824.389	25430
824.529	25460
824.669	25468
824.809	25529
824.949	25601
825.089	25582
825.228	25578
825.368	25270
825.508	25278
825.648	25343
825.787	25362
825.927	25415
826.067	25358
826.206	25358
826.346	25324
826.485	25464
826.625	25228
826.765	25407
826.904	25301
827.044	25095
827.183	25133
827.323	25008
827.462	25091
827.601	25023
827.741	25141
827.88	25099
828.02	24833
828.159	25050
828.298	25015
828.437	25160
828.577	25110
828.716	25183
828.855	25038
828.994	24753
829.134	24779
829.273	24916
829.412	24875
829.551	24669
829.69	24791
829.829	24840
829.968	24962
830.107	24821
830.246	24802
830.385	24684
830.524	24776
830.663	24585
830.802	24410
830.941	24395
831.08	24414
831.219	24540
831.357	24475
831.496	24730
831.635	24327
831.774	24399
831.913	24251
832.051	24186
832.19	24091
832.329	24136
832.467	24095
832.606	24041
832.744	24034
832.883	24129
833.022	24038
833.16	23977
833.299	24110
833.437	24159
833.576	24144
833.714	24114
833.852	24213
833.991	24235
834.129	24228
834.267	24247
834.406	24186
834.544	24174
834.682	24171
834.821	24194
834.959	24194
835.097	23889
835.235	24213
835.373	23992
835.511	24106
835.65	23965
835.788	23931
835.926	23836
836.064	23821
836.202	23805
836.34	24003
836.478	24091
836.615	24003
836.753	23973
836.891	23996
837.029	23927
837.167	23866
837.305	23908
837.443	23882
837.58	23863
837.718	23859
837.856	23866
837.993	23840
838.131	23843
838.269	23722
838.406	23672
838.544	23657
838.681	23573
838.819	23486
838.956	23349
839.094	23269
839.231	23223
839.369	23509
839.506	23619
839.643	23543
839.781	23254
839.918	23292
840.055	23265
840.193	23231
840.33	23178
840.467	23296
840.604	23235
840.742	23524
840.879	23006
841.016	23060
841.153	23197
841.29	23299
841.427	23189
841.564	23155
841.701	23185
841.838	23067
841.975	23048
842.112	23185
842.249	23037
842.385	22965
842.522	23109
842.659	23090
842.796	23003
842.933	22930
843.069	23136
843.206	22991
843.343	23098
843.479	22938
843.616	23060
843.752	22717
843.889	22873
844.025	22923
844.162	22725
844.298	22892
844.435	22721
844.571	22748
844.708	22896
844.844	22900
844.98	22892
845.117	22854
845.253	22672
845.389	22622
845.525	22744
845.661	22588
845.798	22542
845.934	22527
846.07	22470
846.206	22603
846.342	22485
846.478	22440
846.614	22249
846.75	22101
846.886	22185
847.022	22238
847.158	22272
847.294	22173
847.429	22352
847.565	22234
847.701	22409
847.837	21964
847.972	21972
848.108	22006
848.244	22021
848.379	21907
848.515	21895
848.65	21732
848.786	21800
848.921	21823
849.057	22040
849.192	22006
849.328	21698
849.463	21690
849.598	21907
849.734	21606
849.869	21682
850.004	21530
850.14	21583
850.275	21606
850.41	21485
850.545	21599
850.68	21477
850.815	21614
850.95	21519
851.085	21728
851.22	21622
851.355	21679
851.49	21553
851.625	21504
851.76	21553
851.895	21553
852.03	21523
852.165	21671
852.299	21599
852.434	21709
852.569	21622
852.703	21576
852.838	21751
852.973	21694
853.107	21648
853.242	21538
853.376	21523
853.511	21294
853.645	21321
853.78	21435
853.914	21412
854.048	21275
854.183	21355
854.317	21439
854.451	21682
854.585	21439
854.72	21450
854.854	21481
854.988	21397
855.122	21416
855.256	21226
855.39	21401
855.524	21329
855.658	21412
855.792	21447
855.926	21401
856.06	21561
856.194	21469
856.327	21256
856.461	21374
856.595	21313
856.729	21412
856.862	21511
856.996	21340
857.13	21431
857.263	21462
857.397	21466
857.53	21313
857.664	21412
857.797	21378
857.931	21431
858.064	21351
858.197	21408
858.331	21428
858.464	21294
858.597	21252
858.731	21351
858.864	21180
858.997	21294
859.13	21408
859.263	21488
859.396	21485
859.529	21351
859.662	21370
859.795	21416
859.928	21488
860.061	21583
860.194	21682
860.327	21450
860.46	21386
860.592	21511
860.725	21641
860.858	21545
860.99	21340
861.123	21420
861.256	21272
861.388	21370
861.521	22059
861.653	21165
861.786	21264
861.918	21291
862.05	21351
862.183	21363
862.315	21386
862.447	21389
862.58	21351
862.712	21100
862.844	21116
862.976	21237
863.108	21100
863.24	21504
863.372	21036
863.504	21093
863.636	21066
863.768	21093
863.9	21272
864.032	21013
864.164	21135
864.296	21138
864.428	21203
864.559	21192
864.691	21199
864.823	21108
864.954	21157
865.086	21032
865.217	20994
865.349	21005
865.48	20975
865.612	20918
865.743	21207
865.875	20944
866.006	20918
866.137	21017
866.269	21024
866.4	21074
866.531	20971
866.662	20929
866.793	20941
866.924	20853
867.055	20918
867.186	20979
867.317	20872
867.448	20842
867.579	20941
867.71	20834
867.841	20853
867.972	20887
868.103	20971
868.233	20845
868.364	20956
868.495	21070
868.625	21180
868.756	21176
868.886	21032
869.017	21123
869.147	21302
869.278	21275
869.408	21332
869.539	21283
869.669	21233
869.799	21180
869.929	21287
870.06	21412
870.19	21367
870.32	21481
870.45	21458
870.58	21428
870.71	21625
870.84	21781
870.97	21580
871.1	21500
871.23	21835
871.36	21854
871.489	21770
871.619	21835
871.749	21804
871.879	21800
872.008	21884
872.138	21720
872.267	21762
872.397	21576
872.526	21580
872.656	21633
872.785	21629
872.915	21705
873.044	21785
873.173	21835
873.303	21861
873.432	21873
873.561	21934
873.69	21827
873.819	21873
873.948	21823
874.077	21819
874.206	21941
874.335	21911
874.464	21926
874.593	22158
874.722	22040
874.851	22059
874.979	22006
875.108	22200
875.237	21884
875.365	21968
875.494	21979
875.623	21972
875.751	22048
875.88	22051
876.008	22055
876.136	22219
876.265	22428
876.393	22523
876.521	22508
876.65	22413
876.778	22500
876.906	22367
877.034	22428
877.162	22424
877.29	22318
877.418	22405
877.546	22382
877.674	22348
877.802	22234
877.93	22413
878.058	22200
878.185	22200
878.313	22242
878.441	22360
878.568	22166
878.696	22371
878.824	22363
878.951	22531
879.079	22637
879.206	22588
879.333	22413
879.461	22459
879.588	22615
879.715	22466
879.842	22554
879.97	22474
880.097	22230
880.224	22192
880.351	22215
880.478	22204
880.605	22112
880.732	22162
880.859	22398
880.986	22196
881.112	22310
881.239	22093
881.366	22002
881.493	21713
881.619	21778
881.746	21812
881.872	21800
881.999	21720
882.125	21751
882.252	21804
882.378	21739
882.505	21930
882.631	21603
882.757	21526
882.883	21523
883.01	21416
883.136	21359
883.262	21279
883.388	21211
883.514	21473
883.64	21469
883.766	21443
883.892	21268
884.018	21313
884.143	21515
884.269	21507
884.395	21154
884.52	21100
884.646	21127
884.772	21005
884.897	20891
885.023	21154
885.148	21226
885.274	21218
885.399	21249
885.524	21112
885.65	21112
885.775	21104
885.9	21020
886.025	21135
886.15	21249
886.275	21051
886.4	20948
886.525	21036
886.65	21074
886.775	21066
886.9	21108
887.025	21237
887.149	21096
887.274	20838
887.399	20735
887.523	20872
887.648	20765
887.773	20853
887.897	21055
888.021	20971
888.146	20853
888.27	20956
888.395	21005
888.519	20883
888.643	20910
888.767	20834
888.891	20792
889.015	20663
889.139	20845
889.263	20758
889.387	20705
889.511	20929
889.635	20845
889.759	20636
889.883	20606
890.006	20667
890.13	20758
890.254	20587
890.377	20545
890.501	20476
890.624	20400
890.748	20594
890.871	20248
890.995	20298
891.118	20168
891.241	20309
891.364	20199
891.488	20336
891.611	20206
891.734	20134
891.857	20221
891.98	20187
892.103	20271
892.226	20263
892.349	20187
892.471	19925
892.594	20107
892.717	20202
892.839	20157
892.962	20145
893.085	20145
893.207	20191
893.33	20134
893.452	20096
893.575	20164
893.697	20077
893.819	20271
893.941	20492
894.064	20237
894.186	20012
894.308	20073
894.43	20210
894.552	20248
894.674	20119
894.796	20077
894.918	20126
895.04	20126
895.161	20206
895.283	20065
895.405	20046
895.526	20134
895.648	20077
895.769	20122
895.891	20180
896.012	20210
896.134	20225
896.255	20142
896.376	20134
896.498	20043
896.619	20187
896.74	20176
896.861	20180
896.982	20434
897.103	20651
897.224	20370
897.345	20393
897.466	20317
897.587	20332
897.708	20511
897.828	20450
897.949	20320
898.07	20218
898.19	20271
898.311	20389
898.431	20290
898.552	20332
898.672	20351
898.792	20381
898.913	20210
899.033	20233
899.153	20081
899.273	19963
899.393	20195
899.513	20157
899.633	20043
899.753	20111
899.873	20001
899.993	20164
900.113	19982
900.232	20043
900.352	19902
900.472	19944
900.591	19765
900.711	19902
900.83	19734
900.95	20005
901.069	19989
901.189	19780
901.308	19540
901.427	19464
901.546	19422
901.665	19518
901.784	19407
901.904	19373
902.023	19274
902.141	19053
902.26	19080
902.379	19110
902.498	19023
902.617	18821
902.735	18920
902.854	18837
902.973	18894
903.091	18768
903.21	18654
903.328	18585
903.446	18464
903.565	18502
903.683	18513
903.801	18277
903.919	18296
904.038	18277
904.156	18213
904.274	18220
904.392	18224
904.51	18182
904.627	18171
904.745	18171
904.863	18205
904.981	18060
905.098	17920
905.216	17802
905.334	17961
905.451	17859
905.569	17760
905.686	17847
905.803	17847
905.921	17661
906.038	17726
906.155	17748
906.272	17463
906.389	17551
906.506	17410
906.623	17425
906.74	17345
906.857	17277
906.974	17356
907.091	17463
907.208	17592
907.324	17471
907.441	17341
907.557	17200
907.674	17162
907.79	16987
907.907	17086
908.023	17147
908.139	17151
908.256	17079
908.372	17041
908.488	17060
908.604	16881
908.72	16687
908.836	16839
908.952	16866
909.068	16771
909.184	16934
909.3	16972
909.415	16828
909.531	16843
909.647	16577
909.762	16668
909.878	16523
909.993	16561
910.108	16474
910.224	16504
910.339	16497
910.454	16421
910.57	16428
910.685	16371
910.8	16516
910.915	16550
911.03	16322
911.145	16200
911.259	16200
911.374	16059
911.489	16044
911.604	16067
911.718	15922
911.833	15895
911.947	15759
912.062	15690
912.176	15766
912.291	15903
912.405	15857
912.519	16090
912.633	16150
912.748	15930
912.862	15880
912.976	15804
913.09	15663
913.204	15595
913.318	15709
913.431	15785
913.545	15785
913.659	15743
913.772	15720
913.886	15610
914	15477
914.113	15576
914.226	15622
914.34	15549
914.453	15397
914.566	15606
914.68	15401
914.793	15420
914.906	15226
915.019	15051
915.132	15085
915.245	15097
915.358	15093
915.47	15089
915.583	15150
915.696	15127
915.809	15241
915.921	15211
916.034	15074
916.146	15039
916.259	15051
916.371	15150
916.483	15070
916.595	14910
916.708	14944
916.82	14914
916.932	14853
917.044	14883
917.156	14819
917.268	14804
917.38	14807
917.491	14758
917.603	14750
917.715	14864
917.826	14914
917.938	14762
918.049	14644
918.161	14758
918.272	14853
918.384	14796
918.495	14739
918.606	14663
918.717	14434
918.828	14606
918.939	14629
919.05	14484
919.161	14465
919.272	14301
919.383	14377
919.494	14594
919.604	14727
919.715	14556
919.826	14381
919.936	14488
920.047	14488
920.157	14408
920.267	14648
920.378	14537
920.488	14427
920.598	14640
920.708	14868
920.818	14640
920.928	14659
921.038	14838
921.148	14708
921.258	14480
921.368	14396
921.477	14275
921.587	14252
921.697	14180
921.806	14183
921.916	14088
922.025	13868
922.134	13860
922.244	13841
922.353	13921
922.462	13666
922.571	13750
922.68	13578
922.789	13506
922.898	13597
923.007	13460
923.116	13563
923.224	13514
923.333	13495
923.442	13335
923.55	13278
923.659	13407
923.767	13419
923.876	13282
923.984	13377
924.092	13171
924.201	13247
924.309	13232
924.417	13312
924.525	13198
924.633	13228
924.741	14088
924.849	13004
924.956	13076
925.064	12981
925.172	12821
925.279	12867
925.387	12962
925.494	12981
925.602	12996
925.709	13027
925.816	12901
925.924	12901
926.031	13019
926.138	12852
926.245	12939
926.352	12722
926.459	12882
926.566	12943
926.673	12779
926.779	12635
926.886	12722
926.993	12570
927.099	12517
927.206	12475
927.312	12456
927.419	12563
927.525	12422
927.631	12555
927.737	12426
927.843	12350
927.95	12194
928.056	12251
928.162	12369
928.267	12372
928.373	12939
928.479	12376
928.585	12144
928.69	12296
928.796	12251
928.901	12133
929.007	11980
929.112	12152
929.218	12155
929.323	11961
929.428	12060
929.533	12148
929.638	11893
929.743	12015
929.848	12079
929.953	11916
930.058	11840
930.163	11733
930.267	11718
930.372	11863
930.477	11741
930.581	11958
930.685	11665
930.79	11604
930.894	11619
930.998	11634
931.103	11733
931.207	11395
931.311	11402
931.415	11223
931.519	11010
931.623	11003
