Data from test_V78500241_2413.txt Node
Date: Fri Mar 25 15:26:39 CST 2022
User: usil
Spectrometer: V785-0024
Trigger mode: 0
Integration Time (sec): 4.000000E-1
Scans to average: 1
Nonlinearity correction enabled: false
Boxcar width: 0
Storing dark spectrum: false
XAxis mode: Wavelengths
Number of Pixels in Spectrum: 1024
>>>>>Begin Spectral Data<<<<<
801.071	27230
801.214	27188
801.356	26902
801.499	26857
801.641	26781
801.783	26857
801.926	26853
802.068	26743
802.211	26686
802.353	26537
802.496	26374
802.638	26400
802.78	26290
802.923	26294
803.065	26298
803.208	26278
803.35	26347
803.492	26476
803.635	26556
803.777	26450
803.919	26590
804.061	26971
804.204	26670
804.346	26480
804.488	26461
804.63	26450
804.773	26419
804.915	26453
805.057	26579
805.199	26507
805.341	26476
805.483	26602
805.626	26617
805.768	26541
805.91	26594
806.052	26571
806.194	26701
806.336	26845
806.478	26613
806.62	26651
806.762	26746
806.904	26834
807.046	27154
807.188	27055
807.33	27028
807.472	27272
807.614	27001
807.756	26952
807.898	26853
808.04	26804
808.182	26838
808.324	26842
808.465	26876
808.607	27039
808.749	27279
808.891	27359
809.033	27260
809.174	27351
809.316	27233
809.458	27260
809.6	27291
809.741	27382
809.883	27382
810.025	27526
810.166	27416
810.308	27412
810.45	27553
810.591	27401
810.733	27317
810.875	27211
811.016	27233
811.158	27028
811.299	27294
811.441	27268
811.582	27325
811.724	27085
811.865	27146
812.007	27222
812.148	27154
812.29	27176
812.431	27317
812.573	27427
812.714	27553
812.855	27747
812.997	27732
813.138	27937
813.279	27751
813.421	27793
813.562	27485
813.703	27625
813.845	27367
813.986	27211
814.127	26781
814.268	26830
814.41	26948
814.551	26792
814.692	26925
814.833	26849
814.974	26861
815.115	26887
815.256	26727
815.397	26670
815.539	26773
815.68	26530
815.821	26674
815.962	26617
816.103	26686
816.244	26476
816.385	26442
816.526	26362
816.666	26358
816.807	26107
816.948	26103
817.089	26412
817.23	26202
817.371	26202
817.512	26153
817.653	25875
817.793	26069
817.934	26164
818.075	26221
818.216	26122
818.356	26062
818.497	26039
818.638	25856
818.778	25875
818.919	25989
819.06	25925
819.2	25986
819.341	26081
819.481	25982
819.622	26199
819.762	26301
819.903	26332
820.043	26301
820.184	26267
820.324	26229
820.465	26294
820.605	26145
820.746	26161
820.886	26153
821.026	26103
821.167	26092
821.307	26229
821.447	26180
821.588	25974
821.728	25955
821.868	25715
822.008	25662
822.149	25624
822.289	25514
822.429	25278
822.569	25141
822.709	25217
822.849	25000
822.99	25053
823.13	25069
823.27	24943
823.41	24814
823.55	24882
823.69	24890
823.83	24810
823.97	24905
824.11	24646
824.25	24726
824.389	24722
824.529	24776
824.669	24684
824.809	24814
824.949	24715
825.089	24764
825.228	24722
825.368	24646
825.508	24608
825.648	24563
825.787	24601
825.927	24627
826.067	24475
826.206	24608
826.346	24589
826.485	24692
826.625	24601
826.765	24760
826.904	24604
827.044	24391
827.183	24292
827.323	24262
827.462	24410
827.601	24220
827.741	24197
827.88	24403
828.02	24186
828.159	24281
828.298	24327
828.437	24372
828.577	24243
828.716	24334
828.855	24258
828.994	24098
829.134	23980
829.273	24049
829.412	24098
829.551	23912
829.69	23965
829.829	23988
829.968	24216
830.107	24057
830.246	23977
830.385	23969
830.524	23847
830.663	23901
830.802	23680
830.941	23703
831.08	23611
831.219	23908
831.357	23661
831.496	23950
831.635	23672
831.774	23493
831.913	23497
832.051	23406
832.19	23395
832.329	23326
832.467	23299
832.606	23197
832.744	23200
832.883	23299
833.022	23121
833.16	23490
833.299	23341
833.437	23349
833.576	23296
833.714	23383
833.852	23330
833.991	23360
834.129	23440
834.267	23417
834.406	23212
834.544	23417
834.682	23265
834.821	23227
834.959	23589
835.097	23372
835.235	23581
835.373	23277
835.511	23307
835.65	23094
835.788	23250
835.926	22984
836.064	23003
836.202	22972
836.34	23250
836.478	23174
836.615	23166
836.753	23246
836.891	23284
837.029	23235
837.167	23105
837.305	23052
837.443	23010
837.58	23147
837.718	23060
837.856	23029
837.993	23022
838.131	23044
838.269	22927
838.406	23067
838.544	22858
838.681	22771
838.819	22698
838.956	22626
839.094	22466
839.231	22561
839.369	22801
839.506	22938
839.643	22778
839.781	22519
839.918	22432
840.055	22516
840.193	22588
840.33	22478
840.467	22527
840.604	22443
840.742	22637
840.879	22405
841.016	22352
841.153	22360
841.29	22588
841.427	22417
841.564	22535
841.701	22523
841.838	22474
841.975	22421
842.112	22375
842.249	22432
842.385	22265
842.522	22447
842.659	22375
842.796	22249
842.933	22253
843.069	22257
843.206	22204
843.343	22230
843.479	22276
843.616	22253
843.752	22090
843.889	22040
844.025	22223
844.162	21956
844.298	22124
844.435	22021
844.571	21937
844.708	22074
844.844	22249
844.98	22249
845.117	22097
845.253	22006
845.389	21937
845.525	21964
845.661	21934
845.798	21686
845.934	21926
846.07	21880
846.206	21842
846.342	21895
846.478	21789
846.614	21583
846.75	21515
846.886	21439
847.022	21568
847.158	21511
847.294	21542
847.429	21557
847.565	21485
847.701	21701
847.837	21169
847.972	21203
848.108	21256
848.244	21294
848.379	21150
848.515	21169
848.65	21093
848.786	21135
848.921	21070
849.057	21214
849.192	21233
849.328	21036
849.463	21024
849.598	20990
849.734	21032
849.869	20842
850.004	20876
850.14	20868
850.275	21009
850.41	20781
850.545	20849
850.68	20891
850.815	20800
850.95	20933
851.085	21218
851.22	21043
851.355	20727
851.49	20739
851.625	20883
851.76	20800
851.895	20720
852.03	20705
852.165	20758
852.299	20967
852.434	20899
852.569	20823
852.703	20842
852.838	20857
852.973	20914
853.107	20921
853.242	20716
853.376	20606
853.511	20632
853.645	20674
853.78	20739
853.914	20648
854.048	20674
854.183	20598
854.317	20602
854.451	20872
854.585	20777
854.72	20613
854.854	20769
854.988	20621
855.122	20788
855.256	20587
855.39	20674
855.524	20735
855.658	20838
855.792	20674
855.926	20781
856.06	20655
856.194	20651
856.327	20720
856.461	20746
856.595	20609
856.729	20629
856.862	20792
856.996	20686
857.13	20826
857.263	20735
857.397	20853
857.53	20716
857.664	20651
857.797	20750
857.931	20762
858.064	20743
858.197	20781
858.331	20724
858.464	20541
858.597	20602
858.731	20609
858.864	20716
858.997	20640
859.13	20670
859.263	20697
859.396	20705
859.529	20689
859.662	20560
859.795	20648
859.928	20739
860.061	20838
860.194	20910
860.327	20693
860.46	20716
860.592	20849
860.725	20876
860.858	20807
860.99	20724
861.123	20571
861.256	20609
861.388	20724
861.521	21135
861.653	20609
861.786	20461
861.918	20412
862.05	20526
862.183	20632
862.315	20678
862.447	20727
862.58	20663
862.712	20507
862.844	20404
862.976	20438
863.108	20522
863.24	20815
863.372	20393
863.504	20374
863.636	20446
863.768	20423
863.9	20431
864.032	20263
864.164	20385
864.296	20385
864.428	20469
864.559	20446
864.691	20442
864.823	20408
864.954	20320
865.086	20419
865.217	20313
865.349	20157
865.48	20358
865.612	20248
865.743	20469
865.875	20271
866.006	20244
866.137	20389
866.269	20324
866.4	20294
866.531	20168
866.662	20256
866.793	20233
866.924	20263
867.055	20286
867.186	20252
867.317	20256
867.448	20176
867.579	20180
867.71	20191
867.841	20062
867.972	20339
868.103	20221
868.233	20294
868.364	20286
868.495	20408
868.625	20438
868.756	20552
868.886	20328
869.017	20583
869.147	20678
869.278	20625
869.408	20541
869.539	20514
869.669	20598
869.799	20537
869.929	20609
870.06	20598
870.19	20838
870.32	20773
870.45	20914
870.58	20876
870.71	21017
870.84	20948
870.97	20876
871.1	20902
871.23	20998
871.36	21062
871.489	20891
871.619	21047
871.749	21184
871.879	21024
872.008	21207
872.138	21135
872.267	21074
872.397	20971
872.526	20918
872.656	20979
872.785	20986
872.915	21077
873.044	21100
873.173	21036
873.303	21096
873.432	21214
873.561	21222
873.69	21165
873.819	21184
873.948	21245
874.077	21135
874.206	20971
874.335	21135
874.464	21184
874.593	21351
874.722	21313
874.851	21386
874.979	21382
875.108	21424
875.237	21230
875.365	21294
875.494	21302
875.623	21450
875.751	21329
875.88	21405
876.008	21397
876.136	21591
876.265	21713
876.393	21907
876.521	21880
876.65	21838
876.778	21732
876.906	21667
877.034	21698
877.162	21652
877.29	21656
877.418	21755
877.546	21762
877.674	21610
877.802	21667
877.93	21705
878.058	21739
878.185	21667
878.313	21720
878.441	21701
878.568	21561
878.696	21660
878.824	21701
878.951	21694
879.079	21857
879.206	21934
879.333	21934
879.461	21561
879.588	21759
879.715	21865
879.842	21972
879.97	21652
880.097	21511
880.224	21523
880.351	21507
880.478	21542
880.605	21424
880.732	21538
880.859	21671
880.986	21583
881.112	21492
881.239	21355
881.366	21336
881.493	21138
881.619	21100
881.746	21081
881.872	21104
881.999	21081
882.125	21093
882.252	21127
882.378	21013
882.505	21131
882.631	21043
882.757	20845
882.883	20705
883.01	20678
883.136	20758
883.262	20655
883.388	20560
883.514	20834
883.64	20842
883.766	20571
883.892	20651
884.018	20602
884.143	20842
884.269	20826
884.395	20678
884.52	20476
884.646	20461
884.772	20332
884.897	20309
885.023	20385
885.148	20667
885.274	20651
885.399	20533
885.524	20575
885.65	20473
885.775	20556
885.9	20434
886.025	20575
886.15	20571
886.275	20419
886.4	20301
886.525	20404
886.65	20252
886.775	20313
886.9	20488
887.025	20587
887.149	20415
887.274	20221
887.399	20134
887.523	20168
887.648	20138
887.773	20012
887.897	20225
888.021	20244
888.146	20073
888.27	20412
888.395	20259
888.519	20313
888.643	20259
888.767	20324
888.891	20119
889.015	20115
889.139	20142
889.263	19932
889.387	20077
889.511	20237
889.635	20195
889.759	19974
889.883	19940
890.006	20024
890.13	20149
890.254	19974
890.377	19940
890.501	19860
890.624	19761
890.748	19860
890.871	19693
890.995	19700
891.118	19597
891.241	19495
891.364	19696
891.488	19795
891.611	19677
891.734	19613
891.857	19685
891.98	19632
892.103	19681
892.226	19556
892.349	19529
892.471	19411
892.594	19552
892.717	19586
892.839	19506
892.962	19674
893.085	19609
893.207	19544
893.33	19449
893.452	19369
893.575	19582
893.697	19388
893.819	19685
893.941	19632
894.064	19670
894.186	19476
894.308	19441
894.43	19609
894.552	19674
894.674	19666
894.796	19343
894.918	19460
895.04	19544
895.161	19590
895.283	19540
895.405	19544
895.526	19518
895.648	19464
895.769	19601
895.891	19529
896.012	19548
896.134	19616
896.255	19491
896.376	19533
896.498	19548
896.619	19552
896.74	19518
896.861	19559
896.982	19822
897.103	19967
897.224	19750
897.345	19655
897.466	19784
897.587	19765
897.708	19993
897.828	19723
897.949	19662
898.07	19525
898.19	19769
898.311	19738
898.431	19734
898.552	19811
898.672	19833
898.792	19909
898.913	19799
899.033	19674
899.153	19518
899.273	19407
899.393	19605
899.513	19609
899.633	19468
899.753	19556
899.873	19362
899.993	19518
900.113	19483
900.232	19571
900.352	19476
900.472	19304
900.591	19225
900.711	19339
900.83	19282
900.95	19354
901.069	19346
901.189	19259
901.308	19080
901.427	18859
901.546	18970
901.665	18962
901.784	18825
901.904	18707
902.023	18623
902.141	18369
902.26	18441
902.379	18433
902.498	18334
902.617	18395
902.735	18540
902.854	18361
902.973	18308
903.091	18098
903.21	18178
903.328	18098
903.446	17988
903.565	17813
903.683	17794
903.801	17840
903.919	17874
904.038	17832
904.156	17821
904.274	17695
904.392	17638
904.51	17661
904.627	17581
904.745	17638
904.863	17737
904.981	17554
905.098	17402
905.216	17471
905.334	17436
905.451	17406
905.569	17284
905.686	17341
905.803	17299
905.921	17094
906.038	17231
906.155	17018
906.272	17003
906.389	17056
906.506	16984
906.623	16858
906.74	16972
906.857	16816
906.974	16816
907.091	16908
907.208	17056
907.324	16923
907.441	16755
907.557	16565
907.674	16596
907.79	16508
907.907	16626
908.023	16561
908.139	16596
908.256	16660
908.372	16565
908.488	16428
908.604	16382
908.72	16333
908.836	16344
908.952	16325
909.068	16333
909.184	16470
909.3	16291
909.415	16470
909.531	16386
909.647	16078
909.762	16063
909.878	16036
909.993	16055
910.108	16010
910.224	16063
910.339	16143
910.454	15937
910.57	15766
910.685	15850
910.8	16074
910.915	15991
911.03	15861
911.145	15656
911.259	15747
911.374	15724
911.489	15606
911.604	15488
911.718	15325
911.833	15450
911.947	15332
912.062	15268
912.176	15306
912.291	15378
912.405	15329
912.519	15500
912.633	15633
912.748	15488
912.862	15378
912.976	15199
913.09	15100
913.204	15074
913.318	15173
913.431	15332
913.545	15351
913.659	15443
913.772	15249
913.886	15058
914	15097
914.113	15089
914.226	15176
914.34	14986
914.453	14948
914.566	15039
914.68	14910
914.793	14933
914.906	14712
915.019	14659
915.132	14545
915.245	14670
915.358	14693
915.47	14781
915.583	14610
915.696	14670
915.809	14716
915.921	14804
916.034	14545
916.146	14499
916.259	14526
916.371	14651
916.483	14533
916.595	14511
916.708	14564
916.82	14495
916.932	14492
917.044	14495
917.156	14495
917.268	14393
917.38	14183
917.491	14309
917.603	14343
917.715	14355
917.826	14385
917.938	14263
918.049	14191
918.161	14381
918.272	14385
918.384	14355
918.495	14252
918.606	14134
918.717	14065
918.828	14161
918.939	14054
919.05	14043
919.161	14088
919.272	14001
919.383	13944
919.494	14024
919.604	14256
919.715	14088
919.826	13997
919.936	14046
920.047	14123
920.157	14069
920.267	14248
920.378	14103
920.488	14054
920.598	14214
920.708	14339
920.818	14191
920.928	14202
921.038	14476
921.148	14237
921.258	13978
921.368	13925
921.477	13814
921.587	13746
921.697	13696
921.806	13814
921.916	13651
922.025	13487
922.134	13483
922.244	13293
922.353	13480
922.462	13396
922.571	13251
922.68	13187
922.789	13099
922.898	13069
923.007	13012
923.116	13065
923.224	13099
923.333	13046
923.442	12962
923.55	12859
923.659	12894
923.767	13012
923.876	12928
923.984	12989
924.092	12844
924.201	12844
924.309	12863
924.417	12863
924.525	12764
924.633	12795
924.741	13791
924.849	12559
924.956	12673
925.064	12589
925.172	12486
925.279	12551
925.387	12589
925.494	12559
925.602	12696
925.709	12566
925.816	12426
925.924	12441
926.031	12627
926.138	12490
926.245	12536
926.352	12448
926.459	12551
926.566	12616
926.673	12452
926.779	12372
926.886	12323
926.993	12209
927.099	12144
927.206	11973
927.312	12030
927.419	12163
927.525	12144
927.631	12098
927.737	12041
927.843	12011
927.95	11870
928.056	11904
928.162	11961
928.267	11984
928.373	12551
928.479	12026
928.585	11760
928.69	11958
928.796	11996
928.901	11859
929.007	11627
929.112	11824
929.218	11775
929.323	11684
929.428	11722
929.533	11847
929.638	11596
929.743	11699
929.848	11710
929.953	11703
930.058	11581
930.163	11353
930.267	11398
930.372	11486
930.477	11326
930.581	11577
930.685	11471
930.79	11227
930.894	11334
930.998	11269
931.103	11345
931.207	11022
931.311	10946
931.415	10873
931.519	10698
931.623	10679
