Data from test_V78500241_1258.txt Node
Date: Fri Mar 25 15:18:36 CST 2022
User: usil
Spectrometer: V785-0024
Trigger mode: 0
Integration Time (sec): 4.000000E-1
Scans to average: 1
Nonlinearity correction enabled: false
Boxcar width: 0
Storing dark spectrum: false
XAxis mode: Wavelengths
Number of Pixels in Spectrum: 1024
>>>>>Begin Spectral Data<<<<<
801.071	28093
801.214	28055
801.356	27709
801.499	27743
801.641	27606
801.783	27408
801.926	27603
802.068	27447
802.211	27454
802.353	27336
802.496	27180
802.638	27283
802.78	27245
802.923	27180
803.065	27154
803.208	27222
803.35	27195
803.492	27291
803.635	27473
803.777	27268
803.919	27252
804.061	27835
804.204	27355
804.346	27344
804.488	27291
804.63	27218
804.773	27332
804.915	27401
805.057	27492
805.199	27408
805.341	27542
805.483	27705
805.626	27553
805.768	27435
805.91	27526
806.052	27614
806.194	27458
806.336	27667
806.478	27583
806.62	27583
806.762	27526
806.904	27831
807.046	28074
807.188	27892
807.33	28021
807.472	28013
807.614	28013
807.756	28032
807.898	27888
808.04	27720
808.182	27751
808.324	27797
808.465	27797
808.607	28051
808.749	28192
808.891	28276
809.033	28318
809.174	28070
809.316	28086
809.458	28135
809.6	28139
809.741	28147
809.883	28249
810.025	28436
810.166	28409
810.308	28371
810.45	28489
810.591	28363
810.733	28276
810.875	28112
811.016	27991
811.158	27998
811.299	28109
811.441	28318
811.582	28379
811.724	28154
811.865	28086
812.007	28154
812.148	28055
812.29	28265
812.431	28519
812.573	28485
812.714	28538
812.855	28771
812.997	28736
813.138	28942
813.279	28930
813.421	28759
813.562	28763
813.703	28519
813.845	28527
813.986	28131
814.127	28036
814.268	27884
814.41	27899
814.551	27903
814.692	27937
814.833	27793
814.974	27827
815.115	27838
815.256	27606
815.397	27816
815.539	27644
815.68	27641
815.821	27557
815.962	27572
816.103	27751
816.244	27652
816.385	27458
816.526	27420
816.666	27306
816.807	27157
816.948	27256
817.089	27378
817.23	27245
817.371	27131
817.512	27188
817.653	27150
817.793	27135
817.934	27161
818.075	27291
818.216	27142
818.356	27150
818.497	27028
818.638	26960
818.778	27005
818.919	26872
819.06	26899
819.2	27017
819.341	27154
819.481	27233
819.622	27325
819.762	27561
819.903	27450
820.043	27294
820.184	27256
820.324	27241
820.465	27329
820.605	27169
820.746	27203
820.886	27222
821.026	27249
821.167	27283
821.307	27302
821.447	27176
821.588	27039
821.728	26952
821.868	26804
822.008	26670
822.149	26693
822.289	26522
822.429	26317
822.569	26218
822.709	26149
822.849	26298
822.99	26271
823.13	26122
823.27	26168
823.41	25986
823.55	25780
823.69	25928
823.83	25906
823.97	25879
824.11	25928
824.25	25742
824.389	25879
824.529	25936
824.669	25734
824.809	25936
824.949	25879
825.089	25856
825.228	25826
825.368	25696
825.508	25674
825.648	25674
825.787	25734
825.927	25708
826.067	25556
826.206	25696
826.346	25658
826.485	25658
826.625	25670
826.765	25704
826.904	25731
827.044	25464
827.183	25479
827.323	25304
827.462	25491
827.601	25445
827.741	25422
827.88	25331
828.02	25266
828.159	25365
828.298	25384
828.437	25502
828.577	25297
828.716	25445
828.855	25225
828.994	25160
829.134	25091
829.273	25209
829.412	24973
829.551	25168
829.69	25202
829.829	25008
829.968	25080
830.107	25217
830.246	25095
830.385	25084
830.524	25031
830.663	24932
830.802	24844
830.941	24711
831.08	24547
831.219	24844
831.357	24730
831.496	24920
831.635	24703
831.774	24544
831.913	24528
832.051	24555
832.19	24452
832.329	24585
832.467	24372
832.606	24296
832.744	24300
832.883	24433
833.022	24399
833.16	24365
833.299	24429
833.437	24384
833.576	24441
833.714	24422
833.852	24517
833.991	24505
834.129	24536
834.267	24380
834.406	24498
834.544	24486
834.682	24589
834.821	24475
834.959	24608
835.097	24327
835.235	24471
835.373	24490
835.511	24445
835.65	24384
835.788	24502
835.926	24133
836.064	24140
836.202	24076
836.34	24323
836.478	24460
836.615	24285
836.753	24319
836.891	24277
837.029	24304
837.167	24289
837.305	24155
837.443	24258
837.58	24106
837.718	24209
837.856	24239
837.993	23996
838.131	24159
838.269	23980
838.406	24098
838.544	23904
838.681	23733
838.819	23672
838.956	23634
839.094	23482
839.231	23608
839.369	23824
839.506	23920
839.643	23824
839.781	23623
839.918	23486
840.055	23497
840.193	23611
840.33	23463
840.467	23482
840.604	23596
840.742	23726
840.879	23402
841.016	23474
841.153	23395
841.29	23501
841.427	23452
841.564	23436
841.701	23581
841.838	23383
841.975	23360
842.112	23330
842.249	23307
842.385	23235
842.522	23395
842.659	23284
842.796	23178
842.933	23360
843.069	23200
843.206	23231
843.343	23296
843.479	23322
843.616	23258
843.752	22980
843.889	22972
844.025	23166
844.162	23029
844.298	23048
844.435	23033
844.571	23094
844.708	23113
844.844	23185
844.98	23086
845.117	23109
845.253	22904
845.389	22904
845.525	22991
845.661	22908
845.798	22831
845.934	22892
846.07	22774
846.206	22858
846.342	22858
846.478	22744
846.614	22470
846.75	22508
846.886	22519
847.022	22683
847.158	22455
847.294	22607
847.429	22523
847.565	22565
847.701	22744
847.837	22337
847.972	22242
848.108	22348
848.244	22219
848.379	22112
848.515	22032
848.65	22036
848.786	22090
848.921	22055
849.057	22181
849.192	22128
849.328	22131
849.463	21964
849.598	22063
849.734	22006
849.869	21937
850.004	21827
850.14	21842
850.275	21941
850.41	21770
850.545	21808
850.68	21751
850.815	21899
850.95	21907
851.085	21949
851.22	21983
851.355	21831
851.49	21842
851.625	21797
851.76	21869
851.895	21739
852.03	21800
852.165	21812
852.299	21835
852.434	21987
852.569	21941
852.703	21823
852.838	21934
852.973	21907
853.107	22010
853.242	21789
853.376	21743
853.511	21576
853.645	21625
853.78	21793
853.914	21770
854.048	21572
854.183	21686
854.317	21713
854.451	21926
854.585	21610
854.72	21641
854.854	21747
854.988	21652
855.122	21709
855.256	21614
855.39	21667
855.524	21838
855.658	21667
855.792	21713
855.926	21732
856.06	21774
856.194	21800
856.327	21644
856.461	21587
856.595	21580
856.729	21785
856.862	21808
856.996	21793
857.13	21663
857.263	21800
857.397	21759
857.53	21747
857.664	21808
857.797	21720
857.931	21766
858.064	21739
858.197	21728
858.331	21743
858.464	21637
858.597	21671
858.731	21625
858.864	21717
858.997	21637
859.13	21641
859.263	21595
859.396	21698
859.529	21625
859.662	21599
859.795	21667
859.928	21606
860.061	21759
860.194	21838
860.327	21778
860.46	21690
860.592	21793
860.725	21831
860.858	21797
860.99	21663
861.123	21766
861.256	21785
861.388	21713
861.521	22276
861.653	21591
861.786	21382
861.918	21443
862.05	21618
862.183	21530
862.315	21557
862.447	21603
862.58	21542
862.712	21431
862.844	21386
862.976	21469
863.108	21401
863.24	21728
863.372	21435
863.504	21332
863.636	21431
863.768	21530
863.9	21370
864.032	21393
864.164	21348
864.296	21310
864.428	21526
864.559	21473
864.691	21374
864.823	21336
864.954	21294
865.086	21370
865.217	21386
865.349	21264
865.48	21249
865.612	21351
865.743	21389
865.875	21389
866.006	21150
866.137	21252
866.269	21230
866.4	21245
866.531	21138
866.662	21359
866.793	21230
866.924	21226
867.055	21135
867.186	21123
867.317	21214
867.448	21066
867.579	21306
867.71	21070
867.841	21218
867.972	21146
868.103	21192
868.233	21195
868.364	21100
868.495	21344
868.625	21424
868.756	21568
868.886	21485
869.017	21488
869.147	21526
869.278	21580
869.408	21443
869.539	21485
869.669	21488
869.799	21473
869.929	21637
870.06	21507
870.19	21713
870.32	21869
870.45	21766
870.58	21755
870.71	22002
870.84	21926
870.97	21861
871.1	21819
871.23	22063
871.36	21922
871.489	21865
871.619	22055
871.749	22063
871.879	22017
872.008	22120
872.138	21949
872.267	22021
872.397	21953
872.526	21823
872.656	21911
872.785	21941
872.915	22010
873.044	22177
873.173	22044
873.303	21949
873.432	22070
873.561	22063
873.69	22036
873.819	22173
873.948	22109
874.077	22177
874.206	22078
874.335	22017
874.464	22143
874.593	22333
874.722	22139
874.851	22329
874.979	22379
875.108	22318
875.237	22135
875.365	22166
875.494	22284
875.623	22306
875.751	22303
875.88	22196
876.008	22348
876.136	22413
876.265	22752
876.393	22759
876.521	22668
876.65	22736
876.778	22683
876.906	22565
877.034	22573
877.162	22626
877.29	22622
877.418	22656
877.546	22626
877.674	22687
877.802	22531
877.93	22649
878.058	22523
878.185	22443
878.313	22550
878.441	22557
878.568	22424
878.696	22561
878.824	22573
878.951	22717
879.079	22767
879.206	22987
879.333	22774
879.461	22641
879.588	22729
879.715	22862
879.842	22885
879.97	22820
880.097	22325
880.224	22344
880.351	22481
880.478	22421
880.605	22341
880.732	22436
880.859	22542
880.986	22455
881.112	22428
881.239	22341
881.366	22135
881.493	22120
881.619	21964
881.746	22010
881.872	21949
881.999	21945
882.125	22067
882.252	21972
882.378	21972
882.505	21998
882.631	21789
882.757	21812
882.883	21747
883.01	21739
883.136	21694
883.262	21675
883.388	21561
883.514	21667
883.64	21785
883.766	21561
883.892	21538
884.018	21561
884.143	21720
884.269	21778
884.395	21458
884.52	21393
884.646	21329
884.772	21393
884.897	21207
885.023	21405
885.148	21405
885.274	21515
885.399	21420
885.524	21428
885.65	21306
885.775	21302
885.9	21294
886.025	21389
886.15	21382
886.275	21294
886.4	21207
886.525	21351
886.65	21260
886.775	21237
886.9	21378
887.025	21629
887.149	21302
887.274	21051
887.399	21039
887.523	21150
887.648	21161
887.773	21055
887.897	21184
888.021	21074
888.146	21154
888.27	21104
888.395	21131
888.519	21249
888.643	21161
888.767	21062
888.891	20906
889.015	20880
889.139	20975
889.263	20834
889.387	21089
889.511	21119
889.635	21028
889.759	20845
889.883	20982
890.006	21028
890.13	20994
890.254	20880
890.377	20834
890.501	20663
890.624	20632
890.748	20674
890.871	20575
890.995	20423
891.118	20495
891.241	20549
891.364	20492
891.488	20556
891.611	20514
891.734	20473
891.857	20457
891.98	20488
892.103	20556
892.226	20583
892.349	20454
892.471	20218
892.594	20343
892.717	20206
892.839	20370
892.962	20423
893.085	20495
893.207	20358
893.33	20126
893.452	20218
893.575	20438
893.697	20278
893.819	20503
893.941	20537
894.064	20545
894.186	20221
894.308	20275
894.43	20476
894.552	20480
894.674	20408
894.796	20252
894.918	20320
895.04	20286
895.161	20438
895.283	20366
895.405	20301
895.526	20290
895.648	20442
895.769	20396
895.891	20362
896.012	20408
896.134	20343
896.255	20355
896.376	20408
896.498	20275
896.619	20503
896.74	20473
896.861	20465
896.982	20583
897.103	20727
897.224	20689
897.345	20514
897.466	20495
897.587	20454
897.708	20659
897.828	20530
897.949	20590
898.07	20366
898.19	20587
898.311	20693
898.431	20507
898.552	20507
898.672	20655
898.792	20644
898.913	20575
899.033	20499
899.153	20389
899.273	20328
899.393	20305
899.513	20324
899.633	20374
899.753	20446
899.873	20202
899.993	20282
900.113	20267
900.232	20225
900.352	20290
900.472	20225
900.591	20050
900.711	20149
900.83	20039
900.95	20142
901.069	20248
901.189	19917
901.308	19826
901.427	19616
901.546	19628
901.665	19689
901.784	19685
901.904	19540
902.023	19381
902.141	19251
902.26	19148
902.379	19377
902.498	19324
902.617	19065
902.735	19175
902.854	19175
902.973	19137
903.091	18943
903.21	18791
903.328	18844
903.446	18791
903.565	18688
903.683	18673
903.801	18532
903.919	18627
904.038	18544
904.156	18452
904.274	18448
904.392	18490
904.51	18433
904.627	18426
904.745	18369
904.863	18490
904.981	18209
905.098	18083
905.216	18072
905.334	17999
905.451	18117
905.569	18045
905.686	18129
905.803	18079
905.921	17832
906.038	17980
906.155	17908
906.272	17809
906.389	17680
906.506	17676
906.623	17676
906.74	17661
906.857	17627
906.974	17532
907.091	17653
907.208	17646
907.324	17551
907.441	17501
907.557	17398
907.674	17372
907.79	17208
907.907	17284
908.023	17330
908.139	17280
908.256	17303
908.372	17269
908.488	17159
908.604	17181
908.72	17037
908.836	17083
908.952	17140
909.068	17109
909.184	17181
909.3	17113
909.415	17033
909.531	16995
909.647	16816
909.762	16778
909.878	16801
909.993	16828
910.108	16668
910.224	16824
910.339	16755
910.454	16733
910.57	16607
910.685	16497
910.8	16930
910.915	16702
911.03	16447
911.145	16459
911.259	16360
911.374	16375
911.489	16299
911.604	16276
911.718	16143
911.833	16029
911.947	15964
912.062	15949
912.176	16025
912.291	16074
912.405	16071
912.519	16325
912.633	16131
912.748	16097
912.862	16093
912.976	15949
913.09	15770
913.204	15895
913.318	15789
913.431	15987
913.545	15892
913.659	15953
913.772	15751
913.886	15717
914	15705
914.113	15827
914.226	15869
914.34	15823
914.453	15625
914.566	15823
914.68	15591
914.793	15500
914.906	15389
915.019	15298
915.132	15275
915.245	15355
915.358	15317
915.47	15363
915.583	15260
915.696	15313
915.809	15386
915.921	15428
916.034	15211
916.146	15218
916.259	15230
916.371	15272
916.483	15169
916.595	15070
916.708	15119
916.82	15104
916.932	15058
917.044	15074
917.156	15051
917.268	15001
917.38	14895
917.491	14891
917.603	14906
917.715	15032
917.826	15017
917.938	14872
918.049	14872
918.161	14834
918.272	14960
918.384	14929
918.495	14963
918.606	14674
918.717	14648
918.828	14773
918.939	14651
919.05	14549
919.161	14693
919.272	14522
919.383	14549
919.494	14705
919.604	14785
919.715	14754
919.826	14533
919.936	14583
920.047	14705
920.157	14655
920.267	14807
920.378	14701
920.488	14590
920.598	14777
920.708	14876
920.818	14792
920.928	14872
921.038	14971
921.148	14921
921.258	14708
921.368	14499
921.477	14484
921.587	14389
921.697	14263
921.806	14465
921.916	14263
922.025	14046
922.134	14008
922.244	14012
922.353	14050
922.462	13898
922.571	13830
922.68	13662
922.789	13746
922.898	13655
923.007	13624
923.116	13753
923.224	13689
923.333	13613
923.442	13460
923.55	13518
923.659	13502
923.767	13521
923.876	13449
923.984	13567
924.092	13396
924.201	13468
924.309	13521
924.417	13422
924.525	13297
924.633	13373
924.741	14107
924.849	13126
924.956	13179
925.064	13072
925.172	13156
925.279	13027
925.387	13091
925.494	13114
925.602	13232
925.709	13110
925.816	12973
925.924	13027
926.031	13072
926.138	12935
926.245	13084
926.352	12958
926.459	13122
926.566	13091
926.673	12973
926.779	12783
926.886	12806
926.993	12665
927.099	12612
927.206	12566
927.312	12528
927.419	12669
927.525	12585
927.631	12662
927.737	12532
927.843	12521
927.95	12369
928.056	12399
928.162	12429
928.267	12502
928.373	13038
928.479	12582
928.585	12251
928.69	12315
928.796	12475
928.901	12388
929.007	12178
929.112	12334
929.218	12361
929.323	12224
929.428	12224
929.533	12296
929.638	12102
929.743	12110
929.848	12110
929.953	12159
930.058	12007
930.163	11863
930.267	11878
930.372	11946
930.477	11878
930.581	12102
930.685	11866
930.79	11760
930.894	11863
930.998	11722
931.103	11851
931.207	11486
931.311	11395
931.415	11360
931.519	11170
931.623	11102
