Data from test_V78500241_1147.txt Node
Date: Fri Mar 25 15:17:50 CST 2022
User: usil
Spectrometer: V785-0024
Trigger mode: 0
Integration Time (sec): 4.000000E-1
Scans to average: 1
Nonlinearity correction enabled: false
Boxcar width: 0
Storing dark spectrum: false
XAxis mode: Wavelengths
Number of Pixels in Spectrum: 1024
>>>>>Begin Spectral Data<<<<<
801.071	28226
801.214	28040
801.356	27762
801.499	27789
801.641	27797
801.783	27781
801.926	27739
802.068	27641
802.211	27720
802.353	27606
802.496	27462
802.638	27272
802.78	27367
802.923	27382
803.065	27363
803.208	27306
803.35	27431
803.492	27530
803.635	27595
803.777	27469
803.919	27633
804.061	27835
804.204	27625
804.346	27412
804.488	27424
804.63	27606
804.773	27576
804.915	27477
805.057	27804
805.199	27599
805.341	27713
805.483	27759
805.626	27713
805.768	27648
805.91	27747
806.052	27823
806.194	27545
806.336	27930
806.478	27785
806.62	27823
806.762	27835
806.904	27979
807.046	28185
807.188	28086
807.33	28242
807.472	28200
807.614	28070
807.756	28082
807.898	28029
808.04	27884
808.182	28025
808.324	28147
808.465	27972
808.607	28318
808.749	28371
808.891	28363
809.033	28599
809.174	28421
809.316	28284
809.458	28329
809.6	28284
809.741	28417
809.883	28584
810.025	28626
810.166	28580
810.308	28691
810.45	28474
810.591	28497
810.733	28440
810.875	28519
811.016	28223
811.158	28455
811.299	28386
811.441	28481
811.582	28611
811.724	28322
811.865	28417
812.007	28375
812.148	28215
812.29	28413
812.431	28653
812.573	28641
812.714	28862
812.855	28934
812.997	28995
813.138	29117
813.279	28968
813.421	29064
813.562	28957
813.703	28687
813.845	28611
813.986	28409
814.127	28344
814.268	28040
814.41	28150
814.551	27918
814.692	28120
814.833	28010
814.974	28116
815.115	27979
815.256	28124
815.397	27998
815.539	27823
815.68	27865
815.821	27755
815.962	27842
816.103	27873
816.244	27724
816.385	27675
816.526	27732
816.666	27469
816.807	27359
816.948	27473
817.089	27485
817.23	27542
817.371	27332
817.512	27405
817.653	27454
817.793	27481
817.934	27523
818.075	27325
818.216	27443
818.356	27359
818.497	27135
818.638	27074
818.778	27230
818.919	27256
819.06	27272
819.2	27382
819.341	27462
819.481	27325
819.622	27580
819.762	27736
819.903	27622
820.043	27530
820.184	27515
820.324	27526
820.465	27720
820.605	27538
820.746	27351
820.886	27329
821.026	27538
821.167	27587
821.307	27720
821.447	27507
821.588	27321
821.728	27252
821.868	27001
822.008	26933
822.149	26872
822.289	26967
822.429	26644
822.569	26514
822.709	26499
822.849	26336
822.99	26332
823.13	26488
823.27	26442
823.41	26221
823.55	26134
823.69	26374
823.83	26218
823.97	26092
824.11	26096
824.25	25986
824.389	26130
824.529	26035
824.669	26126
824.809	26149
824.949	26100
825.089	26183
825.228	25982
825.368	25879
825.508	25928
825.648	25993
825.787	25974
825.927	25883
826.067	26008
826.206	25955
826.346	25947
826.485	25959
826.625	25928
826.765	26073
826.904	26035
827.044	25696
827.183	25674
827.323	25476
827.462	25727
827.601	25780
827.741	25712
827.88	25677
828.02	25658
828.159	25677
828.298	25525
828.437	25811
828.577	25590
828.716	25715
828.855	25533
828.994	25320
829.134	25308
829.273	25438
829.412	25468
829.551	25259
829.69	25343
829.829	25346
829.968	25350
830.107	25373
830.246	25183
830.385	25358
830.524	25247
830.663	25156
830.802	25126
830.941	24894
831.08	24867
831.219	25042
831.357	25107
831.496	25187
831.635	24909
831.774	24947
831.913	24875
832.051	24760
832.19	24722
832.329	24741
832.467	24730
832.606	24593
832.744	24738
832.883	24673
833.022	24658
833.16	24650
833.299	24658
833.437	24692
833.576	24692
833.714	24745
833.852	24795
833.991	24810
834.129	24806
834.267	24802
834.406	24639
834.544	24661
834.682	24741
834.821	24696
834.959	24924
835.097	24738
835.235	24802
835.373	24707
835.511	24745
835.65	24585
835.788	24604
835.926	24471
836.064	24365
836.202	24376
836.34	24563
836.478	24715
836.615	24566
836.753	24639
836.891	24692
837.029	24563
837.167	24486
837.305	24448
837.443	24342
837.58	24456
837.718	24441
837.856	24410
837.993	24388
838.131	24304
838.269	24327
838.406	24201
838.544	24277
838.681	24034
838.819	24121
838.956	23954
839.094	23996
839.231	23939
839.369	24064
839.506	24258
839.643	24197
839.781	23939
839.918	23954
840.055	23897
840.193	23923
840.33	23729
840.467	23843
840.604	23745
840.742	24018
840.879	23680
841.016	23729
841.153	23714
841.29	23931
841.427	23916
841.564	23965
841.701	23783
841.838	23726
841.975	23608
842.112	23710
842.249	23581
842.385	23558
842.522	23707
842.659	23623
842.796	23478
842.933	23547
843.069	23467
843.206	23463
843.343	23547
843.479	23531
843.616	23676
843.752	23421
843.889	23356
844.025	23417
844.162	23292
844.298	23531
844.435	23493
844.571	23246
844.708	23395
844.844	23531
844.98	23467
845.117	23493
845.253	23258
845.389	23185
845.525	23277
845.661	23155
845.798	23159
845.934	23170
846.07	23067
846.206	23064
846.342	23113
846.478	22953
846.614	22797
846.75	22702
846.886	22634
847.022	22843
847.158	22797
847.294	22847
847.429	22942
847.565	22778
847.701	23025
847.837	22653
847.972	22599
848.108	22615
848.244	22634
848.379	22333
848.515	22318
848.65	22322
848.786	22352
848.921	22500
849.057	22493
849.192	22455
849.328	22386
849.463	22386
849.598	22299
849.734	22234
849.869	22272
850.004	22036
850.14	22230
850.275	22101
850.41	22150
850.545	22173
850.68	22116
850.815	22185
850.95	22074
851.085	22424
851.22	22192
851.355	22124
851.49	22207
851.625	22029
851.76	22063
851.895	22101
852.03	22070
852.165	22032
852.299	22097
852.434	22344
852.569	22207
852.703	22147
852.838	22177
852.973	22276
853.107	22322
853.242	22124
853.376	21994
853.511	21778
853.645	21861
853.78	21968
853.914	21975
854.048	21937
854.183	21808
854.317	22040
854.451	22112
854.585	21983
854.72	21975
854.854	22097
854.988	21770
855.122	21975
855.256	21800
855.39	21945
855.524	21960
855.658	22006
855.792	21915
855.926	21934
856.06	22063
856.194	22025
856.327	21937
856.461	21911
856.595	21831
856.729	21949
856.862	22112
856.996	22067
857.13	22002
857.263	22097
857.397	21987
857.53	22051
857.664	21892
857.797	22021
857.931	22059
858.064	21941
858.197	22036
858.331	22051
858.464	21831
858.597	21846
858.731	21884
858.864	21903
858.997	21918
859.13	21972
859.263	21937
859.396	22021
859.529	22006
859.662	21800
859.795	21850
859.928	22006
860.061	22162
860.194	22044
860.327	21998
860.46	22021
860.592	22070
860.725	21994
860.858	22067
860.99	22013
861.123	21983
861.256	21945
861.388	22002
861.521	22653
861.653	21751
861.786	21766
861.918	21808
862.05	21800
862.183	21797
862.315	21876
862.447	21873
862.58	21835
862.712	21797
862.844	21622
862.976	21724
863.108	21759
863.24	22185
863.372	21618
863.504	21705
863.636	21679
863.768	21762
863.9	21743
864.032	21568
864.164	21553
864.296	21724
864.428	21701
864.559	21644
864.691	21682
864.823	21641
864.954	21599
865.086	21698
865.217	21618
865.349	21389
865.48	21557
865.612	21610
865.743	21610
865.875	21652
866.006	21431
866.137	21496
866.269	21481
866.4	21542
866.531	21454
866.662	21515
866.793	21428
866.924	21473
867.055	21523
867.186	21405
867.317	21443
867.448	21492
867.579	21454
867.71	21329
867.841	21287
867.972	21534
868.103	21462
868.233	21443
868.364	21610
868.495	21553
868.625	21610
868.756	21831
868.886	21751
869.017	21717
869.147	21861
869.278	21755
869.408	21800
869.539	21701
869.669	21793
869.799	21838
869.929	21835
870.06	21831
870.19	22025
870.32	22048
870.45	22048
870.58	22105
870.71	22219
870.84	22230
870.97	22116
871.1	22109
871.23	22215
871.36	22367
871.489	22139
871.619	22128
871.749	22291
871.879	22318
872.008	22386
872.138	22295
872.267	22188
872.397	22135
872.526	22173
872.656	22166
872.785	22082
872.915	22284
873.044	22356
873.173	22253
873.303	22333
873.432	22417
873.561	22405
873.69	22261
873.819	22363
873.948	22405
874.077	22318
874.206	22207
874.335	22188
874.464	22508
874.593	22516
874.722	22367
874.851	22504
874.979	22584
875.108	22493
875.237	22550
875.365	22440
875.494	22485
875.623	22557
875.751	22531
875.88	22603
876.008	22744
876.136	22748
876.265	22911
876.393	23067
876.521	22972
876.65	23044
876.778	22778
876.906	22908
877.034	22805
877.162	23044
877.29	22778
877.418	22866
877.546	22889
877.674	22938
877.802	23003
877.93	22923
878.058	22847
878.185	22858
878.313	22904
878.441	22835
878.568	22691
878.696	22858
878.824	22866
878.951	23003
879.079	22968
879.206	23109
879.333	23174
879.461	22786
879.588	23033
879.715	23037
879.842	23121
879.97	22919
880.097	22812
880.224	22710
880.351	22771
880.478	22580
880.605	22557
880.732	22588
880.859	23029
880.986	22721
881.112	22550
881.239	22569
881.366	22615
881.493	22424
881.619	22295
881.746	22398
881.872	22211
881.999	22253
882.125	22211
882.252	22306
882.378	22284
882.505	22291
882.631	22154
882.757	21911
882.883	22074
883.01	22032
883.136	21865
883.262	21766
883.388	21907
883.514	22067
883.64	21979
883.766	21823
883.892	21762
884.018	21781
884.143	21846
884.269	21983
884.395	21622
884.52	21656
884.646	21774
884.772	21526
884.897	21443
885.023	21481
885.148	21667
885.274	21755
885.399	21713
885.524	21603
885.65	21701
885.775	21637
885.9	21526
886.025	21705
886.15	21675
886.275	21603
886.4	21576
886.525	21652
886.65	21458
886.775	21538
886.9	21728
887.025	21804
887.149	21625
887.274	21466
887.399	21332
887.523	21397
887.648	21351
887.773	21321
887.897	21500
888.021	21332
888.146	21302
888.27	21431
888.395	21408
888.519	21355
888.643	21382
888.767	21504
888.891	21211
889.015	21173
889.139	21218
889.263	21127
889.387	21256
889.511	21439
889.635	21275
889.759	21169
889.883	21123
890.006	21131
890.13	21252
890.254	21005
890.377	20994
890.501	20902
890.624	20902
890.748	20941
890.871	20788
890.995	20727
891.118	20750
891.241	20765
891.364	20800
891.488	20838
891.611	20758
891.734	20762
891.857	20701
891.98	20727
892.103	20800
892.226	20708
892.349	20613
892.471	20549
892.594	20678
892.717	20648
892.839	20518
892.962	20625
893.085	20781
893.207	20678
893.33	20499
893.452	20492
893.575	20693
893.697	20564
893.819	20689
893.941	20834
894.064	20800
894.186	20518
894.308	20606
894.43	20667
894.552	20724
894.674	20587
894.796	20575
894.918	20655
895.04	20438
895.161	20625
895.283	20621
895.405	20590
895.526	20511
895.648	20503
895.769	20571
895.891	20522
896.012	20617
896.134	20602
896.255	20629
896.376	20434
896.498	20648
896.619	20579
896.74	20549
896.861	20564
896.982	20906
897.103	21146
897.224	20765
897.345	20899
897.466	20689
897.587	20849
897.708	20918
897.828	20785
897.949	20651
898.07	20613
898.19	20667
898.311	20857
898.431	20644
898.552	20667
898.672	20804
898.792	20887
898.913	20796
899.033	20667
899.153	20541
899.273	20587
899.393	20545
899.513	20667
899.633	20476
899.753	20636
899.873	20461
899.993	20587
900.113	20427
900.232	20457
900.352	20427
900.472	20396
900.591	20244
900.711	20336
900.83	20180
900.95	20450
901.069	20282
901.189	20191
901.308	20084
901.427	19822
901.546	19925
901.665	19913
901.784	19791
901.904	19712
902.023	19552
902.141	19529
902.26	19403
902.379	19438
902.498	19434
902.617	19358
902.735	19362
902.854	19350
902.973	19278
903.091	19053
903.21	19190
903.328	19019
903.446	18928
903.565	18905
903.683	18878
903.801	18764
903.919	18779
904.038	18757
904.156	18681
904.274	18753
904.392	18654
904.51	18623
904.627	18475
904.745	18707
904.863	18696
904.981	18418
905.098	18213
905.216	18289
905.334	18338
905.451	18426
905.569	18205
905.686	18281
905.803	18273
905.921	18117
906.038	18117
906.155	17980
906.272	17999
906.389	17961
906.506	17779
906.623	17863
906.74	17824
906.857	17733
906.974	17687
907.091	17866
907.208	17916
907.324	17840
907.441	17661
907.557	17558
907.674	17528
907.79	17512
907.907	17592
908.023	17535
908.139	17600
908.256	17471
908.372	17497
908.488	17417
908.604	17307
908.72	17242
908.836	17345
908.952	17181
909.068	17296
909.184	17337
909.3	17280
909.415	17220
909.531	17200
909.647	17056
909.762	16972
909.878	16980
909.993	16957
910.108	16942
910.224	16881
910.339	16900
910.454	16904
910.57	16694
910.685	16675
910.8	17037
910.915	16885
911.03	16672
911.145	16527
911.259	16580
911.374	16668
911.489	16398
911.604	16344
911.718	16318
911.833	16417
911.947	16162
912.062	16120
912.176	16253
912.291	16162
912.405	16211
912.519	16402
912.633	16497
912.748	16242
912.862	16242
912.976	16177
913.09	15895
913.204	15979
913.318	16135
913.431	16166
913.545	16181
913.659	16219
913.772	16071
913.886	15876
914	15812
914.113	15987
914.226	15991
914.34	15994
914.453	15922
914.566	15854
914.68	15819
914.793	15667
914.906	15485
915.019	15549
915.132	15458
915.245	15370
915.358	15526
915.47	15557
915.583	15519
915.696	15538
915.809	15500
915.921	15694
916.034	15397
916.146	15332
916.259	15332
916.371	15488
916.483	15420
916.595	15329
916.708	15485
916.82	15313
916.932	15237
917.044	15275
917.156	15135
917.268	15005
917.38	15199
917.491	15116
917.603	15142
917.715	15218
917.826	15146
917.938	15108
918.049	14998
918.161	15062
918.272	15195
918.384	15127
918.495	15017
918.606	14944
918.717	14754
918.828	14910
918.939	14933
919.05	14796
919.161	14864
919.272	14625
919.383	14762
919.494	14948
919.604	14998
919.715	14845
919.826	14708
919.936	14785
920.047	14868
920.157	14906
920.267	14986
920.378	14830
920.488	14788
920.598	14918
920.708	15165
920.818	14929
920.928	14899
921.038	15108
921.148	15089
921.258	14765
921.368	14640
921.477	14564
921.587	14564
921.697	14404
921.806	14480
921.916	14412
922.025	14210
922.134	14195
922.244	14100
922.353	14149
922.462	14157
922.571	13997
922.68	13898
922.789	13811
922.898	13887
923.007	13689
923.116	13868
923.224	13731
923.333	13731
923.442	13689
923.55	13582
923.659	13658
923.767	13719
923.876	13563
923.984	13734
924.092	13590
924.201	13616
924.309	13468
924.417	13647
924.525	13460
924.633	13575
924.741	14404
924.849	13320
924.956	13457
925.064	13308
925.172	13304
925.279	13217
925.387	13312
925.494	13244
925.602	13403
925.709	13320
925.816	13149
925.924	13175
926.031	13217
926.138	13156
926.245	13141
926.352	13091
926.459	13168
926.566	13266
926.673	13042
926.779	12981
926.886	12939
926.993	12875
927.099	12848
927.206	12787
927.312	12677
927.419	12867
927.525	12726
927.631	12726
927.737	12684
927.843	12703
927.95	12509
928.056	12585
928.162	12585
928.267	12601
928.373	13240
928.479	12646
928.585	12597
928.69	12528
928.796	12585
928.901	12509
929.007	12433
929.112	12403
929.218	12372
929.323	12273
929.428	12296
929.533	12536
929.638	12213
929.743	12311
929.848	12296
929.953	12273
930.058	12114
930.163	11954
930.267	11897
930.372	12163
930.477	11954
930.581	12114
930.685	12045
930.79	11866
930.894	11950
930.998	11840
931.103	11984
931.207	11615
931.311	11512
931.415	11436
931.519	11299
931.623	11315
