Data from test_V78500241_1856.txt Node
Date: Fri Mar 25 15:22:46 CST 2022
User: usil
Spectrometer: V785-0024
Trigger mode: 0
Integration Time (sec): 4.000000E-1
Scans to average: 1
Nonlinearity correction enabled: false
Boxcar width: 0
Storing dark spectrum: false
XAxis mode: Wavelengths
Number of Pixels in Spectrum: 1024
>>>>>Begin Spectral Data<<<<<
801.071	27827
801.214	27895
801.356	27580
801.499	27576
801.641	27310
801.783	27184
801.926	27340
802.068	27317
802.211	27329
802.353	27214
802.496	26952
802.638	27070
802.78	26982
802.923	26899
803.065	26921
803.208	26815
803.35	27028
803.492	27081
803.635	27195
803.777	27100
803.919	27173
804.061	27450
804.204	27427
804.346	27230
804.488	27173
804.63	27161
804.773	27157
804.915	27146
805.057	27287
805.199	27264
805.341	27310
805.483	27321
805.626	27348
805.768	27287
805.91	27431
806.052	27241
806.194	27165
806.336	27435
806.478	27268
806.62	27466
806.762	27382
806.904	27603
807.046	27785
807.188	27587
807.33	27739
807.472	27717
807.614	27781
807.756	27762
807.898	27675
808.04	27618
808.182	27450
808.324	27671
808.465	27671
808.607	27732
808.749	28078
808.891	28029
809.033	27998
809.174	28051
809.316	27895
809.458	27953
809.6	27945
809.741	28074
809.883	28169
810.025	28211
810.166	28299
810.308	28295
810.45	28204
810.591	27975
810.733	27854
810.875	27861
811.016	27800
811.158	27762
811.299	28101
811.441	27953
811.582	27949
811.724	27895
811.865	27838
812.007	27892
812.148	27907
812.29	27941
812.431	28067
812.573	28188
812.714	28367
812.855	28367
812.997	28672
813.138	28611
813.279	28630
813.421	28474
813.562	28550
813.703	28284
813.845	28185
813.986	27850
814.127	27808
814.268	27652
814.41	27557
814.551	27583
814.692	27633
814.833	27667
814.974	27595
815.115	27679
815.256	27515
815.397	27427
815.539	27511
815.68	27447
815.821	27382
815.962	27447
816.103	27416
816.244	27370
816.385	27195
816.526	27123
816.666	27089
816.807	26975
816.948	27051
817.089	27017
817.23	26929
817.371	26956
817.512	26937
817.653	26891
817.793	26758
817.934	26823
818.075	27135
818.216	26872
818.356	27028
818.497	26826
818.638	26636
818.778	26716
818.919	26670
819.06	26834
819.2	26811
819.341	26910
819.481	26986
819.622	27138
819.762	27138
819.903	27135
820.043	27058
820.184	27085
820.324	27074
820.465	27173
820.605	27066
820.746	26990
820.886	26914
821.026	26975
821.167	27013
821.307	27184
821.447	26990
821.588	26830
821.728	26750
821.868	26549
822.008	26488
822.149	26408
822.289	26339
822.429	26164
822.569	26115
822.709	26024
822.849	25871
822.99	26035
823.13	25868
823.27	25955
823.41	25715
823.55	25696
823.69	25696
823.83	25753
823.97	25613
824.11	25464
824.25	25502
824.389	25502
824.529	25681
824.669	25567
824.809	25647
824.949	25700
825.089	25620
825.228	25772
825.368	25369
825.508	25381
825.648	25495
825.787	25445
825.927	25529
826.067	25403
826.206	25289
826.346	25476
826.485	25350
826.625	25479
826.765	25597
826.904	25365
827.044	25198
827.183	25099
827.323	25183
827.462	25263
827.601	25171
827.741	25152
827.88	25042
828.02	25114
828.159	25141
828.298	25027
828.437	25168
828.577	24973
828.716	25232
828.855	25004
828.994	24947
829.134	24810
829.273	24920
829.412	24776
829.551	24779
829.69	24875
829.829	24916
829.968	24970
830.107	24829
830.246	24875
830.385	24692
830.524	24722
830.663	24601
830.802	24563
830.941	24494
831.08	24448
831.219	24551
831.357	24608
831.496	24745
831.635	24612
831.774	24270
831.913	24342
832.051	24232
832.19	24308
832.329	24254
832.467	24311
832.606	24148
832.744	24034
832.883	24140
833.022	24159
833.16	24125
833.299	24186
833.437	24216
833.576	24216
833.714	24136
833.852	24190
833.991	24209
834.129	24136
834.267	24270
834.406	24235
834.544	24228
834.682	24205
834.821	24205
834.959	24414
835.097	24072
835.235	24220
835.373	24213
835.511	24148
835.65	23996
835.788	24140
835.926	23809
836.064	23950
836.202	23897
836.34	24098
836.478	24079
836.615	23958
836.753	23996
836.891	23954
837.029	24030
837.167	23969
837.305	23969
837.443	23893
837.58	23901
837.718	23992
837.856	23912
837.993	23908
838.131	23931
838.269	23764
838.406	23771
838.544	23756
838.681	23596
838.819	23581
838.956	23311
839.094	23334
839.231	23463
839.369	23524
839.506	23779
839.643	23699
839.781	23509
839.918	23345
840.055	23265
840.193	23284
840.33	23311
840.467	23341
840.604	23353
840.742	23562
840.879	23155
841.016	23200
841.153	23227
841.29	23608
841.427	23265
841.564	23345
841.701	23330
841.838	23178
841.975	23185
842.112	23208
842.249	23124
842.385	23113
842.522	23250
842.659	23121
842.796	23094
842.933	23041
843.069	22972
843.206	23029
843.343	23128
843.479	23227
843.616	23044
843.752	22847
843.889	22911
844.025	22972
844.162	22820
844.298	22923
844.435	22820
844.571	22790
844.708	22869
844.844	22930
844.98	23003
845.117	22858
845.253	22626
845.389	22725
845.525	22847
845.661	22816
845.798	22512
845.934	22656
846.07	22470
846.206	22630
846.342	22649
846.478	22337
846.614	22424
846.75	22177
846.886	22287
847.022	22356
847.158	22497
847.294	22375
847.429	22447
847.565	22226
847.701	22516
847.837	22082
847.972	21983
848.108	22185
848.244	22070
848.379	22010
848.515	21861
848.65	21903
848.786	21915
848.921	21899
849.057	21964
849.192	21854
849.328	21800
849.463	21934
849.598	21857
849.734	21793
849.869	21774
850.004	21728
850.14	21759
850.275	21606
850.41	21595
850.545	21637
850.68	21724
850.815	21652
850.95	21774
851.085	21827
851.22	21774
851.355	21618
851.49	21679
851.625	21629
851.76	21625
851.895	21363
852.03	21557
852.165	21580
852.299	21542
852.434	21713
852.569	21629
852.703	21614
852.838	21755
852.973	21732
853.107	21842
853.242	21603
853.376	21618
853.511	21355
853.645	21416
853.78	21530
853.914	21420
854.048	21507
854.183	21466
854.317	21576
854.451	21633
854.585	21310
854.72	21454
854.854	21496
854.988	21450
855.122	21507
855.256	21336
855.39	21348
855.524	21534
855.658	21496
855.792	21401
855.926	21542
856.06	21599
856.194	21526
856.327	21393
856.461	21389
856.595	21374
856.729	21469
856.862	21561
856.996	21534
857.13	21443
857.263	21564
857.397	21549
857.53	21439
857.664	21652
857.797	21534
857.931	21679
858.064	21458
858.197	21576
858.331	21462
858.464	21500
858.597	21378
858.731	21549
858.864	21496
858.997	21538
859.13	21561
859.263	21477
859.396	21519
859.529	21462
859.662	21447
859.795	21439
859.928	21618
860.061	21580
860.194	21671
860.327	21469
860.46	21466
860.592	21580
860.725	21534
860.858	21614
860.99	21462
861.123	21481
861.256	21378
861.388	21473
861.521	22051
861.653	21211
861.786	21203
861.918	21344
862.05	21173
862.183	21386
862.315	21428
862.447	21511
862.58	21439
862.712	21180
862.844	21192
862.976	21389
863.108	21249
863.24	21420
863.372	21066
863.504	21260
863.636	21203
863.768	21245
863.9	21211
864.032	21169
864.164	21142
864.296	21161
864.428	21245
864.559	21249
864.691	21332
864.823	21268
864.954	21146
865.086	21165
865.217	21154
865.349	21024
865.48	21127
865.612	21188
865.743	21192
865.875	21131
866.006	21195
866.137	21047
866.269	21089
866.4	21119
866.531	21108
866.662	20925
866.793	21009
866.924	20876
867.055	20960
867.186	21085
867.317	20998
867.448	20895
867.579	21081
867.71	20990
867.841	21028
867.972	20967
868.103	21009
868.233	20906
868.364	21009
868.495	21043
868.625	21241
868.756	21344
868.886	21279
869.017	21351
869.147	21332
869.278	21348
869.408	21245
869.539	21374
869.669	21481
869.799	21332
869.929	21355
870.06	21260
870.19	21545
870.32	21557
870.45	21629
870.58	21599
870.71	21663
870.84	21785
870.97	21724
871.1	21595
871.23	21827
871.36	21846
871.489	21724
871.619	21823
871.749	21781
871.879	21812
872.008	21972
872.138	21888
872.267	21812
872.397	21800
872.526	21637
872.656	21625
872.785	21587
872.915	21835
873.044	22055
873.173	21842
873.303	21956
873.432	21926
873.561	22029
873.69	21884
873.819	21922
873.948	22032
874.077	21941
874.206	21755
874.335	21793
874.464	21987
874.593	22013
874.722	22086
874.851	22120
874.979	22055
875.108	22086
875.237	22040
875.365	22021
875.494	22063
875.623	22188
875.751	21937
875.88	22181
876.008	22166
876.136	22166
876.265	22527
876.393	22641
876.521	22459
876.65	22493
876.778	22497
876.906	22527
877.034	22462
877.162	22405
877.29	22405
877.418	22363
877.546	22493
877.674	22409
877.802	22474
877.93	22390
878.058	22341
878.185	22310
878.313	22386
878.441	22287
878.568	22295
878.696	22394
878.824	22462
878.951	22508
879.079	22561
879.206	22645
879.333	22531
879.461	22489
879.588	22428
879.715	22546
879.842	22839
879.97	22485
880.097	22295
880.224	22223
880.351	22348
880.478	22356
880.605	22360
880.732	22261
880.859	22390
880.986	22276
881.112	22238
881.239	22097
881.366	22036
881.493	21979
881.619	21827
881.746	21835
881.872	21884
881.999	21797
882.125	21641
882.252	21762
882.378	21759
882.505	21869
882.631	21682
882.757	21462
882.883	21663
883.01	21393
883.136	21595
883.262	21450
883.388	21310
883.514	21538
883.64	21576
883.766	21340
883.892	21401
884.018	21336
884.143	21439
884.269	21450
884.395	21287
884.52	21093
884.646	21260
884.772	21146
884.897	21043
885.023	21157
885.148	21329
885.274	21382
885.399	21195
885.524	21096
885.65	21199
885.775	21161
885.9	21173
886.025	21283
886.15	21241
886.275	21093
886.4	21089
886.525	21070
886.65	21089
886.775	21150
886.9	21237
887.025	21431
887.149	21135
887.274	21043
887.399	20872
887.523	21005
887.648	20735
887.773	20842
887.897	21096
888.021	21020
888.146	20876
888.27	20895
888.395	21032
888.519	20963
888.643	20990
888.767	20910
888.891	20796
889.015	20773
889.139	20804
889.263	20724
889.387	20834
889.511	20963
889.635	20758
889.759	20823
889.883	20739
890.006	20758
890.13	20853
890.254	20720
890.377	20651
890.501	20514
890.624	20412
890.748	20560
890.871	20278
890.995	20347
891.118	20244
891.241	20347
891.364	20275
891.488	20339
891.611	20400
891.734	20256
891.857	20290
891.98	20362
892.103	20298
892.226	20355
892.349	20122
892.471	20134
892.594	20259
892.717	20252
892.839	20248
892.962	20229
893.085	20221
893.207	20202
893.33	20145
893.452	20092
893.575	20267
893.697	20088
893.819	20434
893.941	20396
894.064	20221
894.186	20081
894.308	20084
894.43	20332
894.552	20393
894.674	20271
894.796	20088
894.918	20161
895.04	20164
895.161	20183
895.283	20252
895.405	20081
895.526	20191
895.648	20161
895.769	20142
895.891	20233
896.012	20282
896.134	20267
896.255	20267
896.376	20218
896.498	20275
896.619	20168
896.74	20142
896.861	20267
896.982	20636
897.103	20552
897.224	20427
897.345	20438
897.466	20328
897.587	20408
897.708	20530
897.828	20522
897.949	20374
898.07	20278
898.19	20370
898.311	20446
898.431	20358
898.552	20412
898.672	20393
898.792	20434
898.913	20457
899.033	20309
899.153	20107
899.273	20077
899.393	20149
899.513	20202
899.633	20176
899.753	20100
899.873	20031
899.993	20126
900.113	20096
900.232	20050
900.352	20103
900.472	19997
900.591	19826
900.711	19875
900.83	19822
900.95	19921
901.069	20016
901.189	19757
901.308	19575
901.427	19518
901.546	19525
901.665	19632
901.784	19594
901.904	19324
902.023	19293
902.141	19114
902.26	19091
902.379	19080
902.498	18993
902.617	18989
902.735	19103
902.854	18920
902.973	18947
903.091	18646
903.21	18654
903.328	18730
903.446	18536
903.565	18525
903.683	18365
903.801	18235
903.919	18448
904.038	18399
904.156	18281
904.274	18346
904.392	18205
904.51	18136
904.627	18289
904.745	18209
904.863	18281
904.981	18095
905.098	17958
905.216	17958
905.334	17999
905.451	18003
905.569	17912
905.686	18015
905.803	17870
905.921	17870
906.038	17786
906.155	17752
906.272	17668
906.389	17611
906.506	17512
906.623	17505
906.74	17395
906.857	17360
906.974	17322
907.091	17520
907.208	17623
907.324	17429
907.441	17440
907.557	17254
907.674	17235
907.79	17025
907.907	17246
908.023	17200
908.139	17193
908.256	17166
908.372	17048
908.488	17029
908.604	17037
908.72	16892
908.836	16892
908.952	16839
909.068	16927
909.184	17060
909.3	16957
909.415	16904
909.531	16892
909.647	16672
909.762	16561
909.878	16672
909.993	16622
910.108	16580
910.224	16527
910.339	16584
910.454	16440
910.57	16360
910.685	16352
910.8	16618
910.915	16554
911.03	16405
911.145	16325
911.259	16215
911.374	16204
911.489	16147
911.604	16143
911.718	15854
911.833	16082
911.947	15857
912.062	15690
912.176	15838
912.291	15953
912.405	15903
912.519	16169
912.633	16078
912.748	16055
912.862	15953
912.976	15686
913.09	15656
913.204	15800
913.318	15785
913.431	15907
913.545	15915
913.659	15816
913.772	15842
913.886	15545
914	15587
914.113	15599
914.226	15732
914.34	15466
914.453	15500
914.566	15549
914.68	15488
914.793	15507
914.906	15207
915.019	15180
915.132	15116
915.245	15142
915.358	15169
915.47	15157
915.583	15165
915.696	15081
915.809	15211
915.921	15207
916.034	15036
916.146	15081
916.259	15036
916.371	15203
916.483	15146
916.595	14986
916.708	15028
916.82	14963
916.932	14849
917.044	14952
917.156	14933
917.268	14876
917.38	14804
917.491	14731
917.603	14819
917.715	14902
917.826	14944
917.938	14773
918.049	14621
918.161	14781
918.272	14842
918.384	14948
918.495	14720
918.606	14617
918.717	14480
918.828	14610
918.939	14621
919.05	14507
919.161	14446
919.272	14332
919.383	14351
919.494	14617
919.604	14781
919.715	14526
919.826	14419
919.936	14568
920.047	14629
920.157	14526
920.267	14712
920.378	14556
920.488	14499
920.598	14701
920.708	14807
920.818	14720
920.928	14598
921.038	14819
921.148	14777
921.258	14488
921.368	14465
921.477	14301
921.587	14199
921.697	14145
921.806	14301
921.916	14111
922.025	14001
922.134	13959
922.244	13894
922.353	13936
922.462	13727
922.571	13670
922.68	13632
922.789	13586
922.898	13571
923.007	13521
923.116	13620
923.224	13525
923.333	13529
923.442	13476
923.55	13365
923.659	13396
923.767	13514
923.876	13346
923.984	13335
924.092	13251
924.201	13362
924.309	13369
924.417	13297
924.525	13202
924.633	13251
924.741	14096
924.849	13053
924.956	13194
925.064	13050
925.172	12901
925.279	12985
925.387	13012
925.494	12928
925.602	13122
925.709	13012
925.816	12993
925.924	12928
926.031	13000
926.138	12920
926.245	12947
926.352	12859
926.459	12947
926.566	12951
926.673	12901
926.779	12802
926.886	12707
926.993	12585
927.099	12544
927.206	12536
927.312	12395
927.419	12521
927.525	12502
927.631	12604
927.737	12422
927.843	12395
927.95	12178
928.056	12388
928.162	12521
928.267	12414
928.373	12871
928.479	12456
928.585	12197
928.69	12281
928.796	12346
928.901	12266
929.007	12076
929.112	12228
929.218	12232
929.323	12167
929.428	12022
929.533	12171
929.638	12015
929.743	12072
929.848	12045
929.953	11992
930.058	11939
930.163	11771
930.267	11832
930.372	11935
930.477	11638
930.581	11954
930.685	11775
930.79	11642
930.894	11653
930.998	11623
931.103	11790
931.207	11421
931.311	11395
931.415	11235
931.519	11090
931.623	10999
