Data from test_V78500241_435.txt Node
Date: Fri Mar 25 15:12:53 CST 2022
User: usil
Spectrometer: V785-0024
Trigger mode: 0
Integration Time (sec): 4.000000E-1
Scans to average: 1
Nonlinearity correction enabled: false
Boxcar width: 0
Storing dark spectrum: false
XAxis mode: Wavelengths
Number of Pixels in Spectrum: 1024
>>>>>Begin Spectral Data<<<<<
801.071	27142
801.214	27051
801.356	26899
801.499	26906
801.641	26693
801.783	26720
801.926	26773
802.068	26693
802.211	26606
802.353	26507
802.496	26259
802.638	26415
802.78	26214
802.923	26199
803.065	26290
803.208	26374
803.35	26355
803.492	26480
803.635	26476
803.777	26396
803.919	26545
804.061	26765
804.204	26465
804.346	26389
804.488	26370
804.63	26514
804.773	26362
804.915	26438
805.057	26613
805.199	26442
805.341	26659
805.483	26511
805.626	26522
805.768	26492
805.91	26609
806.052	26697
806.194	26473
806.336	26743
806.478	26621
806.62	26655
806.762	26625
806.904	26811
807.046	27032
807.188	26994
807.33	26986
807.472	27020
807.614	26990
807.756	26986
807.898	26807
808.04	26880
808.182	26834
808.324	26918
808.465	26914
808.607	26933
808.749	27039
808.891	27150
809.033	27355
809.174	27355
809.316	27203
809.458	27051
809.6	27024
809.741	27378
809.883	27218
810.025	27477
810.166	27393
810.308	27485
810.45	27412
810.591	27431
810.733	27165
810.875	27268
811.016	26929
811.158	27039
811.299	27218
811.441	27188
811.582	27245
811.724	27279
811.865	27001
812.007	27108
812.148	27154
812.29	27138
812.431	27169
812.573	27405
812.714	27458
812.855	27568
812.997	27895
813.138	27998
813.279	27789
813.421	27785
813.562	27705
813.703	27599
813.845	27340
813.986	27146
814.127	26914
814.268	26895
814.41	26826
814.551	26804
814.692	26750
814.833	26735
814.974	26815
815.115	26857
815.256	26583
815.397	26682
815.539	26708
815.68	26621
815.821	26404
815.962	26746
816.103	26594
816.244	26461
816.385	26347
816.526	26362
816.666	26267
816.807	26122
816.948	26065
817.089	26214
817.23	26111
817.371	26206
817.512	26187
817.653	26062
817.793	26092
817.934	26153
818.075	26107
818.216	26062
818.356	26084
818.497	26039
818.638	25772
818.778	25940
818.919	25696
819.06	25928
819.2	25989
819.341	26096
819.481	25989
819.622	26176
819.762	26389
819.903	26377
820.043	26389
820.184	26142
820.324	26206
820.465	26336
820.605	26244
820.746	26225
820.886	26073
821.026	26164
821.167	26142
821.307	26362
821.447	26134
821.588	26065
821.728	25883
821.868	25727
822.008	25700
822.149	25605
822.289	25639
822.429	25240
822.569	25266
822.709	25148
822.849	25129
822.99	25084
823.13	25114
823.27	25019
823.41	24951
823.55	24814
823.69	24897
823.83	24954
823.97	24871
824.11	24623
824.25	24593
824.389	24612
824.529	24631
824.669	24715
824.809	24779
824.949	24749
825.089	24741
825.228	24749
825.368	24654
825.508	24585
825.648	24505
825.787	24620
825.927	24631
826.067	24509
826.206	24486
826.346	24646
826.485	24631
826.625	24566
826.765	24745
826.904	24627
827.044	24384
827.183	24258
827.323	24281
827.462	24243
827.601	24247
827.741	24228
827.88	24308
828.02	24311
828.159	24194
828.298	24228
828.437	24327
828.577	24224
828.716	24410
828.855	24350
828.994	24098
829.134	24018
829.273	24216
829.412	23954
829.551	23946
829.69	23954
829.829	24018
829.968	24144
830.107	24057
830.246	23984
830.385	24003
830.524	23904
830.663	23805
830.802	23745
830.941	23547
831.08	23745
831.219	23615
831.357	23714
831.496	23783
831.635	23558
831.774	23528
831.913	23558
832.051	23433
832.19	23372
832.329	23486
832.467	23311
832.606	23292
832.744	23318
832.883	23406
833.022	23383
833.16	23326
833.299	23368
833.437	23356
833.576	23326
833.714	23467
833.852	23436
833.991	23512
834.129	23467
834.267	23482
834.406	23330
834.544	23482
834.682	23452
834.821	23471
834.959	23589
835.097	23303
835.235	23478
835.373	23284
835.511	23341
835.65	23231
835.788	23376
835.926	23197
836.064	23025
836.202	23128
836.34	23258
836.478	23349
836.615	23178
836.753	23303
836.891	23315
837.029	23265
837.167	23288
837.305	23155
837.443	23113
837.58	23117
837.718	23159
837.856	23147
837.993	23064
838.131	23124
838.269	23044
838.406	23003
838.544	22854
838.681	22828
838.819	22733
838.956	22687
839.094	22626
839.231	22615
839.369	22767
839.506	22972
839.643	22843
839.781	22691
839.918	22535
840.055	22599
840.193	22565
840.33	22527
840.467	22424
840.604	22561
840.742	22771
840.879	22402
841.016	22519
841.153	22329
841.29	22637
841.427	22421
841.564	22481
841.701	22557
841.838	22455
841.975	22493
842.112	22344
842.249	22219
842.385	22268
842.522	22504
842.659	22261
842.796	22128
842.933	22333
843.069	22207
843.206	22299
843.343	22402
843.479	22322
843.616	22303
843.752	22055
843.889	22154
844.025	22204
844.162	22063
844.298	22082
844.435	22131
844.571	22032
844.708	22082
844.844	22261
844.98	22192
845.117	22070
845.253	22025
845.389	21934
845.525	21816
845.661	22032
845.798	21743
845.934	21838
846.07	21724
846.206	21793
846.342	21873
846.478	21789
846.614	21637
846.75	21549
846.886	21625
847.022	21641
847.158	21671
847.294	21454
847.429	21477
847.565	21469
847.701	21682
847.837	21252
847.972	21321
848.108	21336
848.244	21298
848.379	21233
848.515	21199
848.65	21074
848.786	21138
848.921	21096
849.057	21154
849.192	21325
849.328	21264
849.463	21119
849.598	21096
849.734	21009
849.869	20960
850.004	20861
850.14	20944
850.275	20956
850.41	20921
850.545	20906
850.68	20811
850.815	20834
850.95	20777
851.085	21043
851.22	20899
851.355	20902
851.49	20899
851.625	20849
851.76	20849
851.895	20765
852.03	20754
852.165	20785
852.299	20823
852.434	20933
852.569	21017
852.703	20861
852.838	20956
852.973	20933
853.107	20902
853.242	20918
853.376	20754
853.511	20575
853.645	20651
853.78	20895
853.914	20743
854.048	20724
854.183	20731
854.317	20686
854.451	20941
854.585	20788
854.72	20651
854.854	20735
854.988	20651
855.122	20765
855.256	20465
855.39	20667
855.524	20743
855.658	20663
855.792	20773
855.926	20773
856.06	20743
856.194	20826
856.327	20727
856.461	20640
856.595	20556
856.729	20663
856.862	20746
856.996	20735
857.13	20792
857.263	20815
857.397	20804
857.53	20705
857.664	20785
857.797	20845
857.931	20773
858.064	20731
858.197	20830
858.331	20724
858.464	20579
858.597	20712
858.731	20659
858.864	20587
858.997	20587
859.13	20648
859.263	20640
859.396	20765
859.529	20701
859.662	20670
859.795	20705
859.928	20678
860.061	20815
860.194	20963
860.327	20777
860.46	20773
860.592	20899
860.725	20853
860.858	20941
860.99	20629
861.123	20606
861.256	20617
861.388	20796
861.521	21370
861.653	20667
861.786	20590
861.918	20556
862.05	20663
862.183	20712
862.315	20697
862.447	20727
862.58	20514
862.712	20446
862.844	20385
862.976	20503
863.108	20484
863.24	20899
863.372	20305
863.504	20358
863.636	20370
863.768	20488
863.9	20431
864.032	20324
864.164	20412
864.296	20434
864.428	20461
864.559	20476
864.691	20404
864.823	20332
864.954	20355
865.086	20457
865.217	20404
865.349	20286
865.48	20336
865.612	20393
865.743	20568
865.875	20366
866.006	20298
866.137	20305
866.269	20244
866.4	20286
866.531	20275
866.662	20282
866.793	20298
866.924	20218
867.055	20309
867.186	20278
867.317	20259
867.448	20172
867.579	20206
867.71	20225
867.841	20244
867.972	20244
868.103	20339
868.233	20298
868.364	20191
868.495	20172
868.625	20366
868.756	20667
868.886	20431
869.017	20454
869.147	20636
869.278	20689
869.408	20434
869.539	20511
869.669	20579
869.799	20560
869.929	20613
870.06	20602
870.19	20819
870.32	20785
870.45	20921
870.58	20880
870.71	20975
870.84	21093
870.97	20853
871.1	20929
871.23	21051
871.36	21081
871.489	21081
871.619	21043
871.749	21001
871.879	21154
872.008	21195
872.138	21104
872.267	21104
872.397	20982
872.526	20838
872.656	20857
872.785	20918
872.915	21176
873.044	21211
873.173	21184
873.303	21161
873.432	21138
873.561	21161
873.69	21176
873.819	21211
873.948	21081
874.077	21127
874.206	21146
874.335	21081
874.464	21237
874.593	21332
874.722	21195
874.851	21374
874.979	21332
875.108	21435
875.237	21348
875.365	21249
875.494	21283
875.623	21507
875.751	21298
875.88	21397
876.008	21568
876.136	21416
876.265	21709
876.393	21873
876.521	21770
876.65	21800
876.778	21720
876.906	21770
877.034	21660
877.162	21720
877.29	21717
877.418	21709
877.546	21808
877.674	21736
877.802	21736
877.93	21793
878.058	21724
878.185	21492
878.313	21698
878.441	21682
878.568	21576
878.696	21759
878.824	21770
878.951	21679
879.079	21873
879.206	21937
879.333	21884
879.461	21743
879.588	21876
879.715	22021
879.842	22002
879.97	21778
880.097	21519
880.224	21473
880.351	21618
880.478	21473
880.605	21515
880.732	21538
880.859	21816
880.986	21572
881.112	21561
881.239	21435
881.366	21344
881.493	21226
881.619	21218
881.746	21165
881.872	21241
881.999	21161
882.125	21142
882.252	21093
882.378	21093
882.505	21180
882.631	20929
882.757	20899
882.883	20823
883.01	20807
883.136	20777
883.262	20670
883.388	20571
883.514	20811
883.64	20899
883.766	20731
883.892	20724
884.018	20617
884.143	20773
884.269	20857
884.395	20537
884.52	20431
884.646	20412
884.772	20423
884.897	20469
885.023	20438
885.148	20613
885.274	20655
885.399	20701
885.524	20522
885.65	20545
885.775	20511
885.9	20355
886.025	20545
886.15	20549
886.275	20495
886.4	20393
886.525	20381
886.65	20377
886.775	20499
886.9	20560
887.025	20682
887.149	20583
887.274	20244
887.399	20278
887.523	20256
887.648	20195
887.773	20187
887.897	20294
888.021	20336
888.146	20343
888.27	20248
888.395	20381
888.519	20389
888.643	20275
888.767	20301
888.891	20153
889.015	20096
889.139	20142
889.263	20115
889.387	20233
889.511	20336
889.635	20256
889.759	20016
889.883	20020
890.006	20103
890.13	20092
890.254	20008
890.377	20005
890.501	19731
890.624	19708
890.748	19811
890.871	19670
890.995	19514
891.118	19506
891.241	19674
891.364	19609
891.488	19742
891.611	19544
891.734	19548
891.857	19712
891.98	19597
892.103	19712
892.226	19658
892.349	19594
892.471	19468
892.594	19552
892.717	19537
892.839	19533
892.962	19552
893.085	19639
893.207	19594
893.33	19510
893.452	19559
893.575	19628
893.697	19499
893.819	19704
893.941	19715
894.064	19681
894.186	19495
894.308	19434
894.43	19544
894.552	19738
894.674	19552
894.796	19460
894.918	19480
895.04	19544
895.161	19575
895.283	19575
895.405	19419
895.526	19529
895.648	19365
895.769	19491
895.891	19624
896.012	19624
896.134	19586
896.255	19594
896.376	19632
896.498	19453
896.619	19571
896.74	19552
896.861	19597
896.982	19967
897.103	20001
897.224	19788
897.345	19708
897.466	19734
897.587	19742
897.708	19868
897.828	19742
897.949	19696
898.07	19567
898.19	19658
898.311	19887
898.431	19696
898.552	19818
898.672	19868
898.792	19811
898.913	19765
899.033	19647
899.153	19639
899.273	19426
899.393	19578
899.513	19700
899.633	19556
899.753	19567
899.873	19540
899.993	19578
900.113	19457
900.232	19495
900.352	19502
900.472	19491
900.591	19324
900.711	19392
900.83	19304
900.95	19426
901.069	19472
901.189	19198
901.308	19034
901.427	18852
901.546	18856
901.665	18783
901.784	18932
901.904	18772
902.023	18719
902.141	18448
902.26	18456
902.379	18426
902.498	18403
902.617	18445
902.735	18479
902.854	18429
902.973	18338
903.091	18114
903.21	18102
903.328	18041
903.446	18049
903.565	17969
903.683	17878
903.801	17908
903.919	17920
904.038	17923
904.156	17707
904.274	17767
904.392	17699
904.51	17596
904.627	17718
904.745	17604
904.863	17684
904.981	17410
905.098	17444
905.216	17341
905.334	17379
905.451	17395
905.569	17345
905.686	17433
905.803	17337
905.921	17113
906.038	17273
906.155	17292
906.272	17162
906.389	17105
906.506	16946
906.623	16968
906.74	16877
906.857	16828
906.974	16793
907.091	16976
907.208	17003
907.324	17052
907.441	16843
907.557	16778
907.674	16641
907.79	16573
907.907	16569
908.023	16713
908.139	16679
908.256	16618
908.372	16558
908.488	16516
908.604	16413
908.72	16417
908.836	16417
908.952	16440
909.068	16538
909.184	16443
909.3	16402
909.415	16386
909.531	16390
909.647	16158
909.762	16036
909.878	16135
909.993	16063
910.108	16124
910.224	16211
910.339	16013
910.454	15937
910.57	15934
910.685	15797
910.8	16131
910.915	16169
911.03	15903
911.145	15694
911.259	15732
911.374	15759
911.489	15698
911.604	15572
911.718	15477
911.833	15496
911.947	15416
912.062	15260
912.176	15488
912.291	15462
912.405	15412
912.519	15568
912.633	15625
912.748	15454
912.862	15466
912.976	15283
913.09	15214
913.204	15252
913.318	15268
913.431	15332
913.545	15306
913.659	15355
913.772	15180
913.886	15013
914	15058
914.113	15192
914.226	15211
914.34	15116
914.453	15081
914.566	15116
914.68	15074
914.793	14918
914.906	14769
915.019	14655
915.132	14613
915.245	14724
915.358	14655
915.47	14727
915.583	14701
915.696	14705
915.809	14777
915.921	14826
916.034	14663
916.146	14583
916.259	14602
916.371	14640
916.483	14602
916.595	14587
916.708	14640
916.82	14518
916.932	14393
917.044	14522
917.156	14488
917.268	14358
917.38	14465
917.491	14347
917.603	14332
917.715	14419
917.826	14473
917.938	14347
918.049	14218
918.161	14271
918.272	14526
918.384	14389
918.495	14233
918.606	14199
918.717	14119
918.828	14103
918.939	14180
919.05	14039
919.161	14058
919.272	13951
919.383	13875
919.494	14199
919.604	14355
919.715	14024
919.826	14123
919.936	14073
920.047	14195
920.157	14111
920.267	14229
920.378	14077
920.488	14096
920.598	14377
920.708	14305
920.818	14221
920.928	14195
921.038	14377
921.148	14339
921.258	14062
921.368	13936
921.477	13860
921.587	13909
921.697	13708
921.806	13894
921.916	13674
922.025	13491
922.134	13544
922.244	13373
922.353	13578
922.462	13358
922.571	13377
922.68	13171
922.789	13126
922.898	13129
923.007	13107
923.116	13217
923.224	13103
923.333	13099
923.442	12939
923.55	12970
923.659	12966
923.767	13084
923.876	13004
923.984	12981
924.092	12810
924.201	12981
924.309	12939
924.417	12795
924.525	12741
924.633	12810
924.741	13715
924.849	12578
924.956	12791
925.064	12646
925.172	12540
925.279	12593
925.387	12585
925.494	12623
925.602	12696
925.709	12635
925.816	12448
925.924	12532
926.031	12604
926.138	12544
926.245	12521
926.352	12376
926.459	12681
926.566	12623
926.673	12517
926.779	12296
926.886	12353
926.993	12247
927.099	12209
927.206	12057
927.312	12041
927.419	12110
927.525	12136
927.631	12209
927.737	12053
927.843	11935
927.95	11939
928.056	12026
928.162	12053
928.267	12136
928.373	12677
928.479	12045
928.585	11893
928.69	11996
928.796	11988
928.901	11904
929.007	11646
929.112	11904
929.218	11813
929.323	11752
929.428	11722
929.533	11832
929.638	11684
929.743	11760
929.848	11649
929.953	11710
930.058	11680
930.163	11391
930.267	11402
930.372	11558
930.477	11383
930.581	11680
930.685	11528
930.79	11334
930.894	11436
930.998	11303
931.103	11448
931.207	11060
931.311	11014
931.415	10915
931.519	10702
931.623	10744
