Data from test_V78500241_579.txt Node
Date: Fri Mar 25 15:13:53 CST 2022
User: usil
Spectrometer: V785-0024
Trigger mode: 0
Integration Time (sec): 4.000000E-1
Scans to average: 1
Nonlinearity correction enabled: false
Boxcar width: 0
Storing dark spectrum: false
XAxis mode: Wavelengths
Number of Pixels in Spectrum: 1024
>>>>>Begin Spectral Data<<<<<
801.071	27481
801.214	27386
801.356	27214
801.499	27188
801.641	27169
801.783	27188
801.926	27192
802.068	27077
802.211	27020
802.353	26899
802.496	26853
802.638	26826
802.78	26640
802.923	26750
803.065	26712
803.208	26735
803.35	26724
803.492	26754
803.635	26910
803.777	26716
803.919	26948
804.061	27138
804.204	26876
804.346	26864
804.488	26819
804.63	26952
804.773	26769
804.915	26975
805.057	27036
805.199	26975
805.341	26963
805.483	27020
805.626	27104
805.768	26952
805.91	27036
806.052	26960
806.194	27009
806.336	26963
806.478	27089
806.62	27112
806.762	27233
806.904	27302
807.046	27671
807.188	27568
807.33	27538
807.472	27405
807.614	27454
807.756	27355
807.898	27275
808.04	27291
808.182	27393
808.324	27241
808.465	27336
808.607	27545
808.749	27587
808.891	27644
809.033	27812
809.174	27774
809.316	27538
809.458	27534
809.6	27709
809.741	27873
809.883	27892
810.025	28006
810.166	27888
810.308	27934
810.45	27949
810.591	27755
810.733	27854
810.875	27663
811.016	27557
811.158	27686
811.299	27701
811.441	27766
811.582	27804
811.724	27603
811.865	27610
812.007	27641
812.148	27481
812.29	27698
812.431	27720
812.573	28010
812.714	28010
812.855	28147
812.997	28344
813.138	28367
813.279	28310
813.421	28310
813.562	28242
813.703	28078
813.845	27983
813.986	27534
814.127	27523
814.268	27408
814.41	27431
814.551	27157
814.692	27416
814.833	27287
814.974	27230
815.115	27252
815.256	27214
815.397	27291
815.539	27325
815.68	27214
815.821	27093
815.962	27157
816.103	27127
816.244	27047
816.385	26902
816.526	26929
816.666	26598
816.807	26636
816.948	26785
817.089	26686
817.23	26746
817.371	26556
817.512	26674
817.653	26583
817.793	26640
817.934	26579
818.075	26571
818.216	26579
818.356	26598
818.497	26511
818.638	26332
818.778	26393
818.919	26336
819.06	26431
819.2	26564
819.341	26503
819.481	26579
819.622	26712
819.762	27062
819.903	26830
820.043	26769
820.184	26853
820.324	26674
820.465	26804
820.605	26746
820.746	26788
820.886	26651
821.026	26678
821.167	26682
821.307	26834
821.447	26663
821.588	26663
821.728	26290
821.868	26176
822.008	26153
822.149	26142
822.289	26088
822.429	25811
822.569	25856
822.709	25868
822.849	25590
822.99	25563
823.13	25594
823.27	25518
823.41	25487
823.55	25251
823.69	25400
823.83	25422
823.97	25365
824.11	25148
824.25	25122
824.389	25297
824.529	25369
824.669	25225
824.809	25422
824.949	25301
825.089	25552
825.228	25236
825.368	25217
825.508	25156
825.648	25133
825.787	25156
825.927	25171
826.067	25050
826.206	25099
826.346	25145
826.485	25148
826.625	25034
826.765	25202
826.904	25141
827.044	24901
827.183	24878
827.323	24661
827.462	24890
827.601	24928
827.741	24814
827.88	24829
828.02	24726
828.159	24848
828.298	24932
828.437	25012
828.577	24734
828.716	24954
828.855	24703
828.994	24612
829.134	24540
829.273	24661
829.412	24623
829.551	24483
829.69	24528
829.829	24574
829.968	24696
830.107	24703
830.246	24593
830.385	24551
830.524	24502
830.663	24327
830.802	24277
830.941	24235
831.08	24125
831.219	24296
831.357	24258
831.496	24391
831.635	24171
831.774	24121
831.913	24026
832.051	23992
832.19	23942
832.329	23961
832.467	23958
832.606	23786
832.744	23786
832.883	23840
833.022	23722
833.16	23901
833.299	23904
833.437	23805
833.576	24053
833.714	24057
833.852	24060
833.991	23980
834.129	24030
834.267	23999
834.406	23942
834.544	23923
834.682	23977
834.821	23821
834.959	24079
835.097	23935
835.235	23901
835.373	23866
835.511	23950
835.65	23741
835.788	23767
835.926	23653
836.064	23471
836.202	23634
836.34	23748
836.478	23764
836.615	23699
836.753	23821
836.891	23813
837.029	23855
837.167	23627
837.305	23691
837.443	23600
837.58	23672
837.718	23646
837.856	23611
837.993	23520
838.131	23535
838.269	23524
838.406	23535
838.544	23501
838.681	23334
838.819	23212
838.956	23075
839.094	23060
839.231	23128
839.369	23349
839.506	23524
839.643	23334
839.781	23094
839.918	22980
840.055	23140
840.193	23003
840.33	22896
840.467	22995
840.604	23098
840.742	23353
840.879	22900
841.016	22984
841.153	22934
841.29	23102
841.427	22949
841.564	23083
841.701	23052
841.838	22965
841.975	22911
842.112	22991
842.249	22809
842.385	22736
842.522	23025
842.659	22930
842.796	22733
842.933	22729
843.069	22675
843.206	22626
843.343	22835
843.479	22790
843.616	22812
843.752	22641
843.889	22569
844.025	22649
844.162	22554
844.298	22615
844.435	22409
844.571	22519
844.708	22603
844.844	22687
844.98	22527
845.117	22550
845.253	22367
845.389	22428
845.525	22424
845.661	22352
845.798	22268
845.934	22280
846.07	22226
846.206	22295
846.342	22337
846.478	22204
846.614	22086
846.75	21968
846.886	21975
847.022	22029
847.158	22036
847.294	22002
847.429	22029
847.565	21880
847.701	22200
847.837	21842
847.972	21781
848.108	21846
848.244	21759
848.379	21625
848.515	21561
848.65	21751
848.786	21580
848.921	21576
849.057	21720
849.192	21755
849.328	21496
849.463	21603
849.598	21530
849.734	21530
849.869	21439
850.004	21420
850.14	21526
850.275	21393
850.41	21317
850.545	21389
850.68	21405
850.815	21370
850.95	21283
851.085	21450
851.22	21355
851.355	21351
851.49	21401
851.625	21355
851.76	21370
851.895	21245
852.03	21249
852.165	21370
852.299	21291
852.434	21485
852.569	21378
852.703	21287
852.838	21507
852.973	21439
853.107	21428
853.242	21302
853.376	21245
853.511	21066
853.645	21112
853.78	21268
853.914	21104
854.048	21024
854.183	21214
854.317	21245
854.451	21279
854.585	21161
854.72	21131
854.854	21119
854.988	20975
855.122	21154
855.256	21062
855.39	21237
855.524	21176
855.658	21138
855.792	21218
855.926	21260
856.06	21211
856.194	21256
856.327	21116
856.461	21146
856.595	21222
856.729	21142
856.862	21393
856.996	21207
857.13	21226
857.263	21241
857.397	21332
857.53	21169
857.664	21264
857.797	21188
857.931	21279
858.064	21275
858.197	21424
858.331	21211
858.464	21237
858.597	21112
858.731	21100
858.864	21074
858.997	21256
859.13	21207
859.263	21127
859.396	21317
859.529	21169
859.662	21104
859.795	21077
859.928	21230
860.061	21389
860.194	21329
860.327	21233
860.46	21062
860.592	21302
860.725	21260
860.858	21230
860.99	21119
861.123	21214
861.256	20971
861.388	21188
861.521	22013
861.653	21051
861.786	20948
861.918	20929
862.05	21055
862.183	21096
862.315	21119
862.447	21150
862.58	21100
862.712	20906
862.844	20792
862.976	21009
863.108	20948
863.24	21294
863.372	20785
863.504	20853
863.636	20895
863.768	20933
863.9	20891
864.032	20830
864.164	20830
864.296	20941
864.428	20944
864.559	21051
864.691	20967
864.823	21036
864.954	20785
865.086	20899
865.217	20883
865.349	20644
865.48	20876
865.612	20811
865.743	20902
865.875	20765
866.006	20682
866.137	20731
866.269	20758
866.4	20731
866.531	20769
866.662	20648
866.793	20800
866.924	20678
867.055	20777
867.186	20834
867.317	20606
867.448	20689
867.579	20796
867.71	20670
867.841	20606
867.972	20746
868.103	20644
868.233	20758
868.364	20857
868.495	20887
868.625	20880
868.756	21058
868.886	21001
869.017	20937
869.147	20971
869.278	20998
869.408	21032
869.539	20941
869.669	21138
869.799	21005
869.929	21112
870.06	21150
870.19	21359
870.32	21325
870.45	21397
870.58	21287
870.71	21492
870.84	21447
870.97	21363
871.1	21252
871.23	21583
871.36	21576
871.489	21367
871.619	21526
871.749	21473
871.879	21652
872.008	21679
872.138	21530
872.267	21576
872.397	21526
872.526	21416
872.656	21492
872.785	21363
872.915	21557
873.044	21606
873.173	21622
873.303	21591
873.432	21542
873.561	21595
873.69	21549
873.819	21519
873.948	21682
874.077	21530
874.206	21534
874.335	21629
874.464	21686
874.593	21831
874.722	21675
874.851	21892
874.979	21774
875.108	21915
875.237	21751
875.365	21781
875.494	21743
875.623	21850
875.751	21690
875.88	21838
876.008	21922
876.136	22040
876.265	22158
876.393	22299
876.521	22234
876.65	22238
876.778	22211
876.906	22055
877.034	22070
877.162	22051
877.29	22040
877.418	22093
877.546	22162
877.674	22268
877.802	22090
877.93	22067
878.058	22162
878.185	22040
878.313	22017
878.441	22150
878.568	22051
878.696	22036
878.824	22230
878.951	22322
879.079	22314
879.206	22325
879.333	22344
879.461	22226
879.588	22158
879.715	22295
879.842	22481
879.97	22204
880.097	22036
880.224	21964
880.351	21994
880.478	21956
880.605	21987
880.732	21918
880.859	22177
880.986	21953
881.112	22036
881.239	21812
881.366	21781
881.493	21656
881.619	21545
881.746	21466
881.872	21519
881.999	21595
882.125	21435
882.252	21530
882.378	21500
882.505	21660
882.631	21397
882.757	21233
882.883	21370
883.01	21256
883.136	21291
883.262	21199
883.388	21032
883.514	21298
883.64	21344
883.766	21260
883.892	20956
884.018	20975
884.143	21119
884.269	21291
884.395	20982
884.52	20807
884.646	20994
884.772	20941
884.897	20826
885.023	20868
885.148	21058
885.274	21096
885.399	20887
885.524	20861
885.65	20876
885.775	20826
885.9	20864
886.025	20979
886.15	20979
886.275	20819
886.4	20777
886.525	20944
886.65	20834
886.775	20853
886.9	21085
887.025	21081
887.149	20796
887.274	20701
887.399	20590
887.523	20697
887.648	20587
887.773	20533
887.897	20716
888.021	20712
888.146	20499
888.27	20750
888.395	20887
888.519	20758
888.643	20568
888.767	20716
888.891	20552
889.015	20545
889.139	20602
889.263	20492
889.387	20533
889.511	20739
889.635	20454
889.759	20305
889.883	20503
890.006	20457
890.13	20571
890.254	20503
890.377	20434
890.501	20172
890.624	20183
890.748	20195
890.871	20142
890.995	20126
891.118	20046
891.241	20069
891.364	20199
891.488	20142
891.611	19940
891.734	20180
891.857	20024
891.98	19974
892.103	20081
892.226	20069
892.349	19932
892.471	19780
892.594	19951
892.717	19986
892.839	19856
892.962	20012
893.085	19970
893.207	19909
893.33	19830
893.452	19852
893.575	19974
893.697	19894
893.819	20005
893.941	20176
894.064	20119
894.186	19951
894.308	19909
894.43	19978
894.552	19978
894.674	19936
894.796	19932
894.918	19940
895.04	19890
895.161	19890
895.283	19909
895.405	19837
895.526	19868
895.648	19944
895.769	19993
895.891	20008
896.012	20062
896.134	19902
896.255	19841
896.376	19947
896.498	19955
896.619	19883
896.74	19989
896.861	20027
896.982	20183
897.103	20454
897.224	20225
897.345	20180
897.466	20119
897.587	20172
897.708	20298
897.828	20206
897.949	20043
898.07	19932
898.19	20046
898.311	20221
898.431	20092
898.552	20202
898.672	20267
898.792	20164
898.913	20180
899.033	20142
899.153	20050
899.273	19742
899.393	19864
899.513	19993
899.633	19864
899.753	19849
899.873	19811
899.993	19887
900.113	19849
900.232	19883
900.352	19826
900.472	19708
900.591	19628
900.711	19693
900.83	19666
900.95	19635
901.069	19727
901.189	19499
901.308	19369
901.427	19103
901.546	19365
901.665	19228
901.784	19316
901.904	19050
902.023	19107
902.141	18882
902.26	18757
902.379	18825
902.498	18802
902.617	18856
902.735	18821
902.854	18776
902.973	18726
903.091	18460
903.21	18483
903.328	18547
903.446	18342
903.565	18304
903.683	18239
903.801	18106
903.919	18391
904.038	18197
904.156	17999
904.274	18106
904.392	18057
904.51	17935
904.627	18057
904.745	18053
904.863	17980
904.981	17794
905.098	17707
905.216	17748
905.334	17703
905.451	17710
905.569	17714
905.686	17771
905.803	17691
905.921	17528
906.038	17646
906.155	17615
906.272	17471
906.389	17421
906.506	17345
906.623	17360
906.74	17220
906.857	17067
906.974	17075
907.091	17288
907.208	17387
907.324	17296
907.441	17086
907.557	17006
907.674	17045
907.79	16953
907.907	16900
908.023	17041
908.139	16908
908.256	16946
908.372	16927
908.488	16801
908.604	16725
908.72	16675
908.836	16626
908.952	16691
909.068	16622
909.184	16816
909.3	16630
909.415	16683
909.531	16691
909.647	16367
909.762	16447
909.878	16379
909.993	16440
910.108	16291
910.224	16375
910.339	16382
910.454	16249
910.57	16242
910.685	16051
910.8	16344
910.915	16303
911.03	16215
911.145	16048
911.259	15964
911.374	16097
911.489	15930
911.604	15831
911.718	15922
911.833	15762
911.947	15622
912.062	15526
912.176	15717
912.291	15591
912.405	15816
912.519	15884
912.633	15945
912.748	15679
912.862	15736
912.976	15584
913.09	15443
913.204	15481
913.318	15568
913.431	15545
913.545	15606
913.659	15641
913.772	15462
913.886	15447
914	15374
914.113	15466
914.226	15428
914.34	15351
914.453	15291
914.566	15435
914.68	15283
914.793	15203
914.906	15100
915.019	15047
915.132	14925
915.245	14982
915.358	15043
915.47	14975
915.583	15039
915.696	15062
915.809	15123
915.921	15070
916.034	14937
916.146	14902
916.259	14864
916.371	14887
916.483	14834
916.595	14765
916.708	14853
916.82	14788
916.932	14819
917.044	14727
917.156	14693
917.268	14731
917.38	14644
917.491	14602
917.603	14579
917.715	14655
917.826	14758
917.938	14587
918.049	14412
918.161	14537
918.272	14754
918.384	14708
918.495	14590
918.606	14480
918.717	14343
918.828	14404
918.939	14396
919.05	14301
919.161	14294
919.272	14244
919.383	14248
919.494	14412
919.604	14594
919.715	14381
919.826	14237
919.936	14358
920.047	14438
920.157	14461
920.267	14503
920.378	14347
920.488	14294
920.598	14556
920.708	14705
920.818	14473
920.928	14423
921.038	14621
921.148	14564
921.258	14259
921.368	14214
921.477	14138
921.587	14058
921.697	13970
921.806	14043
921.916	13932
922.025	13803
922.134	13727
922.244	13704
922.353	13791
922.462	13674
922.571	13590
922.68	13441
922.789	13415
922.898	13476
923.007	13312
923.116	13426
923.224	13335
923.333	13377
923.442	13190
923.55	13164
923.659	13293
923.767	13266
923.876	13152
923.984	13354
924.092	13065
924.201	13149
924.309	13152
924.417	13141
924.525	13137
924.633	13141
924.741	13784
924.849	12901
924.956	13031
925.064	12795
925.172	12810
925.279	12776
925.387	12852
925.494	12924
925.602	12939
925.709	12806
925.816	12730
925.924	12726
926.031	12886
926.138	12772
926.245	12764
926.352	12635
926.459	12741
926.566	12825
926.673	12627
926.779	12536
926.886	12544
926.993	12490
927.099	12418
927.206	12350
927.312	12338
927.419	12441
927.525	12369
927.631	12422
927.737	12300
927.843	12281
927.95	12171
928.056	12148
928.162	12144
928.267	12190
928.373	12844
928.479	12300
928.585	12011
928.69	12182
928.796	12186
928.901	12087
929.007	11927
929.112	12167
929.218	12072
929.323	11901
929.428	11885
929.533	12110
929.638	11859
929.743	11965
929.848	12022
929.953	11901
930.058	11805
930.163	11642
930.267	11581
930.372	11779
930.477	11589
930.581	11779
930.685	11760
930.79	11463
930.894	11512
930.998	11455
931.103	11653
931.207	11292
931.311	11216
931.415	11143
931.519	10987
931.623	10892
