Data from test_V78500241_1802.txt Node
Date: Fri Mar 25 15:22:24 CST 2022
User: usil
Spectrometer: V785-0024
Trigger mode: 0
Integration Time (sec): 4.000000E-1
Scans to average: 1
Nonlinearity correction enabled: false
Boxcar width: 0
Storing dark spectrum: false
XAxis mode: Wavelengths
Number of Pixels in Spectrum: 1024
>>>>>Begin Spectral Data<<<<<
801.071	27895
801.214	27846
801.356	27686
801.499	27549
801.641	27443
801.783	27416
801.926	27469
802.068	27488
802.211	27355
802.353	27260
802.496	26982
802.638	27058
802.78	27157
802.923	27104
803.065	26963
803.208	27017
803.35	27062
803.492	27218
803.635	27131
803.777	27081
803.919	27252
804.061	27576
804.204	27294
804.346	27138
804.488	27218
804.63	27272
804.773	27249
804.915	27203
805.057	27256
805.199	27226
805.341	27291
805.483	27420
805.626	27393
805.768	27207
805.91	27367
806.052	27313
806.194	27192
806.336	27534
806.478	27386
806.62	27458
806.762	27466
806.904	27652
807.046	27835
807.188	27781
807.33	27865
807.472	27865
807.614	27701
807.756	27766
807.898	27705
808.04	27606
808.182	27644
808.324	27644
808.465	27648
808.607	27747
808.749	27816
808.891	28120
809.033	28219
809.174	27907
809.316	27968
809.458	27888
809.6	27945
809.741	28143
809.883	28226
810.025	28223
810.166	28253
810.308	28421
810.45	28128
810.591	28036
810.733	27941
810.875	28010
811.016	27739
811.158	27926
811.299	28112
811.441	28128
811.582	28128
811.724	27941
811.865	28044
812.007	28010
812.148	27975
812.29	27960
812.431	28173
812.573	28405
812.714	28379
812.855	28478
812.997	28531
813.138	28694
813.279	28641
813.421	28512
813.562	28379
813.703	28284
813.845	28287
813.986	27907
814.127	27812
814.268	27648
814.41	27751
814.551	27549
814.692	27713
814.833	27663
814.974	27500
815.115	27557
815.256	27477
815.397	27481
815.539	27629
815.68	27523
815.821	27435
815.962	27408
816.103	27401
816.244	27424
816.385	27230
816.526	27211
816.666	26982
816.807	26948
816.948	27047
817.089	27062
817.23	26921
817.371	26925
817.512	26967
817.653	26986
817.793	26857
817.934	26921
818.075	26971
818.216	26940
818.356	26891
818.497	26785
818.638	26781
818.778	26743
818.919	26632
819.06	26708
819.2	26811
819.341	26853
819.481	26883
819.622	27074
819.762	27268
819.903	27245
820.043	27256
820.184	27066
820.324	27051
820.465	27157
820.605	26998
820.746	27058
820.886	26963
821.026	26952
821.167	26971
821.307	27077
821.447	26956
821.588	26910
821.728	26686
821.868	26476
822.008	26412
822.149	26412
822.289	26419
822.429	26206
822.569	26035
822.709	26088
822.849	26046
822.99	26065
823.13	25955
823.27	25913
823.41	25696
823.55	25677
823.69	25742
823.83	25708
823.97	25647
824.11	25594
824.25	25487
824.389	25635
824.529	25647
824.669	25628
824.809	25643
824.949	25635
825.089	25609
825.228	25552
825.368	25502
825.508	25525
825.648	25521
825.787	25525
825.927	25472
826.067	25476
826.206	25514
826.346	25472
826.485	25438
826.625	25521
826.765	25559
826.904	25651
827.044	25270
827.183	25312
827.323	25213
827.462	25240
827.601	25179
827.741	25084
827.88	25358
828.02	25160
828.159	25023
828.298	25247
828.437	25160
828.577	24977
828.716	25377
828.855	25099
828.994	24856
829.134	24878
829.273	24932
829.412	24688
829.551	24806
829.69	24901
829.829	24875
829.968	24932
830.107	24821
830.246	24913
830.385	24875
830.524	24749
830.663	24684
830.802	24513
830.941	24616
831.08	24536
831.219	24582
831.357	24532
831.496	24715
831.635	24517
831.774	24509
831.913	24525
832.051	24178
832.19	24330
832.329	24353
832.467	24133
832.606	24167
832.744	24114
832.883	24159
833.022	24117
833.16	24182
833.299	24140
833.437	24155
833.576	24125
833.714	24232
833.852	24365
833.991	24296
834.129	24342
834.267	24319
834.406	24285
834.544	24262
834.682	24262
834.821	24224
834.959	24483
835.097	24228
835.235	24353
835.373	24216
835.511	24182
835.65	24117
835.788	24057
835.926	24117
836.064	23935
836.202	24018
836.34	24144
836.478	24079
836.615	24068
836.753	24076
836.891	24201
837.029	24148
837.167	24041
837.305	23942
837.443	23920
837.58	23927
837.718	23965
837.856	23920
837.993	23980
838.131	23923
838.269	23748
838.406	23707
838.544	23722
838.681	23604
838.819	23710
838.956	23490
839.094	23433
839.231	23425
839.369	23608
839.506	23817
839.643	23729
839.781	23429
839.918	23444
840.055	23379
840.193	23448
840.33	23204
840.467	23368
840.604	23334
840.742	23577
840.879	23178
841.016	23185
841.153	23124
841.29	23444
841.427	23208
841.564	23376
841.701	23261
841.838	23265
841.975	23277
842.112	23143
842.249	23197
842.385	23143
842.522	23269
842.659	23178
842.796	23098
842.933	23037
843.069	23044
843.206	23014
843.343	23121
843.479	23022
843.616	23098
843.752	22873
843.889	22999
844.025	23003
844.162	22881
844.298	22839
844.435	22938
844.571	22824
844.708	22866
844.844	22991
844.98	22995
845.117	22976
845.253	22763
845.389	22664
845.525	22698
845.661	22733
845.798	22584
845.934	22637
846.07	22546
846.206	22649
846.342	22637
846.478	22592
846.614	22306
846.75	22219
846.886	22360
847.022	22394
847.158	22432
847.294	22325
847.429	22390
847.565	22246
847.701	22470
847.837	21987
847.972	22025
848.108	22242
848.244	22166
848.379	21945
848.515	21899
848.65	21876
848.786	21915
848.921	21941
849.057	22070
849.192	21937
849.328	22017
849.463	21831
849.598	21880
849.734	21892
849.869	21785
850.004	21576
850.14	21679
850.275	21671
850.41	21595
850.545	21583
850.68	21614
850.815	21698
850.95	21648
851.085	21895
851.22	21755
851.355	21835
851.49	21660
851.625	21637
851.76	21652
851.895	21652
852.03	21599
852.165	21603
852.299	21709
852.434	21831
852.569	21709
852.703	21732
852.838	21698
852.973	21876
853.107	21831
853.242	21580
853.376	21519
853.511	21363
853.645	21428
853.78	21568
853.914	21439
854.048	21500
854.183	21481
854.317	21488
854.451	21739
854.585	21462
854.72	21477
854.854	21542
854.988	21405
855.122	21450
855.256	21359
855.39	21515
855.524	21504
855.658	21511
855.792	21629
855.926	21572
856.06	21485
856.194	21576
856.327	21591
856.461	21496
856.595	21454
856.729	21420
856.862	21549
856.996	21466
857.13	21561
857.263	21591
857.397	21519
857.53	21458
857.664	21625
857.797	21671
857.931	21629
858.064	21580
858.197	21591
858.331	21435
858.464	21466
858.597	21428
858.731	21568
858.864	21458
858.997	21564
859.13	21629
859.263	21507
859.396	21580
859.529	21488
859.662	21595
859.795	21431
859.928	21481
860.061	21637
860.194	21690
860.327	21500
860.46	21530
860.592	21739
860.725	21686
860.858	21591
860.99	21515
861.123	21561
861.256	21447
861.388	21485
861.521	22162
861.653	21466
861.786	21443
861.918	21408
862.05	21408
862.183	21466
862.315	21519
862.447	21473
862.58	21534
862.712	21336
862.844	21199
862.976	21378
863.108	21310
863.24	21622
863.372	21218
863.504	21329
863.636	21230
863.768	21245
863.9	21332
864.032	21089
864.164	21214
864.296	21351
864.428	21321
864.559	21233
864.691	21256
864.823	21287
864.954	21119
865.086	21283
865.217	21146
865.349	21066
865.48	21077
865.612	21165
865.743	21192
865.875	21116
866.006	21226
866.137	21085
866.269	21188
866.4	21138
866.531	21055
866.662	20994
866.793	21032
866.924	21070
867.055	21150
867.186	21127
867.317	21055
867.448	20979
867.579	21127
867.71	21074
867.841	21032
867.972	20963
868.103	21043
868.233	20990
868.364	21020
868.495	21119
868.625	21329
868.756	21397
868.886	21237
869.017	21169
869.147	21378
869.278	21462
869.408	21157
869.539	21287
869.669	21389
869.799	21336
869.929	21443
870.06	21291
870.19	21580
870.32	21545
870.45	21606
870.58	21637
870.71	21808
870.84	21660
870.97	21667
871.1	21637
871.23	21762
871.36	21812
871.489	21739
871.619	21892
871.749	21979
871.879	22002
872.008	22139
872.138	21903
872.267	21930
872.397	21804
872.526	21675
872.656	21698
872.785	21812
872.915	21892
873.044	21994
873.173	21930
873.303	22013
873.432	21918
873.561	22059
873.69	22025
873.819	21918
873.948	22105
874.077	22002
874.206	21827
874.335	21842
874.464	22116
874.593	22116
874.722	22112
874.851	22112
874.979	22177
875.108	22234
875.237	22059
875.365	22002
875.494	22204
875.623	22253
875.751	22090
875.88	22158
876.008	22310
876.136	22398
876.265	22523
876.393	22630
876.521	22596
876.65	22577
876.778	22557
876.906	22436
877.034	22519
877.162	22459
877.29	22413
877.418	22538
877.546	22432
877.674	22603
877.802	22440
877.93	22402
878.058	22508
878.185	22268
878.313	22375
878.441	22390
878.568	22322
878.696	22314
878.824	22421
878.951	22641
879.079	22630
879.206	22687
879.333	22550
879.461	22512
879.588	22729
879.715	22729
879.842	22797
879.97	22607
880.097	22230
880.224	22352
880.351	22325
880.478	22295
880.605	22257
880.732	22440
880.859	22478
880.986	22379
881.112	22215
881.239	22265
881.366	22013
881.493	22036
881.619	21926
881.746	21816
881.872	21903
881.999	21930
882.125	21739
882.252	21838
882.378	21949
882.505	21949
882.631	21800
882.757	21606
882.883	21660
883.01	21648
883.136	21549
883.262	21587
883.388	21435
883.514	21519
883.64	21625
883.766	21435
883.892	21287
884.018	21294
884.143	21473
884.269	21625
884.395	21222
884.52	21245
884.646	21188
884.772	21207
884.897	21123
885.023	21150
885.148	21336
885.274	21462
885.399	21321
885.524	21256
885.65	21195
885.775	21173
885.9	21241
886.025	21252
886.15	21161
886.275	21146
886.4	21108
886.525	21226
886.65	21180
886.775	21055
886.9	21310
887.025	21389
887.149	21066
887.274	21070
887.399	20998
887.523	21055
887.648	20895
887.773	20891
887.897	21074
888.021	20963
888.146	21013
888.27	21043
888.395	21207
888.519	21108
888.643	20994
888.767	20876
888.891	20765
889.015	20857
889.139	20921
889.263	20819
889.387	20807
889.511	21020
889.635	20956
889.759	20705
889.883	20876
890.006	20849
890.13	20937
890.254	20792
890.377	20621
890.501	20545
890.624	20499
890.748	20617
890.871	20495
890.995	20267
891.118	20278
891.241	20404
891.364	20336
891.488	20552
891.611	20305
891.734	20290
891.857	20434
891.98	20351
892.103	20427
892.226	20404
892.349	20252
892.471	20172
892.594	20263
892.717	20267
892.839	20168
892.962	20278
893.085	20370
893.207	20218
893.33	20183
893.452	20187
893.575	20313
893.697	20229
893.819	20408
893.941	20419
894.064	20461
894.186	20180
894.308	20069
894.43	20336
894.552	20415
894.674	20309
894.796	20263
894.918	20355
895.04	20221
895.161	20282
895.283	20286
895.405	20214
895.526	20210
895.648	20263
895.769	20233
895.891	20168
896.012	20377
896.134	20229
896.255	20336
896.376	20214
896.498	20275
896.619	20305
896.74	20259
896.861	20343
896.982	20514
897.103	20659
897.224	20549
897.345	20476
897.466	20457
897.587	20480
897.708	20663
897.828	20526
897.949	20396
898.07	20229
898.19	20412
898.311	20488
898.431	20431
898.552	20503
898.672	20571
898.792	20492
898.913	20343
899.033	20320
899.153	20229
899.273	20225
899.393	20001
899.513	20240
899.633	20122
899.753	20199
899.873	20180
899.993	20263
900.113	20176
900.232	20115
900.352	20081
900.472	19970
900.591	19902
900.711	19925
900.83	19849
900.95	20100
901.069	20046
901.189	19799
901.308	19677
901.427	19605
901.546	19540
901.665	19552
901.784	19510
901.904	19453
902.023	19289
902.141	19190
902.26	19004
902.379	19122
902.498	18951
902.617	19057
902.735	19069
902.854	19046
902.973	18970
903.091	18749
903.21	18658
903.328	18719
903.446	18635
903.565	18475
903.683	18570
903.801	18384
903.919	18532
904.038	18551
904.156	18273
904.274	18388
904.392	18369
904.51	18155
904.627	18273
904.745	18277
904.863	18300
904.981	18152
905.098	17946
905.216	18007
905.334	18045
905.451	17969
905.569	17942
905.686	17950
905.803	17935
905.921	17813
906.038	17866
906.155	17783
906.272	17680
906.389	17661
906.506	17509
906.623	17562
906.74	17444
906.857	17429
906.974	17459
907.091	17524
907.208	17627
907.324	17592
907.441	17391
907.557	17299
907.674	17212
907.79	17162
907.907	17174
908.023	17288
908.139	17185
908.256	17204
908.372	17178
908.488	17113
908.604	16915
908.72	16908
908.836	16965
908.952	16881
909.068	17037
909.184	17212
909.3	16835
909.415	16987
909.531	16915
909.647	16733
909.762	16611
909.878	16725
909.993	16573
910.108	16554
910.224	16672
910.339	16569
910.454	16584
910.57	16558
910.685	16409
910.8	16668
910.915	16531
911.03	16535
911.145	16375
911.259	16166
911.374	16333
911.489	16299
911.604	16071
911.718	16032
911.833	16078
911.947	15819
912.062	15770
912.176	15873
912.291	15941
912.405	16040
912.519	16154
912.633	16196
912.748	15975
912.862	15899
912.976	15831
913.09	15709
913.204	15846
913.318	15766
913.431	15793
913.545	15850
913.659	15922
913.772	15762
913.886	15648
914	15584
914.113	15690
914.226	15720
914.34	15709
914.453	15515
914.566	15675
914.68	15477
914.793	15435
914.906	15207
915.019	15272
915.132	15184
915.245	15188
915.358	15237
915.47	15233
915.583	15233
915.696	15180
915.809	15332
915.921	15306
916.034	15131
916.146	15112
916.259	15001
916.371	15146
916.483	15161
916.595	15100
916.708	15043
916.82	15047
916.932	14918
917.044	14979
917.156	14952
917.268	14868
917.38	14853
917.491	14842
917.603	14887
917.715	14990
917.826	14921
917.938	14689
918.049	14735
918.161	14788
918.272	14967
918.384	15047
918.495	14765
918.606	14659
918.717	14545
918.828	14663
918.939	14667
919.05	14583
919.161	14541
919.272	14404
919.383	14446
919.494	14640
919.604	14788
919.715	14583
919.826	14526
919.936	14579
920.047	14575
920.157	14587
920.267	14800
920.378	14530
920.488	14590
920.598	14750
920.708	14807
920.818	14701
920.928	14686
921.038	14876
921.148	14716
921.258	14526
921.368	14457
921.477	14343
921.587	14240
921.697	14164
921.806	14210
921.916	14115
922.025	13989
922.134	13940
922.244	13826
922.353	13993
922.462	13784
922.571	13731
922.68	13643
922.789	13518
922.898	13616
923.007	13510
923.116	13609
923.224	13590
923.333	13506
923.442	13453
923.55	13419
923.659	13453
923.767	13453
923.876	13346
923.984	13434
924.092	13369
924.201	13301
924.309	13346
924.417	13415
924.525	13259
924.633	13266
924.741	14176
924.849	13061
924.956	13190
925.064	13095
925.172	12985
925.279	13012
925.387	13027
925.494	13000
925.602	13149
925.709	13050
925.816	12970
925.924	12970
926.031	13072
926.138	12985
926.245	12985
926.352	12958
926.459	12958
926.566	13038
926.673	12882
926.779	12757
926.886	12741
926.993	12631
927.099	12589
927.206	12604
927.312	12532
927.419	12578
927.525	12570
927.631	12582
927.737	12502
927.843	12475
927.95	12365
928.056	12372
928.162	12464
928.267	12574
928.373	13061
928.479	12547
928.585	12247
928.69	12388
928.796	12410
928.901	12216
929.007	12155
929.112	12270
929.218	12209
929.323	12258
929.428	12167
929.533	12254
929.638	12098
929.743	12114
929.848	12270
929.953	12060
930.058	11973
930.163	11798
930.267	11935
930.372	11897
930.477	11805
930.581	12049
930.685	11942
930.79	11665
930.894	11783
930.998	11665
931.103	11821
931.207	11497
931.311	11364
931.415	11242
931.519	11117
931.623	11220
