Data from test_V78500241_1525.txt Node
Date: Fri Mar 25 15:20:28 CST 2022
User: usil
Spectrometer: V785-0024
Trigger mode: 0
Integration Time (sec): 4.000000E-1
Scans to average: 1
Nonlinearity correction enabled: false
Boxcar width: 0
Storing dark spectrum: false
XAxis mode: Wavelengths
Number of Pixels in Spectrum: 1024
>>>>>Begin Spectral Data<<<<<
801.071	28051
801.214	27797
801.356	27747
801.499	27599
801.641	27481
801.783	27466
801.926	27568
802.068	27466
802.211	27523
802.353	27332
802.496	27116
802.638	27077
802.78	27119
802.923	27062
803.065	27013
803.208	26998
803.35	27020
803.492	27233
803.635	27351
803.777	27135
803.919	27382
804.061	27614
804.204	27466
804.346	27245
804.488	27424
804.63	27233
804.773	27272
804.915	27291
805.057	27386
805.199	27344
805.341	27462
805.483	27610
805.626	27477
805.768	27405
805.91	27412
806.052	27405
806.194	27344
806.336	27553
806.478	27507
806.62	27439
806.762	27739
806.904	27595
807.046	27960
807.188	27880
807.33	27888
807.472	27945
807.614	27736
807.756	27755
807.898	27743
808.04	27701
808.182	27679
808.324	27705
808.465	27842
808.607	28025
808.749	28055
808.891	28109
809.033	28207
809.174	28150
809.316	27903
809.458	28078
809.6	28025
809.741	28310
809.883	28363
810.025	28310
810.166	28531
810.308	28409
810.45	28405
810.591	28352
810.733	28105
810.875	28147
811.016	27979
811.158	27854
811.299	28097
811.441	28200
811.582	28386
811.724	28086
811.865	28128
812.007	28143
812.148	28154
812.29	28090
812.431	28257
812.573	28428
812.714	28493
812.855	28599
812.997	28607
813.138	28805
813.279	28717
813.421	28820
813.562	28641
813.703	28470
813.845	28401
813.986	28006
814.127	27949
814.268	27831
814.41	27766
814.551	27717
814.692	27884
814.833	27701
814.974	27789
815.115	27842
815.256	27774
815.397	27660
815.539	27667
815.68	27709
815.821	27603
815.962	27515
816.103	27580
816.244	27370
816.385	27397
816.526	27420
816.666	27161
816.807	27081
816.948	27173
817.089	27272
817.23	27165
817.371	27119
817.512	26994
817.653	27020
817.793	27112
817.934	26857
818.075	27009
818.216	27188
818.356	27001
818.497	27043
818.638	26800
818.778	26781
818.919	26796
819.06	26899
819.2	26921
819.341	27127
819.481	27032
819.622	27074
819.762	27420
819.903	27275
820.043	27176
820.184	27184
820.324	27135
820.465	27131
820.605	27184
820.746	27096
820.886	26940
821.026	27275
821.167	27146
821.307	27089
821.447	27055
821.588	26861
821.728	26906
821.868	26758
822.008	26545
822.149	26488
822.289	26488
822.429	26195
822.569	26317
822.709	26412
822.849	26031
822.99	26092
823.13	26138
823.27	25978
823.41	25944
823.55	25833
823.69	25837
823.83	25947
823.97	25814
824.11	25704
824.25	25681
824.389	25689
824.529	25761
824.669	25761
824.809	25719
824.949	25811
825.089	25799
825.228	25731
825.368	25578
825.508	25605
825.648	25609
825.787	25556
825.927	25605
826.067	25487
826.206	25434
826.346	25552
826.485	25655
826.625	25571
826.765	25628
826.904	25605
827.044	25270
827.183	25358
827.323	25266
827.462	25430
827.601	25251
827.741	25190
827.88	25415
828.02	25122
828.159	25259
828.298	25278
828.437	25346
828.577	25297
828.716	25430
828.855	25122
828.994	25012
829.134	25027
829.273	24977
829.412	24951
829.551	24856
829.69	24989
829.829	24935
829.968	24985
830.107	24977
830.246	25148
830.385	24890
830.524	24852
830.663	24867
830.802	24681
830.941	24658
831.08	24627
831.219	24623
831.357	24635
831.496	24882
831.635	24578
831.774	24441
831.913	24388
832.051	24315
832.19	24281
832.329	24403
832.467	24391
832.606	24262
832.744	24239
832.883	24300
833.022	24247
833.16	24273
833.299	24338
833.437	24285
833.576	24311
833.714	24350
833.852	24361
833.991	24334
834.129	24292
834.267	24407
834.406	24372
834.544	24247
834.682	24308
834.821	24399
834.959	24509
835.097	24311
835.235	24247
835.373	24262
835.511	24437
835.65	24136
835.788	24224
835.926	24049
836.064	23954
836.202	23950
836.34	24140
836.478	24186
836.615	24209
836.753	24224
836.891	24262
837.029	24117
837.167	24121
837.305	24060
837.443	24186
837.58	23904
837.718	24034
837.856	24003
837.993	23939
838.131	24064
838.269	23687
838.406	23863
838.544	23832
838.681	23745
838.819	23672
838.956	23356
839.094	23486
839.231	23512
839.369	23539
839.506	23901
839.643	23695
839.781	23433
839.918	23421
840.055	23311
840.193	23429
840.33	23421
840.467	23406
840.604	23425
840.742	23691
840.879	23098
841.016	23334
841.153	23181
841.29	23528
841.427	23315
841.564	23360
841.701	23395
841.838	23341
841.975	23170
842.112	23140
842.249	23124
842.385	23010
842.522	23292
842.659	23200
842.796	23006
842.933	23124
843.069	22934
843.206	22961
843.343	23231
843.479	23162
843.616	23052
843.752	22942
843.889	22976
844.025	22949
844.162	22923
844.298	22873
844.435	22900
844.571	22896
844.708	22919
844.844	23067
844.98	22991
845.117	23018
845.253	22812
845.389	22744
845.525	22854
845.661	22702
845.798	22634
845.934	22675
846.07	22615
846.206	22577
846.342	22698
846.478	22573
846.614	22341
846.75	22325
846.886	22386
847.022	22432
847.158	22230
847.294	22455
847.429	22348
847.565	22287
847.701	22584
847.837	22055
847.972	22051
848.108	22093
848.244	22143
848.379	21888
848.515	21857
848.65	21968
848.786	22029
848.921	21998
849.057	22074
849.192	22044
849.328	21960
849.463	21895
849.598	21949
849.734	21827
849.869	21831
850.004	21679
850.14	21713
850.275	21705
850.41	21644
850.545	21675
850.68	21762
850.815	21736
850.95	21701
851.085	22036
851.22	21888
851.355	21774
851.49	21762
851.625	21614
851.76	21545
851.895	21671
852.03	21603
852.165	21587
852.299	21724
852.434	21698
852.569	21671
852.703	21644
852.838	21793
852.973	21865
853.107	21766
853.242	21583
853.376	21488
853.511	21485
853.645	21542
853.78	21587
853.914	21473
854.048	21515
854.183	21481
854.317	21542
854.451	21637
854.585	21462
854.72	21431
854.854	21526
854.988	21447
855.122	21443
855.256	21291
855.39	21583
855.524	21553
855.658	21424
855.792	21515
855.926	21477
856.06	21610
856.194	21622
856.327	21568
856.461	21389
856.595	21466
856.729	21485
856.862	21580
856.996	21519
857.13	21557
857.263	21713
857.397	21583
857.53	21416
857.664	21553
857.797	21606
857.931	21606
858.064	21507
858.197	21633
858.331	21492
858.464	21431
858.597	21443
858.731	21568
858.864	21466
858.997	21351
859.13	21633
859.263	21557
859.396	21606
859.529	21500
859.662	21477
859.795	21458
859.928	21519
860.061	21709
860.194	21720
860.327	21656
860.46	21610
860.592	21637
860.725	21713
860.858	21561
860.99	21435
861.123	21443
861.256	21538
861.388	21542
861.521	22204
861.653	21348
861.786	21256
861.918	21355
862.05	21397
862.183	21454
862.315	21492
862.447	21473
862.58	21317
862.712	21157
862.844	21298
862.976	21310
863.108	21180
863.24	21485
863.372	21150
863.504	21279
863.636	21211
863.768	21264
863.9	21211
864.032	21089
864.164	21127
864.296	21294
864.428	21348
864.559	21294
864.691	21317
864.823	21241
864.954	21173
865.086	21249
865.217	21135
865.349	21135
865.48	21287
865.612	21173
865.743	21226
865.875	21203
866.006	20998
866.137	21112
866.269	21074
866.4	20982
866.531	20998
866.662	21142
866.793	20967
866.924	21074
867.055	21043
867.186	20979
867.317	21096
867.448	20883
867.579	20979
867.71	20979
867.841	21051
867.972	21077
868.103	21135
868.233	21070
868.364	21032
868.495	21116
868.625	21313
868.756	21401
868.886	21176
869.017	21298
869.147	21408
869.278	21291
869.408	21317
869.539	21268
869.669	21359
869.799	21408
869.929	21359
870.06	21473
870.19	21591
870.32	21393
870.45	21549
870.58	21660
870.71	21789
870.84	21854
870.97	21705
871.1	21812
871.23	21823
871.36	21945
871.489	21793
871.619	21812
871.749	21941
871.879	21915
872.008	22010
872.138	21846
872.267	21808
872.397	21736
872.526	21652
872.656	21622
872.785	21625
872.915	21892
873.044	21800
873.173	21918
873.303	21975
873.432	22032
873.561	21888
873.69	21998
873.819	21934
873.948	21953
874.077	21884
874.206	21797
874.335	21903
874.464	22025
874.593	22074
874.722	22002
874.851	22013
874.979	22044
875.108	22253
875.237	22109
875.365	21975
875.494	22090
875.623	22135
875.751	21994
875.88	22032
876.008	22223
876.136	22344
876.265	22519
876.393	22721
876.521	22599
876.65	22599
876.778	22580
876.906	22390
877.034	22531
877.162	22341
877.29	22405
877.418	22485
877.546	22466
877.674	22470
877.802	22367
877.93	22573
878.058	22375
878.185	22276
878.313	22348
878.441	22409
878.568	22379
878.696	22253
878.824	22398
878.951	22519
879.079	22577
879.206	22824
879.333	22592
879.461	22367
879.588	22592
879.715	22618
879.842	22603
879.97	22485
880.097	22329
880.224	22291
880.351	22367
880.478	22287
880.605	22196
880.732	22291
880.859	22413
880.986	22276
881.112	22249
881.239	22158
881.366	22093
881.493	21956
881.619	21937
881.746	21930
881.872	21842
881.999	21835
882.125	21785
882.252	21736
882.378	21793
882.505	21983
882.631	21656
882.757	21561
882.883	21713
883.01	21511
883.136	21500
883.262	21317
883.388	21306
883.514	21568
883.64	21564
883.766	21462
883.892	21355
884.018	21260
884.143	21428
884.269	21549
884.395	21287
884.52	21176
884.646	21272
884.772	21104
884.897	21055
885.023	21199
885.148	21306
885.274	21313
885.399	21222
885.524	21268
885.65	21085
885.775	21188
885.9	21184
886.025	21180
886.15	21317
886.275	21173
886.4	20998
886.525	21127
886.65	21233
886.775	21043
886.9	21298
887.025	21336
887.149	21135
887.274	20986
887.399	20990
887.523	20982
887.648	20902
887.773	21009
887.897	20963
888.021	21051
888.146	20929
888.27	21123
888.395	20994
888.519	21161
888.643	20960
888.767	21013
888.891	20861
889.015	20765
889.139	20796
889.263	20777
889.387	20899
889.511	20834
889.635	20807
889.759	20754
889.883	20754
890.006	20743
890.13	20883
890.254	20640
890.377	20663
890.501	20571
890.624	20457
890.748	20473
890.871	20362
890.995	20294
891.118	20221
891.241	20400
891.364	20298
891.488	20522
891.611	20298
891.734	20294
891.857	20381
891.98	20385
892.103	20328
892.226	20301
892.349	20298
892.471	20142
892.594	20256
892.717	20282
892.839	20180
892.962	20244
893.085	20339
893.207	20107
893.33	20187
893.452	20126
893.575	20248
893.697	20195
893.819	20446
893.941	20484
894.064	20206
894.186	20100
894.308	20267
894.43	20240
894.552	20347
894.674	20301
894.796	20107
894.918	20157
895.04	20134
895.161	20244
895.283	20145
895.405	20157
895.526	20218
895.648	20275
895.769	20263
895.891	20221
896.012	20290
896.134	20233
896.255	20290
896.376	20058
896.498	20199
896.619	20221
896.74	20202
896.861	20370
896.982	20522
897.103	20598
897.224	20492
897.345	20556
897.466	20267
897.587	20404
897.708	20526
897.828	20484
897.949	20339
898.07	20206
898.19	20408
898.311	20419
898.431	20419
898.552	20385
898.672	20461
898.792	20518
898.913	20396
899.033	20385
899.153	20294
899.273	19955
899.393	20164
899.513	20252
899.633	20065
899.753	20180
899.873	20111
899.993	20237
900.113	20149
900.232	20229
900.352	20065
900.472	19970
900.591	19906
900.711	19970
900.83	19875
900.95	20024
901.069	19993
901.189	19856
901.308	19609
901.427	19540
901.546	19632
901.665	19460
901.784	19552
901.904	19403
902.023	19320
902.141	19160
902.26	19050
902.379	19187
902.498	19076
902.617	19057
902.735	19088
902.854	19015
902.973	19012
903.091	18692
903.21	18665
903.328	18703
903.446	18734
903.565	18513
903.683	18574
903.801	18471
903.919	18486
904.038	18490
904.156	18308
904.274	18410
904.392	18262
904.51	18300
904.627	18300
904.745	18395
904.863	18403
904.981	18136
905.098	17939
905.216	17969
905.334	17980
905.451	18030
905.569	17847
905.686	17897
905.803	18057
905.921	17668
906.038	17882
906.155	17741
906.272	17581
906.389	17745
906.506	17463
906.623	17520
906.74	17589
906.857	17364
906.974	17436
907.091	17562
907.208	17630
907.324	17524
907.441	17341
907.557	17204
907.674	17216
907.79	17212
907.907	17212
908.023	17261
908.139	17124
908.256	17178
908.372	17140
908.488	17064
908.604	16934
908.72	16900
908.836	16919
908.952	16889
909.068	16927
909.184	16980
909.3	16915
909.415	16987
909.531	16866
909.647	16736
909.762	16702
909.878	16516
909.993	16554
910.108	16645
910.224	16603
910.339	16599
910.454	16527
910.57	16455
910.685	16363
910.8	16596
910.915	16489
911.03	16432
911.145	16169
911.259	16188
911.374	16226
911.489	16188
911.604	16048
911.718	15994
911.833	15926
911.947	15842
912.062	15739
912.176	15922
912.291	16036
912.405	15880
912.519	16071
912.633	16196
912.748	15975
912.862	15926
912.976	15899
913.09	15732
913.204	15808
913.318	15793
913.431	15888
913.545	15797
913.659	15873
913.772	15759
913.886	15625
914	15610
914.113	15637
914.226	15625
914.34	15644
914.453	15481
914.566	15591
914.68	15553
914.793	15363
914.906	15256
915.019	15169
915.132	15142
915.245	15192
915.358	15306
915.47	15245
915.583	15237
915.696	15150
915.809	15173
915.921	15351
916.034	15123
916.146	15138
916.259	15070
916.371	15127
916.483	15211
916.595	14929
916.708	15066
916.82	14998
916.932	15062
917.044	15001
917.156	14933
917.268	14918
917.38	14990
917.491	14868
917.603	14910
917.715	14971
917.826	14960
917.938	14811
918.049	14655
918.161	14853
918.272	14986
918.384	14960
918.495	14807
918.606	14663
918.717	14537
918.828	14587
918.939	14632
919.05	14549
919.161	14678
919.272	14495
919.383	14427
919.494	14644
919.604	14853
919.715	14571
919.826	14484
919.936	14526
920.047	14689
920.157	14629
920.267	14845
920.378	14663
920.488	14476
920.598	14769
920.708	14792
920.818	14571
920.928	14697
921.038	14758
921.148	14686
921.258	14461
921.368	14476
921.477	14324
921.587	14324
921.697	14221
921.806	14275
921.916	14256
922.025	13986
922.134	13978
922.244	13898
922.353	13959
922.462	13868
922.571	13723
922.68	13601
922.789	13571
922.898	13651
923.007	13521
923.116	13685
923.224	13677
923.333	13594
923.442	13468
923.55	13472
923.659	13453
923.767	13483
923.876	13430
923.984	13483
924.092	13301
924.201	13438
924.309	13407
924.417	13415
924.525	13164
924.633	13297
924.741	14119
924.849	13019
924.956	13202
925.064	13164
925.172	12989
925.279	13038
925.387	13126
925.494	13034
925.602	13110
925.709	13061
925.816	12943
925.924	13000
926.031	13015
926.138	12977
926.245	12970
926.352	12867
926.459	12932
926.566	13031
926.673	13008
926.779	12749
926.886	12711
926.993	12604
927.099	12665
927.206	12627
927.312	12593
927.419	12631
927.525	12547
927.631	12738
927.737	12448
927.843	12407
927.95	12285
928.056	12311
928.162	12441
928.267	12414
928.373	13061
928.479	12483
928.585	12311
928.69	12391
928.796	12403
928.901	12262
929.007	12095
929.112	12258
929.218	12163
929.323	12125
929.428	12129
929.533	12159
929.638	12068
929.743	12114
929.848	12167
929.953	12011
930.058	11965
930.163	11729
930.267	11885
930.372	11969
930.477	11699
930.581	12045
930.685	11863
930.79	11722
930.894	11722
930.998	11684
931.103	11786
931.207	11455
931.311	11368
931.415	11280
931.519	11079
931.623	11067
