Data from test_V78500241_978.txt Node
Date: Fri Mar 25 15:16:40 CST 2022
User: usil
Spectrometer: V785-0024
Trigger mode: 0
Integration Time (sec): 4.000000E-1
Scans to average: 1
Nonlinearity correction enabled: false
Boxcar width: 0
Storing dark spectrum: false
XAxis mode: Wavelengths
Number of Pixels in Spectrum: 1024
>>>>>Begin Spectral Data<<<<<
801.071	28230
801.214	28238
801.356	27972
801.499	27930
801.641	27698
801.783	27842
801.926	27789
802.068	27781
802.211	27812
802.353	27686
802.496	27473
802.638	27431
802.78	27427
802.923	27458
803.065	27591
803.208	27511
803.35	27633
803.492	27507
803.635	27538
803.777	27656
803.919	27633
804.061	28078
804.204	27686
804.346	27660
804.488	27614
804.63	27614
804.773	27686
804.915	27690
805.057	27861
805.199	27736
805.341	27717
805.483	27797
805.626	27816
805.768	27614
805.91	27770
806.052	27686
806.194	27876
806.336	27972
806.478	27865
806.62	27926
806.762	27991
806.904	28257
807.046	28310
807.188	28215
807.33	28215
807.472	28257
807.614	28207
807.756	28337
807.898	28211
808.04	27979
808.182	28238
808.324	28200
808.465	28291
808.607	28314
808.749	28440
808.891	28516
809.033	28713
809.174	28512
809.316	28504
809.458	28512
809.6	28466
809.741	28577
809.883	28664
810.025	28755
810.166	28611
810.308	28820
810.45	28892
810.591	28729
810.733	28599
810.875	28523
811.016	28459
811.158	28401
811.299	28637
811.441	28668
811.582	28626
811.724	28500
811.865	28474
812.007	28599
812.148	28596
812.29	28615
812.431	28603
812.573	28900
812.714	28923
812.855	29094
812.997	29140
813.138	29421
813.279	29220
813.421	29003
813.562	29067
813.703	28888
813.845	28805
813.986	28443
814.127	28280
814.268	28177
814.41	28394
814.551	28074
814.692	28310
814.833	28318
814.974	28306
815.115	28291
815.256	28010
815.397	28017
815.539	28211
815.68	28006
815.821	27979
815.962	28268
816.103	28082
816.244	27892
816.385	27873
816.526	27911
816.666	27686
816.807	27694
816.948	27603
817.089	27701
817.23	27614
817.371	27564
817.512	27435
817.653	27603
817.793	27515
817.934	27572
818.075	27500
818.216	27660
818.356	27572
818.497	27405
818.638	27252
818.778	27268
818.919	27306
819.06	27348
819.2	27538
819.341	27450
819.481	27553
819.622	27778
819.762	27857
819.903	27732
820.043	27808
820.184	27694
820.324	27595
820.465	27606
820.605	27686
820.746	27842
820.886	27648
821.026	27705
821.167	27580
821.307	27804
821.447	27439
821.588	27515
821.728	27310
821.868	27252
822.008	27005
822.149	26918
822.289	26944
822.429	26762
822.569	26785
822.709	26644
822.849	26492
822.99	26461
823.13	26503
823.27	26427
823.41	26256
823.55	26225
823.69	26347
823.83	26305
823.97	26393
824.11	26290
824.25	26195
824.389	26130
824.529	26381
824.669	26153
824.809	26332
824.949	26248
825.089	26271
825.228	26199
825.368	26138
825.508	26046
825.648	26126
825.787	26088
825.927	26035
826.067	25970
826.206	25970
826.346	26130
826.485	26050
826.625	26157
826.765	26107
826.904	26111
827.044	25944
827.183	25902
827.323	25868
827.462	25871
827.601	25841
827.741	25830
827.88	25811
828.02	25586
828.159	25700
828.298	25655
828.437	25860
828.577	25742
828.716	25902
828.855	25719
828.994	25521
829.134	25499
829.273	25521
829.412	25460
829.551	25373
829.69	25605
829.829	25525
829.968	25601
830.107	25422
830.246	25499
830.385	25365
830.524	25434
830.663	25274
830.802	25339
830.941	25080
831.08	25091
831.219	25335
831.357	25240
831.496	25308
831.635	25114
831.774	25034
831.913	25000
832.051	24878
832.19	24901
832.329	24966
832.467	24856
832.606	24707
832.744	24730
832.883	24627
833.022	24817
833.16	24749
833.299	24958
833.437	24871
833.576	24920
833.714	24875
833.852	24939
833.991	25015
834.129	24863
834.267	24924
834.406	24932
834.544	24901
834.682	24928
834.821	24928
834.959	25091
835.097	24802
835.235	24772
835.373	24867
835.511	24791
835.65	24764
835.788	24707
835.926	24620
836.064	24418
836.202	24612
836.34	24673
836.478	24833
836.615	24646
836.753	24566
836.891	24734
837.029	24722
837.167	24635
837.305	24555
837.443	24658
837.58	24494
837.718	24608
837.856	24414
837.993	24525
838.131	24448
838.269	24357
838.406	24445
838.544	24372
838.681	24159
838.819	24155
838.956	24087
839.094	23969
839.231	24117
839.369	24148
839.506	24289
839.643	24273
839.781	24018
839.918	23942
840.055	23946
840.193	23901
840.33	23882
840.467	23927
840.604	23920
840.742	24201
840.879	23783
841.016	23897
841.153	23821
841.29	24068
841.427	23950
841.564	23901
841.701	24003
841.838	23821
841.975	23828
842.112	23824
842.249	23703
842.385	23627
842.522	23851
842.659	23828
842.796	23661
842.933	23581
843.069	23573
843.206	23661
843.343	23779
843.479	23691
843.616	23539
843.752	23391
843.889	23402
844.025	23615
844.162	23398
844.298	23558
844.435	23448
844.571	23459
844.708	23528
844.844	23665
844.98	23615
845.117	23493
845.253	23512
845.389	23239
845.525	23330
845.661	23296
845.798	23254
845.934	23220
846.07	23204
846.206	23170
846.342	23273
846.478	23037
846.614	23022
846.75	22927
846.886	22839
847.022	22961
847.158	22923
847.294	22953
847.429	23105
847.565	22847
847.701	23220
847.837	22660
847.972	22641
848.108	22736
848.244	22733
848.379	22580
848.515	22451
848.65	22424
848.786	22455
848.921	22546
849.057	22519
849.192	22550
849.328	22577
849.463	22584
849.598	22497
849.734	22356
849.869	22405
850.004	22223
850.14	22219
850.275	22268
850.41	22173
850.545	22303
850.68	22268
850.815	22382
850.95	22166
851.085	22470
851.22	22386
851.355	22280
851.49	22204
851.625	22265
851.76	22310
851.895	22150
852.03	22192
852.165	22284
852.299	22341
852.434	22394
852.569	22306
852.703	22299
852.838	22325
852.973	22333
853.107	22375
853.242	22207
853.376	22154
853.511	21964
853.645	21983
853.78	22169
853.914	22086
854.048	22078
854.183	22040
854.317	22078
854.451	22238
854.585	22017
854.72	21899
854.854	22147
854.988	21983
855.122	22162
855.256	21960
855.39	22051
855.524	22116
855.658	22120
855.792	22070
855.926	22128
856.06	22223
856.194	22139
856.327	21979
856.461	21994
856.595	22051
856.729	21918
856.862	22249
856.996	22131
857.13	22112
857.263	22261
857.397	22185
857.53	22093
857.664	22173
857.797	22158
857.931	22280
858.064	22158
858.197	22162
858.331	22063
858.464	21884
858.597	21922
858.731	22032
858.864	22154
858.997	22051
859.13	22025
859.263	22063
859.396	22185
859.529	22097
859.662	22025
859.795	22120
859.928	22120
860.061	22226
860.194	22162
860.327	22200
860.46	22082
860.592	22265
860.725	22150
860.858	22314
860.99	22120
861.123	22044
861.256	22017
861.388	22078
861.521	22710
861.653	21793
861.786	21857
861.918	21979
862.05	21968
862.183	22010
862.315	21994
862.447	22070
862.58	21888
862.712	21778
862.844	21690
862.976	21937
863.108	21903
863.24	22078
863.372	21675
863.504	21717
863.636	21701
863.768	21762
863.9	21850
864.032	21739
864.164	21812
864.296	21709
864.428	21880
864.559	21880
864.691	21842
864.823	21857
864.954	21880
865.086	21648
865.217	21804
865.349	21698
865.48	21728
865.612	21743
865.743	21838
865.875	21701
866.006	21701
866.137	21637
866.269	21644
866.4	21599
866.531	21553
866.662	21511
866.793	21701
866.924	21622
867.055	21675
867.186	21488
867.317	21519
867.448	21469
867.579	21538
867.71	21648
867.841	21530
867.972	21603
868.103	21599
868.233	21675
868.364	21625
868.495	21671
868.625	21823
868.756	21892
868.886	21797
869.017	21895
869.147	21835
869.278	22051
869.408	21759
869.539	21907
869.669	21956
869.799	21956
869.929	21972
870.06	21953
870.19	22135
870.32	22112
870.45	22219
870.58	22196
870.71	22310
870.84	22371
870.97	22295
871.1	22268
871.23	22424
871.36	22478
871.489	22356
871.619	22455
871.749	22424
871.879	22428
872.008	22447
872.138	22363
872.267	22398
872.397	22276
872.526	22272
872.656	22215
872.785	22409
872.915	22580
873.044	22527
873.173	22386
873.303	22485
873.432	22455
873.561	22542
873.69	22523
873.819	22424
873.948	22531
874.077	22462
874.206	22394
874.335	22367
874.464	22557
874.593	22637
874.722	22618
874.851	22660
874.979	22691
875.108	22713
875.237	22580
875.365	22516
875.494	22554
875.623	22637
875.751	22466
875.88	22736
876.008	22721
876.136	22847
876.265	23048
876.393	23303
876.521	23041
876.65	23071
876.778	22999
876.906	23018
877.034	22953
877.162	23052
877.29	22991
877.418	23048
877.546	23090
877.674	22957
877.802	22942
877.93	23006
878.058	23033
878.185	22763
878.313	22911
878.441	23208
878.568	22858
878.696	22858
878.824	22991
878.951	23136
879.079	23109
879.206	23277
879.333	23151
879.461	22976
879.588	23117
879.715	23162
879.842	23269
879.97	22999
880.097	22805
880.224	22710
880.351	22710
880.478	22919
880.605	22824
880.732	22752
880.859	23006
880.986	22778
881.112	22824
881.239	22668
881.366	22618
881.493	22504
881.619	22398
881.746	22424
881.872	22344
881.999	22356
882.125	22295
882.252	22310
882.378	22382
882.505	22440
882.631	22242
882.757	22059
882.883	22211
883.01	22074
883.136	22067
883.262	21998
883.388	21907
883.514	22070
883.64	22116
883.766	21903
883.892	21964
884.018	21850
884.143	22074
884.269	22044
884.395	21873
884.52	21717
884.646	21747
884.772	21701
884.897	21614
885.023	21717
885.148	21819
885.274	21892
885.399	21766
885.524	21747
885.65	21766
885.775	21667
885.9	21675
886.025	21736
886.15	21854
886.275	21663
886.4	21728
886.525	21622
886.65	21675
886.775	21595
886.9	21842
887.025	21949
887.149	21606
887.274	21477
887.399	21500
887.523	21583
887.648	21450
887.773	21340
887.897	21542
888.021	21557
888.146	21458
888.27	21534
888.395	21549
888.519	21477
888.643	21519
888.767	21523
888.891	21462
889.015	21119
889.139	21405
889.263	21233
889.387	21211
889.511	21523
889.635	21386
889.759	21230
889.883	21222
890.006	21298
890.13	21412
890.254	21199
890.377	21138
890.501	21005
890.624	20952
890.748	21089
890.871	20842
890.995	20708
891.118	20689
891.241	20914
891.364	20891
891.488	20876
891.611	20746
891.734	20830
891.857	20876
891.98	20754
892.103	20777
892.226	20876
892.349	20727
892.471	20727
892.594	20781
892.717	20765
892.839	20686
892.962	20773
893.085	20758
893.207	20762
893.33	20659
893.452	20606
893.575	20739
893.697	20629
893.819	20731
893.941	21036
894.064	20853
894.186	20636
894.308	20651
894.43	20826
894.552	20689
894.674	20819
894.796	20617
894.918	20701
895.04	20731
895.161	20708
895.283	20754
895.405	20651
895.526	20659
895.648	20689
895.769	20823
895.891	20651
896.012	20678
896.134	20712
896.255	20823
896.376	20648
896.498	20598
896.619	20716
896.74	20754
896.861	20678
896.982	20902
897.103	21180
897.224	20895
897.345	20925
897.466	20750
897.587	20948
897.708	21096
897.828	20895
897.949	20762
898.07	20746
898.19	20697
898.311	21032
898.431	20686
898.552	20933
898.672	21077
898.792	20933
898.913	20906
899.033	20788
899.153	20667
899.273	20606
899.393	20693
899.513	20739
899.633	20613
899.753	20659
899.873	20431
899.993	20651
900.113	20667
900.232	20640
900.352	20522
900.472	20450
900.591	20343
900.711	20423
900.83	20381
900.95	20442
901.069	20648
901.189	20282
901.308	20020
901.427	19970
901.546	20107
901.665	19993
901.784	20024
901.904	19860
902.023	19750
902.141	19658
902.26	19556
902.379	19605
902.498	19495
902.617	19403
902.735	19529
902.854	19502
902.973	19373
903.091	19228
903.21	19168
903.328	19168
903.446	19179
903.565	18977
903.683	18920
903.801	18798
903.919	18856
904.038	18856
904.156	18894
904.274	18749
904.392	18700
904.51	18707
904.627	18719
904.745	18757
904.863	18783
904.981	18525
905.098	18437
905.216	18494
905.334	18433
905.451	18483
905.569	18452
905.686	18304
905.803	18418
905.921	18106
906.038	18327
906.155	18330
906.272	18152
906.389	18220
906.506	18011
906.623	17939
906.74	17946
906.857	17805
906.974	17859
907.091	17961
907.208	18068
907.324	17969
907.441	17828
907.557	17714
907.674	17710
907.79	17592
907.907	17554
908.023	17748
908.139	17722
908.256	17657
908.372	17474
908.488	17581
908.604	17459
908.72	17273
908.836	17455
908.952	17391
909.068	17414
909.184	17509
909.3	17383
909.415	17391
909.531	17311
909.647	17185
909.762	17025
909.878	17052
909.993	17147
910.108	16961
910.224	17098
910.339	17045
910.454	16961
910.57	16953
910.685	16896
910.8	17166
910.915	16995
911.03	16972
911.145	16679
911.259	16679
911.374	16550
911.489	16698
911.604	16508
911.718	16367
911.833	16516
911.947	16306
912.062	16223
912.176	16428
912.291	16497
912.405	16341
912.519	16577
912.633	16611
912.748	16341
912.862	16318
912.976	16249
913.09	16082
913.204	16238
913.318	16234
913.431	16280
913.545	16230
913.659	16219
913.772	16169
913.886	16093
914	16017
914.113	16036
914.226	16173
914.34	16173
914.453	15899
914.566	16036
914.68	15960
914.793	15835
914.906	15576
915.019	15492
915.132	15633
915.245	15568
915.358	15656
915.47	15584
915.583	15557
915.696	15568
915.809	15701
915.921	15755
916.034	15542
916.146	15462
916.259	15519
916.371	15618
916.483	15557
916.595	15458
916.708	15481
916.82	15420
916.932	15408
917.044	15348
917.156	15332
917.268	15214
917.38	15169
917.491	15192
917.603	15268
917.715	15268
917.826	15207
917.938	15112
918.049	15097
918.161	15199
918.272	15249
918.384	15230
918.495	15097
918.606	15005
918.717	14948
918.828	15062
918.939	15039
919.05	14864
919.161	14952
919.272	14750
919.383	14800
919.494	14918
919.604	15199
919.715	14994
919.826	14952
919.936	14895
920.047	14971
920.157	14891
920.267	15089
920.378	14914
920.488	14891
920.598	15032
920.708	15272
920.818	15047
920.928	15119
921.038	15256
921.148	15135
921.258	14823
921.368	14811
921.477	14712
921.587	14594
921.697	14419
921.806	14590
921.916	14507
922.025	14320
922.134	14396
922.244	14290
922.353	14278
922.462	14187
922.571	14126
922.68	13974
922.789	13921
922.898	14001
923.007	13849
923.116	14027
923.224	13921
923.333	13936
923.442	13894
923.55	13769
923.659	13757
923.767	13902
923.876	13681
923.984	13856
924.092	13628
924.201	13696
924.309	13700
924.417	13704
924.525	13537
924.633	13544
924.741	14579
924.849	13381
924.956	13533
925.064	13377
925.172	13320
925.279	13377
925.387	13343
925.494	13225
925.602	13388
925.709	13346
925.816	13194
925.924	13232
926.031	13335
926.138	13278
926.245	13282
926.352	13137
926.459	13301
926.566	13335
926.673	13175
926.779	13065
926.886	12954
926.993	12993
927.099	12817
927.206	12859
927.312	12905
927.419	12973
927.525	12886
927.631	12859
927.737	12837
927.843	12650
927.95	12582
928.056	12566
928.162	12589
928.267	12741
928.373	13400
928.479	12711
928.585	12574
928.69	12612
928.796	12681
928.901	12555
929.007	12388
929.112	12509
929.218	12540
929.323	12471
929.428	12395
929.533	12475
929.638	12281
929.743	12399
929.848	12410
929.953	12338
930.058	12308
930.163	12038
930.267	12068
930.372	12327
930.477	11988
930.581	12270
930.685	12125
930.79	11931
930.894	12019
930.998	11988
931.103	12045
931.207	11710
931.311	11619
931.415	11505
931.519	11288
931.623	11322
