Data from test_V78500241_1438.txt Node
Date: Fri Mar 25 15:19:52 CST 2022
User: usil
Spectrometer: V785-0024
Trigger mode: 0
Integration Time (sec): 4.000000E-1
Scans to average: 1
Nonlinearity correction enabled: false
Boxcar width: 0
Storing dark spectrum: false
XAxis mode: Wavelengths
Number of Pixels in Spectrum: 1024
>>>>>Begin Spectral Data<<<<<
801.071	28246
801.214	27926
801.356	27827
801.499	27720
801.641	27671
801.783	27603
801.926	27739
802.068	27667
802.211	27530
802.353	27530
802.496	27298
802.638	27275
802.78	27233
802.923	27245
803.065	27283
803.208	27165
803.35	27344
803.492	27412
803.635	27526
803.777	27321
803.919	27450
804.061	27759
804.204	27507
804.346	27401
804.488	27317
804.63	27523
804.773	27439
804.915	27515
805.057	27462
805.199	27473
805.341	27633
805.483	27724
805.626	27606
805.768	27466
805.91	27652
806.052	27610
806.194	27637
806.336	27743
806.478	27759
806.62	27637
806.762	27610
806.904	27918
807.046	28173
807.188	28086
807.33	28025
807.472	28150
807.614	28032
807.756	27956
807.898	27968
808.04	27876
808.182	27930
808.324	27968
808.465	27994
808.607	28162
808.749	28272
808.891	28466
809.033	28379
809.174	28390
809.316	28207
809.458	28223
809.6	28246
809.741	28432
809.883	28318
810.025	28637
810.166	28554
810.308	28542
810.45	28599
810.591	28421
810.733	28398
810.875	28223
811.016	28196
811.158	28154
811.299	28322
811.441	28432
811.582	28451
811.724	28306
811.865	28272
812.007	28226
812.148	28215
812.29	28287
812.431	28432
812.573	28626
812.714	28698
812.855	28809
812.997	28927
813.138	28987
813.279	28934
813.421	28957
813.562	28725
813.703	28740
813.845	28557
813.986	28367
814.127	28215
814.268	27994
814.41	28074
814.551	27918
814.692	28188
814.833	28048
814.974	27968
815.115	28021
815.256	27880
815.397	27865
815.539	27994
815.68	27690
815.821	27884
815.962	27816
816.103	27778
816.244	27648
816.385	27637
816.526	27663
816.666	27454
816.807	27161
816.948	27173
817.089	27435
817.23	27294
817.371	27329
817.512	27230
817.653	27192
817.793	27252
817.934	27370
818.075	27336
818.216	27264
818.356	27195
818.497	27055
818.638	26914
818.778	27028
818.919	27013
819.06	27146
819.2	27214
819.341	27359
819.481	27279
819.622	27443
819.762	27595
819.903	27393
820.043	27477
820.184	27412
820.324	27317
820.465	27515
820.605	27370
820.746	27401
820.886	27268
821.026	27424
821.167	27317
821.307	27408
821.447	27218
821.588	27218
821.728	27123
821.868	27096
822.008	26754
822.149	26720
822.289	26800
822.429	26484
822.569	26389
822.709	26480
822.849	26218
822.99	26465
823.13	26187
823.27	26248
823.41	26161
823.55	25890
823.69	26107
823.83	26206
823.97	26111
824.11	26016
824.25	25860
824.389	25852
824.529	26126
824.669	25940
824.809	26183
824.949	26020
825.089	26115
825.228	25959
825.368	25708
825.508	25681
825.648	25689
825.787	25826
825.927	25932
826.067	25704
826.206	25757
826.346	25856
826.485	25826
826.625	25643
826.765	25913
826.904	25757
827.044	25575
827.183	25544
827.323	25499
827.462	25616
827.601	25533
827.741	25487
827.88	25438
828.02	25464
828.159	25540
828.298	25525
828.437	25670
828.577	25495
828.716	25582
828.855	25518
828.994	25247
829.134	25175
829.273	25209
829.412	25171
829.551	25225
829.69	25175
829.829	25320
829.968	25293
830.107	25187
830.246	25259
830.385	25171
830.524	25209
830.663	25012
830.802	24962
830.941	24886
831.08	24810
831.219	24867
831.357	24787
831.496	25065
831.635	24837
831.774	24703
831.913	24711
832.051	24730
832.19	24700
832.329	24582
832.467	24563
832.606	24502
832.744	24570
832.883	24585
833.022	24597
833.16	24395
833.299	24513
833.437	24505
833.576	24673
833.714	24612
833.852	24612
833.991	24521
834.129	24505
834.267	24547
834.406	24559
834.544	24483
834.682	24544
834.821	24631
834.959	24760
835.097	24433
835.235	24559
835.373	24502
835.511	24525
835.65	24426
835.788	24361
835.926	24357
836.064	24057
836.202	24209
836.34	24452
836.478	24471
836.615	24380
836.753	24334
836.891	24372
837.029	24426
837.167	24289
837.305	24410
837.443	24315
837.58	24186
837.718	24338
837.856	24338
837.993	24243
838.131	24140
838.269	23897
838.406	24243
838.544	23999
838.681	23893
838.819	23874
838.956	23604
839.094	23615
839.231	23775
839.369	23843
839.506	24079
839.643	23874
839.781	23695
839.918	23573
840.055	23672
840.193	23657
840.33	23665
840.467	23554
840.604	23710
840.742	23828
840.879	23501
841.016	23657
841.153	23490
841.29	23665
841.427	23600
841.564	23737
841.701	23520
841.838	23524
841.975	23611
842.112	23512
842.249	23387
842.385	23292
842.522	23410
842.659	23345
842.796	23239
842.933	23421
843.069	23200
843.206	23269
843.343	23398
843.479	23356
843.616	23364
843.752	23044
843.889	23159
844.025	23311
844.162	23060
844.298	23124
844.435	23083
844.571	23102
844.708	23178
844.844	23265
844.98	23200
845.117	23246
845.253	23022
845.389	22946
845.525	23006
845.661	22892
845.798	22771
845.934	22877
846.07	22721
846.206	22778
846.342	23003
846.478	22790
846.614	22664
846.75	22561
846.886	22599
847.022	22672
847.158	22706
847.294	22565
847.429	22668
847.565	22523
847.701	22782
847.837	22276
847.972	22223
848.108	22341
848.244	22508
848.379	22226
848.515	22097
848.65	22010
848.786	22048
848.921	22230
849.057	22181
849.192	22204
849.328	22112
849.463	22006
849.598	22002
849.734	22013
849.869	22078
850.004	21960
850.14	21960
850.275	21983
850.41	21831
850.545	21793
850.68	21884
850.815	21934
850.95	21960
851.085	22090
851.22	22124
851.355	21876
851.49	21998
851.625	21766
851.76	21755
851.895	22025
852.03	21816
852.165	21876
852.299	21873
852.434	21953
852.569	21983
852.703	21918
852.838	21816
852.973	21979
853.107	22067
853.242	21911
853.376	21808
853.511	21625
853.645	21778
853.78	21854
853.914	21762
854.048	21831
854.183	21739
854.317	21717
854.451	21861
854.585	21751
854.72	21755
854.854	21766
854.988	21580
855.122	21755
855.256	21519
855.39	21755
855.524	21804
855.658	21705
855.792	21876
855.926	21800
856.06	21739
856.194	21774
856.327	21660
856.461	21641
856.595	21625
856.729	21804
856.862	21823
856.996	21827
857.13	21785
857.263	21835
857.397	21831
857.53	21622
857.664	21800
857.797	21804
857.931	21842
858.064	21835
858.197	21797
858.331	21690
858.464	21637
858.597	21793
858.731	21732
858.864	21671
858.997	21663
859.13	21618
859.263	21797
859.396	21717
859.529	21785
859.662	21610
859.795	21576
859.928	21778
860.061	21907
860.194	21892
860.327	21895
860.46	21720
860.592	21823
860.725	21888
860.858	21903
860.99	21789
861.123	21595
861.256	21732
861.388	21713
861.521	22192
861.653	21549
861.786	21485
861.918	21523
862.05	21545
862.183	21739
862.315	21591
862.447	21679
862.58	21564
862.712	21435
862.844	21458
862.976	21526
863.108	21462
863.24	21861
863.372	21397
863.504	21496
863.636	21351
863.768	21538
863.9	21393
864.032	21412
864.164	21420
864.296	21511
864.428	21519
864.559	21564
864.691	21545
864.823	21408
864.954	21477
865.086	21344
865.217	21340
865.349	21332
865.48	21325
865.612	21329
865.743	21458
865.875	21416
866.006	21237
866.137	21351
866.269	21283
866.4	21435
866.531	21272
866.662	21226
866.793	21302
866.924	21294
867.055	21393
867.186	21344
867.317	21150
867.448	21142
867.579	21256
867.71	21207
867.841	21199
867.972	21294
868.103	21127
868.233	21313
868.364	21256
868.495	21298
868.625	21477
868.756	21572
868.886	21473
869.017	21363
869.147	21519
869.278	21587
869.408	21530
869.539	21450
869.669	21603
869.799	21595
869.929	21568
870.06	21610
870.19	21918
870.32	21793
870.45	21713
870.58	21835
870.71	22051
870.84	22006
870.97	21892
871.1	21823
871.23	21960
871.36	22109
871.489	21869
871.619	22124
871.749	22158
871.879	22109
872.008	22124
872.138	22173
872.267	22063
872.397	22048
872.526	21876
872.656	21785
872.785	21922
872.915	22055
873.044	22166
873.173	22074
873.303	22109
873.432	22177
873.561	22257
873.69	22051
873.819	22055
873.948	22162
874.077	22067
874.206	22063
874.335	22207
874.464	22192
874.593	22280
874.722	22207
874.851	22398
874.979	22394
875.108	22265
875.237	22333
875.365	22154
875.494	22322
875.623	22394
875.751	22257
875.88	22207
876.008	22459
876.136	22527
876.265	22577
876.393	22858
876.521	22733
876.65	22839
876.778	22603
876.906	22706
877.034	22504
877.162	22630
877.29	22618
877.418	22516
877.546	22729
877.674	22649
877.802	22641
877.93	22649
878.058	22580
878.185	22546
878.313	22622
878.441	22733
878.568	22481
878.696	22618
878.824	22672
878.951	22748
879.079	22889
879.206	22885
879.333	22828
879.461	22683
879.588	22744
879.715	22835
879.842	22900
879.97	22713
880.097	22535
880.224	22394
880.351	22523
880.478	22489
880.605	22443
880.732	22417
880.859	22729
880.986	22462
881.112	22538
881.239	22287
881.366	22188
881.493	22166
881.619	22055
881.746	22029
881.872	22044
881.999	21979
882.125	21983
882.252	22055
882.378	22044
882.505	22124
882.631	21804
882.757	21884
882.883	21861
883.01	21797
883.136	21724
883.262	21530
883.388	21614
883.514	21778
883.64	21720
883.766	21606
883.892	21587
884.018	21610
884.143	21781
884.269	21690
884.395	21435
884.52	21279
884.646	21454
884.772	21443
884.897	21317
885.023	21298
885.148	21500
885.274	21538
885.399	21526
885.524	21412
885.65	21439
885.775	21329
885.9	21294
886.025	21348
886.15	21386
886.275	21199
886.4	21252
886.525	21382
886.65	21321
886.775	21435
886.9	21393
887.025	21408
887.149	21313
887.274	21203
887.399	21157
887.523	21108
887.648	21077
887.773	21112
887.897	21203
888.021	21268
888.146	21096
888.27	21260
888.395	21222
888.519	21116
888.643	21169
888.767	21100
888.891	21024
889.015	20921
889.139	21043
889.263	20861
889.387	21077
889.511	21150
889.635	21062
889.759	20952
889.883	20842
890.006	21047
890.13	20952
890.254	20971
890.377	20765
890.501	20674
890.624	20693
890.748	20830
890.871	20522
890.995	20480
891.118	20473
891.241	20476
891.364	20545
891.488	20583
891.611	20450
891.734	20579
891.857	20488
891.98	20545
892.103	20465
892.226	20518
892.349	20434
892.471	20377
892.594	20465
892.717	20450
892.839	20351
892.962	20408
893.085	20537
893.207	20374
893.33	20168
893.452	20309
893.575	20514
893.697	20313
893.819	20636
893.941	20598
894.064	20587
894.186	20229
894.308	20290
894.43	20419
894.552	20545
894.674	20507
894.796	20278
894.918	20305
895.04	20362
895.161	20461
895.283	20434
895.405	20275
895.526	20298
895.648	20393
895.769	20454
895.891	20507
896.012	20533
896.134	20358
896.255	20336
896.376	20328
896.498	20381
896.619	20450
896.74	20514
896.861	20488
896.982	20632
897.103	20667
897.224	20750
897.345	20594
897.466	20545
897.587	20594
897.708	20674
897.828	20587
897.949	20530
898.07	20393
898.19	20492
898.311	20648
898.431	20549
898.552	20655
898.672	20689
898.792	20701
898.913	20632
899.033	20415
899.153	20385
899.273	20305
899.393	20263
899.513	20381
899.633	20225
899.753	20366
899.873	20328
899.993	20313
900.113	20233
900.232	20370
900.352	20221
900.472	20210
900.591	20145
900.711	20187
900.83	19989
900.95	20267
901.069	20065
901.189	20119
901.308	19788
901.427	19753
901.546	19761
901.665	19788
901.784	19734
901.904	19533
902.023	19384
902.141	19225
902.26	19282
902.379	19297
902.498	19251
902.617	19297
902.735	19183
902.854	19297
902.973	19194
903.091	18966
903.21	18909
903.328	18935
903.446	18787
903.565	18669
903.683	18677
903.801	18532
903.919	18555
904.038	18692
904.156	18422
904.274	18570
904.392	18528
904.51	18437
904.627	18376
904.745	18517
904.863	18353
904.981	18194
905.098	18038
905.216	18129
905.334	18258
905.451	18068
905.569	18121
905.686	18102
905.803	18076
905.921	17847
906.038	17984
906.155	17965
906.272	17813
906.389	17904
906.506	17649
906.623	17581
906.74	17627
906.857	17589
906.974	17653
907.091	17745
907.208	17809
907.324	17573
907.441	17459
907.557	17376
907.674	17421
907.79	17364
907.907	17246
908.023	17356
908.139	17398
908.256	17265
908.372	17220
908.488	17143
908.604	17174
908.72	17075
908.836	17056
908.952	17037
909.068	17140
909.184	17090
909.3	17041
909.415	17056
909.531	17075
909.647	16820
909.762	16866
909.878	16706
909.993	16805
910.108	16778
910.224	16755
910.339	16763
910.454	16603
910.57	16618
910.685	16440
910.8	16831
910.915	16698
911.03	16577
911.145	16443
911.259	16409
911.374	16402
911.489	16261
911.604	16150
911.718	16124
911.833	16055
911.947	15941
912.062	15937
912.176	16074
912.291	16044
912.405	15987
912.519	16333
912.633	16280
912.748	16071
912.862	16093
912.976	15972
913.09	15797
913.204	15819
913.318	16006
913.431	16032
913.545	16021
913.659	16162
913.772	15804
913.886	15751
914	15690
914.113	15679
914.226	15850
914.34	15800
914.453	15618
914.566	15755
914.68	15557
914.793	15553
914.906	15382
915.019	15287
915.132	15260
915.245	15313
915.358	15302
915.47	15306
915.583	15420
915.696	15382
915.809	15401
915.921	15439
916.034	15245
916.146	15142
916.259	15199
916.371	15348
916.483	15279
916.595	15116
916.708	15211
916.82	15142
916.932	15135
917.044	15180
917.156	15070
917.268	14944
917.38	15001
917.491	14849
917.603	14925
917.715	15093
917.826	14948
917.938	14941
918.049	14823
918.161	14956
918.272	14971
918.384	14925
918.495	14910
918.606	14796
918.717	14697
918.828	14826
918.939	14712
919.05	14644
919.161	14693
919.272	14503
919.383	14575
919.494	14769
919.604	14883
919.715	14739
919.826	14648
919.936	14648
920.047	14773
920.157	14678
920.267	14842
920.378	14750
920.488	14678
920.598	14864
920.708	14895
920.818	14785
920.928	14883
921.038	14910
921.148	14918
921.258	14701
921.368	14560
921.477	14446
921.587	14358
921.697	14267
921.806	14423
921.916	14305
922.025	14103
922.134	14069
922.244	13951
922.353	14168
922.462	13898
922.571	13913
922.68	13750
922.789	13727
922.898	13662
923.007	13636
923.116	13647
923.224	13666
923.333	13666
923.442	13544
923.55	13590
923.659	13582
923.767	13628
923.876	13537
923.984	13636
924.092	13373
924.201	13521
924.309	13510
924.417	13403
924.525	13358
924.633	13358
924.741	14168
924.849	13202
924.956	13293
925.064	13164
925.172	13110
925.279	13122
925.387	13099
925.494	13126
925.602	13228
925.709	13031
925.816	12993
925.924	13019
926.031	13103
926.138	12962
926.245	13019
926.352	12882
926.459	13091
926.566	13099
926.673	13038
926.779	12840
926.886	12878
926.993	12715
927.099	12620
927.206	12582
927.312	12585
927.419	12642
927.525	12593
927.631	12673
927.737	12506
927.843	12521
927.95	12448
928.056	12479
928.162	12555
928.267	12574
928.373	12977
928.479	12563
928.585	12304
928.69	12452
928.796	12525
928.901	12376
929.007	12133
929.112	12376
929.218	12323
929.323	12228
929.428	12232
929.533	12319
929.638	12205
929.743	12201
929.848	12209
929.953	12079
930.058	11980
930.163	11851
930.267	11855
930.372	11977
930.477	11893
930.581	12079
930.685	11908
930.79	11764
930.894	11855
930.998	11703
931.103	11935
931.207	11566
931.311	11398
931.415	11402
931.519	11178
931.623	11143
