Data from test_V78500241_3102.txt Node
Date: Fri Mar 25 15:31:27 CST 2022
User: usil
Spectrometer: V785-0024
Trigger mode: 0
Integration Time (sec): 4.000000E-1
Scans to average: 1
Nonlinearity correction enabled: false
Boxcar width: 0
Storing dark spectrum: false
XAxis mode: Wavelengths
Number of Pixels in Spectrum: 1024
>>>>>Begin Spectral Data<<<<<
801.071	26648
801.214	26724
801.356	26396
801.499	26412
801.641	26267
801.783	26351
801.926	26301
802.068	26358
802.211	26126
802.353	26214
802.496	25944
802.638	25830
802.78	25791
802.923	25750
803.065	25753
803.208	25833
803.35	25734
803.492	25917
803.635	25951
803.777	26001
803.919	26012
804.061	26317
804.204	26035
804.346	25989
804.488	25894
804.63	25898
804.773	25856
804.915	25989
805.057	25989
805.199	25955
805.341	26024
805.483	25932
805.626	25978
805.768	25925
805.91	26001
806.052	26062
806.194	25898
806.336	26218
806.478	26035
806.62	26008
806.762	26248
806.904	26320
807.046	26587
807.188	26453
807.33	26499
807.472	26568
807.614	26343
807.756	26328
807.898	26275
808.04	26153
808.182	26358
808.324	26168
808.465	26366
808.607	26518
808.749	26541
808.891	26724
809.033	26769
809.174	26845
809.316	26564
809.458	26549
809.6	26655
809.741	26781
809.883	26720
810.025	26724
810.166	26819
810.308	26952
810.45	26906
810.591	26868
810.733	26575
810.875	26587
811.016	26541
811.158	26507
811.299	26609
811.441	26590
811.582	26739
811.724	26545
811.865	26549
812.007	26590
812.148	26606
812.29	26705
812.431	26670
812.573	26849
812.714	27032
812.855	27096
812.997	27195
813.138	27367
813.279	27211
813.421	27051
813.562	26979
813.703	26967
813.845	26663
813.986	26450
814.127	26377
814.268	26248
814.41	26225
814.551	26191
814.692	26484
814.833	26119
814.974	26081
815.115	26214
815.256	26134
815.397	26149
815.539	26115
815.68	25951
815.821	25955
815.962	26119
816.103	25997
816.244	25860
816.385	25818
816.526	25830
816.666	25544
816.807	25487
816.948	25556
817.089	25533
817.23	25563
817.371	25575
817.512	25567
817.653	25506
817.793	25320
817.934	25472
818.075	25548
818.216	25464
818.356	25411
818.497	25415
818.638	25251
818.778	25194
818.919	25179
819.06	25244
819.2	25270
819.341	25487
819.481	25324
819.622	25567
819.762	25841
819.903	25734
820.043	25723
820.184	25620
820.324	25479
820.465	25605
820.605	25434
820.746	25506
820.886	25422
821.026	25525
821.167	25521
821.307	25548
821.447	25460
821.588	25411
821.728	25263
821.868	24992
822.008	25031
822.149	24935
822.289	24954
822.429	24658
822.569	24582
822.709	24544
822.849	24380
822.99	24448
823.13	24578
823.27	24372
823.41	24308
823.55	24133
823.69	24235
823.83	24342
823.97	24258
824.11	24140
824.25	24125
824.389	24030
824.529	24087
824.669	23992
824.809	24129
824.949	24224
825.089	24049
825.228	24087
825.368	23859
825.508	23824
825.648	23874
825.787	23931
825.927	23946
826.067	23901
826.206	23927
826.346	23855
826.485	24003
826.625	23908
826.765	24003
826.904	24022
827.044	23729
827.183	23733
827.323	23653
827.462	23722
827.601	23596
827.741	23638
827.88	23619
828.02	23433
828.159	23585
828.298	23859
828.437	23668
828.577	23528
828.716	23661
828.855	23581
828.994	23425
829.134	23303
829.273	23471
829.412	23235
829.551	23330
829.69	23303
829.829	23414
829.968	23493
830.107	23429
830.246	23269
830.385	23162
830.524	23303
830.663	23178
830.802	22965
830.941	22942
831.08	23044
831.219	23033
831.357	22968
831.496	23155
831.635	22889
831.774	22949
831.913	22999
832.051	22805
832.19	22771
832.329	22774
832.467	22759
832.606	22550
832.744	22584
832.883	22679
833.022	22584
833.16	22649
833.299	22752
833.437	22729
833.576	22687
833.714	22637
833.852	22771
833.991	22603
834.129	22755
834.267	22744
834.406	22820
834.544	22733
834.682	22660
834.821	22607
834.959	22843
835.097	22504
835.235	22736
835.373	22698
835.511	22653
835.65	22592
835.788	22611
835.926	22440
836.064	22322
836.202	22390
836.34	22573
836.478	22626
836.615	22569
836.753	22561
836.891	22485
837.029	22679
837.167	22592
837.305	22443
837.443	22375
837.58	22314
837.718	22542
837.856	22360
837.993	22265
838.131	22436
838.269	22318
838.406	22211
838.544	22238
838.681	22059
838.819	22067
838.956	21808
839.094	21888
839.231	21975
839.369	21953
839.506	22322
839.643	22116
839.781	21789
839.918	21675
840.055	21857
840.193	21823
840.33	21827
840.467	21785
840.604	22097
840.742	22093
840.879	21644
841.016	21717
841.153	21663
841.29	21838
841.427	21675
841.564	21827
841.701	21789
841.838	21743
841.975	21762
842.112	21720
842.249	21644
842.385	21656
842.522	21911
842.659	21720
842.796	21549
842.933	21717
843.069	21519
843.206	21591
843.343	21629
843.479	21644
843.616	21545
843.752	21393
843.889	21382
844.025	21454
844.162	21408
844.298	21378
844.435	21405
844.571	21184
844.708	21321
844.844	21523
844.98	21542
845.117	21386
845.253	21268
845.389	21180
845.525	21214
845.661	21176
845.798	21074
845.934	21169
846.07	21112
846.206	21150
846.342	21230
846.478	21195
846.614	20914
846.75	20842
846.886	20807
847.022	20937
847.158	20773
847.294	20982
847.429	20868
847.565	20929
847.701	20941
847.837	20602
847.972	20629
848.108	20777
848.244	20727
848.379	20461
848.515	20522
848.65	20301
848.786	20488
848.921	20503
849.057	20537
849.192	20446
849.328	20442
849.463	20374
849.598	20423
849.734	20374
849.869	20229
850.004	20199
850.14	20233
850.275	20145
850.41	20214
850.545	20084
850.68	20142
850.815	20294
850.95	20172
851.085	20339
851.22	20275
851.355	20096
851.49	20145
851.625	20081
851.76	20100
851.895	20081
852.03	20100
852.165	20202
852.299	20199
852.434	20263
852.569	20149
852.703	20149
852.838	20259
852.973	20252
853.107	20343
853.242	20046
853.376	20050
853.511	19883
853.645	19967
853.78	20058
853.914	20149
854.048	19993
854.183	19845
854.317	20077
854.451	20134
854.585	20126
854.72	20122
854.854	20001
854.988	19974
855.122	20027
855.256	19894
855.39	20138
855.524	20153
855.658	20107
855.792	20115
855.926	20039
856.06	19955
856.194	20103
856.327	20046
856.461	20012
856.595	20050
856.729	20012
856.862	20111
856.996	20043
857.13	20062
857.263	20096
857.397	20107
857.53	20005
857.664	20050
857.797	20012
857.931	20122
858.064	20145
858.197	20012
858.331	19993
858.464	20088
858.597	19963
858.731	19986
858.864	20005
858.997	20001
859.13	20012
859.263	20077
859.396	20157
859.529	19978
859.662	19982
859.795	19940
859.928	19967
860.061	20077
860.194	20145
860.327	20069
860.46	19986
860.592	20065
860.725	20248
860.858	20138
860.99	20081
861.123	19860
861.256	19871
861.388	20039
861.521	20632
861.653	19837
861.786	19890
861.918	19883
862.05	19860
862.183	19898
862.315	20046
862.447	19959
862.58	19894
862.712	19639
862.844	19594
862.976	19864
863.108	19868
863.24	20073
863.372	19662
863.504	19734
863.636	19757
863.768	19799
863.9	19814
864.032	19666
864.164	19761
864.296	19811
864.428	19708
864.559	19890
864.691	19818
864.823	19685
864.954	19647
865.086	19738
865.217	19666
865.349	19628
865.48	19727
865.612	19734
865.743	19742
865.875	19738
866.006	19639
866.137	19597
866.269	19670
866.4	19666
866.531	19674
866.662	19441
866.793	19578
866.924	19601
867.055	19727
867.186	19605
867.317	19643
867.448	19411
867.579	19548
867.71	19586
867.841	19514
867.972	19582
868.103	19514
868.233	19567
868.364	19624
868.495	19784
868.625	19799
868.756	19894
868.886	19746
869.017	19830
869.147	19921
869.278	19959
869.408	19875
869.539	19845
869.669	19925
869.799	19921
869.929	19997
870.06	19913
870.19	20202
870.32	20119
870.45	20206
870.58	20282
870.71	20419
870.84	20294
870.97	20256
871.1	20195
871.23	20503
871.36	20454
871.489	20305
871.619	20454
871.749	20465
871.879	20427
872.008	20514
872.138	20461
872.267	20454
872.397	20339
872.526	20278
872.656	20336
872.785	20404
872.915	20484
873.044	20533
873.173	20526
873.303	20537
873.432	20511
873.561	20621
873.69	20507
873.819	20457
873.948	20617
874.077	20476
874.206	20530
874.335	20503
874.464	20590
874.593	20682
874.722	20655
874.851	20686
874.979	20678
875.108	20769
875.237	20678
875.365	20579
875.494	20644
875.623	20765
875.751	20724
875.88	20773
876.008	20823
876.136	20910
876.265	21188
876.393	21237
876.521	21142
876.65	21142
876.778	21096
876.906	21161
877.034	21058
877.162	21135
877.29	21058
877.418	21085
877.546	21062
877.674	21005
877.802	21009
877.93	21085
878.058	21055
878.185	21074
878.313	21180
878.441	20956
878.568	21009
878.696	20941
878.824	21169
878.951	21275
879.079	21279
879.206	21329
879.333	21211
879.461	21085
879.588	21230
879.715	21264
879.842	21332
879.97	21218
880.097	21024
880.224	20990
880.351	21036
880.478	20887
880.605	20769
880.732	20880
880.859	21123
880.986	20941
881.112	20887
881.239	20735
881.366	20667
881.493	20648
881.619	20598
881.746	20609
881.872	20507
881.999	20522
882.125	20526
882.252	20480
882.378	20488
882.505	20636
882.631	20366
882.757	20298
882.883	20233
883.01	20336
883.136	20259
883.262	20107
883.388	20134
883.514	20259
883.64	20252
883.766	20214
883.892	20043
884.018	20111
884.143	20073
884.269	20309
884.395	19921
884.52	19845
884.646	19902
884.772	19776
884.897	19925
885.023	19811
885.148	19947
885.274	20096
885.399	20012
885.524	19955
885.65	19765
885.775	19750
885.9	19856
886.025	19963
886.15	19959
886.275	19830
886.4	19666
886.525	19852
886.65	19803
886.775	19723
886.9	20046
887.025	20081
887.149	19753
887.274	19681
887.399	19586
887.523	19613
887.648	19605
887.773	19544
887.897	19757
888.021	19746
888.146	19563
888.27	19719
888.395	19788
888.519	19609
888.643	19689
888.767	19666
888.891	19662
889.015	19346
889.139	19533
889.263	19441
889.387	19731
889.511	19712
889.635	19613
889.759	19449
889.883	19403
890.006	19381
890.13	19525
890.254	19369
890.377	19453
890.501	19251
890.624	19133
890.748	19278
890.871	19164
890.995	19031
891.118	19072
891.241	19015
891.364	19126
891.488	19190
891.611	19004
891.734	19008
891.857	19156
891.98	19110
892.103	19141
892.226	19133
892.349	19008
892.471	18806
892.594	18973
892.717	18966
892.839	18989
892.962	18985
893.085	19046
893.207	19008
893.33	18913
893.452	18928
893.575	19114
893.697	18981
893.819	19034
893.941	19160
894.064	19091
894.186	18962
894.308	18932
894.43	18993
894.552	19187
894.674	19076
894.796	18863
894.918	19000
895.04	18951
895.161	19129
895.283	19069
895.405	18985
895.526	19000
895.648	19027
895.769	19046
895.891	18897
896.012	19156
896.134	19053
896.255	19080
896.376	18985
896.498	19038
896.619	19088
896.74	18935
896.861	18954
896.982	19335
897.103	19506
897.224	19297
897.345	19259
897.466	19278
897.587	19133
897.708	19400
897.828	19297
897.949	19187
898.07	19080
898.19	19209
898.311	19358
898.431	19228
898.552	19312
898.672	19320
898.792	19362
898.913	19266
899.033	19057
899.153	19076
899.273	18928
899.393	18977
899.513	18977
899.633	19000
899.753	19069
899.873	18916
899.993	19103
900.113	19061
900.232	18856
900.352	18935
900.472	18913
900.591	18734
900.711	18802
900.83	18738
900.95	18958
901.069	18760
901.189	18760
901.308	18456
901.427	18441
901.546	18357
901.665	18422
901.784	18448
901.904	18289
902.023	18213
902.141	17992
902.26	17824
902.379	18057
902.498	17992
902.617	17783
902.735	17912
902.854	17885
902.973	17760
903.091	17573
903.21	17672
903.328	17615
903.446	17581
903.565	17486
903.683	17459
903.801	17303
903.919	17334
904.038	17372
904.156	17189
904.274	17197
904.392	17132
904.51	17231
904.627	17220
904.745	17212
904.863	17288
904.981	17003
905.098	16862
905.216	17006
905.334	16820
905.451	16843
905.569	16900
905.686	16942
905.803	16763
905.921	16630
906.038	16755
906.155	16740
906.272	16596
906.389	16561
906.506	16352
906.623	16516
906.74	16440
906.857	16329
906.974	16379
907.091	16478
907.208	16611
907.324	16493
907.441	16352
907.557	16135
907.674	16284
907.79	16048
907.907	16116
908.023	16246
908.139	16192
908.256	15930
908.372	16116
908.488	16010
908.604	15888
908.72	15816
908.836	15903
908.952	15869
909.068	15937
909.184	16017
909.3	15895
909.415	15831
909.531	15865
909.647	15641
909.762	15633
909.878	15545
909.993	15496
910.108	15591
910.224	15477
910.339	15492
910.454	15450
910.57	15511
910.685	15287
910.8	15701
910.915	15561
911.03	15420
911.145	15195
911.259	15157
911.374	15123
911.489	15142
911.604	15085
911.718	14887
911.833	14925
911.947	14838
912.062	14826
912.176	14948
912.291	15104
912.405	15062
912.519	15161
912.633	15104
912.748	14956
912.862	14944
912.976	14815
913.09	14682
913.204	14720
913.318	14769
913.431	14880
913.545	14823
913.659	14830
913.772	14750
913.886	14583
914	14583
914.113	14720
914.226	14682
914.34	14579
914.453	14503
914.566	14629
914.68	14419
914.793	14473
914.906	14244
915.019	14229
915.132	14176
915.245	14202
915.358	14244
915.47	14278
915.583	14244
915.696	14248
915.809	14385
915.921	14362
916.034	14225
916.146	14084
916.259	14001
916.371	14206
916.483	14191
916.595	14134
916.708	14065
916.82	14035
916.932	14008
917.044	14062
917.156	13974
917.268	13982
917.38	13898
917.491	13978
917.603	13940
917.715	13883
917.826	13913
917.938	13780
918.049	13734
918.161	13826
918.272	13974
918.384	13921
918.495	13868
918.606	13693
918.717	13670
918.828	13666
918.939	13696
919.05	13677
919.161	13746
919.272	13559
919.383	13563
919.494	13769
919.604	13864
919.715	13674
919.826	13651
919.936	13643
920.047	13681
920.157	13666
920.267	13890
920.378	13700
920.488	13613
920.598	13841
920.708	14020
920.818	13704
920.928	13738
921.038	14012
921.148	13932
921.258	13674
921.368	13590
921.477	13449
921.587	13422
921.697	13274
921.806	13548
921.916	13293
922.025	13164
922.134	13053
922.244	13023
922.353	13221
922.462	13053
922.571	12962
922.68	12787
922.789	12779
922.898	12840
923.007	12665
923.116	12787
923.224	12749
923.333	12700
923.442	12612
923.55	12563
923.659	12593
923.767	12669
923.876	12532
923.984	12642
924.092	12528
924.201	12506
924.309	12570
924.417	12551
924.525	12448
924.633	12521
924.741	13339
924.849	12228
924.956	12441
925.064	12292
925.172	12171
925.279	12251
925.387	12262
925.494	12266
925.602	12410
925.709	12292
925.816	12140
925.924	12159
926.031	12300
926.138	12243
926.245	12220
926.352	12152
926.459	12171
926.566	12254
926.673	12155
926.779	12049
926.886	12038
926.993	11863
927.099	11817
927.206	11866
927.312	11786
927.419	11893
927.525	11794
927.631	11908
927.737	11745
927.843	11703
927.95	11634
928.056	11646
928.162	11638
928.267	11676
928.373	12308
928.479	11764
928.585	11493
928.69	11604
928.796	11630
928.901	11535
929.007	11520
929.112	11623
929.218	11524
929.323	11493
929.428	11402
929.533	11493
929.638	11303
929.743	11436
929.848	11372
929.953	11353
930.058	11315
930.163	11117
930.267	11124
930.372	11197
930.477	11121
930.581	11273
930.685	11113
930.79	10991
930.894	11094
930.998	11052
931.103	11075
931.207	10854
931.311	10729
931.415	10611
931.519	10356
931.623	10398
