Data from test_V78500241_2936.txt Node
Date: Fri Mar 25 15:30:18 CST 2022
User: usil
Spectrometer: V785-0024
Trigger mode: 0
Integration Time (sec): 4.000000E-1
Scans to average: 1
Nonlinearity correction enabled: false
Boxcar width: 0
Storing dark spectrum: false
XAxis mode: Wavelengths
Number of Pixels in Spectrum: 1024
>>>>>Begin Spectral Data<<<<<
801.071	27207
801.214	27329
801.356	27047
801.499	26979
801.641	26746
801.783	26845
801.926	26990
802.068	26731
802.211	26697
802.353	26598
802.496	26537
802.638	26457
802.78	26484
802.923	26370
803.065	26366
803.208	26309
803.35	26465
803.492	26598
803.635	26598
803.777	26389
803.919	26667
804.061	26834
804.204	26594
804.346	26560
804.488	26549
804.63	26583
804.773	26541
804.915	26560
805.057	26663
805.199	26549
805.341	26807
805.483	26811
805.626	26807
805.768	26602
805.91	26663
806.052	26823
806.194	26606
806.336	26914
806.478	26686
806.62	26689
806.762	26765
806.904	27013
807.046	27192
807.188	27207
807.33	27302
807.472	27062
807.614	27127
807.756	26971
807.898	26956
808.04	26948
808.182	26963
808.324	27013
808.465	27047
808.607	27272
808.749	27348
808.891	27397
809.033	27583
809.174	27370
809.316	27386
809.458	27313
809.6	27184
809.741	27466
809.883	27393
810.025	27545
810.166	27663
810.308	27599
810.45	27515
810.591	27439
810.733	27393
810.875	27283
811.016	27279
811.158	27405
811.299	27469
811.441	27458
811.582	27553
811.724	27393
811.865	27207
812.007	27275
812.148	27252
812.29	27374
812.431	27580
812.573	27625
812.714	27747
812.855	27770
812.997	27854
813.138	27895
813.279	27972
813.421	27827
813.562	27644
813.703	27663
813.845	27515
813.986	27203
814.127	27051
814.268	26975
814.41	26998
814.551	26925
814.692	27017
814.833	26971
814.974	26899
815.115	26982
815.256	26929
815.397	26929
815.539	26853
815.68	26731
815.821	26705
815.962	26754
816.103	26807
816.244	26602
816.385	26476
816.526	26518
816.666	26221
816.807	26122
816.948	26317
817.089	26385
817.23	26370
817.371	26199
817.512	26176
817.653	26115
817.793	26221
817.934	26153
818.075	26282
818.216	26210
818.356	26233
818.497	25913
818.638	25841
818.778	26103
818.919	25974
819.06	26016
819.2	26096
819.341	26183
819.481	26237
819.622	26396
819.762	26499
819.903	26431
820.043	26488
820.184	26450
820.324	26244
820.465	26301
820.605	26332
820.746	26415
820.886	26001
821.026	26176
821.167	26195
821.307	26286
821.447	26149
821.588	26073
821.728	26020
821.868	25875
822.008	25647
822.149	25628
822.289	25708
822.429	25552
822.569	25377
822.709	25324
822.849	25225
822.99	25217
823.13	25225
823.27	25247
823.41	25095
823.55	24859
823.69	25057
823.83	25008
823.97	24981
824.11	24768
824.25	24867
824.389	24745
824.529	24878
824.669	24779
824.809	24875
824.949	24905
825.089	24947
825.228	24924
825.368	24677
825.508	24509
825.648	24665
825.787	24867
825.927	24753
826.067	24658
826.206	24806
826.346	24665
826.485	24897
826.625	24760
826.765	24711
826.904	24783
827.044	24593
827.183	24437
827.323	24350
827.462	24471
827.601	24407
827.741	24418
827.88	24422
828.02	24338
828.159	24414
828.298	24285
828.437	24532
828.577	24296
828.716	24464
828.855	24289
828.994	24003
829.134	24034
829.273	24171
829.412	24003
829.551	23961
829.69	24178
829.829	24068
829.968	24174
830.107	24220
830.246	24038
830.385	23923
830.524	23893
830.663	23843
830.802	23950
830.941	23615
831.08	23551
831.219	23748
831.357	23847
831.496	23893
831.635	23756
831.774	23596
831.913	23535
832.051	23406
832.19	23554
832.329	23554
832.467	23292
832.606	23356
832.744	23349
832.883	23376
833.022	23231
833.16	23318
833.299	23334
833.437	23368
833.576	23414
833.714	23448
833.852	23516
833.991	23402
834.129	23459
834.267	23524
834.406	23395
834.544	23429
834.682	23444
834.821	23345
834.959	23585
835.097	23364
835.235	23398
835.373	23391
835.511	23433
835.65	23337
835.788	23235
835.926	23071
836.064	23105
836.202	22972
836.34	23292
836.478	23360
836.615	23258
836.753	23296
836.891	23261
837.029	23261
837.167	23189
837.305	23147
837.443	23079
837.58	23136
837.718	23025
837.856	23140
837.993	23041
838.131	22946
838.269	23003
838.406	23132
838.544	22839
838.681	22771
838.819	22569
838.956	22641
839.094	22618
839.231	22542
839.369	22812
839.506	22782
839.643	22858
839.781	22523
839.918	22504
840.055	22592
840.193	22584
840.33	22580
840.467	22455
840.604	22596
840.742	22793
840.879	22402
841.016	22523
841.153	22360
841.29	22607
841.427	22436
841.564	22523
841.701	22481
841.838	22367
841.975	22322
842.112	22367
842.249	22432
842.385	22303
842.522	22470
842.659	22390
842.796	22306
842.933	22352
843.069	22295
843.206	22325
843.343	22276
843.479	22280
843.616	22356
843.752	22025
843.889	22032
844.025	22181
844.162	22059
844.298	22086
844.435	21998
844.571	21922
844.708	22070
844.844	22120
844.98	22166
845.117	22185
845.253	22032
845.389	21899
845.525	21907
845.661	21770
845.798	21720
845.934	21838
846.07	21759
846.206	21762
846.342	21960
846.478	21743
846.614	21538
846.75	21443
846.886	21500
847.022	21720
847.158	21568
847.294	21625
847.429	21633
847.565	21519
847.701	21682
847.837	21230
847.972	21279
848.108	21298
848.244	21340
848.379	21214
848.515	21096
848.65	21108
848.786	21020
848.921	20975
849.057	21192
849.192	21188
849.328	21146
849.463	21112
849.598	20986
849.734	20929
849.869	20788
850.004	20876
850.14	21051
850.275	20853
850.41	20762
850.545	20845
850.68	20883
850.815	20868
850.95	20914
851.085	20887
851.22	20902
851.355	20826
851.49	20804
851.625	20910
851.76	20910
851.895	20864
852.03	20701
852.165	20868
852.299	21001
852.434	20990
852.569	20765
852.703	20819
852.838	21051
852.973	21100
853.107	20990
853.242	20769
853.376	20746
853.511	20708
853.645	20640
853.78	20788
853.914	20796
854.048	20659
854.183	20552
854.317	20712
854.451	20842
854.585	20743
854.72	20629
854.854	20667
854.988	20644
855.122	20629
855.256	20587
855.39	20678
855.524	20617
855.658	20697
855.792	20746
855.926	20632
856.06	20807
856.194	20727
856.327	20568
856.461	20655
856.595	20594
856.729	20651
856.862	20887
856.996	20648
857.13	20640
857.263	20815
857.397	20811
857.53	20788
857.664	20758
857.797	20670
857.931	20769
858.064	20724
858.197	20762
858.331	20632
858.464	20697
858.597	20568
858.731	20651
858.864	20800
858.997	20731
859.13	20731
859.263	20678
859.396	20720
859.529	20811
859.662	20621
859.795	20450
859.928	20720
860.061	20842
860.194	20796
860.327	20769
860.46	20712
860.592	20777
860.725	20868
860.858	20769
860.99	20785
861.123	20587
861.256	20674
861.388	20621
861.521	21287
861.653	20552
861.786	20469
861.918	20606
862.05	20374
862.183	20632
862.315	20583
862.447	20667
862.58	20583
862.712	20347
862.844	20385
862.976	20450
863.108	20461
863.24	20929
863.372	20355
863.504	20370
863.636	20339
863.768	20446
863.9	20465
864.032	20374
864.164	20320
864.296	20587
864.428	20423
864.559	20442
864.691	20571
864.823	20370
864.954	20328
865.086	20313
865.217	20393
865.349	20244
865.48	20237
865.612	20233
865.743	20423
865.875	20252
866.006	20370
866.137	20225
866.269	20263
866.4	20214
866.531	20225
866.662	20149
866.793	20290
866.924	20218
867.055	20164
867.186	20259
867.317	20161
867.448	20016
867.579	20286
867.71	20259
867.841	20210
867.972	20286
868.103	20183
868.233	20324
868.364	20248
868.495	20218
868.625	20396
868.756	20621
868.886	20473
869.017	20564
869.147	20503
869.278	20602
869.408	20511
869.539	20450
869.669	20571
869.799	20533
869.929	20625
870.06	20636
870.19	20754
870.32	20617
870.45	20743
870.58	20834
870.71	21070
870.84	20952
870.97	21020
871.1	20826
871.23	21154
871.36	21104
871.489	21089
871.619	21085
871.749	21062
871.879	21119
872.008	21199
872.138	21062
872.267	21112
872.397	20921
872.526	20956
872.656	20960
872.785	20883
872.915	21062
873.044	21062
873.173	21032
873.303	21233
873.432	21131
873.561	21146
873.69	21127
873.819	21245
873.948	21211
874.077	21127
874.206	20998
874.335	21165
874.464	21279
874.593	21367
874.722	21272
874.851	21218
874.979	21249
875.108	21264
875.237	21367
875.365	21218
875.494	21180
875.623	21294
875.751	21260
875.88	21389
876.008	21530
876.136	21583
876.265	21701
876.393	21831
876.521	21778
876.65	21793
876.778	21663
876.906	21785
877.034	21720
877.162	21595
877.29	21698
877.418	21743
877.546	21637
877.674	21690
877.802	21610
877.93	21675
878.058	21622
878.185	21587
878.313	21679
878.441	21709
878.568	21519
878.696	21663
878.824	21675
878.951	21701
879.079	21903
879.206	21964
879.333	21747
879.461	21709
879.588	21724
879.715	21892
879.842	22002
879.97	21842
880.097	21641
880.224	21534
880.351	21610
880.478	21511
880.605	21504
880.732	21526
880.859	21778
880.986	21496
881.112	21351
881.239	21291
881.366	21233
881.493	21108
881.619	21085
881.746	21150
881.872	21150
881.999	21081
882.125	20998
882.252	21173
882.378	21047
882.505	21180
882.631	20986
882.757	20910
882.883	20849
883.01	20765
883.136	20762
883.262	20682
883.388	20701
883.514	20891
883.64	20792
883.766	20743
883.892	20511
884.018	20617
884.143	20716
884.269	20731
884.395	20400
884.52	20446
884.646	20564
884.772	20351
884.897	20347
885.023	20412
885.148	20518
885.274	20594
885.399	20446
885.524	20419
885.65	20404
885.775	20454
885.9	20400
886.025	20537
886.15	20663
886.275	20366
886.4	20518
886.525	20499
886.65	20374
886.775	20454
886.9	20469
887.025	20670
887.149	20358
887.274	20233
887.399	20358
887.523	20290
887.648	20202
887.773	20122
887.897	20164
888.021	20256
888.146	20039
888.27	20320
888.395	20336
888.519	20366
888.643	20210
888.767	20275
888.891	20278
889.015	20024
889.139	20027
889.263	20024
889.387	20111
889.511	20210
889.635	20206
889.759	19932
889.883	19974
890.006	20035
890.13	20065
890.254	20016
890.377	19974
890.501	19761
890.624	19742
890.748	19894
890.871	19738
890.995	19689
891.118	19563
891.241	19510
891.364	19658
891.488	19700
891.611	19666
891.734	19635
891.857	19628
891.98	19655
892.103	19700
892.226	19556
892.349	19613
892.471	19441
892.594	19480
892.717	19464
892.839	19453
892.962	19578
893.085	19609
893.207	19518
893.33	19525
893.452	19502
893.575	19563
893.697	19559
893.819	19643
893.941	19700
894.064	19651
894.186	19502
894.308	19422
894.43	19559
894.552	19662
894.674	19685
894.796	19571
894.918	19472
895.04	19499
895.161	19681
895.283	19537
895.405	19483
895.526	19559
895.648	19597
895.769	19472
895.891	19613
896.012	19571
896.134	19620
896.255	19540
896.376	19468
896.498	19445
896.619	19559
896.74	19518
896.861	19601
896.982	19925
897.103	19989
897.224	19818
897.345	19845
897.466	19708
897.587	19689
897.708	19974
897.828	19788
897.949	19723
898.07	19674
898.19	19658
898.311	19826
898.431	19795
898.552	19807
898.672	19822
898.792	19845
898.913	19791
899.033	19620
899.153	19704
899.273	19422
899.393	19609
899.513	19575
899.633	19521
899.753	19582
899.873	19514
899.993	19552
900.113	19529
900.232	19502
900.352	19350
900.472	19346
900.591	19175
900.711	19381
900.83	19152
900.95	19301
901.069	19384
901.189	19187
901.308	18996
901.427	18951
901.546	18867
901.665	18886
901.784	19008
901.904	18863
902.023	18711
902.141	18528
902.26	18544
902.379	18585
902.498	18502
902.617	18369
902.735	18471
902.854	18395
902.973	18372
903.091	18072
903.21	18167
903.328	18136
903.446	18022
903.565	17996
903.683	17988
903.801	17840
903.919	17866
904.038	17851
904.156	17642
904.274	17756
904.392	17646
904.51	17653
904.627	17634
904.745	17695
904.863	17657
904.981	17543
905.098	17334
905.216	17387
905.334	17341
905.451	17425
905.569	17288
905.686	17417
905.803	17337
905.921	17128
906.038	17334
906.155	17239
906.272	17083
906.389	17102
906.506	16892
906.623	16938
906.74	16953
906.857	16755
906.974	16930
907.091	16919
907.208	16961
907.324	16946
907.441	16843
907.557	16637
907.674	16668
907.79	16527
907.907	16706
908.023	16535
908.139	16603
908.256	16569
908.372	16462
908.488	16577
908.604	16459
908.72	16253
908.836	16375
908.952	16272
909.068	16333
909.184	16421
909.3	16325
909.415	16333
909.531	16291
909.647	16071
909.762	15998
909.878	15994
909.993	16143
910.108	16154
910.224	16021
910.339	16044
910.454	15949
910.57	15819
910.685	15804
910.8	16147
910.915	16059
911.03	15884
911.145	15705
911.259	15778
911.374	15618
911.489	15477
911.604	15587
911.718	15332
911.833	15405
911.947	15348
912.062	15363
912.176	15378
912.291	15485
912.405	15435
912.519	15705
912.633	15720
912.748	15374
912.862	15389
912.976	15214
913.09	15188
913.204	15184
913.318	15161
913.431	15344
913.545	15237
913.659	15359
913.772	15275
913.886	15074
914	15036
914.113	15070
914.226	15146
914.34	15154
914.453	14918
914.566	14994
914.68	14990
914.793	14925
914.906	14777
915.019	14621
915.132	14564
915.245	14670
915.358	14663
915.47	14689
915.583	14590
915.696	14598
915.809	14785
915.921	14769
916.034	14610
916.146	14556
916.259	14606
916.371	14659
916.483	14594
916.595	14552
916.708	14541
916.82	14621
916.932	14480
917.044	14461
917.156	14434
917.268	14351
917.38	14339
917.491	14275
917.603	14294
917.715	14442
917.826	14438
917.938	14305
918.049	14168
918.161	14271
918.272	14389
918.384	14431
918.495	14324
918.606	14111
918.717	14046
918.828	14183
918.939	14164
919.05	14088
919.161	14123
919.272	13856
919.383	13997
919.494	14138
919.604	14214
919.715	14046
919.826	14039
919.936	13921
920.047	14195
920.157	14100
920.267	14210
920.378	14039
920.488	13989
920.598	14191
920.708	14381
920.818	14202
920.928	14252
921.038	14465
921.148	14237
921.258	13982
921.368	13978
921.477	13807
921.587	13856
921.697	13696
921.806	13776
921.916	13769
922.025	13563
922.134	13415
922.244	13400
922.353	13521
922.462	13411
922.571	13350
922.68	13095
922.789	13076
922.898	13126
923.007	13118
923.116	13213
923.224	13046
923.333	13027
923.442	12863
923.55	12920
923.659	12970
923.767	13065
923.876	12924
923.984	13053
924.092	12768
924.201	12901
924.309	12878
924.417	12791
924.525	12798
924.633	12772
924.741	13723
924.849	12673
924.956	12707
925.064	12582
925.172	12467
925.279	12490
925.387	12547
925.494	12597
925.602	12703
925.709	12536
925.816	12433
925.924	12525
926.031	12612
926.138	12528
926.245	12608
926.352	12399
926.459	12566
926.566	12608
926.673	12471
926.779	12380
926.886	12304
926.993	12152
927.099	12098
927.206	12026
927.312	12117
927.419	12155
927.525	12110
927.631	12110
927.737	12030
927.843	11988
927.95	11828
928.056	11927
928.162	12015
928.267	11996
928.373	12612
928.479	12106
928.585	11836
928.69	11908
928.796	11969
928.901	11885
929.007	11684
929.112	11817
929.218	11748
929.323	11668
929.428	11668
929.533	11802
929.638	11646
929.743	11729
929.848	11615
929.953	11646
930.058	11512
930.163	11349
930.267	11398
930.372	11577
930.477	11368
930.581	11570
930.685	11353
930.79	11349
930.894	11395
930.998	11254
931.103	11410
931.207	11067
931.311	10908
931.415	10900
931.519	10656
931.623	10641
