Data from test_V78500241_450.txt Node
Date: Fri Mar 25 15:12:59 CST 2022
User: usil
Spectrometer: V785-0024
Trigger mode: 0
Integration Time (sec): 4.000000E-1
Scans to average: 1
Nonlinearity correction enabled: false
Boxcar width: 0
Storing dark spectrum: false
XAxis mode: Wavelengths
Number of Pixels in Spectrum: 1024
>>>>>Begin Spectral Data<<<<<
801.071	27142
801.214	27096
801.356	26899
801.499	26853
801.641	26849
801.783	26838
801.926	26788
802.068	26674
802.211	26564
802.353	26598
802.496	26446
802.638	26431
802.78	26374
802.923	26240
803.065	26263
803.208	26298
803.35	26412
803.492	26469
803.635	26636
803.777	26457
803.919	26568
804.061	26823
804.204	26450
804.346	26533
804.488	26431
804.63	26530
804.773	26480
804.915	26480
805.057	26625
805.199	26533
805.341	26469
805.483	26541
805.626	26549
805.768	26488
805.91	26587
806.052	26648
806.194	26560
806.336	26800
806.478	26648
806.62	26609
806.762	26693
806.904	27005
807.046	26998
807.188	27093
807.33	26960
807.472	27100
807.614	27036
807.756	27100
807.898	26701
808.04	26864
808.182	26956
808.324	26849
808.465	26819
808.607	26956
808.749	26975
808.891	27214
809.033	27359
809.174	27374
809.316	27397
809.458	27233
809.6	26971
809.741	27116
809.883	27313
810.025	27496
810.166	27542
810.308	27515
810.45	27454
810.591	27310
810.733	27211
810.875	27157
811.016	27024
811.158	27127
811.299	27230
811.441	27256
811.582	27291
811.724	27138
811.865	27085
812.007	27112
812.148	27313
812.29	27241
812.431	27336
812.573	27336
812.714	27561
812.855	27751
812.997	27713
813.138	27998
813.279	27865
813.421	27732
813.562	27641
813.703	27507
813.845	27450
813.986	27085
814.127	26925
814.268	26857
814.41	26967
814.551	26876
814.692	26876
814.833	26727
814.974	26891
815.115	26948
815.256	26648
815.397	26750
815.539	26701
815.68	26739
815.821	26670
815.962	26651
816.103	26568
816.244	26590
816.385	26488
816.526	26286
816.666	26145
816.807	26149
816.948	26275
817.089	26088
817.23	26138
817.371	26187
817.512	26115
817.653	26092
817.793	26107
817.934	26149
818.075	26263
818.216	26210
818.356	26240
818.497	26103
818.638	25795
818.778	25826
818.919	25776
819.06	25993
819.2	25993
819.341	26096
819.481	26024
819.622	26313
819.762	26461
819.903	26313
820.043	26267
820.184	26355
820.324	26210
820.465	26252
820.605	26237
820.746	26168
820.886	26039
821.026	26290
821.167	26199
821.307	26206
821.447	26164
821.588	26065
821.728	25902
821.868	25753
822.008	25605
822.149	25662
822.289	25559
822.429	25422
822.569	25396
822.709	25259
822.849	25202
822.99	25183
823.13	25168
823.27	25084
823.41	24920
823.55	24871
823.69	24989
823.83	24924
823.97	24882
824.11	24844
824.25	24631
824.389	24673
824.529	24863
824.669	24814
824.809	24791
824.949	24871
825.089	24703
825.228	24871
825.368	24601
825.508	24517
825.648	24658
825.787	24646
825.927	24650
826.067	24574
826.206	24749
826.346	24681
826.485	24654
826.625	24661
826.765	24814
826.904	24673
827.044	24437
827.183	24262
827.323	24323
827.462	24361
827.601	24418
827.741	24228
827.88	24311
828.02	24201
828.159	24254
828.298	24319
828.437	24323
828.577	24159
828.716	24445
828.855	24262
828.994	23961
829.134	23939
829.273	24159
829.412	23939
829.551	23984
829.69	23988
829.829	24038
829.968	24171
830.107	24133
830.246	24007
830.385	23992
830.524	24007
830.663	23828
830.802	23794
830.941	23577
831.08	23657
831.219	23745
831.357	23786
831.496	23866
831.635	23710
831.774	23551
831.913	23577
832.051	23425
832.19	23341
832.329	23395
832.467	23414
832.606	23269
832.744	23284
832.883	23330
833.022	23280
833.16	23356
833.299	23341
833.437	23406
833.576	23471
833.714	23368
833.852	23467
833.991	23520
834.129	23566
834.267	23444
834.406	23395
834.544	23368
834.682	23486
834.821	23372
834.959	23634
835.097	23292
835.235	23402
835.373	23379
835.511	23250
835.65	23235
835.788	23181
835.926	23155
836.064	23200
836.202	23056
836.34	23277
836.478	23349
836.615	23178
836.753	23299
836.891	23417
837.029	23200
837.167	23258
837.305	23079
837.443	23079
837.58	23098
837.718	23174
837.856	23170
837.993	23041
838.131	23151
838.269	22911
838.406	22999
838.544	22987
838.681	22812
838.819	22793
838.956	22497
839.094	22466
839.231	22557
839.369	22801
839.506	22995
839.643	22869
839.781	22466
839.918	22402
840.055	22618
840.193	22675
840.33	22584
840.467	22550
840.604	22675
840.742	22805
840.879	22402
841.016	22375
841.153	22417
841.29	22573
841.427	22523
841.564	22485
841.701	22535
841.838	22611
841.975	22344
842.112	22478
842.249	22242
842.385	22261
842.522	22447
842.659	22246
842.796	22211
842.933	22238
843.069	22249
843.206	22211
843.343	22295
843.479	22238
843.616	22207
843.752	21994
843.889	22139
844.025	22086
844.162	21994
844.298	22185
844.435	22006
844.571	22124
844.708	22021
844.844	22162
844.98	22147
845.117	22135
845.253	21937
845.389	22010
845.525	21918
845.661	21907
845.798	21789
845.934	21720
846.07	21728
846.206	21816
846.342	21964
846.478	21618
846.614	21553
846.75	21428
846.886	21443
847.022	21523
847.158	21591
847.294	21561
847.429	21561
847.565	21542
847.701	21618
847.837	21252
847.972	21325
848.108	21264
848.244	21439
848.379	21077
848.515	21195
848.65	21142
848.786	21135
848.921	21077
849.057	21336
849.192	21294
849.328	21199
849.463	21047
849.598	21043
849.734	21093
849.869	20986
850.004	20899
850.14	20842
850.275	20937
850.41	20773
850.545	20849
850.68	20823
850.815	20941
850.95	20937
851.085	21005
851.22	20971
851.355	20937
851.49	20902
851.625	20834
851.76	20708
851.895	20769
852.03	20773
852.165	20929
852.299	20918
852.434	20929
852.569	20975
852.703	20952
852.838	20994
852.973	21036
853.107	20967
853.242	20933
853.376	20727
853.511	20511
853.645	20606
853.78	20777
853.914	20625
854.048	20651
854.183	20720
854.317	20594
854.451	20838
854.585	20682
854.72	20712
854.854	20609
854.988	20743
855.122	20720
855.256	20617
855.39	20693
855.524	20659
855.658	20686
855.792	20720
855.926	20727
856.06	20731
856.194	20777
856.327	20746
856.461	20609
856.595	20678
856.729	20689
856.862	20800
856.996	20705
857.13	20743
857.263	20750
857.397	20811
857.53	20708
857.664	20701
857.797	20842
857.931	20842
858.064	20769
858.197	20781
858.331	20724
858.464	20762
858.597	20621
858.731	20594
858.864	20636
858.997	20655
859.13	20712
859.263	20807
859.396	20807
859.529	20594
859.662	20621
859.795	20663
859.928	20724
860.061	20815
860.194	20876
860.327	20739
860.46	20617
860.592	20811
860.725	20830
860.858	20853
860.99	20625
861.123	20648
861.256	20640
861.388	20849
861.521	21450
861.653	20560
861.786	20552
861.918	20514
862.05	20552
862.183	20636
862.315	20621
862.447	20781
862.58	20708
862.712	20374
862.844	20362
862.976	20518
863.108	20575
863.24	20975
863.372	20396
863.504	20473
863.636	20431
863.768	20495
863.9	20427
864.032	20290
864.164	20370
864.296	20434
864.428	20450
864.559	20503
864.691	20564
864.823	20465
864.954	20423
865.086	20465
865.217	20313
865.349	20252
865.48	20324
865.612	20305
865.743	20434
865.875	20301
866.006	20221
866.137	20290
866.269	20267
866.4	20339
866.531	20229
866.662	20233
866.793	20271
866.924	20256
867.055	20286
867.186	20218
867.317	20286
867.448	20172
867.579	20298
867.71	20221
867.841	20142
867.972	20278
868.103	20290
868.233	20362
868.364	20339
868.495	20377
868.625	20568
868.756	20606
868.886	20465
869.017	20514
869.147	20564
869.278	20648
869.408	20469
869.539	20465
869.669	20541
869.799	20552
869.929	20640
870.06	20705
870.19	20712
870.32	20807
870.45	20785
870.58	20933
870.71	21013
870.84	20956
870.97	21005
871.1	20914
871.23	20998
871.36	21150
871.489	20975
871.619	20967
871.749	21108
871.879	21062
872.008	21302
872.138	21135
872.267	20994
872.397	20998
872.526	20963
872.656	20872
872.785	20937
872.915	21150
873.044	21142
873.173	21154
873.303	21199
873.432	21199
873.561	21214
873.69	21222
873.819	21096
873.948	21192
874.077	21161
874.206	21135
874.335	21298
874.464	21154
874.593	21321
874.722	21291
874.851	21428
874.979	21454
875.108	21424
875.237	21241
875.365	21291
875.494	21386
875.623	21439
875.751	21363
875.88	21386
876.008	21477
876.136	21576
876.265	21789
876.393	21979
876.521	21926
876.65	21831
876.778	21705
876.906	21648
877.034	21793
877.162	21686
877.29	21572
877.418	21774
877.546	21743
877.674	21690
877.802	21720
877.93	21568
878.058	21831
878.185	21500
878.313	21739
878.441	21724
878.568	21564
878.696	21778
878.824	21785
878.951	21770
879.079	21842
879.206	22025
879.333	21850
879.461	21766
879.588	21789
879.715	21903
879.842	21949
879.97	21846
880.097	21507
880.224	21530
880.351	21492
880.478	21576
880.605	21431
880.732	21462
880.859	21770
880.986	21545
881.112	21557
881.239	21397
881.366	21412
881.493	21249
881.619	21058
881.746	21150
881.872	21222
881.999	21138
882.125	20998
882.252	21176
882.378	20944
882.505	21211
882.631	21070
882.757	20830
882.883	20921
883.01	20921
883.136	20883
883.262	20648
883.388	20743
883.514	20902
883.64	20735
883.766	20697
883.892	20564
884.018	20648
884.143	20883
884.269	20906
884.395	20526
884.52	20514
884.646	20511
884.772	20393
884.897	20370
885.023	20454
885.148	20602
885.274	20564
885.399	20606
885.524	20484
885.65	20480
885.775	20446
885.9	20404
886.025	20609
886.15	20522
886.275	20366
886.4	20389
886.525	20408
886.65	20408
886.775	20381
886.9	20663
887.025	20636
887.149	20492
887.274	20343
887.399	20237
887.523	20176
887.648	20161
887.773	20267
887.897	20339
888.021	20278
888.146	20145
888.27	20320
888.395	20339
888.519	20320
888.643	20199
888.767	20176
888.891	20157
889.015	20195
889.139	20107
889.263	20069
889.387	20084
889.511	20256
889.635	20126
889.759	20058
889.883	20027
890.006	20180
890.13	20328
890.254	19909
890.377	19993
890.501	19738
890.624	19765
890.748	19864
890.871	19833
890.995	19616
891.118	19616
891.241	19670
891.364	19586
891.488	19746
891.611	19746
891.734	19586
891.857	19628
891.98	19670
892.103	19712
892.226	19624
892.349	19620
892.471	19480
892.594	19571
892.717	19670
892.839	19499
892.962	19681
893.085	19590
893.207	19616
893.33	19480
893.452	19358
893.575	19525
893.697	19525
893.819	19616
893.941	19708
894.064	19727
894.186	19422
894.308	19464
894.43	19594
894.552	19655
894.674	19662
894.796	19381
894.918	19666
895.04	19548
895.161	19639
895.283	19540
895.405	19373
895.526	19567
895.648	19635
895.769	19487
895.891	19620
896.012	19620
896.134	19738
896.255	19533
896.376	19571
896.498	19518
896.619	19499
896.74	19620
896.861	19548
896.982	19928
897.103	19913
897.224	19742
897.345	19795
897.466	19655
897.587	19734
897.708	19925
897.828	19830
897.949	19727
898.07	19704
898.19	19658
898.311	19849
898.431	19651
898.552	19811
898.672	19887
898.792	19909
898.913	19879
899.033	19746
899.153	19575
899.273	19472
899.393	19529
899.513	19502
899.633	19529
899.753	19514
899.873	19506
899.993	19537
900.113	19468
900.232	19499
900.352	19514
900.472	19327
900.591	19221
900.711	19263
900.83	19289
900.95	19460
901.069	19259
901.189	19126
901.308	19031
901.427	18935
901.546	18935
901.665	18897
901.784	18848
901.904	18795
902.023	18688
902.141	18494
902.26	18441
902.379	18563
902.498	18452
902.617	18448
902.735	18327
902.854	18513
902.973	18403
903.091	18159
903.21	18072
903.328	18182
903.446	17988
903.565	17832
903.683	17969
903.801	17828
903.919	17874
904.038	17893
904.156	17752
904.274	17832
904.392	17634
904.51	17676
904.627	17703
904.745	17764
904.863	17767
904.981	17425
905.098	17402
905.216	17379
905.334	17421
905.451	17334
905.569	17330
905.686	17383
905.803	17322
905.921	17181
906.038	17239
906.155	17197
906.272	17083
906.389	17140
906.506	16953
906.623	16991
906.74	16858
906.857	16831
906.974	16805
907.091	16995
907.208	17064
907.324	16900
907.441	16797
907.557	16755
907.674	16649
907.79	16649
907.907	16588
908.023	16626
908.139	16729
908.256	16641
908.372	16538
908.488	16523
908.604	16421
908.72	16360
908.836	16413
908.952	16455
909.068	16352
909.184	16447
909.3	16348
909.415	16428
909.531	16379
909.647	16059
909.762	16147
909.878	16044
909.993	16120
910.108	16036
910.224	16040
910.339	16143
910.454	15926
910.57	15873
910.685	15895
910.8	16021
910.915	16063
911.03	15888
911.145	15682
911.259	15698
911.374	15736
911.489	15629
911.604	15504
911.718	15401
911.833	15435
911.947	15317
912.062	15237
912.176	15405
912.291	15355
912.405	15412
912.519	15530
912.633	15515
912.748	15526
912.862	15454
912.976	15207
913.09	15104
913.204	15245
913.318	15264
913.431	15344
913.545	15321
913.659	15291
913.772	15116
913.886	15085
914	15085
914.113	15275
914.226	15169
914.34	15123
914.453	14876
914.566	15104
914.68	14887
914.793	14937
914.906	14769
915.019	14697
915.132	14663
915.245	14750
915.358	14796
915.47	14705
915.583	14636
915.696	14689
915.809	14819
915.921	14849
916.034	14575
916.146	14594
916.259	14488
916.371	14617
916.483	14659
916.595	14613
916.708	14511
916.82	14556
916.932	14514
917.044	14393
917.156	14465
917.268	14290
917.38	14332
917.491	14294
917.603	14381
917.715	14419
917.826	14408
917.938	14362
918.049	14164
918.161	14396
918.272	14396
918.384	14476
918.495	14347
918.606	14161
918.717	14119
918.828	14111
918.939	14119
919.05	14001
919.161	14073
919.272	13936
919.383	14016
919.494	14153
919.604	14389
919.715	14153
919.826	13974
919.936	14027
920.047	14123
920.157	14031
920.267	14267
920.378	14031
920.488	14069
920.598	14271
920.708	14317
920.818	14130
920.928	14218
921.038	14381
921.148	14218
921.258	14050
921.368	13913
921.477	13898
921.587	13791
921.697	13757
921.806	13860
921.916	13693
922.025	13582
922.134	13506
922.244	13415
922.353	13487
922.462	13373
922.571	13392
922.68	13175
922.789	13050
922.898	13129
923.007	13145
923.116	13122
923.224	13046
923.333	13065
923.442	12966
923.55	12913
923.659	12981
923.767	13046
923.876	12939
923.984	12935
924.092	12962
924.201	12878
924.309	12897
924.417	12825
924.525	12856
924.633	12878
924.741	13750
924.849	12494
924.956	12677
925.064	12528
925.172	12616
925.279	12525
925.387	12673
925.494	12521
925.602	12658
925.709	12677
925.816	12464
925.924	12532
926.031	12608
926.138	12509
926.245	12563
926.352	12388
926.459	12521
926.566	12589
926.673	12441
926.779	12232
926.886	12277
926.993	12232
927.099	12159
927.206	12068
927.312	12106
927.419	12251
927.525	12079
927.631	12144
927.737	11977
927.843	12026
927.95	11961
928.056	11935
928.162	12041
928.267	12102
928.373	12540
928.479	11984
928.585	11817
928.69	11999
928.796	11977
928.901	11897
929.007	11718
929.112	11840
929.218	11767
929.323	11748
929.428	11741
929.533	11908
929.638	11577
929.743	11627
929.848	11741
929.953	11665
930.058	11478
930.163	11421
930.267	11543
930.372	11600
930.477	11440
930.581	11688
930.685	11474
930.79	11360
930.894	11414
930.998	11303
931.103	11459
931.207	11109
931.311	10930
931.415	10927
931.519	10664
931.623	10672
