Data from test_V78500241_1497.txt Node
Date: Fri Mar 25 15:20:16 CST 2022
User: usil
Spectrometer: V785-0024
Trigger mode: 0
Integration Time (sec): 4.000000E-1
Scans to average: 1
Nonlinearity correction enabled: false
Boxcar width: 0
Storing dark spectrum: false
XAxis mode: Wavelengths
Number of Pixels in Spectrum: 1024
>>>>>Begin Spectral Data<<<<<
801.071	28109
801.214	28219
801.356	27846
801.499	27682
801.641	27728
801.783	27629
801.926	27690
802.068	27705
802.211	27671
802.353	27572
802.496	27344
802.638	27340
802.78	27412
802.923	27252
803.065	27249
803.208	27237
803.35	27275
803.492	27332
803.635	27629
803.777	27401
803.919	27557
804.061	27899
804.204	27492
804.346	27576
804.488	27606
804.63	27622
804.773	27427
804.915	27618
805.057	27698
805.199	27538
805.341	27633
805.483	27774
805.626	27633
805.768	27633
805.91	27667
806.052	27808
806.194	27652
806.336	27930
806.478	27675
806.62	27804
806.762	27922
806.904	27945
807.046	28196
807.188	28051
807.33	28223
807.472	28135
807.614	28029
807.756	28162
807.898	27930
808.04	27930
808.182	27979
808.324	28021
808.465	28105
808.607	28280
808.749	28310
808.891	28386
809.033	28580
809.174	28432
809.316	28466
809.458	28424
809.6	28234
809.741	28599
809.883	28546
810.025	28660
810.166	28519
810.308	28664
810.45	28557
810.591	28390
810.733	28516
810.875	28375
811.016	28143
811.158	28261
811.299	28306
811.441	28436
811.582	28421
811.724	28382
811.865	28405
812.007	28417
812.148	28139
812.29	28462
812.431	28565
812.573	28797
812.714	28782
812.855	28923
812.997	29041
813.138	29178
813.279	28972
813.421	28968
813.562	28847
813.703	28793
813.845	28569
813.986	28382
814.127	28310
814.268	28082
814.41	28219
814.551	28006
814.692	28090
814.833	28051
814.974	27994
815.115	28006
815.256	28082
815.397	27964
815.539	28002
815.68	27884
815.821	27861
815.962	27972
816.103	27892
816.244	27701
816.385	27766
816.526	27610
816.666	27462
816.807	27374
816.948	27462
817.089	27507
817.23	27302
817.371	27511
817.512	27466
817.653	27367
817.793	27340
817.934	27519
818.075	27397
818.216	27348
818.356	27275
818.497	27268
818.638	27077
818.778	26990
818.919	27104
819.06	27249
819.2	27211
819.341	27351
819.481	27401
819.622	27519
819.762	27713
819.903	27606
820.043	27614
820.184	27454
820.324	27386
820.465	27644
820.605	27469
820.746	27302
820.886	27264
821.026	27310
821.167	27511
821.307	27424
821.447	27340
821.588	27306
821.728	27127
821.868	26868
822.008	26785
822.149	26727
822.289	26815
822.429	26465
822.569	26419
822.709	26533
822.849	26396
822.99	26248
823.13	26313
823.27	26294
823.41	26195
823.55	25951
823.69	26275
823.83	26122
823.97	26138
824.11	26024
824.25	25947
824.389	25959
824.529	26164
824.669	26012
824.809	26100
824.949	25978
825.089	25982
825.228	26092
825.368	25955
825.508	25761
825.648	25978
825.787	25826
825.927	26043
826.067	25890
826.206	25750
826.346	25860
826.485	25814
826.625	25841
826.765	25902
826.904	25925
827.044	25552
827.183	25571
827.323	25491
827.462	25658
827.601	25525
827.741	25567
827.88	25559
828.02	25430
828.159	25529
828.298	25578
828.437	25597
828.577	25434
828.716	25620
828.855	25537
828.994	25324
829.134	25122
829.273	25282
829.412	25244
829.551	25316
829.69	25240
829.829	25282
829.968	25369
830.107	25392
830.246	25282
830.385	25221
830.524	25114
830.663	24966
830.802	24897
830.941	24894
831.08	24772
831.219	24947
831.357	24947
831.496	25088
831.635	24779
831.774	24867
831.913	24760
832.051	24646
832.19	24623
832.329	24696
832.467	24437
832.606	24494
832.744	24547
832.883	24494
833.022	24540
833.16	24547
833.299	24601
833.437	24551
833.576	24555
833.714	24601
833.852	24593
833.991	24525
834.129	24658
834.267	24661
834.406	24502
834.544	24620
834.682	24555
834.821	24623
834.959	24703
835.097	24486
835.235	24677
835.373	24486
835.511	24555
835.65	24277
835.788	24452
835.926	24273
836.064	24224
836.202	24232
836.34	24410
836.478	24456
836.615	24388
836.753	24334
836.891	24327
837.029	24483
837.167	24327
837.305	24292
837.443	24319
837.58	24216
837.718	24304
837.856	24224
837.993	24213
838.131	24190
838.269	24045
838.406	24110
838.544	24003
838.681	23882
838.819	23775
838.956	23687
839.094	23783
839.231	23741
839.369	23954
839.506	24110
839.643	23969
839.781	23627
839.918	23642
840.055	23668
840.193	23718
840.33	23459
840.467	23589
840.604	23630
840.742	23901
840.879	23509
841.016	23501
841.153	23520
841.29	23703
841.427	23718
841.564	23657
841.701	23646
841.838	23543
841.975	23642
842.112	23436
842.249	23383
842.385	23284
842.522	23596
842.659	23349
842.796	23398
842.933	23433
843.069	23288
843.206	23231
843.343	23376
843.479	23360
843.616	23292
843.752	23136
843.889	23117
844.025	23440
844.162	23025
844.298	23273
844.435	23159
844.571	23220
844.708	23181
844.844	23261
844.98	23280
845.117	23235
845.253	23136
845.389	22934
845.525	23010
845.661	22991
845.798	22892
845.934	22919
846.07	22873
846.206	22805
846.342	22862
846.478	22869
846.614	22618
846.75	22615
846.886	22546
847.022	22622
847.158	22683
847.294	22535
847.429	22717
847.565	22561
847.701	22809
847.837	22360
847.972	22276
848.108	22436
848.244	22443
848.379	22154
848.515	22188
848.65	22051
848.786	22196
848.921	22249
849.057	22272
849.192	22185
849.328	22177
849.463	22173
849.598	22105
849.734	22002
849.869	21987
850.004	21960
850.14	21865
850.275	21812
850.41	21926
850.545	21911
850.68	21892
850.815	21987
850.95	21930
851.085	22013
851.22	22025
851.355	21972
851.49	21922
851.625	21873
851.76	21926
851.895	21816
852.03	21899
852.165	21987
852.299	21922
852.434	21922
852.569	22055
852.703	21880
852.838	21956
852.973	22116
853.107	22013
853.242	21835
853.376	21732
853.511	21679
853.645	21823
853.78	21835
853.914	21770
854.048	21694
854.183	21724
854.317	21854
854.451	21953
854.585	21823
854.72	21717
854.854	21835
854.988	21770
855.122	21812
855.256	21652
855.39	21690
855.524	21895
855.658	21793
855.792	21690
855.926	21827
856.06	21827
856.194	21907
856.327	21793
856.461	21846
856.595	21606
856.729	21625
856.862	21892
856.996	21846
857.13	21857
857.263	21857
857.397	21770
857.53	21816
857.664	21876
857.797	21778
857.931	22021
858.064	21846
858.197	21854
858.331	21781
858.464	21709
858.597	21663
858.731	21736
858.864	21648
858.997	21770
859.13	21743
859.263	21857
859.396	21747
859.529	21793
859.662	21713
859.795	21587
859.928	21873
860.061	21926
860.194	21915
860.327	21876
860.46	21690
860.592	21895
860.725	21903
860.858	21785
860.99	21739
861.123	21701
861.256	21629
861.388	21797
861.521	22329
861.653	21618
861.786	21534
861.918	21500
862.05	21698
862.183	21549
862.315	21701
862.447	21701
862.58	21713
862.712	21450
862.844	21454
862.976	21705
863.108	21481
863.24	21953
863.372	21424
863.504	21534
863.636	21591
863.768	21519
863.9	21397
864.032	21443
864.164	21485
864.296	21545
864.428	21576
864.559	21523
864.691	21519
864.823	21420
864.954	21488
865.086	21348
865.217	21302
865.349	21245
865.48	21344
865.612	21260
865.743	21553
865.875	21211
866.006	21275
866.137	21275
866.269	21325
866.4	21313
866.531	21340
866.662	21233
866.793	21207
866.924	21249
867.055	21363
867.186	21359
867.317	21230
867.448	21169
867.579	21256
867.71	21154
867.841	21108
867.972	21161
868.103	21272
868.233	21298
868.364	21336
868.495	21348
868.625	21443
868.756	21679
868.886	21443
869.017	21500
869.147	21717
869.278	21515
869.408	21401
869.539	21564
869.669	21519
869.799	21504
869.929	21705
870.06	21629
870.19	21869
870.32	21690
870.45	21850
870.58	21865
870.71	22044
870.84	22017
870.97	21899
871.1	21785
871.23	22040
871.36	22169
871.489	21918
871.619	22196
871.749	22143
871.879	22162
872.008	22234
872.138	22196
872.267	22143
872.397	22051
872.526	22101
872.656	21956
872.785	21934
872.915	22158
873.044	22230
873.173	22173
873.303	22185
873.432	22261
873.561	22261
873.69	22185
873.819	22181
873.948	22196
874.077	22120
874.206	22246
874.335	22124
874.464	22211
874.593	22375
874.722	22223
874.851	22413
874.979	22371
875.108	22402
875.237	22261
875.365	22261
875.494	22291
875.623	22459
875.751	22363
875.88	22371
876.008	22489
876.136	22611
876.265	22740
876.393	22866
876.521	22801
876.65	22679
876.778	22691
876.906	22618
877.034	22634
877.162	22805
877.29	22603
877.418	22725
877.546	22698
877.674	22748
877.802	22812
877.93	22911
878.058	22573
878.185	22618
878.313	22748
878.441	22900
878.568	22531
878.696	22645
878.824	22790
878.951	22713
879.079	22904
879.206	23105
879.333	22809
879.461	22759
879.588	22782
879.715	22968
879.842	22991
879.97	22831
880.097	22493
880.224	22542
880.351	22672
880.478	22527
880.605	22402
880.732	22470
880.859	22782
880.986	22436
881.112	22603
881.239	22402
881.366	22325
881.493	22234
881.619	22223
881.746	22124
881.872	22177
881.999	22063
882.125	22040
882.252	22147
882.378	22040
882.505	22154
882.631	21945
882.757	21842
882.883	21915
883.01	21732
883.136	21838
883.262	21671
883.388	21412
883.514	21812
883.64	21797
883.766	21614
883.892	21587
884.018	21583
884.143	21800
884.269	21865
884.395	21481
884.52	21302
884.646	21488
884.772	21359
884.897	21359
885.023	21507
885.148	21473
885.274	21511
885.399	21462
885.524	21523
885.65	21580
885.775	21431
885.9	21351
886.025	21424
886.15	21401
886.275	21363
886.4	21325
886.525	21355
886.65	21412
886.775	21268
886.9	21500
887.025	21679
887.149	21412
887.274	21222
887.399	21161
887.523	21279
887.648	21150
887.773	21173
887.897	21173
888.021	21291
888.146	21161
888.27	21192
888.395	21287
888.519	21161
888.643	21146
888.767	21192
888.891	21017
889.015	20933
889.139	21017
889.263	20883
889.387	21013
889.511	21104
889.635	21127
889.759	20902
889.883	21009
890.006	20982
890.13	21108
890.254	20918
890.377	21001
890.501	20765
890.624	20697
890.748	20849
890.871	20686
890.995	20644
891.118	20461
891.241	20636
891.364	20552
891.488	20811
891.611	20663
891.734	20522
891.857	20575
891.98	20613
892.103	20670
892.226	20560
892.349	20457
892.471	20385
892.594	20503
892.717	20530
892.839	20381
892.962	20480
893.085	20473
893.207	20492
893.33	20434
893.452	20358
893.575	20419
893.697	20503
893.819	20682
893.941	20678
894.064	20507
894.186	20438
894.308	20355
894.43	20442
894.552	20632
894.674	20495
894.796	20332
894.918	20355
895.04	20385
895.161	20526
895.283	20552
895.405	20484
895.526	20434
895.648	20476
895.769	20469
895.891	20549
896.012	20606
896.134	20537
896.255	20442
896.376	20313
896.498	20419
896.619	20461
896.74	20404
896.861	20484
896.982	20792
897.103	20815
897.224	20765
897.345	20594
897.466	20655
897.587	20556
897.708	20735
897.828	20720
897.949	20625
898.07	20465
898.19	20663
898.311	20754
898.431	20674
898.552	20678
898.672	20834
898.792	20693
898.913	20659
899.033	20450
899.153	20457
899.273	20339
899.393	20446
899.513	20454
899.633	20393
899.753	20488
899.873	20301
899.993	20480
900.113	20290
900.232	20263
900.352	20370
900.472	20244
900.591	20195
900.711	20191
900.83	20027
900.95	20259
901.069	20199
901.189	20027
901.308	19967
901.427	19681
901.546	19841
901.665	19715
901.784	19738
901.904	19616
902.023	19495
902.141	19377
902.26	19358
902.379	19430
902.498	19384
902.617	19183
902.735	19289
902.854	19213
902.973	19244
903.091	18932
903.21	18913
903.328	18890
903.446	18939
903.565	18715
903.683	18757
903.801	18730
903.919	18684
904.038	18654
904.156	18460
904.274	18570
904.392	18517
904.51	18464
904.627	18563
904.745	18441
904.863	18601
904.981	18308
905.098	18311
905.216	18152
905.334	18148
905.451	18117
905.569	18072
905.686	18144
905.803	18171
905.921	17977
906.038	18106
906.155	17950
906.272	17882
906.389	17847
906.506	17756
906.623	17775
906.74	17718
906.857	17524
906.974	17520
907.091	17710
907.208	17741
907.324	17653
907.441	17653
907.557	17440
907.674	17398
907.79	17356
907.907	17258
908.023	17356
908.139	17372
908.256	17425
908.372	17250
908.488	17280
908.604	17265
908.72	17071
908.836	17174
908.952	17189
909.068	17250
909.184	17193
909.3	17178
909.415	17216
909.531	17140
909.647	16801
909.762	16873
909.878	16797
909.993	16790
910.108	16778
910.224	16805
910.339	16812
910.454	16645
910.57	16664
910.685	16558
910.8	16858
910.915	16767
911.03	16664
911.145	16421
911.259	16523
911.374	16337
911.489	16325
911.604	16238
911.718	16154
911.833	16196
911.947	16029
912.062	16036
912.176	16162
912.291	16093
912.405	16112
912.519	16310
912.633	16325
912.748	16257
912.862	16154
912.976	16013
913.09	15953
913.204	16071
913.318	15956
913.431	16032
913.545	15949
913.659	16051
913.772	15956
913.886	15663
914	15778
914.113	15732
914.226	16006
914.34	15823
914.453	15698
914.566	15804
914.68	15679
914.793	15686
914.906	15458
915.019	15466
915.132	15283
915.245	15306
915.358	15389
915.47	15435
915.583	15435
915.696	15363
915.809	15382
915.921	15523
916.034	15382
916.146	15325
916.259	15203
916.371	15367
916.483	15252
916.595	15256
916.708	15287
916.82	15154
916.932	15119
917.044	15127
917.156	15135
917.268	15009
917.38	15013
917.491	14956
917.603	15055
917.715	14956
917.826	15161
917.938	14918
918.049	14815
918.161	14910
918.272	15043
918.384	15028
918.495	14948
918.606	14830
918.717	14773
918.828	14750
918.939	14777
919.05	14682
919.161	14781
919.272	14583
919.383	14617
919.494	14769
919.604	14971
919.715	14785
919.826	14682
919.936	14651
920.047	14819
920.157	14708
920.267	14941
920.378	14758
920.488	14670
920.598	14845
920.708	14933
920.818	14830
920.928	14800
921.038	14910
921.148	14944
921.258	14686
921.368	14575
921.477	14404
921.587	14450
921.697	14370
921.806	14377
921.916	14393
922.025	14199
922.134	14149
922.244	13959
922.353	14164
922.462	13925
922.571	13928
922.68	13841
922.789	13731
922.898	13784
923.007	13700
923.116	13811
923.224	13719
923.333	13693
923.442	13525
923.55	13597
923.659	13639
923.767	13578
923.876	13529
923.984	13708
924.092	13468
924.201	13483
924.309	13540
924.417	13571
924.525	13320
924.633	13411
924.741	14161
924.849	13145
924.956	13400
925.064	13168
925.172	13095
925.279	13145
925.387	13129
925.494	13076
925.602	13206
925.709	13179
925.816	13023
925.924	13050
926.031	13206
926.138	13031
926.245	13095
926.352	13046
926.459	13088
926.566	13065
926.673	12958
926.779	12905
926.886	12863
926.993	12840
927.099	12734
927.206	12585
927.312	12635
927.419	12738
927.525	12753
927.631	12772
927.737	12593
927.843	12460
927.95	12471
928.056	12551
928.162	12525
928.267	12604
928.373	13107
928.479	12582
928.585	12334
928.69	12429
928.796	12437
928.901	12418
929.007	12243
929.112	12433
929.218	12429
929.323	12254
929.428	12232
929.533	12418
929.638	12019
929.743	12209
929.848	12197
929.953	12197
930.058	12125
930.163	12015
930.267	11965
930.372	12034
930.477	11859
930.581	12098
930.685	11942
930.79	11847
930.894	11889
930.998	11741
931.103	11939
931.207	11501
931.311	11417
931.415	11376
931.519	11265
931.623	11197
