Data from test_V78500241_1320.txt Node
Date: Fri Mar 25 15:19:02 CST 2022
User: usil
Spectrometer: V785-0024
Trigger mode: 0
Integration Time (sec): 4.000000E-1
Scans to average: 1
Nonlinearity correction enabled: false
Boxcar width: 0
Storing dark spectrum: false
XAxis mode: Wavelengths
Number of Pixels in Spectrum: 1024
>>>>>Begin Spectral Data<<<<<
801.071	27934
801.214	27812
801.356	27656
801.499	27709
801.641	27431
801.783	27477
801.926	27675
802.068	27663
802.211	27408
802.353	27473
802.496	27264
802.638	27138
802.78	27207
802.923	27077
803.065	27157
803.208	27066
803.35	27294
803.492	27222
803.635	27264
803.777	27321
803.919	27298
804.061	27717
804.204	27454
804.346	27336
804.488	27138
804.63	27325
804.773	27188
804.915	27405
805.057	27431
805.199	27313
805.341	27374
805.483	27622
805.626	27606
805.768	27492
805.91	27534
806.052	27519
806.194	27393
806.336	27568
806.478	27568
806.62	27477
806.762	27675
806.904	27720
807.046	27861
807.188	27903
807.33	27850
807.472	28067
807.614	27975
807.756	27930
807.898	27918
808.04	27694
808.182	27671
808.324	27755
808.465	27770
808.607	27937
808.749	28196
808.891	28348
809.033	28318
809.174	28162
809.316	27983
809.458	28101
809.6	28105
809.741	28306
809.883	28253
810.025	28573
810.166	28398
810.308	28485
810.45	28440
810.591	28272
810.733	28272
810.875	28169
811.016	28051
811.158	28074
811.299	28166
811.441	28257
811.582	28150
811.724	28143
811.865	28272
812.007	28116
812.148	28185
812.29	28242
812.431	28428
812.573	28485
812.714	28577
812.855	28580
812.997	28824
813.138	28820
813.279	28835
813.421	28672
813.562	28755
813.703	28424
813.845	28481
813.986	28093
814.127	27972
814.268	27835
814.41	28036
814.551	27865
814.692	27812
814.833	27732
814.974	27819
815.115	27892
815.256	27652
815.397	27633
815.539	27732
815.68	27637
815.821	27496
815.962	27739
816.103	27774
816.244	27580
816.385	27511
816.526	27348
816.666	27188
816.807	27138
816.948	27207
817.089	27233
817.23	27237
817.371	27150
817.512	27119
817.653	27165
817.793	27055
817.934	27184
818.075	27142
818.216	27241
818.356	27074
818.497	26990
818.638	26708
818.778	26994
818.919	26895
819.06	26956
819.2	27020
819.341	27127
819.481	27211
819.622	27264
819.762	27458
819.903	27298
820.043	27439
820.184	27226
820.324	27298
820.465	27306
820.605	27313
820.746	27408
820.886	27089
821.026	27230
821.167	27214
821.307	27173
821.447	27226
821.588	27123
821.728	27024
821.868	26743
822.008	26648
822.149	26651
822.289	26556
822.429	26370
822.569	26370
822.709	26408
822.849	26130
822.99	26240
823.13	26054
823.27	26077
823.41	25883
823.55	25913
823.69	25928
823.83	25860
823.97	25955
824.11	25601
824.25	25704
824.389	25837
824.529	25860
824.669	25807
824.809	25830
824.949	25750
825.089	25951
825.228	25803
825.368	25620
825.508	25597
825.648	25772
825.787	25708
825.927	25799
826.067	25666
826.206	25788
826.346	25635
826.485	25643
826.625	25826
826.765	25746
826.904	25708
827.044	25468
827.183	25472
827.323	25373
827.462	25384
827.601	25365
827.741	25327
827.88	25453
828.02	25255
828.159	25251
828.298	25312
828.437	25403
828.577	25247
828.716	25464
828.855	25190
828.994	25080
829.134	25129
829.273	25012
829.412	25034
829.551	24973
829.69	24985
829.829	25156
829.968	25179
830.107	25209
830.246	25046
830.385	25031
830.524	25065
830.663	25034
830.802	24882
830.941	24745
831.08	24745
831.219	24844
831.357	24814
831.496	24913
831.635	24730
831.774	24639
831.913	24631
832.051	24433
832.19	24521
832.329	24437
832.467	24467
832.606	24380
832.744	24270
832.883	24437
833.022	24319
833.16	24357
833.299	24365
833.437	24410
833.576	24498
833.714	24570
833.852	24593
833.991	24464
834.129	24578
834.267	24521
834.406	24502
834.544	24437
834.682	24399
834.821	24498
834.959	24483
835.097	24350
835.235	24464
835.373	24509
835.511	24418
835.65	24262
835.788	24361
835.926	24194
836.064	24125
836.202	24133
836.34	24270
836.478	24445
836.615	24270
836.753	24243
836.891	24292
837.029	24239
837.167	24171
837.305	24167
837.443	24133
837.58	24194
837.718	24247
837.856	24171
837.993	24114
838.131	24026
838.269	23878
838.406	24011
838.544	24034
838.681	23722
838.819	23707
838.956	23501
839.094	23623
839.231	23649
839.369	23790
839.506	23961
839.643	23798
839.781	23615
839.918	23554
840.055	23627
840.193	23570
840.33	23531
840.467	23611
840.604	23554
840.742	23775
840.879	23482
841.016	23436
841.153	23425
841.29	23600
841.427	23493
841.564	23520
841.701	23474
841.838	23360
841.975	23467
842.112	23372
842.249	23452
842.385	23216
842.522	23353
842.659	23315
842.796	23246
842.933	23356
843.069	23231
843.206	23151
843.343	23299
843.479	23337
843.616	23379
843.752	23056
843.889	23037
844.025	23094
844.162	22854
844.298	23098
844.435	23117
844.571	22999
844.708	23105
844.844	23170
844.98	23159
845.117	23124
845.253	22968
845.389	22908
845.525	22965
845.661	22755
845.798	22790
845.934	22790
846.07	22691
846.206	22831
846.342	22972
846.478	22622
846.614	22615
846.75	22443
846.886	22542
847.022	22634
847.158	22569
847.294	22493
847.429	22455
847.565	22519
847.701	22687
847.837	22322
847.972	22143
848.108	22299
848.244	22230
848.379	22181
848.515	22029
848.65	22135
848.786	22097
848.921	22063
849.057	22150
849.192	22207
849.328	22196
849.463	21972
849.598	21975
849.734	22010
849.869	21911
850.004	21918
850.14	21846
850.275	21873
850.41	21819
850.545	21774
850.68	21766
850.815	21842
850.95	21880
851.085	22017
851.22	21888
851.355	21789
851.49	21770
851.625	21888
851.76	21759
851.895	21812
852.03	21701
852.165	21869
852.299	21819
852.434	21857
852.569	21857
852.703	21907
852.838	21922
852.973	21854
853.107	22013
853.242	21747
853.376	21732
853.511	21564
853.645	21720
853.78	21755
853.914	21660
854.048	21496
854.183	21709
854.317	21694
854.451	21785
854.585	21694
854.72	21747
854.854	21641
854.988	21538
855.122	21732
855.256	21637
855.39	21622
855.524	21743
855.658	21633
855.792	21698
855.926	21656
856.06	21671
856.194	21743
856.327	21606
856.461	21526
856.595	21682
856.729	21675
856.862	21770
856.996	21709
857.13	21671
857.263	21720
857.397	21785
857.53	21667
857.664	21724
857.797	21865
857.931	21675
858.064	21629
858.197	21755
858.331	21690
858.464	21599
858.597	21481
858.731	21610
858.864	21652
858.997	21595
859.13	21667
859.263	21660
859.396	21603
859.529	21675
859.662	21618
859.795	21469
859.928	21652
860.061	21812
860.194	21857
860.327	21755
860.46	21603
860.592	21770
860.725	21880
860.858	21804
860.99	21610
861.123	21564
861.256	21633
861.388	21652
861.521	22325
861.653	21583
861.786	21466
861.918	21428
862.05	21549
862.183	21660
862.315	21564
862.447	21545
862.58	21473
862.712	21325
862.844	21275
862.976	21302
863.108	21344
863.24	21713
863.372	21230
863.504	21382
863.636	21424
863.768	21420
863.9	21428
864.032	21260
864.164	21317
864.296	21397
864.428	21568
864.559	21306
864.691	21370
864.823	21367
864.954	21321
865.086	21401
865.217	21359
865.349	21279
865.48	21218
865.612	21161
865.743	21245
865.875	21344
866.006	21249
866.137	21355
866.269	21188
866.4	21169
866.531	21039
866.662	21100
866.793	21119
866.924	21112
867.055	21230
867.186	21222
867.317	21146
867.448	21081
867.579	21119
867.71	21184
867.841	21074
867.972	21173
868.103	21104
868.233	21222
868.364	21222
868.495	21348
868.625	21439
868.756	21618
868.886	21245
869.017	21450
869.147	21435
869.278	21610
869.408	21530
869.539	21526
869.669	21530
869.799	21534
869.929	21538
870.06	21545
870.19	21785
870.32	21583
870.45	21736
870.58	21793
870.71	22006
870.84	21888
870.97	21808
871.1	21778
871.23	21960
871.36	22029
871.489	21934
871.619	21911
871.749	22010
871.879	22097
872.008	22109
872.138	22093
872.267	22029
872.397	21888
872.526	22074
872.656	21880
872.785	21846
872.915	22002
873.044	21975
873.173	22006
873.303	22143
873.432	22067
873.561	22147
873.69	22032
873.819	22074
873.948	22048
874.077	21983
874.206	21907
874.335	22063
874.464	22188
874.593	22284
874.722	22341
874.851	22276
874.979	22394
875.108	22363
875.237	22173
875.365	22215
875.494	22215
875.623	22276
875.751	22207
875.88	22192
876.008	22318
876.136	22440
876.265	22615
876.393	22683
876.521	22706
876.65	22752
876.778	22664
876.906	22561
877.034	22497
877.162	22542
877.29	22573
877.418	22622
877.546	22504
877.674	22653
877.802	22561
877.93	22573
878.058	22538
878.185	22519
878.313	22630
878.441	22557
878.568	22363
878.696	22588
878.824	22634
878.951	22668
879.079	22672
879.206	22816
879.333	22668
879.461	22611
879.588	22847
879.715	22698
879.842	22694
879.97	22641
880.097	22379
880.224	22360
880.351	22417
880.478	22394
880.605	22360
880.732	22455
880.859	22546
880.986	22424
881.112	22405
881.239	22253
881.366	22036
881.493	22017
881.619	22013
881.746	22006
881.872	22051
881.999	21903
882.125	21903
882.252	22032
882.378	21987
882.505	22074
882.631	21835
882.757	21682
882.883	21781
883.01	21720
883.136	21553
883.262	21618
883.388	21542
883.514	21743
883.64	21591
883.766	21564
883.892	21416
884.018	21462
884.143	21591
884.269	21709
884.395	21431
884.52	21291
884.646	21359
884.772	21252
884.897	21252
885.023	21310
885.148	21462
885.274	21408
885.399	21325
885.524	21359
885.65	21275
885.775	21264
885.9	21412
886.025	21386
886.15	21355
886.275	21313
886.4	21230
886.525	21336
886.65	21226
886.775	21222
886.9	21283
887.025	21492
887.149	21310
887.274	21100
887.399	21119
887.523	21089
887.648	21009
887.773	20925
887.897	21192
888.021	21093
888.146	21081
888.27	21207
888.395	21157
888.519	21154
888.643	21051
888.767	21195
888.891	21093
889.015	20842
889.139	20891
889.263	20872
889.387	21024
889.511	21093
889.635	20971
889.759	20956
889.883	20857
890.006	20891
890.13	20918
890.254	20887
890.377	20788
890.501	20705
890.624	20587
890.748	20648
890.871	20503
890.995	20408
891.118	20282
891.241	20450
891.364	20423
891.488	20533
891.611	20492
891.734	20381
891.857	20419
891.98	20427
892.103	20613
892.226	20351
892.349	20511
892.471	20225
892.594	20259
892.717	20446
892.839	20263
892.962	20377
893.085	20442
893.207	20271
893.33	20244
893.452	20317
893.575	20450
893.697	20309
893.819	20549
893.941	20590
894.064	20381
894.186	20187
894.308	20244
894.43	20469
894.552	20438
894.674	20404
894.796	20191
894.918	20309
895.04	20210
895.161	20431
895.283	20294
895.405	20271
895.526	20290
895.648	20362
895.769	20408
895.891	20370
896.012	20492
896.134	20503
896.255	20275
896.376	20320
896.498	20233
896.619	20328
896.74	20263
896.861	20275
896.982	20602
897.103	20743
897.224	20602
897.345	20446
897.466	20651
897.587	20530
897.708	20629
897.828	20659
897.949	20518
898.07	20408
898.19	20511
898.311	20644
898.431	20511
898.552	20575
898.672	20621
898.792	20457
898.913	20617
899.033	20461
899.153	20385
899.273	20339
899.393	20286
899.513	20309
899.633	20351
899.753	20309
899.873	20218
899.993	20320
900.113	20195
900.232	20275
900.352	20221
900.472	20024
900.591	20005
900.711	20168
900.83	19959
900.95	20145
901.069	20199
901.189	19970
901.308	19655
901.427	19655
901.546	19715
901.665	19613
901.784	19696
901.904	19476
902.023	19343
902.141	19187
902.26	19190
902.379	19255
902.498	19232
902.617	19133
902.735	19175
902.854	19148
902.973	19023
903.091	18856
903.21	18856
903.328	18928
903.446	18684
903.565	18601
903.683	18692
903.801	18555
903.919	18509
904.038	18479
904.156	18460
904.274	18490
904.392	18433
904.51	18376
904.627	18319
904.745	18369
904.863	18395
904.981	18163
905.098	18140
905.216	17988
905.334	18049
905.451	18102
905.569	17969
905.686	18034
905.803	18087
905.921	17840
906.038	17980
906.155	17916
906.272	17726
906.389	17809
906.506	17714
906.623	17630
906.74	17623
906.857	17417
906.974	17509
907.091	17676
907.208	17745
907.324	17630
907.441	17493
907.557	17372
907.674	17322
907.79	17349
907.907	17193
908.023	17330
908.139	17345
908.256	17208
908.372	17258
908.488	17220
908.604	17094
908.72	16999
908.836	17060
908.952	17041
909.068	17098
909.184	17075
909.3	16934
909.415	17060
909.531	16991
909.647	16805
909.762	16744
909.878	16736
909.993	16805
910.108	16721
910.224	16664
910.339	16816
910.454	16660
910.57	16603
910.685	16565
910.8	16797
910.915	16702
911.03	16596
911.145	16360
911.259	16230
911.374	16268
911.489	16253
911.604	16238
911.718	16093
911.833	16071
911.947	15934
912.062	15880
912.176	15918
912.291	16025
912.405	15987
912.519	16303
912.633	16173
912.748	16044
912.862	16002
912.976	15926
913.09	15759
913.204	15770
913.318	15831
913.431	16006
913.545	15918
913.659	15926
913.772	15865
913.886	15690
914	15679
914.113	15686
914.226	15835
914.34	15701
914.453	15644
914.566	15610
914.68	15557
914.793	15515
914.906	15374
915.019	15199
915.132	15272
915.245	15306
915.358	15351
915.47	15359
915.583	15294
915.696	15336
915.809	15443
915.921	15424
916.034	15165
916.146	15116
916.259	15116
916.371	15249
916.483	15279
916.595	15146
916.708	15093
916.82	15184
916.932	15039
917.044	15138
917.156	15070
917.268	14933
917.38	14967
917.491	14918
917.603	14967
917.715	14982
917.826	15070
917.938	14792
918.049	14746
918.161	14902
918.272	15024
918.384	15001
918.495	14914
918.606	14602
918.717	14575
918.828	14773
918.939	14678
919.05	14507
919.161	14667
919.272	14503
919.383	14511
919.494	14705
919.604	14857
919.715	14655
919.826	14511
919.936	14583
920.047	14689
920.157	14663
920.267	14830
920.378	14594
920.488	14552
920.598	14830
920.708	14998
920.818	14750
920.928	14838
921.038	14872
921.148	14864
921.258	14632
921.368	14480
921.477	14374
921.587	14377
921.697	14233
921.806	14351
921.916	14168
922.025	14123
922.134	14012
922.244	13963
922.353	14062
922.462	13913
922.571	13814
922.68	13750
922.789	13750
922.898	13594
923.007	13594
923.116	13647
923.224	13563
923.333	13655
923.442	13495
923.55	13529
923.659	13514
923.767	13575
923.876	13415
923.984	13491
924.092	13304
924.201	13381
924.309	13400
924.417	13453
924.525	13339
924.633	13285
924.741	14248
924.849	13194
924.956	13259
925.064	13133
925.172	13061
925.279	13046
925.387	13114
925.494	13000
925.602	13168
925.709	13061
925.816	13095
925.924	12985
926.031	13027
926.138	12996
926.245	13034
926.352	12909
926.459	13034
926.566	13019
926.673	12935
926.779	12806
926.886	12856
926.993	12726
927.099	12658
927.206	12612
927.312	12635
927.419	12669
927.525	12551
927.631	12692
927.737	12559
927.843	12452
927.95	12315
928.056	12452
928.162	12399
928.267	12525
928.373	13061
928.479	12494
928.585	12289
928.69	12506
928.796	12456
928.901	12346
929.007	12136
929.112	12292
929.218	12304
929.323	12216
929.428	12220
929.533	12262
929.638	12110
929.743	12125
929.848	12114
929.953	12091
930.058	11984
930.163	11813
930.267	11847
930.372	11874
930.477	11672
930.581	12034
930.685	11897
930.79	11703
930.894	11726
930.998	11672
931.103	11882
931.207	11501
931.311	11387
931.415	11334
931.519	11075
931.623	11113
