Data from test_V78500241_2846.txt Node
Date: Fri Mar 25 15:29:40 CST 2022
User: usil
Spectrometer: V785-0024
Trigger mode: 0
Integration Time (sec): 4.000000E-1
Scans to average: 1
Nonlinearity correction enabled: false
Boxcar width: 0
Storing dark spectrum: false
XAxis mode: Wavelengths
Number of Pixels in Spectrum: 1024
>>>>>Begin Spectral Data<<<<<
801.071	27169
801.214	27237
801.356	26952
801.499	26842
801.641	26674
801.783	26861
801.926	26792
802.068	26826
802.211	26655
802.353	26575
802.496	26541
802.638	26514
802.78	26320
802.923	26393
803.065	26358
803.208	26309
803.35	26248
803.492	26613
803.635	26590
803.777	26469
803.919	26598
804.061	26960
804.204	26621
804.346	26431
804.488	26507
804.63	26682
804.773	26492
804.915	26450
805.057	26746
805.199	26613
805.341	26602
805.483	26708
805.626	26689
805.768	26488
805.91	26724
806.052	26640
806.194	26606
806.336	26830
806.478	26727
806.62	26720
806.762	26819
806.904	26956
807.046	27157
807.188	27173
807.33	27089
807.472	27184
807.614	27104
807.756	27085
807.898	27028
808.04	26880
808.182	26872
808.324	26883
808.465	27116
808.607	27173
808.749	27233
808.891	27370
809.033	27500
809.174	27427
809.316	27214
809.458	27230
809.6	27313
809.741	27336
809.883	27500
810.025	27618
810.166	27523
810.308	27633
810.45	27545
810.591	27595
810.733	27370
810.875	27298
811.016	27169
811.158	27199
811.299	27504
811.441	27466
811.582	27504
811.724	27332
811.865	27321
812.007	27275
812.148	27119
812.29	27408
812.431	27473
812.573	27477
812.714	27884
812.855	27732
812.997	27854
813.138	28036
813.279	27979
813.421	27861
813.562	27690
813.703	27500
813.845	27412
813.986	27116
814.127	27020
814.268	26971
814.41	26952
814.551	26929
814.692	26967
814.833	26994
814.974	27058
815.115	27024
815.256	26807
815.397	26921
815.539	26811
815.68	26682
815.821	26644
815.962	26651
816.103	26663
816.244	26575
816.385	26617
816.526	26469
816.666	26480
816.807	26161
816.948	26298
817.089	26301
817.23	26180
817.371	26176
817.512	26256
817.653	26176
817.793	26103
817.934	26161
818.075	26199
818.216	26252
818.356	26191
818.497	26157
818.638	25959
818.778	25947
818.919	25738
819.06	26054
819.2	26176
819.341	26180
819.481	26122
819.622	26469
819.762	26560
819.903	26423
820.043	26214
820.184	26385
820.324	26358
820.465	26244
820.605	26355
820.746	26381
820.886	26115
821.026	26252
821.167	26195
821.307	26256
821.447	26233
821.588	26088
821.728	26043
821.868	25826
822.008	25700
822.149	25628
822.289	25632
822.429	25415
822.569	25415
822.709	25354
822.849	25091
822.99	25183
823.13	25103
823.27	25118
823.41	24992
823.55	24886
823.69	24943
823.83	24863
823.97	24981
824.11	24604
824.25	24768
824.389	24772
824.529	24817
824.669	24665
824.809	24871
824.949	24875
825.089	24909
825.228	24787
825.368	24692
825.508	24608
825.648	24722
825.787	24688
825.927	24696
826.067	24722
826.206	24654
826.346	24661
826.485	24722
826.625	24661
826.765	24795
826.904	24684
827.044	24445
827.183	24521
827.323	24315
827.462	24334
827.601	24422
827.741	24414
827.88	24338
828.02	24247
828.159	24300
828.298	24407
828.437	24494
828.577	24232
828.716	24505
828.855	24277
828.994	24068
829.134	24003
829.273	24167
829.412	24049
829.551	23958
829.69	24049
829.829	24030
829.968	24098
830.107	24114
830.246	23973
830.385	23931
830.524	24003
830.663	23954
830.802	23802
830.941	23615
831.08	23611
831.219	23714
831.357	23695
831.496	23897
831.635	23630
831.774	23676
831.913	23554
832.051	23425
832.19	23345
832.329	23406
832.467	23387
832.606	23220
832.744	23360
832.883	23379
833.022	23246
833.16	23292
833.299	23341
833.437	23353
833.576	23421
833.714	23459
833.852	23410
833.991	23467
834.129	23406
834.267	23311
834.406	23402
834.544	23414
834.682	23402
834.821	23433
834.959	23444
835.097	23280
835.235	23421
835.373	23421
835.511	23345
835.65	23284
835.788	23220
835.926	23136
836.064	23060
836.202	23056
836.34	23223
836.478	23383
836.615	23170
836.753	23299
836.891	23200
837.029	23364
837.167	23128
837.305	23128
837.443	23006
837.58	23033
837.718	23147
837.856	23098
837.993	23124
838.131	23075
838.269	22965
838.406	23022
838.544	22908
838.681	22710
838.819	22805
838.956	22622
839.094	22542
839.231	22679
839.369	22679
839.506	22942
839.643	22862
839.781	22565
839.918	22462
840.055	22698
840.193	22561
840.33	22447
840.467	22455
840.604	22675
840.742	22881
840.879	22379
841.016	22356
841.153	22303
841.29	22603
841.427	22409
841.564	22664
841.701	22440
841.838	22497
841.975	22382
842.112	22413
842.249	22238
842.385	22348
842.522	22565
842.659	22432
842.796	22303
842.933	22287
843.069	22211
843.206	22291
843.343	22112
843.479	22215
843.616	22261
843.752	22036
843.889	21926
844.025	22204
844.162	21994
844.298	22116
844.435	21975
844.571	22044
844.708	22131
844.844	22131
844.98	22158
845.117	22173
845.253	21968
845.389	21804
845.525	21888
845.661	21884
845.798	21755
845.934	21835
846.07	21739
846.206	21778
846.342	21884
846.478	21759
846.614	21633
846.75	21389
846.886	21424
847.022	21530
847.158	21603
847.294	21519
847.429	21511
847.565	21454
847.701	21747
847.837	21203
847.972	21161
848.108	21252
848.244	21363
848.379	21085
848.515	21165
848.65	21089
848.786	21043
848.921	21081
849.057	21051
849.192	21237
849.328	21161
849.463	21020
849.598	20948
849.734	20982
849.869	20830
850.004	20880
850.14	20883
850.275	20868
850.41	20853
850.545	20727
850.68	20792
850.815	20849
850.95	20819
851.085	20948
851.22	20986
851.355	20872
851.49	20902
851.625	20830
851.76	20796
851.895	20796
852.03	20773
852.165	20861
852.299	20796
852.434	20830
852.569	20785
852.703	20899
852.838	20899
852.973	20887
853.107	20807
853.242	20765
853.376	20663
853.511	20579
853.645	20670
853.78	20754
853.914	20579
854.048	20632
854.183	20564
854.317	20727
854.451	20838
854.585	20602
854.72	20663
854.854	20693
854.988	20613
855.122	20564
855.256	20663
855.39	20651
855.524	20708
855.658	20750
855.792	20636
855.926	20788
856.06	20697
856.194	20644
856.327	20670
856.461	20613
856.595	20655
856.729	20651
856.862	20777
856.996	20640
857.13	20769
857.263	20807
857.397	20724
857.53	20693
857.664	20712
857.797	20762
857.931	20823
858.064	20864
858.197	20716
858.331	20682
858.464	20518
858.597	20640
858.731	20625
858.864	20663
858.997	20659
859.13	20686
859.263	20667
859.396	20777
859.529	20594
859.662	20632
859.795	20678
859.928	20602
860.061	20758
860.194	20876
860.327	20644
860.46	20632
860.592	20686
860.725	20807
860.858	20712
860.99	20640
861.123	20621
861.256	20587
861.388	20571
861.521	21298
861.653	20541
861.786	20381
861.918	20503
862.05	20514
862.183	20625
862.315	20640
862.447	20769
862.58	20727
862.712	20419
862.844	20370
862.976	20450
863.108	20427
863.24	20781
863.372	20305
863.504	20381
863.636	20415
863.768	20438
863.9	20324
864.032	20233
864.164	20298
864.296	20408
864.428	20450
864.559	20431
864.691	20499
864.823	20294
864.954	20374
865.086	20286
865.217	20199
865.349	20206
865.48	20278
865.612	20202
865.743	20313
865.875	20313
866.006	20275
866.137	20176
866.269	20271
866.4	20320
866.531	20362
866.662	20214
866.793	20237
866.924	20355
867.055	20244
867.186	20180
867.317	20313
867.448	20149
867.579	20256
867.71	20115
867.841	20157
867.972	20271
868.103	20282
868.233	20225
868.364	20248
868.495	20248
868.625	20480
868.756	20537
868.886	20549
869.017	20324
869.147	20522
869.278	20708
869.408	20473
869.539	20415
869.669	20511
869.799	20518
869.929	20587
870.06	20514
870.19	20735
870.32	20663
870.45	20754
870.58	20910
870.71	20971
870.84	20876
870.97	20842
871.1	20819
871.23	21039
871.36	21039
871.489	20838
871.619	21001
871.749	20998
871.879	21176
872.008	21142
872.138	21066
872.267	21096
872.397	21013
872.526	20861
872.656	20952
872.785	20902
872.915	21017
873.044	21203
873.173	21043
873.303	21138
873.432	21135
873.561	21249
873.69	21081
873.819	21032
873.948	21192
874.077	21062
874.206	21127
874.335	20975
874.464	21093
874.593	21211
874.722	21199
874.851	21336
874.979	21355
875.108	21408
875.237	21294
875.365	21096
875.494	21294
875.623	21393
875.751	21306
875.88	21279
876.008	21389
876.136	21515
876.265	21755
876.393	21743
876.521	21865
876.65	21747
876.778	21599
876.906	21633
877.034	21679
877.162	21743
877.29	21660
877.418	21774
877.546	21686
877.674	21728
877.802	21656
877.93	21766
878.058	21583
878.185	21587
878.313	21656
878.441	21568
878.568	21553
878.696	21549
878.824	21759
878.951	21774
879.079	21808
879.206	21876
879.333	21865
879.461	21679
879.588	21800
879.715	21846
879.842	21892
879.97	21720
880.097	21481
880.224	21545
880.351	21561
880.478	21523
880.605	21412
880.732	21595
880.859	21656
880.986	21477
881.112	21454
881.239	21344
881.366	21310
881.493	21260
881.619	21165
881.746	21161
881.872	21039
881.999	21085
882.125	21051
882.252	21127
882.378	21070
882.505	21085
882.631	20982
882.757	20682
882.883	20838
883.01	20826
883.136	20686
883.262	20549
883.388	20648
883.514	20765
883.64	20838
883.766	20697
883.892	20533
884.018	20644
884.143	20773
884.269	20823
884.395	20575
884.52	20389
884.646	20465
884.772	20347
884.897	20248
885.023	20518
885.148	20552
885.274	20644
885.399	20568
885.524	20450
885.65	20488
885.775	20492
885.9	20332
886.025	20476
886.15	20442
886.275	20305
886.4	20313
886.525	20434
886.65	20294
886.775	20374
886.9	20541
887.025	20629
887.149	20461
887.274	20225
887.399	20168
887.523	20206
887.648	20180
887.773	20096
887.897	20233
888.021	20256
888.146	20180
888.27	20362
888.395	20351
888.519	20248
888.643	20142
888.767	20248
888.891	20031
889.015	20062
889.139	20046
889.263	20016
889.387	20088
889.511	20267
889.635	20126
889.759	19989
889.883	19978
890.006	19970
890.13	20172
890.254	19974
890.377	19921
890.501	19742
890.624	19753
890.748	19769
890.871	19719
890.995	19514
891.118	19540
891.241	19578
891.364	19689
891.488	19635
891.611	19662
891.734	19609
891.857	19715
891.98	19464
892.103	19571
892.226	19533
892.349	19438
892.471	19445
892.594	19419
892.717	19521
892.839	19529
892.962	19476
893.085	19552
893.207	19460
893.33	19434
893.452	19438
893.575	19491
893.697	19392
893.819	19601
893.941	19582
894.064	19693
894.186	19487
894.308	19419
894.43	19578
894.552	19601
894.674	19537
894.796	19339
894.918	19388
895.04	19438
895.161	19502
895.283	19537
895.405	19529
895.526	19506
895.648	19472
895.769	19578
895.891	19563
896.012	19590
896.134	19639
896.255	19559
896.376	19480
896.498	19533
896.619	19556
896.74	19518
896.861	19605
896.982	19890
897.103	20031
897.224	19833
897.345	19753
897.466	19624
897.587	19772
897.708	19849
897.828	19712
897.949	19791
898.07	19544
898.19	19685
898.311	19776
898.431	19666
898.552	19651
898.672	19708
898.792	19890
898.913	19708
899.033	19761
899.153	19514
899.273	19445
899.393	19552
899.513	19464
899.633	19430
899.753	19464
899.873	19422
899.993	19643
900.113	19518
900.232	19578
900.352	19403
900.472	19335
900.591	19232
900.711	19365
900.83	19259
900.95	19255
901.069	19274
901.189	19232
901.308	18977
901.427	18920
901.546	19004
901.665	18833
901.784	18973
901.904	18749
902.023	18753
902.141	18528
902.26	18369
902.379	18521
902.498	18399
902.617	18372
902.735	18479
902.854	18327
902.973	18384
903.091	18114
903.21	18129
903.328	18049
903.446	17992
903.565	17935
903.683	17935
903.801	17798
903.919	17939
904.038	17790
904.156	17703
904.274	17752
904.392	17661
904.51	17649
904.627	17657
904.745	17756
904.863	17756
904.981	17440
905.098	17387
905.216	17235
905.334	17318
905.451	17292
905.569	17220
905.686	17311
905.803	17330
905.921	17235
906.038	17208
906.155	17162
906.272	17052
906.389	17086
906.506	16980
906.623	16816
906.74	16854
906.857	16725
906.974	16831
907.091	16915
907.208	17033
907.324	16877
907.441	16778
907.557	16611
907.674	16645
907.79	16675
907.907	16527
908.023	16596
908.139	16645
908.256	16561
908.372	16417
908.488	16459
908.604	16360
908.72	16379
908.836	16265
908.952	16367
909.068	16219
909.184	16398
909.3	16265
909.415	16337
909.531	16207
909.647	16120
909.762	15865
909.878	16025
909.993	16097
910.108	15926
910.224	16059
910.339	15960
910.454	15979
910.57	15869
910.685	15835
910.8	16055
910.915	16010
911.03	15804
911.145	15675
911.259	15667
911.374	15633
911.489	15576
911.604	15511
911.718	15393
911.833	15534
911.947	15466
912.062	15249
912.176	15454
912.291	15473
912.405	15496
912.519	15587
912.633	15542
912.748	15504
912.862	15363
912.976	15298
913.09	15146
913.204	15184
913.318	15279
913.431	15302
913.545	15329
913.659	15245
913.772	15222
913.886	15077
914	15020
914.113	15169
914.226	15157
914.34	15043
914.453	14925
914.566	15119
914.68	14826
914.793	14868
914.906	14667
915.019	14667
915.132	14549
915.245	14651
915.358	14743
915.47	14663
915.583	14659
915.696	14731
915.809	14804
915.921	14815
916.034	14625
916.146	14556
916.259	14530
916.371	14579
916.483	14560
916.595	14469
916.708	14621
916.82	14457
916.932	14450
917.044	14362
917.156	14381
917.268	14362
917.38	14275
917.491	14290
917.603	14244
917.715	14400
917.826	14377
917.938	14218
918.049	14092
918.161	14301
918.272	14351
918.384	14370
918.495	14252
918.606	14100
918.717	14035
918.828	14077
918.939	14092
919.05	14001
919.161	14058
919.272	13826
919.383	13974
919.494	14043
919.604	14324
919.715	14012
919.826	14046
919.936	13993
920.047	14107
920.157	13978
920.267	14237
920.378	14088
920.488	13936
920.598	14206
920.708	14442
920.818	14172
920.928	14240
921.038	14370
921.148	14332
921.258	14043
921.368	13989
921.477	13879
921.587	13826
921.697	13597
921.806	13830
921.916	13578
922.025	13575
922.134	13525
922.244	13392
922.353	13487
922.462	13346
922.571	13373
922.68	13164
922.789	13031
922.898	13137
923.007	13126
923.116	13202
923.224	13099
923.333	13019
923.442	12970
923.55	12878
923.659	12951
923.767	12989
923.876	12875
923.984	12977
924.092	12829
924.201	12913
924.309	12932
924.417	12806
924.525	12753
924.633	12791
924.741	13795
924.849	12608
924.956	12806
925.064	12604
925.172	12467
925.279	12525
925.387	12517
925.494	12544
925.602	12642
925.709	12620
925.816	12418
925.924	12536
926.031	12566
926.138	12445
926.245	12544
926.352	12414
926.459	12464
926.566	12540
926.673	12376
926.779	12292
926.886	12296
926.993	12224
927.099	12197
927.206	12049
927.312	12106
927.419	12072
927.525	12121
927.631	12095
927.737	12015
927.843	12034
927.95	11733
928.056	11954
928.162	11946
928.267	11984
928.373	12597
928.479	12015
928.585	11805
928.69	11980
928.796	11863
928.901	11859
929.007	11649
929.112	11737
929.218	11745
929.323	11634
929.428	11657
929.533	11752
929.638	11592
929.743	11729
929.848	11707
929.953	11592
930.058	11589
930.163	11337
930.267	11376
930.372	11547
930.477	11406
930.581	11516
930.685	11356
930.79	11201
930.894	11296
930.998	11280
931.103	11474
931.207	11056
931.311	10980
931.415	10866
931.519	10675
931.623	10687
