Data from test_V78500241_613.txt Node
Date: Fri Mar 25 15:14:07 CST 2022
User: usil
Spectrometer: V785-0024
Trigger mode: 0
Integration Time (sec): 4.000000E-1
Scans to average: 1
Nonlinearity correction enabled: false
Boxcar width: 0
Storing dark spectrum: false
XAxis mode: Wavelengths
Number of Pixels in Spectrum: 1024
>>>>>Begin Spectral Data<<<<<
801.071	27485
801.214	27644
801.356	27233
801.499	27260
801.641	27291
801.783	27199
801.926	27268
802.068	27051
802.211	27028
802.353	26933
802.496	26842
802.638	26906
802.78	26819
802.923	26701
803.065	26781
803.208	26788
803.35	26876
803.492	26975
803.635	26929
803.777	26929
803.919	26929
804.061	27192
804.204	27001
804.346	26921
804.488	26815
804.63	26944
804.773	26830
804.915	27013
805.057	27024
805.199	26971
805.341	27051
805.483	27154
805.626	27081
805.768	26921
805.91	26967
806.052	27146
806.194	26960
806.336	27306
806.478	27161
806.62	27093
806.762	27207
806.904	27256
807.046	27698
807.188	27686
807.33	27526
807.472	27648
807.614	27511
807.756	27496
807.898	27393
808.04	27173
808.182	27264
808.324	27344
808.465	27173
808.607	27538
808.749	27599
808.891	27812
809.033	27873
809.174	27884
809.316	27656
809.458	27762
809.6	27705
809.741	27895
809.883	27793
810.025	28200
810.166	28017
810.308	28097
810.45	28048
810.591	27914
810.733	27949
810.875	27789
811.016	27663
811.158	27736
811.299	27854
811.441	27911
811.582	27835
811.724	27667
811.865	27713
812.007	27622
812.148	27728
812.29	27785
812.431	27846
812.573	28078
812.714	28257
812.855	28481
812.997	28512
813.138	28691
813.279	28626
813.421	28440
813.562	28207
813.703	28169
813.845	27972
813.986	27629
814.127	27507
814.268	27382
814.41	27538
814.551	27408
814.692	27397
814.833	27393
814.974	27553
815.115	27450
815.256	27473
815.397	27348
815.539	27443
815.68	27363
815.821	27355
815.962	27249
816.103	27317
816.244	27039
816.385	27146
816.526	26899
816.666	26937
816.807	26598
816.948	26868
817.089	26849
817.23	26838
817.371	26788
817.512	26838
817.653	26720
817.793	26632
817.934	26762
818.075	26887
818.216	26777
818.356	26781
818.497	26735
818.638	26507
818.778	26480
818.919	26594
819.06	26488
819.2	26651
819.341	26819
819.481	26750
819.622	26872
819.762	27020
819.903	26925
820.043	26918
820.184	26914
820.324	26815
820.465	26979
820.605	26796
820.746	26796
820.886	26743
821.026	26750
821.167	26762
821.307	26933
821.447	26853
821.588	26617
821.728	26495
821.868	26294
822.008	26218
822.149	26225
822.289	26046
822.429	26012
822.569	25864
822.709	25959
822.849	25685
822.99	25696
823.13	25548
823.27	25567
823.41	25556
823.55	25396
823.69	25753
823.83	25670
823.97	25422
824.11	25266
824.25	25464
824.389	25388
824.529	25476
824.669	25289
824.809	25381
824.949	25472
825.089	25464
825.228	25392
825.368	25126
825.508	25171
825.648	25266
825.787	25297
825.927	25377
826.067	25175
826.206	25160
826.346	25354
826.485	25354
826.625	25259
826.765	25502
826.904	25023
827.044	25053
827.183	25069
827.323	24856
827.462	25008
827.601	24962
827.741	24966
827.88	24890
828.02	24791
828.159	24924
828.298	24909
828.437	24882
828.577	24890
828.716	25156
828.855	24791
828.994	24749
829.134	24654
829.273	24544
829.412	24544
829.551	24593
829.69	24585
829.829	24654
829.968	24681
830.107	24730
830.246	24502
830.385	24631
830.524	24589
830.663	24422
830.802	24289
830.941	24152
831.08	24201
831.219	24357
831.357	24342
831.496	24460
831.635	24273
831.774	24167
831.913	24121
832.051	24026
832.19	24102
832.329	23988
832.467	23961
832.606	23870
832.744	23954
832.883	23847
833.022	23912
833.16	24003
833.299	23969
833.437	23999
833.576	24057
833.714	23950
833.852	24098
833.991	24174
834.129	24030
834.267	23992
834.406	23916
834.544	24076
834.682	24003
834.821	23935
834.959	24190
835.097	23885
835.235	23958
835.373	23980
835.511	23999
835.65	23798
835.788	23916
835.926	23707
836.064	23630
836.202	23642
836.34	23840
836.478	23950
836.615	23878
836.753	23882
836.891	23942
837.029	23874
837.167	23756
837.305	23733
837.443	23722
837.58	23634
837.718	23703
837.856	23722
837.993	23589
838.131	23695
838.269	23581
838.406	23600
838.544	23467
838.681	23322
838.819	23223
838.956	23090
839.094	23132
839.231	23216
839.369	23292
839.506	23471
839.643	23299
839.781	23143
839.918	23022
840.055	23235
840.193	22942
840.33	22949
840.467	23056
840.604	23014
840.742	23429
840.879	22949
841.016	23003
841.153	22953
841.29	23185
841.427	22999
841.564	23064
841.701	23140
841.838	22987
841.975	22965
842.112	22961
842.249	22927
842.385	22820
842.522	22991
842.659	22850
842.796	22820
842.933	22911
843.069	22869
843.206	22736
843.343	22862
843.479	22904
843.616	22873
843.752	22569
843.889	22645
844.025	22717
844.162	22550
844.298	22603
844.435	22660
844.571	22626
844.708	22599
844.844	22713
844.98	22706
845.117	22736
845.253	22615
845.389	22470
845.525	22569
845.661	22455
845.798	22276
845.934	22428
846.07	22265
846.206	22360
846.342	22497
846.478	22295
846.614	22230
846.75	22090
846.886	22181
847.022	22063
847.158	22162
847.294	22162
847.429	22112
847.565	22090
847.701	22405
847.837	21899
847.972	21728
848.108	21892
848.244	21854
848.379	21648
848.515	21739
848.65	21698
848.786	21743
848.921	21614
849.057	21671
849.192	21755
849.328	21736
849.463	21675
849.598	21603
849.734	21488
849.869	21580
850.004	21454
850.14	21606
850.275	21500
850.41	21287
850.545	21450
850.68	21374
850.815	21568
850.95	21511
851.085	21644
851.22	21500
851.355	21393
851.49	21435
851.625	21454
851.76	21363
851.895	21310
852.03	21367
852.165	21363
852.299	21542
852.434	21538
852.569	21416
852.703	21473
852.838	21519
852.973	21492
853.107	21477
853.242	21443
853.376	21424
853.511	21123
853.645	21249
853.78	21511
853.914	21332
854.048	21272
854.183	21222
854.317	21355
854.451	21443
854.585	21214
854.72	21260
854.854	21218
854.988	21211
855.122	21294
855.256	21184
855.39	21203
855.524	21268
855.658	21272
855.792	21214
855.926	21260
856.06	21310
856.194	21294
856.327	21272
856.461	21116
856.595	21165
856.729	21306
856.862	21283
856.996	21329
857.13	21367
857.263	21420
857.397	21458
857.53	21199
857.664	21412
857.797	21287
857.931	21420
858.064	21138
858.197	21389
858.331	21192
858.464	21150
858.597	21207
858.731	21150
858.864	21119
858.997	21192
859.13	21218
859.263	21241
859.396	21302
859.529	21310
859.662	21214
859.795	21230
859.928	21218
860.061	21443
860.194	21420
860.327	21332
860.46	21291
860.592	21378
860.725	21393
860.858	21321
860.99	21226
861.123	21218
861.256	21275
861.388	21214
861.521	22105
861.653	21116
861.786	21039
861.918	21051
862.05	21127
862.183	21055
862.315	21180
862.447	21173
862.58	21165
862.712	20902
862.844	20906
862.976	21028
863.108	21104
863.24	21492
863.372	20800
863.504	20986
863.636	20914
863.768	21036
863.9	20941
864.032	20925
864.164	20925
864.296	20990
864.428	21062
864.559	21055
864.691	21051
864.823	20979
864.954	21001
865.086	20902
865.217	20918
865.349	20800
865.48	20880
865.612	20781
865.743	21028
865.875	20902
866.006	20777
866.137	20861
866.269	20929
866.4	20826
866.531	20743
866.662	20781
866.793	20834
866.924	20746
867.055	20921
867.186	20842
867.317	20815
867.448	20674
867.579	20804
867.71	20735
867.841	20594
867.972	20891
868.103	20765
868.233	20788
868.364	20811
868.495	20929
868.625	20967
868.756	21089
868.886	21024
869.017	21005
869.147	21169
869.278	21241
869.408	21039
869.539	20918
869.669	21036
869.799	21047
869.929	21055
870.06	21188
870.19	21374
870.32	21317
870.45	21294
870.58	21424
870.71	21523
870.84	21542
870.97	21397
871.1	21382
871.23	21553
871.36	21606
871.489	21473
871.619	21572
871.749	21435
871.879	21679
872.008	21755
872.138	21591
872.267	21625
872.397	21443
872.526	21447
872.656	21481
872.785	21469
872.915	21530
873.044	21724
873.173	21675
873.303	21709
873.432	21641
873.561	21770
873.69	21663
873.819	21762
873.948	21751
874.077	21633
874.206	21530
874.335	21641
874.464	21694
874.593	21918
874.722	21861
874.851	22017
874.979	22002
875.108	21991
875.237	21884
875.365	21823
875.494	21846
875.623	21823
875.751	21880
875.88	21903
876.008	22078
876.136	22086
876.265	22265
876.393	22360
876.521	22394
876.65	22192
876.778	22299
876.906	22299
877.034	22173
877.162	22253
877.29	22253
877.418	22230
877.546	22154
877.674	22265
877.802	22147
877.93	22120
878.058	22097
878.185	22246
878.313	22185
878.441	22211
878.568	22162
878.696	22093
878.824	22318
878.951	22375
879.079	22379
879.206	22535
879.333	22451
879.461	22204
879.588	22436
879.715	22409
879.842	22546
879.97	22291
880.097	22090
880.224	22025
880.351	22074
880.478	22150
880.605	21926
880.732	21994
880.859	22276
880.986	22044
881.112	22078
881.239	21899
881.366	21854
881.493	21728
881.619	21618
881.746	21671
881.872	21549
881.999	21507
882.125	21564
882.252	21667
882.378	21481
882.505	21880
882.631	21496
882.757	21317
882.883	21363
883.01	21325
883.136	21378
883.262	21119
883.388	21233
883.514	21268
883.64	21370
883.766	21241
883.892	21077
884.018	21161
884.143	21287
884.269	21367
884.395	21001
884.52	20883
884.646	21017
884.772	20849
884.897	20880
885.023	20967
885.148	20994
885.274	21112
885.399	21131
885.524	20982
885.65	21017
885.775	20971
885.9	20982
886.025	21077
886.15	21093
886.275	20990
886.4	20762
886.525	21062
886.65	20876
886.775	20743
886.9	21112
887.025	21146
887.149	20929
887.274	20762
887.399	20750
887.523	20651
887.648	20621
887.773	20644
887.897	20781
888.021	20697
888.146	20686
888.27	20842
888.395	20883
888.519	20777
888.643	20864
888.767	20899
888.891	20606
889.015	20568
889.139	20598
889.263	20450
889.387	20659
889.511	20731
889.635	20678
889.759	20533
889.883	20438
890.006	20514
890.13	20594
890.254	20530
890.377	20434
890.501	20225
890.624	20278
890.748	20278
890.871	20199
890.995	20081
891.118	19982
891.241	20031
891.364	20073
891.488	20183
891.611	20134
891.734	20130
891.857	20046
891.98	20138
892.103	20248
892.226	20180
892.349	20145
892.471	19932
892.594	19989
892.717	20050
892.839	20008
892.962	20043
893.085	20115
893.207	19959
893.33	19921
893.452	19750
893.575	20058
893.697	19970
893.819	20126
893.941	20317
894.064	20119
894.186	19997
894.308	19925
894.43	20005
894.552	20199
894.674	20054
894.796	19868
894.918	19898
895.04	19970
895.161	20024
895.283	20020
895.405	19974
895.526	19989
895.648	19925
895.769	19982
895.891	20027
896.012	20035
896.134	20073
896.255	19986
896.376	19921
896.498	19989
896.619	19944
896.74	20039
896.861	20043
896.982	20263
897.103	20431
897.224	20317
897.345	20263
897.466	20126
897.587	20244
897.708	20309
897.828	20301
897.949	20107
898.07	20081
898.19	20153
898.311	20229
898.431	20073
898.552	20233
898.672	20275
898.792	20195
898.913	20294
899.033	20073
899.153	20016
899.273	19906
899.393	19993
899.513	19932
899.633	19963
899.753	19932
899.873	19807
899.993	19978
900.113	19856
900.232	19906
900.352	19947
900.472	19677
900.591	19776
900.711	19826
900.83	19738
900.95	19940
901.069	19871
901.189	19715
901.308	19441
901.427	19183
901.546	19335
901.665	19335
901.784	19270
901.904	19126
902.023	19194
902.141	18935
902.26	18856
902.379	18954
902.498	18772
902.617	18719
902.735	18722
902.854	18757
902.973	18787
903.091	18593
903.21	18460
903.328	18574
903.446	18464
903.565	18429
903.683	18277
903.801	18289
903.919	18342
904.038	18296
904.156	17996
904.274	18091
904.392	18098
904.51	18136
904.627	17969
904.745	18091
904.863	18106
904.981	17969
905.098	17809
905.216	17764
905.334	17805
905.451	17885
905.569	17771
905.686	17802
905.803	17783
905.921	17554
906.038	17653
906.155	17638
906.272	17478
906.389	17501
906.506	17421
906.623	17280
906.74	17318
906.857	17250
906.974	17216
907.091	17455
907.208	17501
907.324	17330
907.441	17227
907.557	17079
907.674	16984
907.79	17010
907.907	17048
908.023	17003
908.139	17018
908.256	16965
908.372	16938
908.488	16835
908.604	16786
908.72	16752
908.836	16729
908.952	16698
909.068	16725
909.184	16850
909.3	16748
909.415	16748
909.531	16664
909.647	16561
909.762	16417
909.878	16447
909.993	16390
910.108	16413
910.224	16310
910.339	16352
910.454	16299
910.57	16196
910.685	16181
910.8	16360
910.915	16398
911.03	16173
911.145	16120
911.259	16086
911.374	16105
911.489	15968
911.604	15857
911.718	15747
911.833	15846
911.947	15629
912.062	15584
912.176	15831
912.291	15705
912.405	15667
912.519	15888
912.633	15903
912.748	15835
912.862	15797
912.976	15572
913.09	15595
913.204	15564
913.318	15545
913.431	15644
913.545	15656
913.659	15751
913.772	15709
913.886	15431
914	15408
914.113	15606
914.226	15618
914.34	15450
914.453	15287
914.566	15428
914.68	15359
914.793	15233
914.906	15089
915.019	15039
915.132	14994
915.245	15043
915.358	14998
915.47	15043
915.583	15024
915.696	15085
915.809	15142
915.921	15116
916.034	15070
916.146	14883
916.259	14963
916.371	15127
916.483	14967
916.595	14838
916.708	14876
916.82	14929
916.932	14792
917.044	14868
917.156	14716
917.268	14743
917.38	14785
917.491	14667
917.603	14678
917.715	14796
917.826	14651
917.938	14594
918.049	14499
918.161	14655
918.272	14659
918.384	14754
918.495	14644
918.606	14355
918.717	14427
918.828	14427
918.939	14461
919.05	14339
919.161	14492
919.272	14180
919.383	14339
919.494	14537
919.604	14640
919.715	14423
919.826	14214
919.936	14419
920.047	14408
920.157	14446
920.267	14644
920.378	14412
920.488	14377
920.598	14571
920.708	14697
920.818	14568
920.928	14492
921.038	14667
921.148	14670
921.258	14412
921.368	14237
921.477	14084
921.587	14149
921.697	14027
921.806	14195
921.916	14054
922.025	13860
922.134	13791
922.244	13784
922.353	13757
922.462	13689
922.571	13715
922.68	13449
922.789	13480
922.898	13350
923.007	13354
923.116	13453
923.224	13362
923.333	13453
923.442	13369
923.55	13244
923.659	13171
923.767	13289
923.876	13187
923.984	13255
924.092	13244
924.201	13179
924.309	13209
924.417	13232
924.525	13072
924.633	13110
924.741	13849
924.849	12817
924.956	13046
925.064	12806
925.172	12776
925.279	12844
925.387	12947
925.494	12772
925.602	12943
925.709	12901
925.816	12639
925.924	12844
926.031	12863
926.138	12757
926.245	12772
926.352	12658
926.459	12871
926.566	12817
926.673	12711
926.779	12700
926.886	12509
926.993	12426
927.099	12456
927.206	12308
927.312	12330
927.419	12445
927.525	12403
927.631	12486
927.737	12330
927.843	12334
927.95	12171
928.056	12247
928.162	12216
928.267	12327
928.373	12897
928.479	12334
928.585	12087
928.69	12220
928.796	12311
928.901	12038
929.007	11988
929.112	12114
929.218	12079
929.323	12015
929.428	12011
929.533	12106
929.638	11950
929.743	11939
929.848	11908
929.953	11954
930.058	11786
930.163	11672
930.267	11638
930.372	11752
930.477	11680
930.581	11840
930.685	11668
930.79	11520
930.894	11532
930.998	11558
931.103	11615
931.207	11387
931.311	11227
931.415	11193
931.519	10980
931.623	10900
