Data from test_V78500241_1832.txt Node
Date: Fri Mar 25 15:22:36 CST 2022
User: usil
Spectrometer: V785-0024
Trigger mode: 0
Integration Time (sec): 4.000000E-1
Scans to average: 1
Nonlinearity correction enabled: false
Boxcar width: 0
Storing dark spectrum: false
XAxis mode: Wavelengths
Number of Pixels in Spectrum: 1024
>>>>>Begin Spectral Data<<<<<
801.071	27918
801.214	27816
801.356	27504
801.499	27389
801.641	27454
801.783	27332
801.926	27488
802.068	27412
802.211	27207
802.353	27169
802.496	27089
802.638	26880
802.78	26971
802.923	26952
803.065	26971
803.208	26963
803.35	27051
803.492	27207
803.635	27028
803.777	27005
803.919	27096
804.061	27492
804.204	27188
804.346	27203
804.488	27119
804.63	27108
804.773	27287
804.915	27135
805.057	27336
805.199	27157
805.341	27370
805.483	27256
805.626	27317
805.768	27180
805.91	27363
806.052	27332
806.194	27351
806.336	27515
806.478	27230
806.62	27382
806.762	27367
806.904	27557
807.046	27781
807.188	27618
807.33	27648
807.472	27789
807.614	27694
807.756	27778
807.898	27637
808.04	27637
808.182	27462
808.324	27587
808.465	27743
808.607	27766
808.749	27998
808.891	28048
809.033	28112
809.174	27998
809.316	27854
809.458	27922
809.6	27838
809.741	28086
809.883	27968
810.025	28341
810.166	28173
810.308	28215
810.45	27987
810.591	27998
810.733	27918
810.875	27854
811.016	27819
811.158	27793
811.299	27972
811.441	28211
811.582	28048
811.724	27998
811.865	27789
812.007	27968
812.148	27850
812.29	27876
812.431	28109
812.573	28295
812.714	28474
812.855	28504
812.997	28459
813.138	28584
813.279	28645
813.421	28466
813.562	28455
813.703	28200
813.845	28246
813.986	27892
814.127	27709
814.268	27793
814.41	27694
814.551	27553
814.692	27671
814.833	27553
814.974	27568
815.115	27561
815.256	27454
815.397	27477
815.539	27462
815.68	27340
815.821	27405
815.962	27458
816.103	27310
816.244	27192
816.385	27317
816.526	27055
816.666	27028
816.807	26887
816.948	27093
817.089	26895
817.23	27062
817.371	27005
817.512	26792
817.653	26899
817.793	26952
817.934	26838
818.075	26857
818.216	26857
818.356	26971
818.497	26705
818.638	26682
818.778	26621
818.919	26686
819.06	26788
819.2	26792
819.341	26914
819.481	26849
819.622	27009
819.762	27211
819.903	27077
820.043	27085
820.184	27112
820.324	26990
820.465	27142
820.605	27081
820.746	27077
820.886	26785
821.026	26994
821.167	26948
821.307	27123
821.447	26948
821.588	26804
821.728	26762
821.868	26526
822.008	26358
822.149	26396
822.289	26442
822.429	26107
822.569	26183
822.709	25963
822.849	26005
822.99	25940
823.13	26001
823.27	25814
823.41	25734
823.55	25586
823.69	25753
823.83	25757
823.97	25708
824.11	25491
824.25	25381
824.389	25559
824.529	25556
824.669	25605
824.809	25738
824.949	25662
825.089	25601
825.228	25689
825.368	25331
825.508	25350
825.648	25567
825.787	25518
825.927	25540
826.067	25396
826.206	25381
826.346	25384
826.485	25438
826.625	25301
826.765	25476
826.904	25388
827.044	25354
827.183	25160
827.323	25145
827.462	25133
827.601	24985
827.741	25156
827.88	25095
828.02	25053
828.159	25179
828.298	25133
828.437	25107
828.577	25148
828.716	25266
828.855	24935
828.994	24798
829.134	24776
829.273	24909
829.412	24787
829.551	24833
829.69	24817
829.829	24973
829.968	24954
830.107	24996
830.246	24806
830.385	24707
830.524	24867
830.663	24604
830.802	24601
830.941	24410
831.08	24357
831.219	24471
831.357	24532
831.496	24574
831.635	24388
831.774	24369
831.913	24407
832.051	24346
832.19	24342
832.329	24315
832.467	24079
832.606	24068
832.744	24102
832.883	24072
833.022	24007
833.16	24239
833.299	24213
833.437	24224
833.576	24251
833.714	24292
833.852	24388
833.991	24292
834.129	24232
834.267	24254
834.406	24289
834.544	24384
834.682	24315
834.821	24194
834.959	24471
835.097	24155
835.235	24266
835.373	24247
835.511	24216
835.65	24148
835.788	24091
835.926	23984
836.064	23767
836.202	23836
836.34	24076
836.478	24224
836.615	23973
836.753	24064
836.891	24148
837.029	24136
837.167	23977
837.305	23927
837.443	23882
837.58	23908
837.718	23870
837.856	23984
837.993	23855
838.131	23980
838.269	23726
838.406	23783
838.544	23699
838.681	23520
838.819	23528
838.956	23299
839.094	23440
839.231	23398
839.369	23547
839.506	23585
839.643	23672
839.781	23398
839.918	23246
840.055	23376
840.193	23261
840.33	23231
840.467	23284
840.604	23273
840.742	23520
840.879	23113
841.016	23220
841.153	23109
841.29	23337
841.427	23239
841.564	23356
841.701	23307
841.838	23223
841.975	23280
842.112	23048
842.249	23151
842.385	23094
842.522	23200
842.659	23075
842.796	23124
842.933	23052
843.069	23037
843.206	22869
843.343	23044
843.479	23090
843.616	23060
843.752	22949
843.889	22938
844.025	23136
844.162	22877
844.298	22953
844.435	22675
844.571	22812
844.708	22911
844.844	22999
844.98	22949
845.117	22957
845.253	22793
845.389	22649
845.525	22649
845.661	22660
845.798	22592
845.934	22538
846.07	22561
846.206	22565
846.342	22615
846.478	22470
846.614	22360
846.75	22295
846.886	22291
847.022	22413
847.158	22265
847.294	22341
847.429	22287
847.565	22428
847.701	22436
847.837	22078
847.972	22154
848.108	22131
848.244	22101
848.379	21838
848.515	21922
848.65	21724
848.786	21838
848.921	21926
849.057	21975
849.192	22093
849.328	21876
849.463	21983
849.598	21880
849.734	21789
849.869	21648
850.004	21671
850.14	21743
850.275	21614
850.41	21686
850.545	21603
850.68	21667
850.815	21587
850.95	21580
851.085	21785
851.22	21743
851.355	21671
851.49	21561
851.625	21591
851.76	21542
851.895	21572
852.03	21542
852.165	21576
852.299	21591
852.434	21739
852.569	21857
852.703	21679
852.838	21622
852.973	21835
853.107	21759
853.242	21595
853.376	21564
853.511	21332
853.645	21378
853.78	21538
853.914	21439
854.048	21359
854.183	21450
854.317	21466
854.451	21625
854.585	21405
854.72	21401
854.854	21488
854.988	21424
855.122	21450
855.256	21370
855.39	21469
855.524	21545
855.658	21485
855.792	21526
855.926	21515
856.06	21526
856.194	21519
856.327	21454
856.461	21363
856.595	21492
856.729	21534
856.862	21542
856.996	21447
857.13	21431
857.263	21606
857.397	21648
857.53	21504
857.664	21511
857.797	21386
857.931	21564
858.064	21492
858.197	21469
858.331	21389
858.464	21428
858.597	21431
858.731	21526
858.864	21420
858.997	21363
859.13	21469
859.263	21515
859.396	21595
859.529	21401
859.662	21519
859.795	21416
859.928	21500
860.061	21542
860.194	21542
860.327	21496
860.46	21428
860.592	21610
860.725	21618
860.858	21523
860.99	21507
861.123	21420
861.256	21348
861.388	21389
861.521	22314
861.653	21351
861.786	21180
861.918	21294
862.05	21378
862.183	21355
862.315	21389
862.447	21466
862.58	21283
862.712	21195
862.844	21096
862.976	21302
863.108	21329
863.24	21561
863.372	21009
863.504	21157
863.636	21135
863.768	21237
863.9	21211
864.032	21127
864.164	21116
864.296	21154
864.428	21310
864.559	21428
864.691	21203
864.823	21294
864.954	21119
865.086	21256
865.217	21161
865.349	20982
865.48	21070
865.612	21017
865.743	21207
865.875	21100
866.006	20975
866.137	21131
866.269	21157
866.4	21119
866.531	20971
866.662	20975
866.793	20990
866.924	20929
867.055	20998
867.186	21024
867.317	20948
867.448	20895
867.579	20929
867.71	20891
867.841	20880
867.972	20956
868.103	20971
868.233	21043
868.364	20967
868.495	21203
868.625	21291
868.756	21302
868.886	21173
869.017	21161
869.147	21420
869.278	21405
869.408	21203
869.539	21230
869.669	21321
869.799	21222
869.929	21348
870.06	21283
870.19	21542
870.32	21610
870.45	21644
870.58	21656
870.71	21724
870.84	21709
870.97	21637
871.1	21732
871.23	21789
871.36	21949
871.489	21751
871.619	21694
871.749	21975
871.879	21975
872.008	21964
872.138	21857
872.267	21755
872.397	21705
872.526	21652
872.656	21720
872.785	21739
872.915	21838
873.044	21838
873.173	21884
873.303	21911
873.432	22017
873.561	21873
873.69	21873
873.819	21930
873.948	21895
874.077	21892
874.206	21804
874.335	21911
874.464	21979
874.593	22017
874.722	22051
874.851	22139
874.979	22128
875.108	22093
875.237	21994
875.365	22063
875.494	21953
875.623	22120
875.751	21991
875.88	22143
876.008	22211
876.136	22257
876.265	22611
876.393	22584
876.521	22470
876.65	22565
876.778	22497
876.906	22390
877.034	22405
877.162	22409
877.29	22280
877.418	22428
877.546	22470
877.674	22424
877.802	22356
877.93	22508
878.058	22428
878.185	22352
878.313	22413
878.441	22371
878.568	22337
878.696	22310
878.824	22318
878.951	22481
879.079	22588
879.206	22778
879.333	22649
879.461	22398
879.588	22573
879.715	22596
879.842	22542
879.97	22554
880.097	22238
880.224	22287
880.351	22325
880.478	22280
880.605	22204
880.732	22204
880.859	22508
880.986	22268
881.112	22265
881.239	22204
881.366	21968
881.493	21892
881.619	21800
881.746	21861
881.872	21964
881.999	21781
882.125	21705
882.252	21823
882.378	21808
882.505	21922
882.631	21545
882.757	21583
882.883	21545
883.01	21367
883.136	21462
883.262	21374
883.388	21260
883.514	21454
883.64	21458
883.766	21443
883.892	21321
884.018	21370
884.143	21553
884.269	21542
884.395	21085
884.52	21077
884.646	21028
884.772	21100
884.897	21108
885.023	21340
885.148	21249
885.274	21264
885.399	21313
885.524	21051
885.65	21146
885.775	21249
885.9	21123
886.025	21313
886.15	21294
886.275	21135
886.4	21020
886.525	21051
886.65	20883
886.775	20967
886.9	21325
887.025	21370
887.149	21203
887.274	21005
887.399	20956
887.523	20944
887.648	20826
887.773	20796
887.897	20876
888.021	20975
888.146	20899
888.27	20918
888.395	21009
888.519	20887
888.643	20975
888.767	20872
888.891	20902
889.015	20750
889.139	20788
889.263	20697
889.387	20823
889.511	20929
889.635	20800
889.759	20739
889.883	20697
890.006	20746
890.13	20796
890.254	20556
890.377	20693
890.501	20518
890.624	20419
890.748	20469
890.871	20355
890.995	20320
891.118	20225
891.241	20259
891.364	20256
891.488	20400
891.611	20396
891.734	20278
891.857	20404
891.98	20240
892.103	20294
892.226	20267
892.349	20290
892.471	20161
892.594	20259
892.717	20237
892.839	20221
892.962	20210
893.085	20263
893.207	20157
893.33	20100
893.452	20062
893.575	20271
893.697	20100
893.819	20336
893.941	20465
894.064	20370
894.186	20115
894.308	20096
894.43	20164
894.552	20400
894.674	20271
894.796	20149
894.918	20206
895.04	20164
895.161	20221
895.283	20168
895.405	20157
895.526	20164
895.648	20111
895.769	20161
895.891	20244
896.012	20290
896.134	20336
896.255	20183
896.376	20199
896.498	20096
896.619	20267
896.74	20168
896.861	20221
896.982	20454
897.103	20682
897.224	20408
897.345	20377
897.466	20275
897.587	20465
897.708	20545
897.828	20423
897.949	20339
898.07	20275
898.19	20347
898.311	20530
898.431	20309
898.552	20374
898.672	20366
898.792	20454
898.913	20381
899.033	20286
899.153	20259
899.273	20027
899.393	20294
899.513	20248
899.633	20161
899.753	20157
899.873	20100
899.993	20168
900.113	20054
900.232	20115
900.352	20134
900.472	19963
900.591	19841
900.711	19967
900.83	19811
900.95	20126
901.069	19917
901.189	19822
901.308	19597
901.427	19495
901.546	19506
901.665	19525
901.784	19556
901.904	19438
902.023	19343
902.141	19038
902.26	19110
902.379	19099
902.498	18970
902.617	19023
902.735	18962
902.854	19046
902.973	18749
903.091	18696
903.21	18635
903.328	18635
903.446	18601
903.565	18441
903.683	18429
903.801	18464
903.919	18388
904.038	18384
904.156	18289
904.274	18346
904.392	18361
904.51	18273
904.627	18167
904.745	18330
904.863	18254
904.981	18007
905.098	17931
905.216	17950
905.334	17908
905.451	17980
905.569	17805
905.686	17984
905.803	17840
905.921	17722
906.038	17699
906.155	17714
906.272	17600
906.389	17665
906.506	17471
906.623	17524
906.74	17436
906.857	17376
906.974	17379
907.091	17535
907.208	17592
907.324	17448
907.441	17296
907.557	17315
907.674	17181
907.79	17159
907.907	17151
908.023	17204
908.139	17143
908.256	17235
908.372	17029
908.488	17140
908.604	16949
908.72	16881
908.836	16889
908.952	16858
909.068	16892
909.184	16957
909.3	16908
909.415	16965
909.531	16934
909.647	16717
909.762	16592
909.878	16618
909.993	16546
910.108	16573
910.224	16523
910.339	16474
910.454	16379
910.57	16413
910.685	16333
910.8	16656
910.915	16618
911.03	16360
911.145	16303
911.259	16226
911.374	16154
911.489	16128
911.604	16124
911.718	15911
911.833	15975
911.947	15884
912.062	15800
912.176	15949
912.291	15941
912.405	15899
912.519	16063
912.633	16048
912.748	15934
912.862	15953
912.976	15667
913.09	15610
913.204	15709
913.318	15686
913.431	15888
913.545	15888
913.659	15774
913.772	15728
913.886	15542
914	15500
914.113	15606
914.226	15686
914.34	15671
914.453	15424
914.566	15526
914.68	15481
914.793	15412
914.906	15264
915.019	15127
915.132	15066
915.245	15100
915.358	15222
915.47	15245
915.583	15176
915.696	15127
915.809	15230
915.921	15256
916.034	15131
916.146	15108
916.259	14986
916.371	15161
916.483	15100
916.595	14975
916.708	14925
916.82	14956
916.932	15017
917.044	14830
917.156	14998
917.268	14800
917.38	14769
917.491	14864
917.603	14807
917.715	14952
917.826	14937
917.938	14800
918.049	14636
918.161	14682
918.272	14838
918.384	14834
918.495	14762
918.606	14606
918.717	14431
918.828	14571
918.939	14667
919.05	14469
919.161	14530
919.272	14446
919.383	14446
919.494	14625
919.604	14800
919.715	14556
919.826	14442
919.936	14530
920.047	14530
920.157	14556
920.267	14701
920.378	14594
920.488	14492
920.598	14636
920.708	14891
920.818	14640
920.928	14735
921.038	14788
921.148	14773
921.258	14419
921.368	14324
921.477	14336
921.587	14233
921.697	14123
921.806	14256
921.916	14073
922.025	13997
922.134	13906
922.244	13868
922.353	13989
922.462	13765
922.571	13715
922.68	13639
922.789	13590
922.898	13540
923.007	13445
923.116	13529
923.224	13506
923.333	13510
923.442	13384
923.55	13285
923.659	13350
923.767	13468
923.876	13392
923.984	13358
924.092	13228
924.201	13369
924.309	13320
924.417	13339
924.525	13285
924.633	13145
924.741	14119
924.849	12989
924.956	13194
925.064	12909
925.172	12981
925.279	12932
925.387	13019
925.494	13050
925.602	13145
925.709	12951
925.816	12821
925.924	12905
926.031	13095
926.138	12951
926.245	12954
926.352	12833
926.459	12916
926.566	12973
926.673	12863
926.779	12711
926.886	12677
926.993	12589
927.099	12460
927.206	12452
927.312	12445
927.419	12532
927.525	12540
927.631	12570
927.737	12410
927.843	12490
927.95	12292
928.056	12357
928.162	12388
928.267	12353
928.373	12989
928.479	12475
928.585	12266
928.69	12239
928.796	12414
928.901	12194
929.007	12098
929.112	12182
929.218	12216
929.323	12068
929.428	12125
929.533	12102
929.638	12095
929.743	12064
929.848	12072
929.953	12030
930.058	11935
930.163	11718
930.267	11748
930.372	11863
930.477	11653
930.581	11882
930.685	11824
930.79	11615
930.894	11672
930.998	11532
931.103	11798
931.207	11433
931.311	11372
931.415	11231
931.519	11006
931.623	11025
