Data from test_V78500241_1199.txt Node
Date: Fri Mar 25 15:18:12 CST 2022
User: usil
Spectrometer: V785-0024
Trigger mode: 0
Integration Time (sec): 4.000000E-1
Scans to average: 1
Nonlinearity correction enabled: false
Boxcar width: 0
Storing dark spectrum: false
XAxis mode: Wavelengths
Number of Pixels in Spectrum: 1024
>>>>>Begin Spectral Data<<<<<
801.071	27991
801.214	27972
801.356	27732
801.499	27709
801.641	27660
801.783	27572
801.926	27682
802.068	27675
802.211	27557
802.353	27477
802.496	27310
802.638	27291
802.78	27195
802.923	27188
803.065	27207
803.208	27203
803.35	27310
803.492	27329
803.635	27279
803.777	27260
803.919	27507
804.061	27766
804.204	27545
804.346	27393
804.488	27336
804.63	27523
804.773	27378
804.915	27500
805.057	27667
805.199	27511
805.341	27538
805.483	27553
805.626	27504
805.768	27412
805.91	27671
806.052	27557
806.194	27485
806.336	27793
806.478	27686
806.62	27469
806.762	27751
806.904	27686
807.046	28093
807.188	28112
807.33	27934
807.472	28143
807.614	28021
807.756	28006
807.898	28055
808.04	27903
808.182	27964
808.324	27789
808.465	27975
808.607	28078
808.749	28428
808.891	28394
809.033	28447
809.174	28341
809.316	28272
809.458	28401
809.6	28310
809.741	28314
809.883	28386
810.025	28470
810.166	28538
810.308	28401
810.45	28573
810.591	28379
810.733	28299
810.875	28268
811.016	28238
811.158	28051
811.299	28386
811.441	28367
811.582	28325
811.724	28265
811.865	28280
812.007	28329
812.148	28310
812.29	28356
812.431	28421
812.573	28698
812.714	28660
812.855	28755
812.997	28892
813.138	29071
813.279	28881
813.421	28949
813.562	28892
813.703	28592
813.845	28550
813.986	28314
814.127	28105
814.268	28044
814.41	28017
814.551	27911
814.692	28025
814.833	28002
814.974	27949
815.115	27914
815.256	27755
815.397	27838
815.539	27907
815.68	27770
815.821	27747
815.962	27827
816.103	27770
816.244	27682
816.385	27648
816.526	27641
816.666	27439
816.807	27264
816.948	27260
817.089	27355
817.23	27214
817.371	27252
817.512	27298
817.653	27283
817.793	27195
817.934	27298
818.075	27370
818.216	27351
818.356	27279
818.497	27135
818.638	26956
818.778	27077
818.919	27005
819.06	27131
819.2	27108
819.341	27325
819.481	27237
819.622	27473
819.762	27583
819.903	27515
820.043	27500
820.184	27454
820.324	27492
820.465	27576
820.605	27336
820.746	27363
820.886	27180
821.026	27313
821.167	27336
821.307	27397
821.447	27363
821.588	27116
821.728	27093
821.868	26792
822.008	26899
822.149	26842
822.289	26731
822.429	26484
822.569	26473
822.709	26549
822.849	26168
822.99	26218
823.13	26248
823.27	26347
823.41	26081
823.55	26043
823.69	26119
823.83	26065
823.97	26001
824.11	25849
824.25	25856
824.389	25963
824.529	26008
824.669	25951
824.809	25966
824.949	26016
825.089	26088
825.228	26088
825.368	25883
825.508	25731
825.648	25883
825.787	25791
825.927	25898
826.067	25655
826.206	25894
826.346	25753
826.485	25879
826.625	25849
826.765	25902
826.904	25776
827.044	25666
827.183	25487
827.323	25483
827.462	25674
827.601	25578
827.741	25472
827.88	25396
828.02	25476
828.159	25384
828.298	25502
828.437	25529
828.577	25563
828.716	25540
828.855	25457
828.994	25266
829.134	25285
829.273	25301
829.412	25194
829.551	25228
829.69	25343
829.829	25164
829.968	25274
830.107	25244
830.246	25274
830.385	25198
830.524	25228
830.663	25148
830.802	25057
830.941	24863
831.08	24768
831.219	24958
831.357	24909
831.496	25110
831.635	24856
831.774	24802
831.913	24848
832.051	24623
832.19	24646
832.329	24669
832.467	24570
832.606	24593
832.744	24498
832.883	24399
833.022	24593
833.16	24563
833.299	24639
833.437	24494
833.576	24566
833.714	24642
833.852	24612
833.991	24620
834.129	24684
834.267	24669
834.406	24665
834.544	24654
834.682	24559
834.821	24521
834.959	24817
835.097	24563
835.235	24616
835.373	24661
835.511	24486
835.65	24323
835.788	24369
835.926	24330
836.064	24174
836.202	24346
836.34	24376
836.478	24566
836.615	24418
836.753	24395
836.891	24388
837.029	24494
837.167	24391
837.305	24338
837.443	24235
837.58	24414
837.718	24498
837.856	24273
837.993	24235
838.131	24205
838.269	24197
838.406	24102
838.544	24117
838.681	23893
838.819	23866
838.956	23764
839.094	23691
839.231	23840
839.369	23874
839.506	24197
839.643	23988
839.781	23760
839.918	23611
840.055	23668
840.193	23733
840.33	23642
840.467	23699
840.604	23786
840.742	23946
840.879	23577
841.016	23520
841.153	23520
841.29	23661
841.427	23566
841.564	23680
841.701	23691
841.838	23657
841.975	23471
842.112	23509
842.249	23360
842.385	23379
842.522	23592
842.659	23459
842.796	23410
842.933	23349
843.069	23284
843.206	23463
843.343	23490
843.479	23417
843.616	23425
843.752	23147
843.889	23193
844.025	23398
844.162	23155
844.298	23216
844.435	23227
844.571	23254
844.708	23277
844.844	23330
844.98	23353
845.117	23318
845.253	23227
845.389	22987
845.525	23075
845.661	23060
845.798	22824
845.934	22915
846.07	22725
846.206	23064
846.342	23022
846.478	22896
846.614	22683
846.75	22580
846.886	22702
847.022	22713
847.158	22656
847.294	22721
847.429	22660
847.565	22634
847.701	22740
847.837	22432
847.972	22360
848.108	22470
848.244	22573
848.379	22200
848.515	22215
848.65	22147
848.786	22284
848.921	22261
849.057	22459
849.192	22440
849.328	22234
849.463	22234
849.598	22150
849.734	22109
849.869	22173
850.004	22059
850.14	22086
850.275	21994
850.41	22025
850.545	21831
850.68	21895
850.815	22010
850.95	22032
851.085	22181
851.22	22025
851.355	22029
851.49	21937
851.625	21968
851.76	21930
851.895	21903
852.03	21842
852.165	22101
852.299	22059
852.434	22128
852.569	21937
852.703	22048
852.838	22097
852.973	22059
853.107	22036
853.242	21979
853.376	21873
853.511	21701
853.645	21884
853.78	21968
853.914	21739
854.048	21694
854.183	21895
854.317	21895
854.451	21941
854.585	21804
854.72	21880
854.854	21797
854.988	21629
855.122	21850
855.256	21606
855.39	21701
855.524	21968
855.658	21823
855.792	21846
855.926	21819
856.06	21899
856.194	21743
856.327	21789
856.461	21762
856.595	21770
856.729	21812
856.862	21911
856.996	21930
857.13	21899
857.263	21842
857.397	21842
857.53	21816
857.664	21945
857.797	21907
857.931	21804
858.064	21857
858.197	21861
858.331	21873
858.464	21831
858.597	21663
858.731	21857
858.864	21717
858.997	21766
859.13	21732
859.263	21861
859.396	21968
859.529	21793
859.662	21835
859.795	21759
859.928	21808
860.061	21903
860.194	22025
860.327	21873
860.46	21869
860.592	21850
860.725	22029
860.858	21899
860.99	21869
861.123	21812
861.256	21747
861.388	21808
861.521	22664
861.653	21641
861.786	21671
861.918	21603
862.05	21660
862.183	21705
862.315	21694
862.447	21800
862.58	21694
862.712	21576
862.844	21450
862.976	21542
863.108	21526
863.24	21983
863.372	21431
863.504	21466
863.636	21477
863.768	21587
863.9	21538
864.032	21416
864.164	21473
864.296	21564
864.428	21637
864.559	21557
864.691	21595
864.823	21568
864.954	21553
865.086	21466
865.217	21439
865.349	21313
865.48	21363
865.612	21420
865.743	21614
865.875	21492
866.006	21344
866.137	21370
866.269	21287
866.4	21439
866.531	21268
866.662	21268
866.793	21370
866.924	21272
867.055	21428
867.186	21439
867.317	21226
867.448	21135
867.579	21332
867.71	21363
867.841	21298
867.972	21310
868.103	21310
868.233	21336
868.364	21370
868.495	21355
868.625	21538
868.756	21656
868.886	21595
869.017	21515
869.147	21561
869.278	21797
869.408	21580
869.539	21553
869.669	21682
869.799	21637
869.929	21808
870.06	21705
870.19	21895
870.32	21899
870.45	21846
870.58	21880
870.71	21979
870.84	21991
870.97	21827
871.1	21945
871.23	22112
871.36	22150
871.489	22154
871.619	22093
871.749	22131
871.879	22242
872.008	22253
872.138	22124
872.267	22150
872.397	22044
872.526	22078
872.656	21964
872.785	21972
872.915	22116
873.044	22238
873.173	22169
873.303	22314
873.432	22223
873.561	22280
873.69	22284
873.819	22207
873.948	22200
874.077	22265
874.206	22196
874.335	22192
874.464	22268
874.593	22337
874.722	22310
874.851	22371
874.979	22333
875.108	22398
875.237	22375
875.365	22405
875.494	22314
875.623	22474
875.751	22379
875.88	22497
876.008	22565
876.136	22596
876.265	22706
876.393	22923
876.521	22839
876.65	22835
876.778	22786
876.906	22717
877.034	22740
877.162	22847
877.29	22664
877.418	22835
877.546	22687
877.674	22782
877.802	22816
877.93	22763
878.058	22744
878.185	22531
878.313	22645
878.441	22736
878.568	22508
878.696	22748
878.824	22828
878.951	22881
879.079	22927
879.206	23037
879.333	22961
879.461	22843
879.588	22919
879.715	22953
879.842	22919
879.97	22828
880.097	22645
880.224	22584
880.351	22561
880.478	22607
880.605	22470
880.732	22504
880.859	22774
880.986	22516
881.112	22531
881.239	22348
881.366	22268
881.493	22287
881.619	22051
881.746	22112
881.872	22067
881.999	22131
882.125	22158
882.252	22200
882.378	22147
882.505	22166
882.631	22017
882.757	21770
882.883	21865
883.01	21800
883.136	21835
883.262	21728
883.388	21717
883.514	21861
883.64	21956
883.766	21690
883.892	21530
884.018	21686
884.143	21766
884.269	21835
884.395	21504
884.52	21603
884.646	21507
884.772	21416
884.897	21386
885.023	21428
885.148	21553
885.274	21660
885.399	21526
885.524	21538
885.65	21431
885.775	21302
885.9	21477
886.025	21637
886.15	21526
886.275	21500
886.4	21412
886.525	21405
886.65	21408
886.775	21435
886.9	21614
887.025	21694
887.149	21469
887.274	21325
887.399	21195
887.523	21150
887.648	21127
887.773	21146
887.897	21336
888.021	21363
888.146	21195
888.27	21332
888.395	21374
888.519	21279
888.643	21321
888.767	21268
888.891	21131
889.015	21024
889.139	21036
889.263	21055
889.387	21077
889.511	21287
889.635	21089
889.759	20952
889.883	21001
890.006	21081
890.13	21089
890.254	20998
890.377	21005
890.501	20735
890.624	20705
890.748	20842
890.871	20632
890.995	20579
891.118	20526
891.241	20545
891.364	20594
891.488	20712
891.611	20712
891.734	20465
891.857	20587
891.98	20545
892.103	20602
892.226	20492
892.349	20374
892.471	20313
892.594	20480
892.717	20522
892.839	20492
892.962	20434
893.085	20613
893.207	20393
893.33	20362
893.452	20385
893.575	20598
893.697	20328
893.819	20621
893.941	20667
894.064	20682
894.186	20400
894.308	20408
894.43	20575
894.552	20708
894.674	20594
894.796	20381
894.918	20552
895.04	20377
895.161	20579
895.283	20492
895.405	20469
895.526	20358
895.648	20415
895.769	20549
895.891	20446
896.012	20530
896.134	20499
896.255	20480
896.376	20442
896.498	20381
896.619	20457
896.74	20640
896.861	20469
896.982	20834
897.103	20963
897.224	20617
897.345	20739
897.466	20606
897.587	20788
897.708	20823
897.828	20686
897.949	20621
898.07	20564
898.19	20667
898.311	20708
898.431	20590
898.552	20640
898.672	20670
898.792	20651
898.913	20659
899.033	20575
899.153	20396
899.273	20400
899.393	20301
899.513	20427
899.633	20419
899.753	20366
899.873	20427
899.993	20351
900.113	20336
900.232	20339
900.352	20389
900.472	20199
900.591	20065
900.711	20240
900.83	20138
900.95	20294
901.069	20191
901.189	20054
901.308	19875
901.427	19734
901.546	19860
901.665	19727
901.784	19750
901.904	19651
902.023	19616
902.141	19278
902.26	19278
902.379	19445
902.498	19285
902.617	19225
902.735	19225
902.854	19050
902.973	19225
903.091	19103
903.21	18954
903.328	18886
903.446	18947
903.565	18745
903.683	18760
903.801	18593
903.919	18642
904.038	18528
904.156	18433
904.274	18589
904.392	18498
904.51	18475
904.627	18441
904.745	18532
904.863	18532
904.981	18372
905.098	18159
905.216	18232
905.334	18247
905.451	18197
905.569	18178
905.686	18197
905.803	18117
905.921	17958
906.038	18083
906.155	18045
906.272	17843
906.389	17882
906.506	17714
906.623	17756
906.74	17710
906.857	17672
906.974	17691
907.091	17676
907.208	17847
907.324	17703
907.441	17577
907.557	17444
907.674	17478
907.79	17273
907.907	17406
908.023	17490
908.139	17452
908.256	17330
908.372	17330
908.488	17387
908.604	17242
908.72	17159
908.836	17113
908.952	17098
909.068	17261
909.184	17322
909.3	17109
909.415	17174
909.531	17056
909.647	16942
909.762	16877
909.878	16866
909.993	16862
910.108	16839
910.224	16660
910.339	16733
910.454	16763
910.57	16668
910.685	16466
910.8	16820
910.915	16740
911.03	16672
911.145	16462
911.259	16485
911.374	16493
911.489	16360
911.604	16276
911.718	16051
911.833	16192
911.947	16059
912.062	15983
912.176	16147
912.291	16154
912.405	16086
912.519	16215
912.633	16295
912.748	16207
912.862	16139
912.976	15972
913.09	15884
913.204	15934
913.318	15892
913.431	16074
913.545	16055
913.659	16002
913.772	15937
913.886	15888
914	15759
914.113	15888
914.226	15819
914.34	15838
914.453	15774
914.566	15816
914.68	15755
914.793	15549
914.906	15488
915.019	15332
915.132	15325
915.245	15428
915.358	15416
915.47	15393
915.583	15401
915.696	15428
915.809	15511
915.921	15595
916.034	15393
916.146	15306
916.259	15287
916.371	15329
916.483	15374
916.595	15157
916.708	15169
916.82	15180
916.932	15165
917.044	15180
917.156	15188
917.268	14979
917.38	15058
917.491	15024
917.603	15036
917.715	15169
917.826	15081
917.938	15013
918.049	14857
918.161	14963
918.272	15024
918.384	15116
918.495	14960
918.606	14762
918.717	14621
918.828	14804
918.939	14708
919.05	14648
919.161	14792
919.272	14613
919.383	14587
919.494	14811
919.604	14956
919.715	14785
919.826	14613
919.936	14739
920.047	14746
920.157	14720
920.267	14906
920.378	14868
920.488	14644
920.598	14823
920.708	15070
920.818	14868
920.928	14925
921.038	15093
921.148	14902
921.258	14625
921.368	14606
921.477	14552
921.587	14442
921.697	14347
921.806	14461
921.916	14400
922.025	14149
922.134	14111
922.244	14050
922.353	14058
922.462	13936
922.571	13902
922.68	13700
922.789	13742
922.898	13738
923.007	13681
923.116	13772
923.224	13788
923.333	13719
923.442	13525
923.55	13594
923.659	13590
923.767	13571
923.876	13506
923.984	13613
924.092	13460
924.201	13480
924.309	13518
924.417	13480
924.525	13411
924.633	13407
924.741	14149
924.849	13240
924.956	13392
925.064	13091
925.172	13171
925.279	13145
925.387	13129
925.494	13164
925.602	13358
925.709	13137
925.816	12958
925.924	13171
926.031	13187
926.138	13099
926.245	13160
926.352	12928
926.459	13088
926.566	13149
926.673	13015
926.779	12878
926.886	12939
926.993	12757
927.099	12757
927.206	12764
927.312	12642
927.419	12776
927.525	12764
927.631	12745
927.737	12627
927.843	12563
927.95	12517
928.056	12498
928.162	12559
928.267	12563
928.373	13027
928.479	12589
928.585	12376
928.69	12479
928.796	12597
928.901	12418
929.007	12213
929.112	12464
929.218	12410
929.323	12273
929.428	12205
929.533	12372
929.638	12175
929.743	12213
929.848	12247
929.953	12228
930.058	12057
930.163	11958
930.267	12022
930.372	12041
930.477	11828
930.581	12083
930.685	11920
930.79	11809
930.894	11779
930.998	11847
931.103	11950
931.207	11505
931.311	11490
931.415	11353
931.519	11231
931.623	11170
