Data from test_V78500241_2345.txt Node
Date: Fri Mar 25 15:26:11 CST 2022
User: usil
Spectrometer: V785-0024
Trigger mode: 0
Integration Time (sec): 4.000000E-1
Scans to average: 1
Nonlinearity correction enabled: false
Boxcar width: 0
Storing dark spectrum: false
XAxis mode: Wavelengths
Number of Pixels in Spectrum: 1024
>>>>>Begin Spectral Data<<<<<
801.071	27568
801.214	27454
801.356	27374
801.499	27165
801.641	27081
801.783	27047
801.926	27116
802.068	26971
802.211	27138
802.353	26899
802.496	26743
802.638	26682
802.78	26568
802.923	26670
803.065	26667
803.208	26609
803.35	26720
803.492	26724
803.635	26834
803.777	26807
803.919	26701
804.061	27142
804.204	26918
804.346	26895
804.488	26724
804.63	26929
804.773	26838
804.915	26979
805.057	26967
805.199	26864
805.341	26838
805.483	26830
805.626	26921
805.768	26868
805.91	26914
806.052	27009
806.194	26845
806.336	26994
806.478	26963
806.62	26998
806.762	27043
806.904	27245
807.046	27606
807.188	27393
807.33	27389
807.472	27367
807.614	27306
807.756	27427
807.898	27268
808.04	27157
808.182	27287
808.324	27275
808.465	27310
808.607	27477
808.749	27625
808.891	27629
809.033	27804
809.174	27576
809.316	27534
809.458	27713
809.6	27583
809.741	27694
809.883	27774
810.025	27937
810.166	27865
810.308	27835
810.45	27819
810.591	27762
810.733	27393
810.875	27614
811.016	27450
811.158	27325
811.299	27519
811.441	27656
811.582	27648
811.724	27534
811.865	27557
812.007	27587
812.148	27530
812.29	27492
812.431	27690
812.573	27930
812.714	27926
812.855	27975
812.997	28135
813.138	28333
813.279	28249
813.421	28135
813.562	27941
813.703	27934
813.845	27766
813.986	27576
814.127	27317
814.268	27237
814.41	27275
814.551	27306
814.692	27355
814.833	27207
814.974	27188
815.115	27279
815.256	27093
815.397	27211
815.539	27283
815.68	27013
815.821	26986
815.962	27005
816.103	26956
816.244	26872
816.385	26785
816.526	26773
816.666	26541
816.807	26415
816.948	26560
817.089	26682
817.23	26484
817.371	26526
817.512	26393
817.653	26560
817.793	26533
817.934	26374
818.075	26533
818.216	26514
818.356	26385
818.497	26450
818.638	26309
818.778	26286
818.919	26134
819.06	26347
819.2	26362
819.341	26579
819.481	26469
819.622	26632
819.762	26861
819.903	26785
820.043	26583
820.184	26651
820.324	26617
820.465	26598
820.605	26663
820.746	26530
820.886	26457
821.026	26488
821.167	26522
821.307	26705
821.447	26667
821.588	26355
821.728	26206
821.868	26206
822.008	25989
822.149	26088
822.289	25864
822.429	25693
822.569	25677
822.709	25632
822.849	25506
822.99	25415
823.13	25525
823.27	25445
823.41	25240
823.55	25240
823.69	25365
823.83	25263
823.97	25255
824.11	25061
824.25	25114
824.389	25164
824.529	25232
824.669	25072
824.809	25251
824.949	25228
825.089	25194
825.228	25141
825.368	24920
825.508	24947
825.648	24890
825.787	25053
825.927	25034
826.067	24916
826.206	24954
826.346	25031
826.485	24992
826.625	24852
826.765	25084
826.904	25023
827.044	24776
827.183	24787
827.323	24627
827.462	24696
827.601	24719
827.741	24574
827.88	24745
828.02	24502
828.159	24563
828.298	24650
828.437	24760
828.577	24646
828.716	24802
828.855	24555
828.994	24323
829.134	24399
829.273	24521
829.412	24327
829.551	24315
829.69	24403
829.829	24410
829.968	24448
830.107	24403
830.246	24338
830.385	24380
830.524	24216
830.663	24285
830.802	24159
830.941	24079
831.08	24057
831.219	24045
831.357	24026
831.496	24197
831.635	23946
831.774	23863
831.913	23916
832.051	23916
832.19	23718
832.329	23847
832.467	23661
832.606	23657
832.744	23566
832.883	23672
833.022	23672
833.16	23551
833.299	23703
833.437	23661
833.576	23691
833.714	23779
833.852	23775
833.991	23729
834.129	23893
834.267	23912
834.406	23931
834.544	23783
834.682	23794
834.821	23718
834.959	23756
835.097	23558
835.235	23790
835.373	23695
835.511	23695
835.65	23566
835.788	23512
835.926	23509
836.064	23395
836.202	23303
836.34	23573
836.478	23592
836.615	23543
836.753	23600
836.891	23596
837.029	23653
837.167	23501
837.305	23440
837.443	23353
837.58	23391
837.718	23448
837.856	23452
837.993	23250
838.131	23330
838.269	23181
838.406	23193
838.544	23296
838.681	23098
838.819	23041
838.956	22934
839.094	22873
839.231	22938
839.369	23044
839.506	23273
839.643	23307
839.781	22839
839.918	22877
840.055	22934
840.193	22858
840.33	22824
840.467	22778
840.604	22759
840.742	23086
840.879	22557
841.016	22615
841.153	22645
841.29	22889
841.427	22835
841.564	22755
841.701	22786
841.838	22782
841.975	22675
842.112	22672
842.249	22557
842.385	22596
842.522	22713
842.659	22679
842.796	22508
842.933	22474
843.069	22500
843.206	22519
843.343	22554
843.479	22519
843.616	22538
843.752	22390
843.889	22379
844.025	22436
844.162	22367
844.298	22405
844.435	22299
844.571	22322
844.708	22337
844.844	22481
844.98	22413
845.117	22451
845.253	22253
845.389	22310
845.525	22253
845.661	22124
845.798	22063
845.934	22078
846.07	22059
846.206	22067
846.342	22238
846.478	22097
846.614	21774
846.75	21751
846.886	21857
847.022	21823
847.158	21827
847.294	21816
847.429	21774
847.565	21842
847.701	22070
847.837	21572
847.972	21477
848.108	21690
848.244	21614
848.379	21477
848.515	21336
848.65	21397
848.786	21488
848.921	21447
849.057	21545
849.192	21572
849.328	21450
849.463	21511
849.598	21405
849.734	21203
849.869	21264
850.004	21241
850.14	21203
850.275	21199
850.41	21131
850.545	21192
850.68	21127
850.815	21264
850.95	21055
851.085	21386
851.22	21252
851.355	21119
851.49	21142
851.625	21051
851.76	21062
851.895	21131
852.03	20975
852.165	21176
852.299	21169
852.434	21348
852.569	21089
852.703	21104
852.838	21127
852.973	21184
853.107	21142
853.242	21104
853.376	21005
853.511	20902
853.645	20883
853.78	21108
853.914	21032
854.048	21039
854.183	20998
854.317	21001
854.451	21199
854.585	21020
854.72	20941
854.854	21066
854.988	20902
855.122	20990
855.256	20842
855.39	20941
855.524	21017
855.658	21036
855.792	20994
855.926	21017
856.06	21055
856.194	20979
856.327	21123
856.461	20895
856.595	20933
856.729	21009
856.862	21062
856.996	21089
857.13	21043
857.263	21047
857.397	21043
857.53	21089
857.664	21009
857.797	21100
857.931	21081
858.064	21009
858.197	21020
858.331	20883
858.464	20815
858.597	20925
858.731	21024
858.864	20842
858.997	20925
859.13	21051
859.263	20971
859.396	21043
859.529	20823
859.662	20925
859.795	20902
859.928	21009
860.061	21074
860.194	20979
860.327	20971
860.46	20960
860.592	21135
860.725	21017
860.858	21112
860.99	21112
861.123	20861
861.256	20815
861.388	20975
861.521	21469
861.653	20743
861.786	20693
861.918	20781
862.05	20796
862.183	20868
862.315	20834
862.447	20963
862.58	20834
862.712	20663
862.844	20689
862.976	20804
863.108	20777
863.24	21165
863.372	20583
863.504	20705
863.636	20621
863.768	20788
863.9	20674
864.032	20594
864.164	20689
864.296	20705
864.428	20796
864.559	20689
864.691	20785
864.823	20731
864.954	20689
865.086	20636
865.217	20644
865.349	20503
865.48	20739
865.612	20708
865.743	20693
865.875	20484
866.006	20465
866.137	20564
866.269	20560
866.4	20492
866.531	20541
866.662	20602
866.793	20503
866.924	20549
867.055	20568
867.186	20640
867.317	20492
867.448	20560
867.579	20469
867.71	20457
867.841	20442
867.972	20480
868.103	20476
868.233	20423
868.364	20556
868.495	20640
868.625	20777
868.756	20891
868.886	20731
869.017	20830
869.147	20773
869.278	20868
869.408	20838
869.539	20651
869.669	20849
869.799	20880
869.929	20842
870.06	20929
870.19	21024
870.32	21051
870.45	21009
870.58	21211
870.71	21233
870.84	21241
870.97	21252
871.1	21176
871.23	21351
871.36	21401
871.489	21336
871.619	21340
871.749	21428
871.879	21428
872.008	21435
872.138	21355
872.267	21249
872.397	21207
872.526	21161
872.656	21252
872.785	21195
872.915	21374
873.044	21515
873.173	21344
873.303	21401
873.432	21386
873.561	21481
873.69	21401
873.819	21378
873.948	21660
874.077	21454
874.206	21313
874.335	21256
874.464	21439
874.593	21595
874.722	21606
874.851	21599
874.979	21447
875.108	21618
875.237	21564
875.365	21496
875.494	21572
875.623	21633
875.751	21553
875.88	21610
876.008	21747
876.136	21934
876.265	21956
876.393	22086
876.521	22112
876.65	22143
876.778	21960
876.906	21873
877.034	21949
877.162	22093
877.29	21945
877.418	21968
877.546	21911
877.674	21945
877.802	21968
877.93	22032
878.058	21953
878.185	21994
878.313	21915
878.441	21876
878.568	21827
878.696	21915
878.824	22025
878.951	22086
879.079	22074
879.206	22303
879.333	22166
879.461	22063
879.588	22044
879.715	22093
879.842	22150
879.97	22010
880.097	21736
880.224	21705
880.351	21831
880.478	21797
880.605	21793
880.732	21686
880.859	21953
880.986	21884
881.112	21759
881.239	21656
881.366	21549
881.493	21412
881.619	21428
881.746	21370
881.872	21378
881.999	21378
882.125	21157
882.252	21450
882.378	21344
882.505	21405
882.631	21203
882.757	21100
882.883	21131
883.01	21131
883.136	21020
883.262	20887
883.388	20880
883.514	21039
883.64	21146
883.766	20986
883.892	20876
884.018	20895
884.143	20956
884.269	21036
884.395	20804
884.52	20735
884.646	20785
884.772	20613
884.897	20648
885.023	20750
885.148	20781
885.274	20910
885.399	20785
885.524	20651
885.65	20663
885.775	20735
885.9	20598
886.025	20792
886.15	20727
886.275	20727
886.4	20514
886.525	20667
886.65	20594
886.775	20552
886.9	20739
887.025	21013
887.149	20629
887.274	20434
887.399	20473
887.523	20575
887.648	20309
887.773	20362
887.897	20560
888.021	20408
888.146	20377
888.27	20613
888.395	20537
888.519	20541
888.643	20507
888.767	20507
888.891	20412
889.015	20240
889.139	20328
889.263	20278
889.387	20377
889.511	20590
889.635	20393
889.759	20309
889.883	20195
890.006	20317
890.13	20324
890.254	20199
890.377	20145
890.501	20016
890.624	20039
890.748	20054
890.871	19986
890.995	19841
891.118	19795
891.241	19898
891.364	19852
891.488	20065
891.611	20008
891.734	19860
891.857	19978
891.98	19807
892.103	19894
892.226	19909
892.349	19814
892.471	19761
892.594	19757
892.717	19936
892.839	19795
892.962	19833
893.085	19826
893.207	19803
893.33	19734
893.452	19681
893.575	19830
893.697	19651
893.819	20005
893.941	19982
894.064	19917
894.186	19696
894.308	19734
894.43	19856
894.552	19898
894.674	19807
894.796	19586
894.918	19788
895.04	19715
895.161	19841
895.283	19814
895.405	19723
895.526	19769
895.648	19731
895.769	19940
895.891	19780
896.012	19784
896.134	19780
896.255	19822
896.376	19700
896.498	19776
896.619	19879
896.74	19769
896.861	19902
896.982	20050
897.103	20183
897.224	20081
897.345	20073
897.466	19883
897.587	19974
897.708	20305
897.828	19887
897.949	19982
898.07	19746
898.19	19947
898.311	19993
898.431	19982
898.552	20016
898.672	20005
898.792	20084
898.913	20111
899.033	19955
899.153	19849
899.273	19658
899.393	19738
899.513	19845
899.633	19868
899.753	19837
899.873	19795
899.993	19734
900.113	19635
900.232	19830
900.352	19639
900.472	19609
900.591	19586
900.711	19533
900.83	19571
900.95	19605
901.069	19544
901.189	19396
901.308	19225
901.427	19129
901.546	19156
901.665	19061
901.784	19202
901.904	18943
902.023	18916
902.141	18814
902.26	18646
902.379	18798
902.498	18574
902.617	18646
902.735	18681
902.854	18601
902.973	18555
903.091	18391
903.21	18422
903.328	18281
903.446	18224
903.565	18068
903.683	18171
903.801	18102
903.919	18121
904.038	18057
904.156	17980
904.274	18015
904.392	17824
904.51	17916
904.627	17843
904.745	17977
904.863	17992
904.981	17699
905.098	17554
905.216	17566
905.334	17691
905.451	17703
905.569	17497
905.686	17627
905.803	17512
905.921	17356
906.038	17406
906.155	17395
906.272	17246
906.389	17227
906.506	17136
906.623	17102
906.74	17102
906.857	16911
906.974	17052
907.091	17159
907.208	17181
907.324	17147
907.441	17003
907.557	16862
907.674	16873
907.79	16755
907.907	16835
908.023	16782
908.139	16896
908.256	16748
908.372	16691
908.488	16824
908.604	16580
908.72	16596
908.836	16664
908.952	16466
909.068	16535
909.184	16649
909.3	16630
909.415	16527
909.531	16504
909.647	16272
909.762	16200
909.878	16242
909.993	16200
910.108	16181
910.224	16207
910.339	16211
910.454	16169
910.57	16013
910.685	15972
910.8	16272
910.915	16192
911.03	16044
911.145	15816
911.259	15797
911.374	15922
911.489	15682
911.604	15755
911.718	15656
911.833	15568
911.947	15534
912.062	15367
912.176	15561
912.291	15679
912.405	15587
912.519	15751
912.633	15778
912.748	15610
912.862	15587
912.976	15405
913.09	15351
913.204	15351
913.318	15416
913.431	15534
913.545	15507
913.659	15568
913.772	15355
913.886	15313
914	15207
914.113	15294
914.226	15458
914.34	15279
914.453	15097
914.566	15150
914.68	15161
914.793	15104
914.906	14864
915.019	14773
915.132	14777
915.245	14826
915.358	14956
915.47	14754
915.583	14826
915.696	14842
915.809	14880
915.921	14967
916.034	14773
916.146	14724
916.259	14705
916.371	14705
916.483	14758
916.595	14579
916.708	14701
916.82	14716
916.932	14636
917.044	14632
917.156	14602
917.268	14450
917.38	14484
917.491	14465
917.603	14594
917.715	14537
917.826	14587
917.938	14533
918.049	14286
918.161	14427
918.272	14552
918.384	14579
918.495	14488
918.606	14366
918.717	14199
918.828	14256
918.939	14263
919.05	14081
919.161	14218
919.272	14054
919.383	14134
919.494	14275
919.604	14492
919.715	14256
919.826	14138
919.936	14313
920.047	14210
920.157	14267
920.267	14377
920.378	14191
920.488	14233
920.598	14366
920.708	14617
920.818	14366
920.928	14423
921.038	14571
921.148	14351
921.258	14218
921.368	14062
921.477	13974
921.587	14008
921.697	13845
921.806	13955
921.916	13772
922.025	13700
922.134	13647
922.244	13578
922.353	13628
922.462	13502
922.571	13426
922.68	13350
922.789	13259
922.898	13270
923.007	13244
923.116	13270
923.224	13316
923.333	13247
923.442	13168
923.55	13046
923.659	13114
923.767	13137
923.876	12973
923.984	13213
924.092	13084
924.201	12996
924.309	13004
924.417	13012
924.525	12905
924.633	12928
924.741	13955
924.849	12776
924.956	12848
925.064	12764
925.172	12730
925.279	12757
925.387	12806
925.494	12692
925.602	12779
925.709	12745
925.816	12589
925.924	12642
926.031	12734
926.138	12669
926.245	12665
926.352	12627
926.459	12692
926.566	12688
926.673	12601
926.779	12471
926.886	12395
926.993	12277
927.099	12209
927.206	12205
927.312	12220
927.419	12277
927.525	12285
927.631	12334
927.737	12289
927.843	12136
927.95	12045
928.056	11961
928.162	12110
928.267	12117
928.373	12623
928.479	12171
928.585	11897
928.69	12087
928.796	12083
928.901	12015
929.007	11821
929.112	11988
929.218	11863
929.323	11794
929.428	11840
929.533	11973
929.638	11767
929.743	11821
929.848	11813
929.953	11722
930.058	11688
930.163	11577
930.267	11459
930.372	11596
930.477	11512
930.581	11741
930.685	11695
930.79	11368
930.894	11402
930.998	11395
931.103	11528
931.207	11113
931.311	11102
931.415	10946
931.519	10862
931.623	10767
