Data from test_V78500241_3618.txt Node
Date: Fri Mar 25 15:35:03 CST 2022
User: usil
Spectrometer: V785-0024
Trigger mode: 0
Integration Time (sec): 4.000000E-1
Scans to average: 1
Nonlinearity correction enabled: false
Boxcar width: 0
Storing dark spectrum: false
XAxis mode: Wavelengths
Number of Pixels in Spectrum: 1024
>>>>>Begin Spectral Data<<<<<
801.071	27382
801.214	27321
801.356	27039
801.499	26906
801.641	26758
801.783	26834
801.926	27036
802.068	26895
802.211	26826
802.353	26842
802.496	26682
802.638	26686
802.78	26545
802.923	26347
803.065	26412
803.208	26370
803.35	26438
803.492	26533
803.635	26746
803.777	26663
803.919	26788
804.061	27013
804.204	26804
804.346	26670
804.488	26552
804.63	26724
804.773	26549
804.915	26800
805.057	26815
805.199	26587
805.341	26735
805.483	26921
805.626	26853
805.768	26712
805.91	26621
806.052	26921
806.194	26598
806.336	26994
806.478	26880
806.62	26796
806.762	26899
806.904	27104
807.046	27241
807.188	27165
807.33	27321
807.472	27359
807.614	27112
807.756	27237
807.898	27096
808.04	26994
808.182	27017
808.324	27017
808.465	27074
808.607	27329
808.749	27526
808.891	27424
809.033	27469
809.174	27439
809.316	27348
809.458	27431
809.6	27298
809.741	27416
809.883	27526
810.025	27701
810.166	27675
810.308	27648
810.45	27671
810.591	27633
810.733	27466
810.875	27458
811.016	27252
811.158	27344
811.299	27576
811.441	27496
811.582	27564
811.724	27519
811.865	27382
812.007	27397
812.148	27344
812.29	27397
812.431	27641
812.573	27709
812.714	27675
812.855	27869
812.997	27949
813.138	28086
813.279	27991
813.421	27972
813.562	27766
813.703	27789
813.845	27587
813.986	27321
814.127	27233
814.268	27176
814.41	27112
814.551	27032
814.692	27252
814.833	26971
814.974	26975
815.115	27180
815.256	26967
815.397	26925
815.539	26762
815.68	26697
815.821	26651
815.962	26815
816.103	26849
816.244	26674
816.385	26621
816.526	26609
816.666	26347
816.807	26332
816.948	26374
817.089	26294
817.23	26374
817.371	26240
817.512	26248
817.653	26229
817.793	26183
817.934	26362
818.075	26370
818.216	26518
818.356	26343
818.497	26237
818.638	26005
818.778	26039
818.919	26012
819.06	26187
819.2	26282
819.341	26377
819.481	26183
819.622	26423
819.762	26750
819.903	26682
820.043	26579
820.184	26427
820.324	26366
820.465	26469
820.605	26355
820.746	26355
820.886	26210
821.026	26438
821.167	26347
821.307	26313
821.447	26278
821.588	26176
821.728	26035
821.868	25993
822.008	25879
822.149	25818
822.289	25731
822.429	25495
822.569	25582
822.709	25487
822.849	25331
822.99	25339
823.13	25308
823.27	25266
823.41	25206
823.55	25088
823.69	25206
823.83	25171
823.97	25145
824.11	24996
824.25	24939
824.389	24977
824.529	25061
824.669	24890
824.809	25095
824.949	25050
825.089	25095
825.228	24894
825.368	24844
825.508	24894
825.648	24787
825.787	24901
825.927	24901
826.067	24696
826.206	24734
826.346	24798
826.485	24962
826.625	24878
826.765	24970
826.904	24852
827.044	24673
827.183	24734
827.323	24513
827.462	24563
827.601	24574
827.741	24582
827.88	24528
828.02	24517
828.159	24437
828.298	24429
828.437	24612
828.577	24521
828.716	24574
828.855	24490
828.994	24213
829.134	24239
829.273	24224
829.412	24087
829.551	24209
829.69	24174
829.829	24304
829.968	24270
830.107	24281
830.246	24270
830.385	24273
830.524	24270
830.663	24034
830.802	23923
830.941	23847
831.08	23802
831.219	23984
831.357	23931
831.496	24079
831.635	23893
831.774	23786
831.913	23703
832.051	23608
832.19	23592
832.329	23672
832.467	23467
832.606	23448
832.744	23433
832.883	23406
833.022	23497
833.16	23493
833.299	23516
833.437	23425
833.576	23634
833.714	23611
833.852	23589
833.991	23748
834.129	23707
834.267	23653
834.406	23668
834.544	23623
834.682	23604
834.821	23551
834.959	23726
835.097	23486
835.235	23794
835.373	23600
835.511	23619
835.65	23474
835.788	23531
835.926	23368
836.064	23231
836.202	23436
836.34	23516
836.478	23482
836.615	23326
836.753	23334
836.891	23558
837.029	23398
837.167	23535
837.305	23299
837.443	23288
837.58	23349
837.718	23383
837.856	23326
837.993	23349
838.131	23227
838.269	23200
838.406	23189
838.544	23113
838.681	22930
838.819	22911
838.956	22911
839.094	22858
839.231	22949
839.369	22980
839.506	23193
839.643	23029
839.781	22733
839.918	22729
840.055	22828
840.193	22733
840.33	22725
840.467	22733
840.604	22618
840.742	23014
840.879	22516
841.016	22679
841.153	22607
841.29	22892
841.427	22691
841.564	22839
841.701	22698
841.838	22729
841.975	22535
842.112	22721
842.249	22607
842.385	22447
842.522	22694
842.659	22508
842.796	22421
842.933	22497
843.069	22352
843.206	22417
843.343	22500
843.479	22466
843.616	22436
843.752	22341
843.889	22348
844.025	22455
844.162	22223
844.298	22299
844.435	22352
844.571	22249
844.708	22299
844.844	22519
844.98	22440
845.117	22394
845.253	22249
845.389	22010
845.525	22124
845.661	22063
845.798	21949
845.934	22082
846.07	21888
846.206	21888
846.342	22143
846.478	21892
846.614	21819
846.75	21690
846.886	21686
847.022	21804
847.158	21785
847.294	21739
847.429	21682
847.565	21759
847.701	21956
847.837	21447
847.972	21431
848.108	21576
848.244	21507
848.379	21389
848.515	21363
848.65	21355
848.786	21222
848.921	21401
849.057	21435
849.192	21344
849.328	21325
849.463	21233
849.598	21355
849.734	21173
849.869	21142
850.004	21020
850.14	21062
850.275	21214
850.41	20982
850.545	21020
850.68	21055
850.815	21146
850.95	21138
851.085	21192
851.22	21192
851.355	21081
851.49	21127
851.625	21001
851.76	21017
851.895	21066
852.03	21074
852.165	21066
852.299	21157
852.434	21241
852.569	21108
852.703	21138
852.838	21203
852.973	21218
853.107	21184
853.242	21081
853.376	20967
853.511	20842
853.645	20826
853.78	21009
853.914	20906
854.048	20807
854.183	20754
854.317	21036
854.451	21131
854.585	20948
854.72	20876
854.854	20952
854.988	20830
855.122	20948
855.256	20819
855.39	20952
855.524	21036
855.658	20891
855.792	20937
855.926	20994
856.06	20918
856.194	20941
856.327	20826
856.461	20773
856.595	20895
856.729	20902
856.862	21055
856.996	20963
857.13	20998
857.263	20998
857.397	20918
857.53	20979
857.664	20944
857.797	21005
857.931	21116
858.064	21005
858.197	20998
858.331	20861
858.464	20853
858.597	20762
858.731	20811
858.864	20941
858.997	20929
859.13	20979
859.263	20750
859.396	20994
859.529	20743
859.662	20918
859.795	20876
859.928	20876
860.061	20990
860.194	21142
860.327	20956
860.46	20967
860.592	21001
860.725	21116
860.858	20948
860.99	20971
861.123	20868
861.256	20853
861.388	20876
861.521	21694
861.653	20674
861.786	20663
861.918	20716
862.05	20792
862.183	20826
862.315	20876
862.447	20849
862.58	20792
862.712	20724
862.844	20727
862.976	20644
863.108	20686
863.24	21062
863.372	20598
863.504	20629
863.636	20667
863.768	20663
863.9	20636
864.032	20518
864.164	20533
864.296	20701
864.428	20834
864.559	20522
864.691	20667
864.823	20670
864.954	20594
865.086	20552
865.217	20511
865.349	20431
865.48	20579
865.612	20518
865.743	20689
865.875	20461
866.006	20427
866.137	20522
866.269	20488
866.4	20552
866.531	20450
866.662	20488
866.793	20518
866.924	20434
867.055	20518
867.186	20495
867.317	20434
867.448	20396
867.579	20431
867.71	20431
867.841	20320
867.972	20518
868.103	20454
868.233	20499
868.364	20518
868.495	20545
868.625	20754
868.756	20811
868.886	20674
869.017	20750
869.147	20811
869.278	20804
869.408	20697
869.539	20686
869.669	20781
869.799	20861
869.929	20792
870.06	21024
870.19	21013
870.32	20952
870.45	21108
870.58	21077
870.71	21211
870.84	21146
870.97	21123
871.1	21036
871.23	21264
871.36	21351
871.489	21195
871.619	21397
871.749	21317
871.879	21378
872.008	21466
872.138	21382
872.267	21294
872.397	21135
872.526	21138
872.656	21188
872.785	21218
872.915	21351
873.044	21378
873.173	21325
873.303	21302
873.432	21443
873.561	21363
873.69	21268
873.819	21272
873.948	21310
874.077	21313
874.206	21252
874.335	21192
874.464	21397
874.593	21595
874.722	21492
874.851	21576
874.979	21622
875.108	21606
875.237	21526
875.365	21542
875.494	21500
875.623	21660
875.751	21648
875.88	21667
876.008	21698
876.136	21785
876.265	22002
876.393	22105
876.521	22120
876.65	22021
876.778	22025
876.906	21899
877.034	21846
877.162	21975
877.29	21979
877.418	21918
877.546	21949
877.674	21987
877.802	21941
877.93	21838
878.058	21876
878.185	21778
878.313	21823
878.441	21975
878.568	21644
878.696	21823
878.824	21915
878.951	22093
879.079	22021
879.206	22131
879.333	22109
879.461	21888
879.588	21960
879.715	22169
879.842	22048
879.97	22029
880.097	21846
880.224	21857
880.351	21865
880.478	21789
880.605	21641
880.732	21739
880.859	21998
880.986	21732
881.112	21732
881.239	21652
881.366	21485
881.493	21481
881.619	21416
881.746	21359
881.872	21348
881.999	21351
882.125	21355
882.252	21386
882.378	21317
882.505	21405
882.631	21188
882.757	21142
882.883	21173
883.01	20956
883.136	21116
883.262	20887
883.388	20975
883.514	21058
883.64	21039
883.766	21093
883.892	20785
884.018	20792
884.143	20986
884.269	20960
884.395	20819
884.52	20629
884.646	20731
884.772	20598
884.897	20457
885.023	20659
885.148	20667
885.274	20804
885.399	20754
885.524	20644
885.65	20739
885.775	20716
885.9	20697
886.025	20670
886.15	20613
886.275	20708
886.4	20511
886.525	20594
886.65	20625
886.775	20522
886.9	20781
887.025	20853
887.149	20598
887.274	20469
887.399	20552
887.523	20442
887.648	20400
887.773	20400
887.897	20469
888.021	20514
888.146	20324
888.27	20522
888.395	20579
888.519	20438
888.643	20393
888.767	20476
888.891	20457
889.015	20282
889.139	20374
889.263	20237
889.387	20286
889.511	20484
889.635	20431
889.759	20218
889.883	20317
890.006	20191
890.13	20339
890.254	20107
890.377	20210
890.501	20062
890.624	19940
890.748	20100
890.871	19940
890.995	19841
891.118	19723
891.241	19894
891.364	19894
891.488	19970
891.611	19925
891.734	19833
891.857	19837
891.98	19795
892.103	19841
892.226	19883
892.349	19742
892.471	19639
892.594	19811
892.717	19769
892.839	19822
892.962	19868
893.085	19791
893.207	19712
893.33	19628
893.452	19715
893.575	19947
893.697	19734
893.819	19818
893.941	19913
894.064	19864
894.186	19738
894.308	19712
894.43	19826
894.552	19997
894.674	19826
894.796	19643
894.918	19753
895.04	19647
895.161	19765
895.283	19818
895.405	19693
895.526	19795
895.648	19765
895.769	19757
895.891	19742
896.012	19784
896.134	19852
896.255	19738
896.376	19788
896.498	19746
896.619	19700
896.74	19655
896.861	19780
896.982	20073
897.103	20210
897.224	20054
897.345	19970
897.466	19856
897.587	19925
897.708	20054
897.828	19864
897.949	19940
898.07	19761
898.19	19917
898.311	20077
898.431	19917
898.552	20024
898.672	19974
898.792	20062
898.913	19944
899.033	19871
899.153	19814
899.273	19693
899.393	19700
899.513	19852
899.633	19761
899.753	19734
899.873	19674
899.993	19795
900.113	19567
900.232	19727
900.352	19548
900.472	19563
900.591	19499
900.711	19476
900.83	19457
900.95	19635
901.069	19525
901.189	19392
901.308	19213
901.427	19099
901.546	19084
901.665	19110
901.784	19164
901.904	18928
902.023	18863
902.141	18798
902.26	18692
902.379	18722
902.498	18593
902.617	18563
902.735	18616
902.854	18521
902.973	18551
903.091	18330
903.21	18292
903.328	18311
903.446	18174
903.565	18022
903.683	18155
903.801	18079
903.919	18091
904.038	17965
904.156	17840
904.274	17824
904.392	17870
904.51	17904
904.627	17920
904.745	17973
904.863	17802
904.981	17600
905.098	17471
905.216	17516
905.334	17646
905.451	17630
905.569	17421
905.686	17539
905.803	17539
905.921	17280
906.038	17326
906.155	17330
906.272	17239
906.389	17227
906.506	17136
906.623	17121
906.74	16991
906.857	16923
906.974	16915
907.091	17170
907.208	17216
907.324	17060
907.441	16930
907.557	16797
907.674	16786
907.79	16820
907.907	16786
908.023	16763
908.139	16752
908.256	16736
908.372	16713
908.488	16706
908.604	16474
908.72	16443
908.836	16489
908.952	16485
909.068	16504
909.184	16558
909.3	16455
909.415	16748
909.531	16462
909.647	16284
909.762	16200
909.878	16071
909.993	16215
910.108	16196
910.224	16253
910.339	16246
910.454	16036
910.57	16025
910.685	16032
910.8	16253
910.915	16215
911.03	15956
911.145	15808
911.259	15781
911.374	15880
911.489	15762
911.604	15759
911.718	15545
911.833	15698
911.947	15477
912.062	15500
912.176	15561
912.291	15618
912.405	15557
912.519	15770
912.633	15755
912.748	15580
912.862	15587
912.976	15481
913.09	15344
913.204	15393
913.318	15450
913.431	15610
913.545	15538
913.659	15492
913.772	15367
913.886	15233
914	15226
914.113	15283
914.226	15344
914.34	15222
914.453	15070
914.566	15252
914.68	15135
914.793	15093
914.906	14986
915.019	14785
915.132	14785
915.245	14785
915.358	14826
915.47	14849
915.583	14868
915.696	14735
915.809	14979
915.921	14883
916.034	14823
916.146	14758
916.259	14655
916.371	14754
916.483	14804
916.595	14674
916.708	14590
916.82	14697
916.932	14594
917.044	14594
917.156	14648
917.268	14415
917.38	14549
917.491	14484
917.603	14522
917.715	14625
917.826	14590
917.938	14328
918.049	14229
918.161	14518
918.272	14564
918.384	14651
918.495	14465
918.606	14172
918.717	14237
918.828	14294
918.939	14294
919.05	14240
919.161	14195
919.272	13974
919.383	14100
919.494	14233
919.604	14442
919.715	14214
919.826	14126
919.936	14172
920.047	14298
920.157	14282
920.267	14423
920.378	14157
920.488	14221
920.598	14271
920.708	14571
920.818	14263
920.928	14286
921.038	14503
921.148	14469
921.258	14168
921.368	14050
921.477	13944
921.587	13997
921.697	13883
921.806	13982
921.916	13742
922.025	13727
922.134	13624
922.244	13586
922.353	13647
922.462	13502
922.571	13441
922.68	13362
922.789	13228
922.898	13137
923.007	13194
923.116	13293
923.224	13225
923.333	13331
923.442	13137
923.55	13069
923.659	13133
923.767	13110
923.876	13088
923.984	13118
924.092	13000
924.201	13050
924.309	12947
924.417	13072
924.525	12924
924.633	12875
924.741	13967
924.849	12730
924.956	12909
925.064	12700
925.172	12589
925.279	12597
925.387	12757
925.494	12620
925.602	12753
925.709	12768
925.816	12597
925.924	12623
926.031	12711
926.138	12616
926.245	12719
926.352	12532
926.459	12688
926.566	12703
926.673	12528
926.779	12456
926.886	12407
926.993	12327
927.099	12247
927.206	12182
927.312	12228
927.419	12334
927.525	12239
927.631	12353
927.737	12155
927.843	12095
927.95	12060
928.056	12121
928.162	12136
928.267	12144
928.373	12681
928.479	12182
928.585	11942
928.69	12053
928.796	12011
928.901	11965
929.007	11824
929.112	11920
929.218	11874
929.323	11885
929.428	11863
929.533	11859
929.638	11767
929.743	11741
929.848	11855
929.953	11760
930.058	11668
930.163	11516
930.267	11600
930.372	11684
930.477	11535
930.581	11608
930.685	11528
930.79	11356
930.894	11459
930.998	11379
931.103	11486
931.207	11185
931.311	11132
931.415	11022
931.519	10767
931.623	10809
