Data from test_V78500241_192.txt Node
Date: Fri Mar 25 15:11:11 CST 2022
User: usil
Spectrometer: V785-0024
Trigger mode: 0
Integration Time (sec): 4.000000E-1
Scans to average: 1
Nonlinearity correction enabled: false
Boxcar width: 0
Storing dark spectrum: false
XAxis mode: Wavelengths
Number of Pixels in Spectrum: 1024
>>>>>Begin Spectral Data<<<<<
801.071	28044
801.214	27827
801.356	27705
801.499	27682
801.641	27606
801.783	27515
801.926	27553
802.068	27439
802.211	27340
802.353	27302
802.496	27173
802.638	27184
802.78	27032
802.923	27024
803.065	27051
803.208	27047
803.35	27211
803.492	27165
803.635	27340
803.777	27100
803.919	27184
804.061	27424
804.204	27310
804.346	27268
804.488	27043
804.63	27188
804.773	27165
804.915	27017
805.057	27142
805.199	27055
805.341	27047
805.483	27287
805.626	27146
805.768	27249
805.91	27222
806.052	27313
806.194	27135
806.336	27325
806.478	27207
806.62	27359
806.762	27408
806.904	27481
807.046	27553
807.188	27614
807.33	27538
807.472	27713
807.614	27595
807.756	27583
807.898	27515
808.04	27511
808.182	27469
808.324	27454
808.465	27637
808.607	27530
808.749	27770
808.891	27899
809.033	28040
809.174	27774
809.316	27690
809.458	27816
809.6	27827
809.741	27778
809.883	27880
810.025	28059
810.166	28063
810.308	27987
810.45	27907
810.591	27918
810.733	27755
810.875	27778
811.016	27614
811.158	27720
811.299	27850
811.441	27770
811.582	27892
811.724	27667
811.865	27644
812.007	27751
812.148	27747
812.29	27675
812.431	27861
812.573	27975
812.714	28120
812.855	28196
812.997	28287
813.138	28451
813.279	28405
813.421	28310
813.562	28086
813.703	28063
813.845	27911
813.986	27717
814.127	27515
814.268	27370
814.41	27439
814.551	27408
814.692	27389
814.833	27283
814.974	27249
815.115	27420
815.256	27222
815.397	27062
815.539	27096
815.68	27222
815.821	27116
815.962	27169
816.103	27001
816.244	27100
816.385	26940
816.526	26823
816.666	26670
816.807	26568
816.948	26640
817.089	26636
817.23	26648
817.371	26644
817.512	26556
817.653	26606
817.793	26609
817.934	26495
818.075	26499
818.216	26434
818.356	26579
818.497	26492
818.638	26259
818.778	26275
818.919	26278
819.06	26336
819.2	26275
819.341	26393
819.481	26480
819.622	26667
819.762	26838
819.903	26697
820.043	26598
820.184	26579
820.324	26575
820.465	26526
820.605	26484
820.746	26594
820.886	26370
821.026	26476
821.167	26533
821.307	26621
821.447	26366
821.588	26252
821.728	26393
821.868	26320
822.008	25856
822.149	25841
822.289	25986
822.429	25681
822.569	25499
822.709	25681
822.849	25487
822.99	25343
823.13	25419
823.27	25251
823.41	25312
823.55	25110
823.69	25133
823.83	25183
823.97	25209
824.11	25004
824.25	25046
824.389	25027
824.529	25152
824.669	25057
824.809	25126
824.949	25209
825.089	24973
825.228	24924
825.368	24924
825.508	24738
825.648	24844
825.787	24856
825.927	24962
826.067	24692
826.206	24787
826.346	24928
826.485	24810
826.625	24875
826.765	24783
826.904	24787
827.044	24513
827.183	24513
827.323	24445
827.462	24536
827.601	24521
827.741	24407
827.88	24582
828.02	24357
828.159	24513
828.298	24494
828.437	24483
828.577	24330
828.716	24513
828.855	24433
828.994	24228
829.134	24148
829.273	24262
829.412	24220
829.551	24125
829.69	24079
829.829	24182
829.968	24235
830.107	24201
830.246	24148
830.385	24011
830.524	24015
830.663	23954
830.802	23897
830.941	23714
831.08	23718
831.219	23855
831.357	23866
831.496	23851
831.635	23745
831.774	23680
831.913	23589
832.051	23551
832.19	23501
832.329	23554
832.467	23364
832.606	23402
832.744	23395
832.883	23482
833.022	23337
833.16	23459
833.299	23493
833.437	23391
833.576	23467
833.714	23497
833.852	23463
833.991	23425
834.129	23657
834.267	23619
834.406	23360
834.544	23395
834.682	23303
834.821	23311
834.959	23649
835.097	23345
835.235	23463
835.373	23410
835.511	23368
835.65	23303
835.788	23402
835.926	23147
836.064	22965
836.202	23151
836.34	23208
836.478	23372
836.615	23178
836.753	23292
836.891	23398
837.029	23216
837.167	23220
837.305	23181
837.443	23140
837.58	23121
837.718	23147
837.856	23143
837.993	23064
838.131	22946
838.269	22923
838.406	22938
838.544	22915
838.681	22649
838.819	22694
838.956	22565
839.094	22565
839.231	22641
839.369	22675
839.506	22809
839.643	22786
839.781	22542
839.918	22516
840.055	22481
840.193	22542
840.33	22371
840.467	22432
840.604	22466
840.742	22672
840.879	22436
841.016	22402
841.153	22402
841.29	22508
841.427	22424
841.564	22546
841.701	22470
841.838	22390
841.975	22398
842.112	22268
842.249	22257
842.385	22238
842.522	22421
842.659	22207
842.796	22223
842.933	22158
843.069	22055
843.206	22097
843.343	22124
843.479	22109
843.616	22090
843.752	22067
843.889	21949
844.025	22116
844.162	21846
844.298	22002
844.435	21785
844.571	21876
844.708	21907
844.844	22021
844.98	22135
845.117	22010
845.253	21842
845.389	21652
845.525	21895
845.661	21789
845.798	21690
845.934	21755
846.07	21648
846.206	21618
846.342	21793
846.478	21542
846.614	21378
846.75	21344
846.886	21279
847.022	21485
847.158	21412
847.294	21424
847.429	21355
847.565	21256
847.701	21652
847.837	21142
847.972	21154
848.108	21351
848.244	21119
848.379	21020
848.515	20982
848.65	20918
848.786	21055
848.921	20979
849.057	21028
849.192	20960
849.328	20998
849.463	21074
849.598	20883
849.734	20861
849.869	20807
850.004	20758
850.14	20625
850.275	20781
850.41	20621
850.545	20636
850.68	20602
850.815	20758
850.95	20731
851.085	20804
851.22	20781
851.355	20739
851.49	20648
851.625	20602
851.76	20640
851.895	20625
852.03	20598
852.165	20655
852.299	20625
852.434	20857
852.569	20773
852.703	20686
852.838	20682
852.973	20823
853.107	20853
853.242	20613
853.376	20545
853.511	20427
853.645	20377
853.78	20701
853.914	20518
854.048	20518
854.183	20434
854.317	20583
854.451	20655
854.585	20393
854.72	20454
854.854	20549
854.988	20446
855.122	20408
855.256	20355
855.39	20484
855.524	20568
855.658	20705
855.792	20522
855.926	20549
856.06	20598
856.194	20689
856.327	20484
856.461	20385
856.595	20514
856.729	20469
856.862	20606
856.996	20511
857.13	20530
857.263	20701
857.397	20571
857.53	20541
857.664	20454
857.797	20522
857.931	20457
858.064	20434
858.197	20514
858.331	20465
858.464	20454
858.597	20317
858.731	20442
858.864	20381
858.997	20480
859.13	20469
859.263	20415
859.396	20613
859.529	20469
859.662	20393
859.795	20446
859.928	20499
860.061	20560
860.194	20613
860.327	20457
860.46	20404
860.592	20552
860.725	20533
860.858	20507
860.99	20404
861.123	20412
861.256	20503
861.388	20374
861.521	21211
861.653	20355
861.786	20221
861.918	20275
862.05	20370
862.183	20320
862.315	20396
862.447	20396
862.58	20450
862.712	20119
862.844	20218
862.976	20172
863.108	20111
863.24	20678
863.372	20210
863.504	20149
863.636	20278
863.768	20244
863.9	20191
864.032	20020
864.164	20161
864.296	20103
864.428	20237
864.559	20134
864.691	20263
864.823	20210
864.954	20130
865.086	20130
865.217	20046
865.349	19993
865.48	20084
865.612	20016
865.743	20107
865.875	19986
866.006	19989
866.137	20024
866.269	20024
866.4	20043
866.531	20119
866.662	19951
866.793	20008
866.924	19974
867.055	19944
867.186	19967
867.317	19871
867.448	19917
867.579	19917
867.71	19845
867.841	19833
867.972	19982
868.103	19928
868.233	19955
868.364	19970
868.495	20069
868.625	20221
868.756	20275
868.886	20035
869.017	20267
869.147	20423
869.278	20286
869.408	20214
869.539	20134
869.669	20252
869.799	20248
869.929	20400
870.06	20343
870.19	20613
870.32	20495
870.45	20549
870.58	20583
870.71	20731
870.84	20644
870.97	20613
871.1	20629
871.23	20800
871.36	20804
871.489	20712
871.619	20807
871.749	20823
871.879	20792
872.008	20975
872.138	20880
872.267	20758
872.397	20674
872.526	20632
872.656	20705
872.785	20613
872.915	20804
873.044	20963
873.173	20830
873.303	20914
873.432	20880
873.561	20971
873.69	20883
873.819	20929
873.948	20838
874.077	20891
874.206	20758
874.335	20834
874.464	20925
874.593	20925
874.722	20975
874.851	21169
874.979	21077
875.108	21195
875.237	21074
875.365	20914
875.494	21028
875.623	21142
875.751	21066
875.88	21119
876.008	21260
876.136	21203
876.265	21492
876.393	21606
876.521	21526
876.65	21496
876.778	21481
876.906	21515
877.034	21488
877.162	21526
877.29	21435
877.418	21412
877.546	21511
877.674	21519
877.802	21469
877.93	21367
878.058	21272
878.185	21439
878.313	21359
878.441	21488
878.568	21310
878.696	21405
878.824	21420
878.951	21595
879.079	21625
879.206	21542
879.333	21583
879.461	21488
879.588	21523
879.715	21595
879.842	21732
879.97	21450
880.097	21230
880.224	21329
880.351	21306
880.478	21218
880.605	21077
880.732	21287
880.859	21485
880.986	21237
881.112	21344
881.239	21058
881.366	20994
881.493	20941
881.619	20925
881.746	20887
881.872	20796
881.999	20861
882.125	20861
882.252	20781
882.378	20842
882.505	20994
882.631	20708
882.757	20655
882.883	20617
883.01	20579
883.136	20549
883.262	20400
883.388	20507
883.514	20667
883.64	20503
883.766	20655
883.892	20317
884.018	20389
884.143	20568
884.269	20655
884.395	20408
884.52	20191
884.646	20183
884.772	20145
884.897	19967
885.023	20164
885.148	20294
885.274	20282
885.399	20320
885.524	20199
885.65	20320
885.775	20263
885.9	20145
886.025	20305
886.15	20389
886.275	20195
886.4	20107
886.525	20301
886.65	20214
886.775	20164
886.9	20328
887.025	20370
887.149	20195
887.274	20016
887.399	19928
887.523	20077
887.648	19849
887.773	19947
887.897	19997
888.021	20050
888.146	20073
888.27	20069
888.395	20225
888.519	20043
888.643	19986
888.767	20191
888.891	19879
889.015	19879
889.139	19837
889.263	19761
889.387	19974
889.511	19917
889.635	19932
889.759	19776
889.883	19765
890.006	19742
890.13	19795
890.254	19795
890.377	19639
890.501	19506
890.624	19533
890.748	19559
890.871	19476
890.995	19419
891.118	19270
891.241	19381
891.364	19324
891.488	19514
891.611	19392
891.734	19392
891.857	19415
891.98	19445
892.103	19373
892.226	19304
892.349	19301
892.471	19190
892.594	19354
892.717	19362
892.839	19327
892.962	19251
893.085	19396
893.207	19266
893.33	19103
893.452	19190
893.575	19415
893.697	19285
893.819	19453
893.941	19411
894.064	19358
894.186	19228
894.308	19232
894.43	19297
894.552	19457
894.674	19327
894.796	19187
894.918	19251
895.04	19308
895.161	19373
895.283	19324
895.405	19259
895.526	19324
895.648	19251
895.769	19381
895.891	19339
896.012	19411
896.134	19270
896.255	19308
896.376	19289
896.498	19358
896.619	19335
896.74	19301
896.861	19426
896.982	19731
897.103	19818
897.224	19666
897.345	19506
897.466	19518
897.587	19502
897.708	19696
897.828	19586
897.949	19480
898.07	19430
898.19	19369
898.311	19529
898.431	19514
898.552	19632
898.672	19613
898.792	19586
898.913	19559
899.033	19419
899.153	19221
899.273	19190
899.393	19213
899.513	19362
899.633	19263
899.753	19285
899.873	19141
899.993	19190
900.113	19228
900.232	19266
900.352	19179
900.472	19065
900.591	19015
900.711	19129
900.83	18996
900.95	19285
901.069	19103
901.189	19050
901.308	18745
901.427	18597
901.546	18734
901.665	18768
901.784	18707
901.904	18525
902.023	18460
902.141	18262
902.26	18220
902.379	18247
902.498	18216
902.617	18182
902.735	18140
902.854	18079
902.973	17996
903.091	17832
903.21	17798
903.328	17832
903.446	17821
903.565	17577
903.683	17657
903.801	17577
903.919	17657
904.038	17566
904.156	17448
904.274	17471
904.392	17345
904.51	17524
904.627	17440
904.745	17490
904.863	17478
904.981	17353
905.098	17140
905.216	17071
905.334	17056
905.451	17083
905.569	17064
905.686	17204
905.803	17117
905.921	16885
906.038	16972
906.155	16911
906.272	16733
906.389	16839
906.506	16713
906.623	16615
906.74	16660
906.857	16428
906.974	16550
907.091	16611
907.208	16713
907.324	16702
907.441	16694
907.557	16405
907.674	16394
907.79	16192
907.907	16341
908.023	16394
908.139	16310
908.256	16211
908.372	16116
908.488	16276
908.604	16063
908.72	16021
908.836	16059
908.952	16029
909.068	16124
909.184	16093
909.3	16029
909.415	16032
909.531	16074
909.647	15667
909.762	15751
909.878	15709
909.993	15682
910.108	15766
910.224	15663
910.339	15694
910.454	15545
910.57	15561
910.685	15603
910.8	15869
910.915	15705
911.03	15473
911.145	15378
911.259	15439
911.374	15294
911.489	15268
911.604	15237
911.718	15112
911.833	15138
911.947	14994
912.062	14941
912.176	15047
912.291	15138
912.405	15074
912.519	15329
912.633	15317
912.748	15070
912.862	14990
912.976	14948
913.09	14777
913.204	14853
913.318	14902
913.431	15039
913.545	15047
913.659	15058
913.772	14845
913.886	14788
914	14716
914.113	14769
914.226	14842
914.34	14727
914.453	14667
914.566	14689
914.68	14587
914.793	14511
914.906	14389
915.019	14400
915.132	14282
915.245	14343
915.358	14389
915.47	14358
915.583	14244
915.696	14355
915.809	14450
915.921	14537
916.034	14332
916.146	14328
916.259	14252
916.371	14389
916.483	14374
916.595	14130
916.708	14256
916.82	14138
916.932	14149
917.044	14176
917.156	14081
917.268	14126
917.38	14065
917.491	14035
917.603	13993
917.715	14164
917.826	14035
917.938	13997
918.049	13925
918.161	13906
918.272	14073
918.384	14001
918.495	13974
918.606	13883
918.717	13818
918.828	13856
918.939	13814
919.05	13708
919.161	13734
919.272	13674
919.383	13696
919.494	13875
919.604	13978
919.715	13833
919.826	13708
919.936	13822
920.047	13890
920.157	13765
920.267	13974
920.378	13791
920.488	13712
920.598	13791
920.708	14062
920.818	13871
920.928	13803
921.038	14016
921.148	13951
921.258	13708
921.368	13677
921.477	13556
921.587	13537
921.697	13415
921.806	13563
921.916	13350
922.025	13168
922.134	13175
922.244	13114
922.353	13152
922.462	13076
922.571	13015
922.68	12749
922.789	12875
922.898	12764
923.007	12673
923.116	12825
923.224	12810
923.333	12745
923.442	12642
923.55	12639
923.659	12635
923.767	12722
923.876	12612
923.984	12681
924.092	12551
924.201	12608
924.309	12597
924.417	12528
924.525	12475
924.633	12490
924.741	13259
924.849	12327
924.956	12433
925.064	12277
925.172	12136
925.279	12258
925.387	12235
925.494	12232
925.602	12388
925.709	12247
925.816	12228
925.924	12159
926.031	12289
926.138	12163
926.245	12258
926.352	12087
926.459	12292
926.566	12220
926.673	12167
926.779	12060
926.886	12038
926.993	11866
927.099	11870
927.206	11859
927.312	11863
927.419	11904
927.525	11847
927.631	11866
927.737	11756
927.843	11707
927.95	11562
928.056	11657
928.162	11672
928.267	11767
928.373	12300
928.479	11726
928.585	11467
928.69	11611
928.796	11684
928.901	11570
929.007	11341
929.112	11554
929.218	11444
929.323	11505
929.428	11383
929.533	11520
929.638	11311
929.743	11406
929.848	11318
929.953	11372
930.058	11216
930.163	11121
930.267	11128
930.372	11261
930.477	11113
930.581	11216
930.685	11121
930.79	10949
930.894	11041
930.998	10961
931.103	11094
931.207	10805
931.311	10626
931.415	10573
931.519	10466
931.623	10363
