Data from test_V78500241_1849.txt Node
Date: Fri Mar 25 15:22:43 CST 2022
User: usil
Spectrometer: V785-0024
Trigger mode: 0
Integration Time (sec): 4.000000E-1
Scans to average: 1
Nonlinearity correction enabled: false
Boxcar width: 0
Storing dark spectrum: false
XAxis mode: Wavelengths
Number of Pixels in Spectrum: 1024
>>>>>Begin Spectral Data<<<<<
801.071	27686
801.214	27797
801.356	27462
801.499	27561
801.641	27363
801.783	27329
801.926	27466
802.068	27249
802.211	27207
802.353	27203
802.496	27055
802.638	26990
802.78	27043
802.923	26838
803.065	26807
803.208	26819
803.35	26979
803.492	27112
803.635	27180
803.777	27070
803.919	27093
804.061	27454
804.204	27188
804.346	26998
804.488	26921
804.63	27116
804.773	27036
804.915	27165
805.057	27252
805.199	27157
805.341	27199
805.483	27332
805.626	27291
805.768	27268
805.91	27310
806.052	27291
806.194	27214
806.336	27412
806.478	27325
806.62	27256
806.762	27557
806.904	27549
807.046	27728
807.188	27644
807.33	27698
807.472	27667
807.614	27568
807.756	27523
807.898	27637
808.04	27580
808.182	27477
808.324	27519
808.465	27701
808.607	27747
808.749	27930
808.891	28029
809.033	27972
809.174	27914
809.316	27804
809.458	27922
809.6	27941
809.741	28128
809.883	28147
810.025	28200
810.166	28287
810.308	28192
810.45	28143
810.591	28173
810.733	28006
810.875	27812
811.016	27789
811.158	27808
811.299	28082
811.441	27991
811.582	28048
811.724	27819
811.865	27812
812.007	27739
812.148	27892
812.29	27956
812.431	28101
812.573	28192
812.714	28379
812.855	28405
812.997	28417
813.138	28698
813.279	28565
813.421	28485
813.562	28287
813.703	28215
813.845	28204
813.986	27793
814.127	27622
814.268	27656
814.41	27511
814.551	27671
814.692	27800
814.833	27405
814.974	27618
815.115	27656
815.256	27511
815.397	27504
815.539	27610
815.68	27268
815.821	27329
815.962	27256
816.103	27393
816.244	27249
816.385	27237
816.526	27093
816.666	26914
816.807	26857
816.948	27123
817.089	27070
817.23	26960
817.371	26902
817.512	26765
817.653	26727
817.793	26781
817.934	26876
818.075	26864
818.216	26902
818.356	26788
818.497	26727
818.638	26575
818.778	26689
818.919	26609
819.06	26701
819.2	26807
819.341	26807
819.481	26918
819.622	27093
819.762	27161
819.903	27024
820.043	26899
820.184	27013
820.324	27074
820.465	26990
820.605	26986
820.746	26857
820.886	26845
821.026	26967
821.167	26773
821.307	26902
821.447	26918
821.588	26952
821.728	26629
821.868	26518
822.008	26453
822.149	26343
822.289	26423
822.429	26054
822.569	26035
822.709	25970
822.849	25909
822.99	25753
823.13	25849
823.27	25811
823.41	25670
823.55	25594
823.69	25544
823.83	25731
823.97	25742
824.11	25518
824.25	25476
824.389	25434
824.529	25590
824.669	25472
824.809	25613
824.949	25571
825.089	25639
825.228	25563
825.368	25373
825.508	25350
825.648	25476
825.787	25411
825.927	25285
826.067	25263
826.206	25301
826.346	25426
826.485	25365
826.625	25358
826.765	25651
826.904	25434
827.044	25202
827.183	25312
827.323	25012
827.462	25263
827.601	25209
827.741	25179
827.88	25107
828.02	25000
828.159	24985
828.298	25084
828.437	25114
828.577	25008
828.716	25228
828.855	25061
828.994	24856
829.134	24715
829.273	24738
829.412	24772
829.551	24741
829.69	24825
829.829	24886
829.968	24791
830.107	24825
830.246	24821
830.385	24783
830.524	24844
830.663	24483
830.802	24635
830.941	24452
831.08	24380
831.219	24426
831.357	24448
831.496	24627
831.635	24365
831.774	24323
831.913	24292
832.051	24251
832.19	24209
832.329	24209
832.467	24057
832.606	24129
832.744	24209
832.883	24049
833.022	24095
833.16	23939
833.299	24091
833.437	24174
833.576	24243
833.714	24136
833.852	24254
833.991	24308
834.129	24369
834.267	24296
834.406	24045
834.544	24163
834.682	24144
834.821	24129
834.959	24292
835.097	24072
835.235	24232
835.373	24243
835.511	24213
835.65	23916
835.788	23961
835.926	23961
836.064	23908
836.202	23950
836.34	24182
836.478	24057
836.615	24064
836.753	24057
836.891	23973
837.029	24110
837.167	23866
837.305	23882
837.443	23889
837.58	23950
837.718	23893
837.856	23794
837.993	23775
838.131	23817
838.269	23676
838.406	23642
838.544	23783
838.681	23490
838.819	23551
838.956	23288
839.094	23246
839.231	23486
839.369	23516
839.506	23771
839.643	23653
839.781	23395
839.918	23235
840.055	23288
840.193	23330
840.33	23128
840.467	23216
840.604	23288
840.742	23471
840.879	23064
841.016	23166
841.153	23041
841.29	23284
841.427	23246
841.564	23258
841.701	23311
841.838	23277
841.975	23231
842.112	23204
842.249	23071
842.385	23018
842.522	23284
842.659	23143
842.796	22824
842.933	23048
843.069	23151
843.206	22942
843.343	23083
843.479	23010
843.616	23014
843.752	22843
843.889	22782
844.025	22946
844.162	22763
844.298	22877
844.435	22812
844.571	22828
844.708	22816
844.844	22820
844.98	22862
845.117	22915
845.253	22622
845.389	22729
845.525	22824
845.661	22599
845.798	22485
845.934	22618
846.07	22470
846.206	22634
846.342	22428
846.478	22577
846.614	22344
846.75	22265
846.886	22253
847.022	22405
847.158	22287
847.294	22261
847.429	22337
847.565	22299
847.701	22478
847.837	22036
847.972	21956
848.108	21983
848.244	21998
848.379	21808
848.515	21888
848.65	21759
848.786	21705
848.921	21827
849.057	21975
849.192	21892
849.328	21918
849.463	21846
849.598	21751
849.734	21660
849.869	21778
850.004	21644
850.14	21679
850.275	21622
850.41	21587
850.545	21572
850.68	21450
850.815	21652
850.95	21610
851.085	21873
851.22	21641
851.355	21580
851.49	21614
851.625	21637
851.76	21485
851.895	21656
852.03	21492
852.165	21496
852.299	21572
852.434	21622
852.569	21538
852.703	21534
852.838	21644
852.973	21846
853.107	21686
853.242	21542
853.376	21443
853.511	21245
853.645	21302
853.78	21412
853.914	21408
854.048	21458
854.183	21416
854.317	21443
854.451	21564
854.585	21424
854.72	21481
854.854	21492
854.988	21329
855.122	21401
855.256	21256
855.39	21458
855.524	21576
855.658	21488
855.792	21412
855.926	21523
856.06	21454
856.194	21583
856.327	21386
856.461	21481
856.595	21287
856.729	21424
856.862	21553
856.996	21519
857.13	21462
857.263	21530
857.397	21428
857.53	21370
857.664	21405
857.797	21462
857.931	21534
858.064	21515
858.197	21500
858.331	21412
858.464	21336
858.597	21382
858.731	21454
858.864	21370
858.997	21439
859.13	21401
859.263	21458
859.396	21576
859.529	21359
859.662	21370
859.795	21397
859.928	21378
860.061	21561
860.194	21507
860.327	21466
860.46	21401
860.592	21572
860.725	21660
860.858	21466
860.99	21443
861.123	21252
861.256	21435
861.388	21454
861.521	22112
861.653	21332
861.786	21222
861.918	21245
862.05	21268
862.183	21355
862.315	21443
862.447	21420
862.58	21264
862.712	21093
862.844	21199
862.976	21211
863.108	21348
863.24	21530
863.372	21203
863.504	21108
863.636	21157
863.768	21184
863.9	21218
864.032	21009
864.164	21032
864.296	21131
864.428	21188
864.559	21135
864.691	21195
864.823	21127
864.954	21017
865.086	21135
865.217	21017
865.349	20937
865.48	21116
865.612	21112
865.743	21138
865.875	21142
866.006	20971
866.137	21013
866.269	20979
866.4	21085
866.531	20937
866.662	20861
866.793	21013
866.924	20849
867.055	20994
867.186	21032
867.317	20910
867.448	20796
867.579	20971
867.71	20842
867.841	20876
867.972	20967
868.103	20960
868.233	20910
868.364	20853
868.495	21081
868.625	21218
868.756	21287
868.886	21142
869.017	21180
869.147	21260
869.278	21348
869.408	21211
869.539	21199
869.669	21344
869.799	21241
869.929	21291
870.06	21233
870.19	21625
870.32	21507
870.45	21428
870.58	21591
870.71	21648
870.84	21724
870.97	21576
871.1	21641
871.23	21747
871.36	21701
871.489	21637
871.619	21762
871.749	21778
871.879	21736
872.008	21934
872.138	21774
872.267	21785
872.397	21819
872.526	21690
872.656	21644
872.785	21709
872.915	21869
873.044	21884
873.173	21778
873.303	21854
873.432	21895
873.561	21964
873.69	21850
873.819	21747
873.948	21713
874.077	21846
874.206	21827
874.335	21808
874.464	21892
874.593	22112
874.722	21903
874.851	22021
874.979	22070
875.108	22162
875.237	21899
875.365	22025
875.494	22116
875.623	22101
875.751	21884
875.88	22067
876.008	22204
876.136	22219
876.265	22470
876.393	22466
876.521	22402
876.65	22443
876.778	22443
876.906	22478
877.034	22341
877.162	22428
877.29	22405
877.418	22402
877.546	22379
877.674	22367
877.802	22310
877.93	22394
878.058	22398
878.185	22249
878.313	22341
878.441	22470
878.568	22143
878.696	22440
878.824	22276
878.951	22428
879.079	22554
879.206	22626
879.333	22481
879.461	22436
879.588	22554
879.715	22504
879.842	22694
879.97	22451
880.097	22219
880.224	22230
880.351	22230
880.478	22181
880.605	22158
880.732	22249
880.859	22481
880.986	22280
881.112	22173
881.239	22109
881.366	21865
881.493	21842
881.619	21861
881.746	21766
881.872	21816
881.999	21694
882.125	21747
882.252	21819
882.378	21743
882.505	21903
882.631	21720
882.757	21519
882.883	21675
883.01	21561
883.136	21606
883.262	21363
883.388	21195
883.514	21454
883.64	21629
883.766	21412
883.892	21233
884.018	21192
884.143	21412
884.269	21564
884.395	21256
884.52	20960
884.646	21123
884.772	20975
884.897	21032
885.023	21184
885.148	21112
885.274	21313
885.399	21264
885.524	21108
885.65	21100
885.775	21119
885.9	21135
886.025	21226
886.15	21233
886.275	21013
886.4	21077
886.525	21104
886.65	21051
886.775	21055
886.9	21214
887.025	21363
887.149	21104
887.274	20891
887.399	20921
887.523	20826
887.648	20838
887.773	20845
887.897	21032
888.021	20986
888.146	20857
888.27	20933
888.395	20979
888.519	20872
888.643	20990
888.767	20861
888.891	20807
889.015	20785
889.139	20807
889.263	20720
889.387	20735
889.511	20823
889.635	20777
889.759	20693
889.883	20769
890.006	20708
890.13	20705
890.254	20629
890.377	20552
890.501	20419
890.624	20446
890.748	20454
890.871	20434
890.995	20301
891.118	20301
891.241	20324
891.364	20225
891.488	20431
891.611	20339
891.734	20450
891.857	20389
891.98	20298
892.103	20298
892.226	20214
892.349	20256
892.471	19993
892.594	20168
892.717	20176
892.839	20233
892.962	20172
893.085	20210
893.207	20142
893.33	20218
893.452	20172
893.575	20256
893.697	20126
893.819	20275
893.941	20347
894.064	20328
894.186	20069
894.308	20073
894.43	20119
894.552	20214
894.674	20202
894.796	20016
894.918	20176
895.04	20153
895.161	20145
895.283	20176
895.405	20058
895.526	20103
895.648	20168
895.769	20153
895.891	20183
896.012	20286
896.134	20191
896.255	20062
896.376	20050
896.498	20157
896.619	20195
896.74	20107
896.861	20267
896.982	20549
897.103	20583
897.224	20446
897.345	20336
897.466	20286
897.587	20393
897.708	20492
897.828	20404
897.949	20362
898.07	20225
898.19	20298
898.311	20507
898.431	20309
898.552	20290
898.672	20438
898.792	20480
898.913	20393
899.033	20290
899.153	20237
899.273	20027
899.393	20100
899.513	20183
899.633	20058
899.753	20119
899.873	20100
899.993	20069
900.113	20012
900.232	20084
900.352	20058
900.472	19963
900.591	20008
900.711	19917
900.83	19932
900.95	20065
901.069	20008
901.189	19769
901.308	19605
901.427	19373
901.546	19388
901.665	19533
901.784	19430
901.904	19331
902.023	19312
902.141	18985
902.26	19031
902.379	19072
902.498	19019
902.617	18894
902.735	19061
902.854	18947
902.973	18947
903.091	18650
903.21	18620
903.328	18684
903.446	18654
903.565	18384
903.683	18566
903.801	18357
903.919	18437
904.038	18452
904.156	18247
904.274	18311
904.392	18209
904.51	18258
904.627	18197
904.745	18369
904.863	18205
904.981	17961
905.098	17893
905.216	17942
905.334	17927
905.451	17912
905.569	17908
905.686	17870
905.803	17885
905.921	17630
906.038	17676
906.155	17775
906.272	17600
906.389	17600
906.506	17505
906.623	17433
906.74	17444
906.857	17311
906.974	17414
907.091	17528
907.208	17433
907.324	17429
907.441	17364
907.557	17220
907.674	17193
907.79	17121
907.907	17102
908.023	17220
908.139	17159
908.256	17174
908.372	17162
908.488	16991
908.604	16965
908.72	16885
908.836	16850
908.952	16869
909.068	16873
909.184	16980
909.3	16877
909.415	16911
909.531	16889
909.647	16504
909.762	16588
909.878	16512
909.993	16584
910.108	16500
910.224	16554
910.339	16542
910.454	16527
910.57	16459
910.685	16299
910.8	16573
910.915	16451
911.03	16405
911.145	16192
911.259	16131
911.374	16207
911.489	16112
911.604	15945
911.718	15953
911.833	15930
911.947	15827
912.062	15808
912.176	15823
912.291	15915
912.405	15911
912.519	16105
912.633	16021
912.748	15945
912.862	15953
912.976	15800
913.09	15568
913.204	15747
913.318	15641
913.431	15705
913.545	15838
913.659	15812
913.772	15728
913.886	15614
914	15511
914.113	15641
914.226	15667
914.34	15564
914.453	15420
914.566	15534
914.68	15397
914.793	15408
914.906	15184
915.019	15135
915.132	15047
915.245	15058
915.358	15123
915.47	15230
915.583	15135
915.696	15195
915.809	15195
915.921	15218
916.034	15093
916.146	15138
916.259	15024
916.371	15188
916.483	15108
916.595	14971
916.708	14941
916.82	14963
916.932	14895
917.044	14963
917.156	14918
917.268	14804
917.38	14804
917.491	14750
917.603	14777
917.715	14906
917.826	14838
917.938	14712
918.049	14705
918.161	14750
918.272	14826
918.384	14838
918.495	14746
918.606	14492
918.717	14556
918.828	14636
918.939	14480
919.05	14480
919.161	14552
919.272	14404
919.383	14374
919.494	14530
919.604	14743
919.715	14450
919.826	14404
919.936	14404
920.047	14514
920.157	14549
920.267	14712
920.378	14492
920.488	14465
920.598	14708
920.708	14785
920.818	14552
920.928	14617
921.038	14746
921.148	14746
921.258	14431
921.368	14332
921.477	14278
921.587	14244
921.697	14123
921.806	14271
921.916	14062
922.025	13982
922.134	13947
922.244	13902
922.353	14001
922.462	13803
922.571	13655
922.68	13540
922.789	13575
922.898	13578
923.007	13483
923.116	13624
923.224	13514
923.333	13537
923.442	13339
923.55	13350
923.659	13392
923.767	13381
923.876	13304
923.984	13384
924.092	13190
924.201	13270
924.309	13270
924.417	13339
924.525	13206
924.633	13171
924.741	14134
924.849	13019
924.956	13171
925.064	12989
925.172	12875
925.279	12901
925.387	12897
925.494	12901
925.602	13034
925.709	12993
925.816	12859
925.924	12901
926.031	13004
926.138	12825
926.245	12958
926.352	12745
926.459	12977
926.566	12996
926.673	12749
926.779	12658
926.886	12646
926.993	12513
927.099	12452
927.206	12414
927.312	12388
927.419	12486
927.525	12525
927.631	12490
927.737	12429
927.843	12350
927.95	12239
928.056	12289
928.162	12323
928.267	12330
928.373	12913
928.479	12384
928.585	12175
928.69	12277
928.796	12296
928.901	12095
929.007	12003
929.112	12197
929.218	12194
929.323	12102
929.428	12060
929.533	12228
929.638	11908
929.743	12015
929.848	12057
929.953	11954
930.058	11916
930.163	11767
930.267	11741
930.372	11824
930.477	11684
930.581	11965
930.685	11786
930.79	11646
930.894	11676
930.998	11653
931.103	11699
931.207	11429
931.311	11326
931.415	11277
931.519	11006
931.623	10976
