Data from test_V78500241_1172.txt Node
Date: Fri Mar 25 15:18:01 CST 2022
User: usil
Spectrometer: V785-0024
Trigger mode: 0
Integration Time (sec): 4.000000E-1
Scans to average: 1
Nonlinearity correction enabled: false
Boxcar width: 0
Storing dark spectrum: false
XAxis mode: Wavelengths
Number of Pixels in Spectrum: 1024
>>>>>Begin Spectral Data<<<<<
801.071	28303
801.214	28105
801.356	27914
801.499	27781
801.641	27610
801.783	27789
801.926	27747
802.068	27564
802.211	27530
802.353	27587
802.496	27481
802.638	27424
802.78	27344
802.923	27302
803.065	27298
803.208	27435
803.35	27424
803.492	27625
803.635	27633
803.777	27500
803.919	27519
804.061	27892
804.204	27660
804.346	27473
804.488	27443
804.63	27427
804.773	27473
804.915	27625
805.057	27774
805.199	27561
805.341	27709
805.483	27846
805.626	27698
805.768	27622
805.91	27732
806.052	27751
806.194	27542
806.336	27785
806.478	27964
806.62	27812
806.762	27827
806.904	28010
807.046	28204
807.188	28086
807.33	28120
807.472	28226
807.614	28090
807.756	28006
807.898	27983
808.04	28040
808.182	28051
808.324	28074
808.465	28067
808.607	28257
808.749	28284
808.891	28462
809.033	28519
809.174	28436
809.316	28428
809.458	28348
809.6	28303
809.741	28535
809.883	28455
810.025	28637
810.166	28630
810.308	28713
810.45	28668
810.591	28557
810.733	28440
810.875	28371
811.016	28257
811.158	28192
811.299	28470
811.441	28424
811.582	28478
811.724	28443
811.865	28360
812.007	28455
812.148	28329
812.29	28447
812.431	28580
812.573	28679
812.714	28820
812.855	29025
812.997	28946
813.138	28991
813.279	29018
813.421	28984
813.562	28961
813.703	28717
813.845	28767
813.986	28318
814.127	28139
814.268	28207
814.41	28074
814.551	28059
814.692	28120
814.833	28097
814.974	27865
815.115	28101
815.256	27880
815.397	27922
815.539	27926
815.68	27831
815.821	27713
815.962	27838
816.103	27857
816.244	27778
816.385	27705
816.526	27500
816.666	27424
816.807	27370
816.948	27397
817.089	27591
817.23	27466
817.371	27500
817.512	27378
817.653	27363
817.793	27340
817.934	27310
818.075	27321
818.216	27405
818.356	27329
818.497	27386
818.638	27150
818.778	27085
818.919	27264
819.06	27119
819.2	27291
819.341	27283
819.481	27469
819.622	27561
819.762	27564
819.903	27698
820.043	27606
820.184	27454
820.324	27523
820.465	27561
820.605	27504
820.746	27553
820.886	27427
821.026	27519
821.167	27427
821.307	27462
821.447	27287
821.588	27241
821.728	27302
821.868	26918
822.008	26914
822.149	26830
822.289	26838
822.429	26640
822.569	26674
822.709	26503
822.849	26450
822.99	26419
823.13	26381
823.27	26332
823.41	26183
823.55	26111
823.69	26271
823.83	26290
823.97	26031
824.11	26069
824.25	25982
824.389	25963
824.529	26195
824.669	25932
824.809	26069
824.949	26126
825.089	26096
825.228	26035
825.368	25830
825.508	25906
825.648	25906
825.787	26069
825.927	25951
826.067	25883
826.206	25951
826.346	25936
826.485	25947
826.625	25780
826.765	26073
826.904	25860
827.044	25750
827.183	25658
827.323	25639
827.462	25632
827.601	25731
827.741	25537
827.88	25571
828.02	25449
828.159	25643
828.298	25655
828.437	25651
828.577	25628
828.716	25700
828.855	25472
828.994	25187
829.134	25297
829.273	25293
829.412	25457
829.551	25244
829.69	25320
829.829	25320
829.968	25358
830.107	25324
830.246	25247
830.385	25400
830.524	25168
830.663	25194
830.802	25145
830.941	24806
831.08	24973
831.219	25034
831.357	25057
831.496	25137
831.635	24958
831.774	24894
831.913	24825
832.051	24913
832.19	24768
832.329	24783
832.467	24688
832.606	24726
832.744	24563
832.883	24692
833.022	24620
833.16	24642
833.299	24608
833.437	24707
833.576	24677
833.714	24620
833.852	24719
833.991	24753
834.129	24806
834.267	24844
834.406	24681
834.544	24719
834.682	24604
834.821	24646
834.959	24867
835.097	24768
835.235	24711
835.373	24700
835.511	24601
835.65	24544
835.788	24494
835.926	24292
836.064	24471
836.202	24388
836.34	24547
836.478	24498
836.615	24380
836.753	24452
836.891	24650
837.029	24604
837.167	24475
837.305	24327
837.443	24369
837.58	24357
837.718	24407
837.856	24395
837.993	24224
838.131	24270
838.269	24148
838.406	24247
838.544	24129
838.681	23935
838.819	24049
838.956	23836
839.094	23786
839.231	23893
839.369	23980
839.506	24247
839.643	24064
839.781	23885
839.918	23798
840.055	23973
840.193	23893
840.33	23794
840.467	23748
840.604	23729
840.742	23977
840.879	23604
841.016	23653
841.153	23596
841.29	23874
841.427	23802
841.564	23680
841.701	23771
841.838	23756
841.975	23676
842.112	23805
842.249	23512
842.385	23471
842.522	23802
842.659	23562
842.796	23547
842.933	23547
843.069	23482
843.206	23376
843.343	23695
843.479	23497
843.616	23551
843.752	23364
843.889	23433
844.025	23360
844.162	23482
844.298	23220
844.435	23269
844.571	23166
844.708	23315
844.844	23490
844.98	23463
845.117	23387
845.253	23151
845.389	23197
845.525	23258
845.661	22961
845.798	23029
845.934	22976
846.07	23075
846.206	23033
846.342	23037
846.478	23083
846.614	22767
846.75	22717
846.886	22816
847.022	22763
847.158	22831
847.294	22679
847.429	22763
847.565	22733
847.701	22915
847.837	22428
847.972	22405
848.108	22584
848.244	22603
848.379	22382
848.515	22223
848.65	22276
848.786	22352
848.921	22363
849.057	22394
849.192	22421
849.328	22310
849.463	22413
849.598	22382
849.734	22284
849.869	22223
850.004	22261
850.14	22188
850.275	22135
850.41	22090
850.545	22040
850.68	22093
850.815	22063
850.95	22116
851.085	22284
851.22	22128
851.355	22070
851.49	22051
851.625	22093
851.76	21994
851.895	21975
852.03	22025
852.165	22143
852.299	22067
852.434	22139
852.569	22116
852.703	22128
852.838	22150
852.973	22215
853.107	22177
853.242	22059
853.376	21918
853.511	21842
853.645	21854
853.78	22010
853.914	21994
854.048	21888
854.183	21956
854.317	22067
854.451	22070
854.585	21899
854.72	21930
854.854	22029
854.988	21850
855.122	21915
855.256	21865
855.39	21880
855.524	21930
855.658	22029
855.792	21899
855.926	21994
856.06	21930
856.194	21934
856.327	21903
856.461	21884
856.595	21960
856.729	21865
856.862	22112
856.996	21945
857.13	22063
857.263	21964
857.397	21945
857.53	21884
857.664	21876
857.797	21979
857.931	21983
858.064	21915
858.197	22002
858.331	21911
858.464	21869
858.597	21789
858.731	21880
858.864	21850
858.997	21911
859.13	21865
859.263	22017
859.396	21972
859.529	21869
859.662	21869
859.795	21857
859.928	21911
860.061	22059
860.194	22196
860.327	22086
860.46	21846
860.592	22017
860.725	22120
860.858	22086
860.99	21975
861.123	21812
861.256	21915
861.388	21926
861.521	22767
861.653	21774
861.786	21819
861.918	21625
862.05	21861
862.183	21755
862.315	21759
862.447	21972
862.58	21785
862.712	21755
862.844	21682
862.976	21690
863.108	21610
863.24	21918
863.372	21515
863.504	21488
863.636	21523
863.768	21717
863.9	21622
864.032	21439
864.164	21530
864.296	21622
864.428	21724
864.559	21785
864.691	21587
864.823	21553
864.954	21690
865.086	21424
865.217	21606
865.349	21545
865.48	21485
865.612	21530
865.743	21606
865.875	21431
866.006	21545
866.137	21580
866.269	21622
866.4	21420
866.531	21393
866.662	21363
866.793	21447
866.924	21454
867.055	21454
867.186	21496
867.317	21363
867.448	21382
867.579	21351
867.71	21386
867.841	21306
867.972	21450
868.103	21443
868.233	21515
868.364	21439
868.495	21606
868.625	21606
868.756	21774
868.886	21576
869.017	21583
869.147	21835
869.278	21823
869.408	21732
869.539	21751
869.669	21736
869.799	21743
869.929	21720
870.06	21797
870.19	21949
870.32	21915
870.45	22147
870.58	22063
870.71	22135
870.84	22082
870.97	22112
871.1	22074
871.23	22116
871.36	22204
871.489	22116
871.619	22249
871.749	22215
871.879	22318
872.008	22348
872.138	22299
872.267	22166
872.397	22204
872.526	22230
872.656	22154
872.785	22029
872.915	22230
873.044	22318
873.173	22348
873.303	22348
873.432	22348
873.561	22447
873.69	22246
873.819	22352
873.948	22322
874.077	22287
874.206	22253
874.335	22375
874.464	22371
874.593	22569
874.722	22402
874.851	22641
874.979	22504
875.108	22527
875.237	22466
875.365	22371
875.494	22554
875.623	22462
875.751	22527
875.88	22497
876.008	22634
876.136	22668
876.265	22965
876.393	22995
876.521	22968
876.65	22919
876.778	22911
876.906	22847
877.034	22942
877.162	22911
877.29	22771
877.418	22881
877.546	22797
877.674	22748
877.802	22843
877.93	22892
878.058	22847
878.185	22736
878.313	22771
878.441	22896
878.568	22740
878.696	22599
878.824	22816
878.951	22961
879.079	23044
879.206	23018
879.333	22995
879.461	22793
879.588	22938
879.715	22980
879.842	23159
879.97	22919
880.097	22698
880.224	22717
880.351	22755
880.478	22729
880.605	22656
880.732	22656
880.859	22820
880.986	22675
881.112	22603
881.239	22550
881.366	22497
881.493	22341
881.619	22120
881.746	22261
881.872	22257
881.999	22230
882.125	22207
882.252	22253
882.378	22150
882.505	22333
882.631	22086
882.757	21895
882.883	22021
883.01	22063
883.136	21964
883.262	21918
883.388	21774
883.514	21934
883.64	21899
883.766	21823
883.892	21728
884.018	21739
884.143	21827
884.269	21983
884.395	21629
884.52	21614
884.646	21633
884.772	21386
884.897	21515
885.023	21504
885.148	21622
885.274	21682
885.399	21614
885.524	21420
885.65	21511
885.775	21568
885.9	21538
886.025	21656
886.15	21728
886.275	21443
886.4	21515
886.525	21549
886.65	21549
886.775	21473
886.9	21606
887.025	21739
887.149	21507
887.274	21367
887.399	21351
887.523	21428
887.648	21222
887.773	21203
887.897	21462
888.021	21401
888.146	21203
888.27	21329
888.395	21332
888.519	21310
888.643	21207
888.767	21408
888.891	21294
889.015	21070
889.139	21173
889.263	21055
889.387	21157
889.511	21367
889.635	21180
889.759	21093
889.883	21089
890.006	21100
890.13	21237
890.254	20998
890.377	21058
890.501	20872
890.624	20800
890.748	20963
890.871	20648
890.995	20621
891.118	20629
891.241	20659
891.364	20708
891.488	20788
891.611	20769
891.734	20613
891.857	20678
891.98	20689
892.103	20674
892.226	20716
892.349	20564
892.471	20457
892.594	20594
892.717	20689
892.839	20613
892.962	20556
893.085	20473
893.207	20537
893.33	20408
893.452	20511
893.575	20613
893.697	20518
893.819	20857
893.941	20579
894.064	20621
894.186	20495
894.308	20484
894.43	20636
894.552	20739
894.674	20636
894.796	20434
894.918	20564
895.04	20678
895.161	20606
895.283	20480
895.405	20419
895.526	20545
895.648	20495
895.769	20568
895.891	20636
896.012	20667
896.134	20568
896.255	20560
896.376	20590
896.498	20571
896.619	20648
896.74	20537
896.861	20552
896.982	20819
897.103	21024
897.224	20811
897.345	20739
897.466	20602
897.587	20636
897.708	20811
897.828	20758
897.949	20743
898.07	20648
898.19	20670
898.311	20811
898.431	20663
898.552	20758
898.672	20743
898.792	20845
898.913	20712
899.033	20621
899.153	20438
899.273	20442
899.393	20511
899.513	20537
899.633	20454
899.753	20556
899.873	20488
899.993	20518
900.113	20400
900.232	20427
900.352	20484
900.472	20305
900.591	20210
900.711	20366
900.83	20240
900.95	20339
901.069	20309
901.189	20142
901.308	19944
901.427	19689
901.546	19909
901.665	19928
901.784	19772
901.904	19715
902.023	19525
902.141	19460
902.26	19480
902.379	19358
902.498	19274
902.617	19297
902.735	19384
902.854	19206
902.973	19217
903.091	19099
903.21	19053
903.328	19088
903.446	18920
903.565	18897
903.683	18913
903.801	18730
903.919	18719
904.038	18719
904.156	18570
904.274	18715
904.392	18563
904.51	18544
904.627	18486
904.745	18654
904.863	18620
904.981	18395
905.098	18224
905.216	18266
905.334	18315
905.451	18243
905.569	18190
905.686	18216
905.803	18285
905.921	18083
906.038	18098
906.155	18129
906.272	17866
906.389	17999
906.506	17832
906.623	17775
906.74	17779
906.857	17665
906.974	17737
907.091	17901
907.208	17969
907.324	17775
907.441	17726
907.557	17539
907.674	17611
907.79	17444
907.907	17421
908.023	17535
908.139	17459
908.256	17490
908.372	17402
908.488	17349
908.604	17265
908.72	17200
908.836	17235
908.952	17151
909.068	17242
909.184	17303
909.3	17220
909.415	17231
909.531	17121
909.647	16987
909.762	16885
909.878	16915
909.993	16908
910.108	16911
910.224	16896
910.339	16915
910.454	16752
910.57	16733
910.685	16713
910.8	16843
910.915	16793
911.03	16615
911.145	16538
911.259	16489
911.374	16500
911.489	16443
911.604	16417
911.718	16192
911.833	16200
911.947	16173
912.062	16124
912.176	16143
912.291	16287
912.405	16082
912.519	16322
912.633	16382
912.748	16314
912.862	16185
912.976	15994
913.09	16029
913.204	15953
913.318	16120
913.431	16067
913.545	16116
913.659	16219
913.772	16021
913.886	15793
914	15838
914.113	15835
914.226	15945
914.34	15903
914.453	15774
914.566	15747
914.68	15759
914.793	15694
914.906	15507
915.019	15526
915.132	15469
915.245	15393
915.358	15523
915.47	15454
915.583	15435
915.696	15561
915.809	15675
915.921	15652
916.034	15389
916.146	15260
916.259	15351
916.371	15439
916.483	15378
916.595	15291
916.708	15260
916.82	15332
916.932	15157
917.044	15188
917.156	15180
917.268	15077
917.38	15123
917.491	15032
917.603	15100
917.715	15020
917.826	15154
917.938	15112
918.049	14967
918.161	15036
918.272	15154
918.384	15150
918.495	14986
918.606	14811
918.717	14861
918.828	14918
918.939	14933
919.05	14746
919.161	14796
919.272	14785
919.383	14781
919.494	14830
919.604	15062
919.715	14849
919.826	14754
919.936	14678
920.047	14750
920.157	14785
920.267	14994
920.378	14864
920.488	14815
920.598	14910
920.708	15157
920.818	14929
920.928	14994
921.038	15108
921.148	15028
921.258	14678
921.368	14621
921.477	14476
921.587	14530
921.697	14301
921.806	14450
921.916	14298
922.025	14210
922.134	14176
922.244	14096
922.353	14180
922.462	14054
922.571	13970
922.68	13868
922.789	13799
922.898	13734
923.007	13784
923.116	13807
923.224	13814
923.333	13757
923.442	13681
923.55	13674
923.659	13719
923.767	13731
923.876	13624
923.984	13651
924.092	13529
924.201	13525
924.309	13567
924.417	13590
924.525	13449
924.633	13426
924.741	14301
924.849	13316
924.956	13392
925.064	13289
925.172	13042
925.279	13107
925.387	13221
925.494	13190
925.602	13384
925.709	13251
925.816	13072
925.924	13133
926.031	13316
926.138	13129
926.245	13145
926.352	13038
926.459	13114
926.566	13221
926.673	13088
926.779	12973
926.886	12901
926.993	12749
927.099	12722
927.206	12650
927.312	12757
927.419	12787
927.525	12703
927.631	12810
927.737	12608
927.843	12669
927.95	12525
928.056	12589
928.162	12521
928.267	12627
928.373	13107
928.479	12639
928.585	12502
928.69	12452
928.796	12627
928.901	12456
929.007	12334
929.112	12350
929.218	12407
929.323	12327
929.428	12205
929.533	12418
929.638	12300
929.743	12247
929.848	12300
929.953	12334
930.058	12133
930.163	11954
930.267	11977
930.372	12095
930.477	11927
930.581	12129
930.685	11958
930.79	11843
930.894	11920
930.998	11783
931.103	11980
931.207	11577
931.311	11497
931.415	11417
931.519	11227
931.623	11250
