Data from test_V78500241_2989.txt Node
Date: Fri Mar 25 15:30:40 CST 2022
User: usil
Spectrometer: V785-0024
Trigger mode: 0
Integration Time (sec): 4.000000E-1
Scans to average: 1
Nonlinearity correction enabled: false
Boxcar width: 0
Storing dark spectrum: false
XAxis mode: Wavelengths
Number of Pixels in Spectrum: 1024
>>>>>Begin Spectral Data<<<<<
801.071	27237
801.214	27203
801.356	26998
801.499	27005
801.641	26929
801.783	26731
801.926	26697
802.068	26838
802.211	26861
802.353	26682
802.496	26431
802.638	26442
802.78	26453
802.923	26332
803.065	26290
803.208	26313
803.35	26408
803.492	26480
803.635	26564
803.777	26579
803.919	26644
804.061	26929
804.204	26686
804.346	26549
804.488	26415
804.63	26568
804.773	26537
804.915	26663
805.057	26708
805.199	26590
805.341	26705
805.483	26762
805.626	26739
805.768	26609
805.91	26777
806.052	26750
806.194	26655
806.336	26872
806.478	26579
806.62	26693
806.762	26750
806.904	26906
807.046	27249
807.188	27047
807.33	27252
807.472	27116
807.614	27066
807.756	27077
807.898	26746
808.04	26887
808.182	26933
808.324	27127
808.465	26929
808.607	27154
808.749	27397
808.891	27355
809.033	27545
809.174	27310
809.316	27355
809.458	27340
809.6	27237
809.741	27367
809.883	27466
810.025	27526
810.166	27507
810.308	27534
810.45	27580
810.591	27519
810.733	27332
810.875	27233
811.016	27241
811.158	27199
811.299	27397
811.441	27492
811.582	27496
811.724	27427
811.865	27298
812.007	27207
812.148	27260
812.29	27222
812.431	27583
812.573	27675
812.714	27701
812.855	27762
812.997	27854
813.138	27956
813.279	27926
813.421	27755
813.562	27724
813.703	27641
813.845	27534
813.986	27226
814.127	27028
814.268	26857
814.41	26857
814.551	26796
814.692	27028
814.833	26845
814.974	26910
815.115	27009
815.256	26834
815.397	26804
815.539	26834
815.68	26758
815.821	26594
815.962	26902
816.103	26807
816.244	26549
816.385	26499
816.526	26370
816.666	26385
816.807	26339
816.948	26240
817.089	26301
817.23	26244
817.371	26088
817.512	26187
817.653	26191
817.793	26168
817.934	26229
818.075	26263
818.216	26324
818.356	26168
818.497	26016
818.638	25928
818.778	25906
818.919	25856
819.06	26039
819.2	26081
819.341	26161
819.481	26142
819.622	26358
819.762	26495
819.903	26362
820.043	26412
820.184	26290
820.324	26275
820.465	26282
820.605	26286
820.746	26256
820.886	26263
821.026	26393
821.167	26164
821.307	26370
821.447	26168
821.588	26145
821.728	25898
821.868	25856
822.008	25609
822.149	25708
822.289	25685
822.429	25548
822.569	25358
822.709	25358
822.849	25225
822.99	25217
823.13	25084
823.27	25050
823.41	24947
823.55	24882
823.69	25034
823.83	25046
823.97	24962
824.11	24886
824.25	24719
824.389	24677
824.529	24920
824.669	24779
824.809	24844
824.949	24848
825.089	24867
825.228	24859
825.368	24684
825.508	24620
825.648	24688
825.787	24654
825.927	24661
826.067	24486
826.206	24604
826.346	24650
826.485	24642
826.625	24631
826.765	24639
826.904	24669
827.044	24429
827.183	24467
827.323	24338
827.462	24391
827.601	24407
827.741	24197
827.88	24441
828.02	24273
828.159	24254
828.298	24357
828.437	24372
828.577	24319
828.716	24319
828.855	24289
828.994	23980
829.134	24064
829.273	24079
829.412	23996
829.551	23931
829.69	24129
829.829	24030
829.968	24232
830.107	23999
830.246	24049
830.385	23961
830.524	23992
830.663	23805
830.802	23687
830.941	23611
831.08	23577
831.219	23707
831.357	23794
831.496	23790
831.635	23722
831.774	23596
831.913	23615
832.051	23638
832.19	23330
832.329	23444
832.467	23436
832.606	23269
832.744	23356
832.883	23326
833.022	23334
833.16	23322
833.299	23235
833.437	23189
833.576	23376
833.714	23318
833.852	23364
833.991	23379
834.129	23372
834.267	23604
834.406	23337
834.544	23463
834.682	23463
834.821	23345
834.959	23581
835.097	23337
835.235	23398
835.373	23391
835.511	23326
835.65	23292
835.788	23166
835.926	23052
836.064	23033
836.202	23060
836.34	23155
836.478	23368
836.615	23227
836.753	23197
836.891	23216
837.029	23239
837.167	23185
837.305	23181
837.443	23140
837.58	23010
837.718	23208
837.856	23056
837.993	23056
838.131	23136
838.269	22881
838.406	22999
838.544	22885
838.681	22763
838.819	22752
838.956	22527
839.094	22557
839.231	22641
839.369	22706
839.506	22965
839.643	22767
839.781	22546
839.918	22386
840.055	22394
840.193	22497
840.33	22462
840.467	22493
840.604	22561
840.742	22626
840.879	22329
841.016	22360
841.153	22333
841.29	22637
841.427	22531
841.564	22519
841.701	22500
841.838	22436
841.975	22421
842.112	22314
842.249	22356
842.385	22337
842.522	22622
842.659	22329
842.796	22322
842.933	22162
843.069	22116
843.206	22143
843.343	22238
843.479	22242
843.616	22230
843.752	21994
843.889	22051
844.025	22177
844.162	21937
844.298	21991
844.435	21964
844.571	21949
844.708	21987
844.844	22150
844.98	22230
845.117	22219
845.253	21888
845.389	21854
845.525	21892
845.661	21888
845.798	21736
845.934	21819
846.07	21793
846.206	21819
846.342	21808
846.478	21751
846.614	21583
846.75	21481
846.886	21359
847.022	21564
847.158	21595
847.294	21492
847.429	21519
847.565	21473
847.701	21736
847.837	21264
847.972	21207
848.108	21233
848.244	21313
848.379	21127
848.515	21039
848.65	21085
848.786	21028
848.921	21028
849.057	21260
849.192	21104
849.328	21214
849.463	21077
849.598	20918
849.734	20960
849.869	20883
850.004	20830
850.14	20876
850.275	20796
850.41	20781
850.545	20712
850.68	20731
850.815	20842
850.95	20807
851.085	20941
851.22	20906
851.355	20762
851.49	20788
851.625	20880
851.76	20720
851.895	20720
852.03	20754
852.165	20777
852.299	21047
852.434	20914
852.569	20902
852.703	20872
852.838	20838
852.973	21066
853.107	20868
853.242	20689
853.376	20762
853.511	20507
853.645	20526
853.78	20750
853.914	20670
854.048	20583
854.183	20636
854.317	20667
854.451	20933
854.585	20667
854.72	20617
854.854	20697
854.988	20659
855.122	20560
855.256	20366
855.39	20602
855.524	20731
855.658	20602
855.792	20629
855.926	20750
856.06	20781
856.194	20678
856.327	20632
856.461	20686
856.595	20560
856.729	20560
856.862	20739
856.996	20712
857.13	20629
857.263	20720
857.397	20727
857.53	20560
857.664	20720
857.797	20655
857.931	20864
858.064	20556
858.197	20739
858.331	20724
858.464	20708
858.597	20511
858.731	20655
858.864	20575
858.997	20545
859.13	20674
859.263	20823
859.396	20606
859.529	20518
859.662	20594
859.795	20606
859.928	20708
860.061	20826
860.194	20807
860.327	20712
860.46	20746
860.592	20807
860.725	20716
860.858	20792
860.99	20644
861.123	20670
861.256	20590
861.388	20659
861.521	21268
861.653	20526
861.786	20511
861.918	20488
862.05	20454
862.183	20541
862.315	20602
862.447	20590
862.58	20541
862.712	20381
862.844	20240
862.976	20488
863.108	20492
863.24	20746
863.372	20298
863.504	20389
863.636	20332
863.768	20404
863.9	20351
864.032	20278
864.164	20343
864.296	20305
864.428	20492
864.559	20511
864.691	20366
864.823	20362
864.954	20347
865.086	20271
865.217	20248
865.349	20218
865.48	20199
865.612	20259
865.743	20450
865.875	20298
866.006	20183
866.137	20278
866.269	20332
866.4	20195
866.531	20145
866.662	20290
866.793	20229
866.924	20164
867.055	20199
867.186	20221
867.317	20161
867.448	20145
867.579	20168
867.71	20168
867.841	20172
867.972	20221
868.103	20126
868.233	20138
868.364	20183
868.495	20267
868.625	20374
868.756	20476
868.886	20339
869.017	20427
869.147	20423
869.278	20648
869.408	20522
869.539	20480
869.669	20556
869.799	20530
869.929	20545
870.06	20655
870.19	20804
870.32	20670
870.45	20842
870.58	20735
870.71	20967
870.84	21013
870.97	20990
871.1	20819
871.23	21142
871.36	21058
871.489	20918
871.619	21005
871.749	21005
871.879	21112
872.008	21096
872.138	21096
872.267	21039
872.397	20910
872.526	20876
872.656	20982
872.785	20952
872.915	21001
873.044	21211
873.173	21043
873.303	21058
873.432	21192
873.561	21192
873.69	21077
873.819	21131
873.948	21222
874.077	21005
874.206	21135
874.335	21116
874.464	21169
874.593	21184
874.722	21321
874.851	21317
874.979	21317
875.108	21351
875.237	21332
875.365	21287
875.494	21393
875.623	21325
875.751	21317
875.88	21306
876.008	21519
876.136	21469
876.265	21743
876.393	21812
876.521	21934
876.65	21918
876.778	21861
876.906	21652
877.034	21599
877.162	21622
877.29	21568
877.418	21644
877.546	21652
877.674	21728
877.802	21656
877.93	21572
878.058	21603
878.185	21462
878.313	21614
878.441	21656
878.568	21401
878.696	21538
878.824	21717
878.951	21671
879.079	21789
879.206	21953
879.333	21842
879.461	21698
879.588	21762
879.715	21827
879.842	21907
879.97	21759
880.097	21545
880.224	21454
880.351	21523
880.478	21637
880.605	21545
880.732	21435
880.859	21701
880.986	21477
881.112	21606
881.239	21424
881.366	21233
881.493	21188
881.619	21230
881.746	21062
881.872	21146
881.999	21161
882.125	20975
882.252	21245
882.378	21108
882.505	21207
882.631	20986
882.757	20982
882.883	20925
883.01	20815
883.136	20670
883.262	20678
883.388	20625
883.514	20853
883.64	20872
883.766	20724
883.892	20602
884.018	20651
884.143	20727
884.269	20967
884.395	20606
884.52	20530
884.646	20514
884.772	20381
884.897	20275
885.023	20442
885.148	20556
885.274	20659
885.399	20625
885.524	20590
885.65	20530
885.775	20377
885.9	20385
886.025	20549
886.15	20556
886.275	20480
886.4	20423
886.525	20434
886.65	20473
886.775	20419
886.9	20511
887.025	20640
887.149	20404
887.274	20336
887.399	20244
887.523	20202
887.648	20271
887.773	20130
887.897	20229
888.021	20294
888.146	20183
888.27	20309
888.395	20362
888.519	20275
888.643	20130
888.767	20298
888.891	20100
889.015	19993
889.139	20065
889.263	19913
889.387	20126
889.511	20130
889.635	20157
889.759	20103
889.883	19970
890.006	20145
890.13	20088
890.254	19890
890.377	20077
890.501	19845
890.624	19772
890.748	19784
890.871	19689
890.995	19616
891.118	19605
891.241	19578
891.364	19658
891.488	19674
891.611	19537
891.734	19655
891.857	19674
891.98	19670
892.103	19696
892.226	19601
892.349	19544
892.471	19411
892.594	19582
892.717	19575
892.839	19460
892.962	19586
893.085	19594
893.207	19567
893.33	19499
893.452	19502
893.575	19571
893.697	19460
893.819	19616
893.941	19715
894.064	19704
894.186	19521
894.308	19411
894.43	19605
894.552	19727
894.674	19639
894.796	19502
894.918	19624
895.04	19502
895.161	19609
895.283	19571
895.405	19613
895.526	19563
895.648	19521
895.769	19639
895.891	19544
896.012	19647
896.134	19647
896.255	19628
896.376	19438
896.498	19556
896.619	19510
896.74	19590
896.861	19559
896.982	19906
897.103	19944
897.224	19849
897.345	19845
897.466	19655
897.587	19727
897.708	19868
897.828	19818
897.949	19662
898.07	19647
898.19	19746
898.311	19913
898.431	19674
898.552	19742
898.672	19826
898.792	19906
898.913	19845
899.033	19700
899.153	19635
899.273	19499
899.393	19556
899.513	19613
899.633	19548
899.753	19601
899.873	19483
899.993	19540
900.113	19548
900.232	19487
900.352	19438
900.472	19343
900.591	19365
900.711	19270
900.83	19343
900.95	19354
901.069	19373
901.189	19213
901.308	19046
901.427	18951
901.546	18871
901.665	18814
901.784	18973
901.904	18871
902.023	18635
902.141	18426
902.26	18422
902.379	18525
902.498	18437
902.617	18475
902.735	18460
902.854	18391
902.973	18334
903.091	18098
903.21	18197
903.328	18060
903.446	18098
903.565	17977
903.683	17916
903.801	17786
903.919	17904
904.038	17912
904.156	17695
904.274	17775
904.392	17707
904.51	17722
904.627	17619
904.745	17707
904.863	17901
904.981	17482
905.098	17395
905.216	17315
905.334	17421
905.451	17387
905.569	17303
905.686	17444
905.803	17452
905.921	17132
906.038	17227
906.155	17178
906.272	17033
906.389	17079
906.506	16820
906.623	16889
906.74	16896
906.857	16733
906.974	16763
907.091	16927
907.208	16984
907.324	16904
907.441	16759
907.557	16713
907.674	16740
907.79	16599
907.907	16584
908.023	16694
908.139	16645
908.256	16630
908.372	16489
908.488	16508
908.604	16474
908.72	16276
908.836	16398
908.952	16261
909.068	16344
909.184	16504
909.3	16409
909.415	16341
909.531	16329
909.647	16162
909.762	16010
909.878	16025
909.993	16116
910.108	16051
910.224	15941
910.339	16013
910.454	15838
910.57	15861
910.685	15816
910.8	16101
910.915	15945
911.03	15899
911.145	15667
911.259	15698
911.374	15637
911.489	15679
911.604	15507
911.718	15355
911.833	15332
911.947	15321
912.062	15306
912.176	15515
912.291	15447
912.405	15401
912.519	15511
912.633	15629
912.748	15466
912.862	15332
912.976	15214
913.09	15142
913.204	15199
913.318	15317
913.431	15321
913.545	15412
913.659	15344
913.772	15230
913.886	15089
914	15009
914.113	15024
914.226	15127
914.34	15070
914.453	14967
914.566	15020
914.68	14952
914.793	14845
914.906	14697
915.019	14689
915.132	14541
915.245	14701
915.358	14686
915.47	14659
915.583	14640
915.696	14735
915.809	14788
915.921	14739
916.034	14606
916.146	14575
916.259	14579
916.371	14735
916.483	14552
916.595	14549
916.708	14476
916.82	14473
916.932	14434
917.044	14415
917.156	14423
917.268	14332
917.38	14396
917.491	14347
917.603	14313
917.715	14320
917.826	14423
917.938	14282
918.049	14225
918.161	14240
918.272	14408
918.384	14412
918.495	14286
918.606	14161
918.717	14016
918.828	14130
918.939	14221
919.05	14008
919.161	14081
919.272	13925
919.383	13970
919.494	14088
919.604	14336
919.715	14081
919.826	13959
919.936	14039
920.047	14187
920.157	14088
920.267	14199
920.378	13993
920.488	14062
920.598	14210
920.708	14427
920.818	14153
920.928	14161
921.038	14412
921.148	14191
921.258	14065
921.368	13947
921.477	13864
921.587	13776
921.697	13670
921.806	13833
921.916	13651
922.025	13460
922.134	13544
922.244	13491
922.353	13396
922.462	13381
922.571	13308
922.68	13164
922.789	13076
922.898	13084
923.007	13118
923.116	13076
923.224	13107
923.333	13129
923.442	12954
923.55	12993
923.659	12924
923.767	13004
923.876	12897
923.984	13023
924.092	12825
924.201	12859
924.309	12901
924.417	12863
924.525	12848
924.633	12810
924.741	13537
924.849	12635
924.956	12726
925.064	12601
925.172	12547
925.279	12551
925.387	12547
925.494	12597
925.602	12681
925.709	12582
925.816	12422
925.924	12521
926.031	12623
926.138	12475
926.245	12582
926.352	12426
926.459	12502
926.566	12612
926.673	12395
926.779	12285
926.886	12262
926.993	12232
927.099	12167
927.206	12155
927.312	12197
927.419	12140
927.525	12068
927.631	12129
927.737	12072
927.843	12038
927.95	11904
928.056	11874
928.162	12030
928.267	12030
928.373	12612
928.479	12041
928.585	11843
928.69	11870
928.796	11904
928.901	11824
929.007	11722
929.112	11809
929.218	11821
929.323	11783
929.428	11737
929.533	11824
929.638	11672
929.743	11676
929.848	11688
929.953	11672
930.058	11463
930.163	11337
930.267	11349
930.372	11532
930.477	11341
930.581	11642
930.685	11532
930.79	11261
930.894	11231
930.998	11299
931.103	11364
931.207	11079
931.311	11037
931.415	10892
931.519	10683
931.623	10615
