Data from test_V78500241_1249.txt Node
Date: Fri Mar 25 15:18:33 CST 2022
User: usil
Spectrometer: V785-0024
Trigger mode: 0
Integration Time (sec): 4.000000E-1
Scans to average: 1
Nonlinearity correction enabled: false
Boxcar width: 0
Storing dark spectrum: false
XAxis mode: Wavelengths
Number of Pixels in Spectrum: 1024
>>>>>Begin Spectral Data<<<<<
801.071	27717
801.214	27538
801.356	27275
801.499	27161
801.641	27195
801.783	27154
801.926	27199
802.068	27009
802.211	27020
802.353	26914
802.496	26762
802.638	26815
802.78	26693
802.923	26705
803.065	26777
803.208	26621
803.35	26640
803.492	27005
803.635	26899
803.777	26765
803.919	26982
804.061	27218
804.204	26979
804.346	26937
804.488	26891
804.63	26994
804.773	26876
804.915	26948
805.057	27089
805.199	26918
805.341	27081
805.483	27157
805.626	27047
805.768	27089
805.91	27032
806.052	27085
806.194	27093
806.336	27211
806.478	27188
806.62	27169
806.762	27157
806.904	27256
807.046	27587
807.188	27469
807.33	27549
807.472	27622
807.614	27427
807.756	27511
807.898	27382
808.04	27370
808.182	27329
808.324	27435
808.465	27397
808.607	27637
808.749	27671
808.891	27793
809.033	27819
809.174	27728
809.316	27808
809.458	27739
809.6	27713
809.741	27899
809.883	27918
810.025	27907
810.166	28010
810.308	28090
810.45	27941
810.591	27926
810.733	27838
810.875	27713
811.016	27557
811.158	27637
811.299	27842
811.441	27880
811.582	27755
811.724	27675
811.865	27774
812.007	27709
812.148	27698
812.29	27717
812.431	27972
812.573	28112
812.714	28150
812.855	28261
812.997	28379
813.138	28470
813.279	28394
813.421	28246
813.562	28207
813.703	28051
813.845	27960
813.986	27648
814.127	27462
814.268	27389
814.41	27348
814.551	27340
814.692	27435
814.833	27287
814.974	27332
815.115	27336
815.256	27195
815.397	27374
815.539	27252
815.68	27116
815.821	27252
815.962	27150
816.103	27184
816.244	27085
816.385	27157
816.526	27108
816.666	26777
816.807	26693
816.948	26811
817.089	26785
817.23	26697
817.371	26651
817.512	26659
817.653	26788
817.793	26655
817.934	26682
818.075	26678
818.216	26609
818.356	26636
818.497	26564
818.638	26237
818.778	26526
818.919	26408
819.06	26507
819.2	26682
819.341	26743
819.481	26602
819.622	26823
819.762	26967
819.903	27017
820.043	26819
820.184	26849
820.324	26762
820.465	26902
820.605	26857
820.746	26785
820.886	26571
821.026	26712
821.167	26838
821.307	26925
821.447	26842
821.588	26609
821.728	26385
821.868	26176
822.008	26263
822.149	26122
822.289	26077
822.429	25989
822.569	25841
822.709	25788
822.849	25613
822.99	25772
823.13	25674
823.27	25632
823.41	25495
823.55	25514
823.69	25438
823.83	25563
823.97	25377
824.11	25213
824.25	25190
824.389	25285
824.529	25468
824.669	25320
824.809	25495
824.949	25411
825.089	25449
825.228	25411
825.368	25179
825.508	25133
825.648	25221
825.787	25168
825.927	25331
826.067	25019
826.206	25168
826.346	25232
826.485	25285
826.625	25228
826.765	25278
826.904	25137
827.044	25000
827.183	24935
827.323	24882
827.462	24973
827.601	24977
827.741	24806
827.88	25004
828.02	24863
828.159	24901
828.298	24916
828.437	25069
828.577	24734
828.716	25053
828.855	24821
828.994	24658
829.134	24456
829.273	24604
829.412	24692
829.551	24612
829.69	24616
829.829	24707
829.968	24760
830.107	24642
830.246	24521
830.385	24445
830.524	24505
830.663	24467
830.802	24380
830.941	24239
831.08	24186
831.219	24273
831.357	24273
831.496	24505
831.635	24174
831.774	24213
831.913	24045
832.051	24079
832.19	24064
832.329	24003
832.467	23897
832.606	23878
832.744	23859
832.883	23931
833.022	23885
833.16	23992
833.299	23973
833.437	23805
833.576	23920
833.714	23935
833.852	23920
833.991	24026
834.129	24030
834.267	23969
834.406	24011
834.544	23916
834.682	23882
834.821	23965
834.959	24167
835.097	23942
835.235	23973
835.373	24011
835.511	23954
835.65	23767
835.788	23798
835.926	23646
836.064	23710
836.202	23539
836.34	23771
836.478	23878
836.615	23786
836.753	23756
836.891	23832
837.029	23870
837.167	23840
837.305	23737
837.443	23798
837.58	23604
837.718	23714
837.856	23600
837.993	23748
838.131	23634
838.269	23516
838.406	23474
838.544	23421
838.681	23368
838.819	23261
838.956	23140
839.094	23208
839.231	23204
839.369	23379
839.506	23551
839.643	23311
839.781	23102
839.918	23121
840.055	23052
840.193	23109
840.33	23086
840.467	22881
840.604	23155
840.742	23356
840.879	23022
841.016	22942
841.153	22942
841.29	23143
841.427	22976
841.564	23067
841.701	23071
841.838	22980
841.975	22976
842.112	22892
842.249	22953
842.385	22801
842.522	23044
842.659	22866
842.796	22702
842.933	22854
843.069	22904
843.206	22683
843.343	22820
843.479	22733
843.616	22767
843.752	22634
843.889	22493
844.025	22584
844.162	22622
844.298	22599
844.435	22687
844.571	22428
844.708	22634
844.844	22713
844.98	22626
845.117	22713
845.253	22462
845.389	22459
845.525	22580
845.661	22512
845.798	22280
845.934	22352
846.07	22280
846.206	22268
846.342	22394
846.478	22215
846.614	22070
846.75	22044
846.886	22025
847.022	22090
847.158	22150
847.294	22067
847.429	22074
847.565	22040
847.701	22261
847.837	21797
847.972	21663
848.108	21873
848.244	21804
848.379	21743
848.515	21648
848.65	21603
848.786	21542
848.921	21682
849.057	21743
849.192	21743
849.328	21637
849.463	21591
849.598	21553
849.734	21519
849.869	21393
850.004	21329
850.14	21397
850.275	21412
850.41	21450
850.545	21367
850.68	21401
850.815	21386
850.95	21462
851.085	21675
851.22	21542
851.355	21374
851.49	21382
851.625	21359
851.76	21431
851.895	21351
852.03	21252
852.165	21496
852.299	21477
852.434	21519
852.569	21386
852.703	21416
852.838	21477
852.973	21622
853.107	21519
853.242	21321
853.376	21294
853.511	21150
853.645	21317
853.78	21313
853.914	21302
854.048	21207
854.183	21211
854.317	21256
854.451	21500
854.585	21154
854.72	21138
854.854	21241
854.988	21222
855.122	21192
855.256	21226
855.39	21165
855.524	21351
855.658	21329
855.792	21211
855.926	21252
856.06	21245
856.194	21222
856.327	21165
856.461	21074
856.595	21070
856.729	21207
856.862	21275
856.996	21279
857.13	21294
857.263	21230
857.397	21207
857.53	21218
857.664	21294
857.797	21359
857.931	21332
858.064	21252
858.197	21332
858.331	21135
858.464	21180
858.597	21100
858.731	21188
858.864	21207
858.997	21135
859.13	21226
859.263	21283
859.396	21252
859.529	21161
859.662	21192
859.795	21188
859.928	21351
860.061	21302
860.194	21477
860.327	21355
860.46	21294
860.592	21272
860.725	21511
860.858	21424
860.99	21222
861.123	21138
861.256	21070
861.388	21332
861.521	21937
861.653	21017
861.786	21001
861.918	21020
862.05	21024
862.183	21024
862.315	21157
862.447	21214
862.58	21302
862.712	21032
862.844	20845
862.976	21112
863.108	21093
863.24	21287
863.372	20925
863.504	20941
863.636	20823
863.768	20906
863.9	20963
864.032	20941
864.164	20998
864.296	20982
864.428	20937
864.559	20960
864.691	20914
864.823	20880
864.954	20872
865.086	20819
865.217	20796
865.349	20758
865.48	20891
865.612	20773
865.743	21055
865.875	20906
866.006	20811
866.137	20788
866.269	20777
866.4	20773
866.531	20758
866.662	20777
866.793	20674
866.924	20785
867.055	20807
867.186	20830
867.317	20754
867.448	20689
867.579	20773
867.71	20727
867.841	20511
867.972	20769
868.103	20693
868.233	20788
868.364	20678
868.495	20899
868.625	20960
868.756	21024
868.886	20925
869.017	21024
869.147	20895
869.278	21017
869.408	20956
869.539	20990
869.669	21009
869.799	20998
869.929	21043
870.06	21062
870.19	21184
870.32	21195
870.45	21386
870.58	21424
870.71	21511
870.84	21553
870.97	21351
871.1	21405
871.23	21633
871.36	21603
871.489	21458
871.619	21625
871.749	21549
871.879	21709
872.008	21823
872.138	21545
872.267	21656
872.397	21488
872.526	21401
872.656	21344
872.785	21321
872.915	21500
873.044	21732
873.173	21576
873.303	21564
873.432	21580
873.561	21660
873.69	21648
873.819	21564
873.948	21732
874.077	21591
874.206	21549
874.335	21667
874.464	21819
874.593	21915
874.722	21876
874.851	21865
874.979	21975
875.108	22040
875.237	21797
875.365	21629
875.494	21793
875.623	21964
875.751	21774
875.88	21808
876.008	22021
876.136	22025
876.265	22303
876.393	22432
876.521	22402
876.65	22230
876.778	22246
876.906	22120
877.034	22207
877.162	22204
877.29	22242
877.418	22143
877.546	22261
877.674	22143
877.802	22124
877.93	22112
878.058	22284
878.185	22112
878.313	22063
878.441	22101
878.568	22120
878.696	22185
878.824	22215
878.951	22402
879.079	22337
879.206	22379
879.333	22333
879.461	22188
879.588	22196
879.715	22379
879.842	22516
879.97	22192
880.097	22032
880.224	22063
880.351	21907
880.478	22006
880.605	22082
880.732	21876
880.859	22166
880.986	21983
881.112	22002
881.239	21835
881.366	21671
881.493	21644
881.619	21698
881.746	21564
881.872	21633
881.999	21466
882.125	21576
882.252	21625
882.378	21595
882.505	21576
882.631	21420
882.757	21313
882.883	21504
883.01	21226
883.136	21089
883.262	21214
883.388	21085
883.514	21283
883.64	21355
883.766	21127
883.892	21058
884.018	21047
884.143	21199
884.269	21321
884.395	21009
884.52	20925
884.646	20769
884.772	20842
884.897	20853
885.023	20960
885.148	21085
885.274	21085
885.399	21112
885.524	20899
885.65	20864
885.775	20960
885.9	20986
886.025	21005
886.15	21058
886.275	20921
886.4	20769
886.525	20853
886.65	20937
886.775	20921
886.9	21039
887.025	21119
887.149	20834
887.274	20796
887.399	20629
887.523	20655
887.648	20648
887.773	20678
887.897	20686
888.021	20731
888.146	20522
888.27	20746
888.395	20796
888.519	20777
888.643	20716
888.767	20720
888.891	20617
889.015	20465
889.139	20579
889.263	20412
889.387	20575
889.511	20712
889.635	20503
889.759	20450
889.883	20457
890.006	20518
890.13	20590
890.254	20431
890.377	20438
890.501	20294
890.624	20187
890.748	20309
890.871	20130
890.995	19944
891.118	20005
891.241	20126
891.364	20115
891.488	20183
891.611	19974
891.734	19967
891.857	20161
891.98	20111
892.103	20180
892.226	20187
892.349	20027
892.471	19887
892.594	19917
892.717	19925
892.839	20024
892.962	19986
893.085	19967
893.207	20081
893.33	19811
893.452	19879
893.575	20092
893.697	20012
893.819	20115
893.941	20180
894.064	20164
894.186	19963
894.308	19864
894.43	20062
894.552	20050
894.674	19944
894.796	19928
894.918	20027
895.04	19963
895.161	19936
895.283	20008
895.405	19849
895.526	19875
895.648	19883
895.769	20008
895.891	19925
896.012	19997
896.134	19963
896.255	19967
896.376	19902
896.498	19951
896.619	20027
896.74	19997
896.861	20039
896.982	20305
897.103	20469
897.224	20214
897.345	20122
897.466	20115
897.587	20202
897.708	20317
897.828	20305
897.949	20111
898.07	19997
898.19	20103
898.311	20355
898.431	20115
898.552	20149
898.672	20317
898.792	20374
898.913	20096
899.033	20039
899.153	19906
899.273	19845
899.393	19982
899.513	19951
899.633	19993
899.753	19925
899.873	19955
899.993	19997
900.113	19856
900.232	19902
900.352	19845
900.472	19772
900.591	19704
900.711	19753
900.83	19651
900.95	19788
901.069	19807
901.189	19594
901.308	19434
901.427	19293
901.546	19301
901.665	19392
901.784	19255
901.904	19031
902.023	19027
902.141	18833
902.26	18875
902.379	18905
902.498	18795
902.617	18700
902.735	18878
902.854	18802
902.973	18821
903.091	18536
903.21	18498
903.328	18521
903.446	18350
903.565	18372
903.683	18243
903.801	18270
903.919	18205
904.038	18186
904.156	18064
904.274	18098
904.392	18140
904.51	18003
904.627	17965
904.745	18091
904.863	18045
904.981	17824
905.098	17786
905.216	17794
905.334	17714
905.451	17859
905.569	17695
905.686	17783
905.803	17695
905.921	17501
906.038	17642
906.155	17604
906.272	17395
906.389	17356
906.506	17353
906.623	17288
906.74	17292
906.857	17212
906.974	17079
907.091	17345
907.208	17376
907.324	17414
907.441	17128
907.557	17033
907.674	16949
907.79	16820
907.907	16980
908.023	17003
908.139	17010
908.256	16908
908.372	16839
908.488	16854
908.604	16668
908.72	16618
908.836	16733
908.952	16729
909.068	16698
909.184	16835
909.3	16763
909.415	16725
909.531	16645
909.647	16443
909.762	16466
909.878	16413
909.993	16478
910.108	16360
910.224	16303
910.339	16470
910.454	16234
910.57	16192
910.685	16101
910.8	16363
910.915	16352
911.03	16276
911.145	16131
911.259	16051
911.374	15975
911.489	15991
911.604	15880
911.718	15759
911.833	15705
911.947	15720
912.062	15580
912.176	15728
912.291	15709
912.405	15808
912.519	16006
912.633	15869
912.748	15857
912.862	15747
912.976	15568
913.09	15447
913.204	15424
913.318	15542
913.431	15637
913.545	15591
913.659	15724
913.772	15591
913.886	15458
914	15412
914.113	15454
914.226	15481
914.34	15450
914.453	15272
914.566	15401
914.68	15279
914.793	15325
914.906	15142
915.019	14944
915.132	14921
915.245	14937
915.358	15070
915.47	14986
915.583	15032
915.696	15104
915.809	15138
915.921	15161
916.034	14948
916.146	14960
916.259	14781
916.371	15017
916.483	14952
916.595	14800
916.708	14826
916.82	14804
916.932	14796
917.044	14739
917.156	14811
917.268	14640
917.38	14632
917.491	14610
917.603	14617
917.715	14758
917.826	14746
917.938	14636
918.049	14476
918.161	14579
918.272	14682
918.384	14568
918.495	14560
918.606	14336
918.717	14412
918.828	14499
918.939	14374
919.05	14328
919.161	14412
919.272	14168
919.383	14298
919.494	14404
919.604	14621
919.715	14317
919.826	14347
919.936	14317
920.047	14476
920.157	14381
920.267	14545
920.378	14461
920.488	14202
920.598	14499
920.708	14625
920.818	14522
920.928	14492
921.038	14705
921.148	14568
921.258	14328
921.368	14263
921.477	14180
921.587	14218
921.697	13986
921.806	14195
921.916	14062
922.025	13837
922.134	13693
922.244	13731
922.353	13856
922.462	13651
922.571	13655
922.68	13438
922.789	13403
922.898	13312
923.007	13324
923.116	13301
923.224	13438
923.333	13240
923.442	13285
923.55	13232
923.659	13247
923.767	13343
923.876	13179
923.984	13308
924.092	13141
924.201	13152
924.309	13084
924.417	13122
924.525	13023
924.633	13038
924.741	13894
924.849	12932
924.956	13050
925.064	12776
925.172	12772
925.279	12776
925.387	12779
925.494	12772
925.602	12939
925.709	12867
925.816	12711
925.924	12817
926.031	12829
926.138	12783
926.245	12840
926.352	12711
926.459	12738
926.566	12840
926.673	12688
926.779	12627
926.886	12593
926.993	12414
927.099	12407
927.206	12350
927.312	12281
927.419	12471
927.525	12342
927.631	12536
927.737	12304
927.843	12273
927.95	12197
928.056	12197
928.162	12220
928.267	12251
928.373	12814
928.479	12266
928.585	12106
928.69	12197
928.796	12251
928.901	11988
929.007	11893
929.112	12068
929.218	11977
929.323	11973
929.428	11992
929.533	12129
929.638	11832
929.743	11908
929.848	12072
929.953	11870
930.058	11882
930.163	11638
930.267	11604
930.372	11760
930.477	11566
930.581	11824
930.685	11668
930.79	11474
930.894	11532
930.998	11573
931.103	11600
931.207	11303
931.311	11254
931.415	11132
931.519	10961
931.623	10908
