Data from test_V78500241_2920.txt Node
Date: Fri Mar 25 15:30:11 CST 2022
User: usil
Spectrometer: V785-0024
Trigger mode: 0
Integration Time (sec): 4.000000E-1
Scans to average: 1
Nonlinearity correction enabled: false
Boxcar width: 0
Storing dark spectrum: false
XAxis mode: Wavelengths
Number of Pixels in Spectrum: 1024
>>>>>Begin Spectral Data<<<<<
801.071	27188
801.214	27230
801.356	27036
801.499	26868
801.641	26864
801.783	26845
801.926	26769
802.068	26883
802.211	26792
802.353	26564
802.496	26571
802.638	26320
802.78	26442
802.923	26218
803.065	26339
803.208	26431
803.35	26381
803.492	26526
803.635	26712
803.777	26518
803.919	26549
804.061	26842
804.204	26617
804.346	26438
804.488	26446
804.63	26533
804.773	26495
804.915	26549
805.057	26739
805.199	26651
805.341	26693
805.483	26693
805.626	26720
805.768	26667
805.91	26724
806.052	26689
806.194	26533
806.336	26914
806.478	26640
806.62	26667
806.762	26880
806.904	26944
807.046	27195
807.188	27169
807.33	27138
807.472	27192
807.614	27032
807.756	27074
807.898	26902
808.04	26781
808.182	27013
808.324	26971
808.465	26982
808.607	27241
808.749	27355
808.891	27412
809.033	27420
809.174	27252
809.316	27207
809.458	27313
809.6	27310
809.741	27401
809.883	27507
810.025	27530
810.166	27587
810.308	27564
810.45	27481
810.591	27420
810.733	27363
810.875	27207
811.016	27184
811.158	27272
811.299	27348
811.441	27355
811.582	27603
811.724	27367
811.865	27233
812.007	27252
812.148	27325
812.29	27294
812.431	27397
812.573	27523
812.714	27736
812.855	27747
812.997	27778
813.138	28162
813.279	27899
813.421	27956
813.562	27781
813.703	27492
813.845	27633
813.986	27203
814.127	27112
814.268	26998
814.41	26960
814.551	26937
814.692	27032
814.833	26823
814.974	26990
815.115	26944
815.256	26902
815.397	26773
815.539	26800
815.68	26792
815.821	26731
815.962	26845
816.103	26705
816.244	26556
816.385	26457
816.526	26533
816.666	26267
816.807	26252
816.948	26336
817.089	26233
817.23	26244
817.371	26233
817.512	26400
817.653	26153
817.793	26237
817.934	26206
818.075	26180
818.216	26305
818.356	26294
818.497	26043
818.638	25936
818.778	25784
818.919	25989
819.06	26035
819.2	25993
819.341	26195
819.481	26058
819.622	26336
819.762	26438
819.903	26286
820.043	26404
820.184	26271
820.324	26336
820.465	26396
820.605	26301
820.746	26351
820.886	26115
821.026	26259
821.167	26065
821.307	26256
821.447	26069
821.588	26073
821.728	26054
821.868	25727
822.008	25635
822.149	25495
822.289	25677
822.429	25362
822.569	25365
822.709	25312
822.849	25202
822.99	25099
823.13	25148
823.27	25065
823.41	25118
823.55	24852
823.69	25061
823.83	25065
823.97	24886
824.11	24848
824.25	24753
824.389	24802
824.529	24837
824.669	24726
824.809	25008
824.949	24890
825.089	24791
825.228	24837
825.368	24623
825.508	24563
825.648	24639
825.787	24753
825.927	24741
826.067	24673
826.206	24544
826.346	24730
826.485	24677
826.625	24658
826.765	24814
826.904	24711
827.044	24452
827.183	24429
827.323	24342
827.462	24292
827.601	24410
827.741	24361
827.88	24467
828.02	24216
828.159	24353
828.298	24372
828.437	24422
828.577	24228
828.716	24445
828.855	24232
828.994	24015
829.134	24091
829.273	24076
829.412	23996
829.551	24083
829.69	23977
829.829	24102
829.968	24072
830.107	24114
830.246	24148
830.385	24007
830.524	24038
830.663	23965
830.802	23687
830.941	23718
831.08	23600
831.219	23687
831.357	23665
831.496	23939
831.635	23589
831.774	23649
831.913	23410
832.051	23448
832.19	23516
832.329	23448
832.467	23330
832.606	23193
832.744	23383
832.883	23273
833.022	23307
833.16	23383
833.299	23284
833.437	23326
833.576	23246
833.714	23398
833.852	23436
833.991	23452
834.129	23383
834.267	23497
834.406	23425
834.544	23349
834.682	23376
834.821	23410
834.959	23524
835.097	23220
835.235	23364
835.373	23406
835.511	23330
835.65	23174
835.788	23162
835.926	23056
836.064	23003
836.202	23109
836.34	23193
836.478	23246
836.615	23220
836.753	23277
836.891	23273
837.029	23235
837.167	23250
837.305	23269
837.443	23044
837.58	22965
837.718	23003
837.856	23086
837.993	22980
838.131	23079
838.269	22965
838.406	22923
838.544	22900
838.681	22675
838.819	22759
838.956	22592
839.094	22584
839.231	22618
839.369	22634
839.506	22866
839.643	22771
839.781	22584
839.918	22447
840.055	22478
840.193	22478
840.33	22535
840.467	22413
840.604	22413
840.742	22713
840.879	22394
841.016	22390
841.153	22360
841.29	22687
841.427	22440
841.564	22531
841.701	22478
841.838	22436
841.975	22497
842.112	22356
842.249	22379
842.385	22310
842.522	22485
842.659	22291
842.796	22314
842.933	22242
843.069	22112
843.206	22177
843.343	22352
843.479	22185
843.616	22204
843.752	22002
843.889	21979
844.025	22105
844.162	21972
844.298	22128
844.435	21987
844.571	21930
844.708	22067
844.844	22055
844.98	22090
845.117	22063
845.253	21907
845.389	21876
845.525	21857
845.661	21816
845.798	21701
845.934	21804
846.07	21660
846.206	21770
846.342	21781
846.478	21808
846.614	21500
846.75	21492
846.886	21382
847.022	21526
847.158	21515
847.294	21447
847.429	21530
847.565	21428
847.701	21610
847.837	21214
847.972	21131
848.108	21207
848.244	21260
848.379	21074
848.515	21047
848.65	21100
848.786	21089
848.921	21020
849.057	21226
849.192	21241
849.328	21013
849.463	21005
849.598	21005
849.734	20891
849.869	20830
850.004	20826
850.14	20834
850.275	20853
850.41	20697
850.545	20792
850.68	20830
850.815	20937
850.95	20823
851.085	20895
851.22	20967
851.355	20792
851.49	20758
851.625	20811
851.76	20902
851.895	20838
852.03	20739
852.165	20773
852.299	20918
852.434	20990
852.569	20864
852.703	20944
852.838	21020
852.973	20902
853.107	20929
853.242	20746
853.376	20743
853.511	20461
853.645	20412
853.78	20735
853.914	20777
854.048	20648
854.183	20648
854.317	20727
854.451	20868
854.585	20804
854.72	20663
854.854	20632
854.988	20571
855.122	20682
855.256	20484
855.39	20686
855.524	20754
855.658	20629
855.792	20659
855.926	20613
856.06	20689
856.194	20724
856.327	20716
856.461	20686
856.595	20594
856.729	20686
856.862	20686
856.996	20708
857.13	20606
857.263	20750
857.397	20834
857.53	20693
857.664	20667
857.797	20689
857.931	20804
858.064	20720
858.197	20777
858.331	20629
858.464	20644
858.597	20549
858.731	20762
858.864	20625
858.997	20613
859.13	20571
859.263	20773
859.396	20632
859.529	20663
859.662	20587
859.795	20575
859.928	20708
860.061	20796
860.194	20845
860.327	20697
860.46	20720
860.592	20697
860.725	20765
860.858	20705
860.99	20636
861.123	20632
861.256	20575
861.388	20613
861.521	21294
861.653	20583
861.786	20488
861.918	20480
862.05	20552
862.183	20621
862.315	20530
862.447	20670
862.58	20583
862.712	20434
862.844	20320
862.976	20404
863.108	20374
863.24	20792
863.372	20248
863.504	20423
863.636	20400
863.768	20301
863.9	20358
864.032	20309
864.164	20229
864.296	20271
864.428	20415
864.559	20495
864.691	20499
864.823	20324
864.954	20431
865.086	20381
865.217	20271
865.349	20168
865.48	20145
865.612	20278
865.743	20282
865.875	20358
866.006	20233
866.137	20221
866.269	20332
866.4	20275
866.531	20271
866.662	20172
866.793	20214
866.924	20145
867.055	20248
867.186	20183
867.317	20062
867.448	20134
867.579	20111
867.71	20073
867.841	20088
867.972	20187
868.103	20172
868.233	20206
868.364	20157
868.495	20347
868.625	20381
868.756	20587
868.886	20415
869.017	20469
869.147	20511
869.278	20583
869.408	20396
869.539	20499
869.669	20419
869.799	20480
869.929	20716
870.06	20511
870.19	20689
870.32	20670
870.45	20731
870.58	20906
870.71	20883
870.84	20963
870.97	20807
871.1	20819
871.23	20941
871.36	21013
871.489	20941
871.619	21028
871.749	21131
871.879	21112
872.008	21226
872.138	21062
872.267	21028
872.397	20937
872.526	20914
872.656	20872
872.785	20918
872.915	20971
873.044	21203
873.173	21085
873.303	21020
873.432	21028
873.561	21169
873.69	20998
873.819	21081
873.948	21154
874.077	21009
874.206	20967
874.335	21017
874.464	21142
874.593	21348
874.722	21184
874.851	21332
874.979	21458
875.108	21393
875.237	21268
875.365	21275
875.494	21310
875.623	21408
875.751	21336
875.88	21348
876.008	21428
876.136	21473
876.265	21865
876.393	21873
876.521	21800
876.65	21857
876.778	21812
876.906	21759
877.034	21774
877.162	21713
877.29	21686
877.418	21682
877.546	21778
877.674	21698
877.802	21694
877.93	21599
878.058	21622
878.185	21481
878.313	21523
878.441	21652
878.568	21450
878.696	21580
878.824	21781
878.951	21850
879.079	21892
879.206	21941
879.333	21854
879.461	21766
879.588	21759
879.715	21907
879.842	21972
879.97	21808
880.097	21530
880.224	21428
880.351	21538
880.478	21507
880.605	21466
880.732	21526
880.859	21800
880.986	21443
881.112	21515
881.239	21348
881.366	21340
881.493	21233
881.619	21047
881.746	21039
881.872	21157
881.999	21146
882.125	21142
882.252	21203
882.378	21165
882.505	21199
882.631	21070
882.757	20872
882.883	20883
883.01	20800
883.136	20785
883.262	20655
883.388	20655
883.514	20906
883.64	20842
883.766	20777
883.892	20579
884.018	20629
884.143	20731
884.269	20796
884.395	20480
884.52	20537
884.646	20450
884.772	20415
884.897	20396
885.023	20522
885.148	20564
885.274	20689
885.399	20541
885.524	20461
885.65	20518
885.775	20522
885.9	20431
886.025	20533
886.15	20446
886.275	20454
886.4	20263
886.525	20366
886.65	20374
886.775	20324
886.9	20674
887.025	20724
887.149	20370
887.274	20286
887.399	20218
887.523	20252
887.648	20263
887.773	20005
887.897	20263
888.021	20301
888.146	20142
888.27	20282
888.395	20377
888.519	20229
888.643	20218
888.767	20187
888.891	20092
889.015	19940
889.139	20088
889.263	19925
889.387	20153
889.511	20180
889.635	20172
889.759	20046
889.883	19967
890.006	20031
890.13	20103
890.254	19963
890.377	19849
890.501	19856
890.624	19647
890.748	19841
890.871	19738
890.995	19685
891.118	19548
891.241	19658
891.364	19586
891.488	19784
891.611	19529
891.734	19616
891.857	19601
891.98	19647
892.103	19651
892.226	19704
892.349	19506
892.471	19388
892.594	19487
892.717	19628
892.839	19571
892.962	19533
893.085	19575
893.207	19453
893.33	19415
893.452	19510
893.575	19590
893.697	19533
893.819	19750
893.941	19727
894.064	19575
894.186	19476
894.308	19457
894.43	19609
894.552	19715
894.674	19510
894.796	19514
894.918	19419
895.04	19518
895.161	19575
895.283	19601
895.405	19441
895.526	19613
895.648	19460
895.769	19635
895.891	19609
896.012	19605
896.134	19620
896.255	19559
896.376	19491
896.498	19655
896.619	19655
896.74	19502
896.861	19662
896.982	19936
897.103	20016
897.224	19818
897.345	19674
897.466	19704
897.587	19784
897.708	19906
897.828	19811
897.949	19578
898.07	19590
898.19	19681
898.311	19860
898.431	19719
898.552	19818
898.672	19693
898.792	19928
898.913	19830
899.033	19616
899.153	19658
899.273	19499
899.393	19483
899.513	19525
899.633	19628
899.753	19548
899.873	19449
899.993	19575
900.113	19453
900.232	19502
900.352	19411
900.472	19388
900.591	19327
900.711	19369
900.83	19274
900.95	19419
901.069	19430
901.189	19236
901.308	18977
901.427	18989
901.546	18958
901.665	19050
901.784	18871
901.904	18700
902.023	18688
902.141	18490
902.26	18525
902.379	18540
902.498	18437
902.617	18380
902.735	18422
902.854	18361
902.973	18311
903.091	18174
903.21	18034
903.328	18163
903.446	18060
903.565	17973
903.683	18045
903.801	17767
903.919	17885
904.038	17840
904.156	17733
904.274	17756
904.392	17661
904.51	17646
904.627	17771
904.745	17748
904.863	17805
904.981	17482
905.098	17254
905.216	17387
905.334	17433
905.451	17376
905.569	17341
905.686	17322
905.803	17433
905.921	17166
906.038	17288
906.155	17147
906.272	17071
906.389	17064
906.506	16927
906.623	16942
906.74	16908
906.857	16683
906.974	16774
907.091	16930
907.208	17075
907.324	16904
907.441	16869
907.557	16710
907.674	16668
907.79	16569
907.907	16702
908.023	16596
908.139	16618
908.256	16466
908.372	16645
908.488	16538
908.604	16394
908.72	16272
908.836	16375
908.952	16337
909.068	16390
909.184	16390
909.3	16306
909.415	16485
909.531	16432
909.647	16135
909.762	16105
909.878	16025
909.993	16090
910.108	16074
910.224	15956
910.339	15956
910.454	15922
910.57	15861
910.685	15766
910.8	16059
910.915	15926
911.03	15831
911.145	15656
911.259	15682
911.374	15690
911.489	15629
911.604	15538
911.718	15393
911.833	15553
911.947	15424
912.062	15272
912.176	15530
912.291	15557
912.405	15428
912.519	15637
912.633	15595
912.748	15496
912.862	15382
912.976	15233
913.09	15192
913.204	15218
913.318	15199
913.431	15363
913.545	15268
913.659	15374
913.772	15199
913.886	15058
914	15036
914.113	15138
914.226	15222
914.34	15081
914.453	14891
914.566	15119
914.68	14887
914.793	14857
914.906	14842
915.019	14663
915.132	14613
915.245	14636
915.358	14693
915.47	14686
915.583	14731
915.696	14724
915.809	14735
915.921	14773
916.034	14568
916.146	14571
916.259	14480
916.371	14488
916.483	14571
916.595	14492
916.708	14480
916.82	14389
916.932	14461
917.044	14400
917.156	14438
917.268	14286
917.38	14355
917.491	14237
917.603	14347
917.715	14457
917.826	14389
917.938	14305
918.049	14199
918.161	14237
918.272	14446
918.384	14393
918.495	14176
918.606	14183
918.717	14077
918.828	14161
918.939	14100
919.05	14043
919.161	14050
919.272	13849
919.383	13875
919.494	14107
919.604	14259
919.715	14084
919.826	13986
919.936	13978
920.047	14183
920.157	14084
920.267	14187
920.378	14005
920.488	13982
920.598	14218
920.708	14320
920.818	14195
920.928	14176
921.038	14298
921.148	14275
921.258	13997
921.368	13913
921.477	13879
921.587	13757
921.697	13677
921.806	13887
921.916	13715
922.025	13575
922.134	13441
922.244	13468
922.353	13487
922.462	13259
922.571	13304
922.68	13187
922.789	13042
922.898	13160
923.007	13000
923.116	13183
923.224	13076
923.333	13114
923.442	13027
923.55	12924
923.659	12920
923.767	12947
923.876	12981
923.984	12954
924.092	12772
924.201	12848
924.309	12901
924.417	12905
924.525	12741
924.633	12779
924.741	13715
924.849	12574
924.956	12684
925.064	12616
925.172	12551
925.279	12532
925.387	12563
925.494	12475
925.602	12688
925.709	12574
925.816	12441
925.924	12506
926.031	12620
926.138	12426
926.245	12585
926.352	12437
926.459	12616
926.566	12631
926.673	12369
926.779	12277
926.886	12266
926.993	12155
927.099	12091
927.206	12121
927.312	12102
927.419	12133
927.525	12129
927.631	12152
927.737	12095
927.843	12038
927.95	11843
928.056	11973
928.162	11958
928.267	11935
928.373	12719
928.479	11996
928.585	11794
928.69	11939
928.796	11904
928.901	11786
929.007	11714
929.112	11847
929.218	11832
929.323	11726
929.428	11665
929.533	11767
929.638	11684
929.743	11657
929.848	11630
929.953	11665
930.058	11604
930.163	11421
930.267	11349
930.372	11570
930.477	11398
930.581	11638
930.685	11360
930.79	11277
930.894	11284
930.998	11204
931.103	11444
931.207	11052
931.311	10995
931.415	10908
931.519	10759
931.623	10668
