Data from test_V78500241_1176.txt Node
Date: Fri Mar 25 15:18:02 CST 2022
User: usil
Spectrometer: V785-0024
Trigger mode: 0
Integration Time (sec): 4.000000E-1
Scans to average: 1
Nonlinearity correction enabled: false
Boxcar width: 0
Storing dark spectrum: false
XAxis mode: Wavelengths
Number of Pixels in Spectrum: 1024
>>>>>Begin Spectral Data<<<<<
801.071	28055
801.214	27945
801.356	27572
801.499	27595
801.641	27622
801.783	27542
801.926	27679
802.068	27549
802.211	27557
802.353	27382
802.496	27245
802.638	27020
802.78	27207
802.923	27104
803.065	27089
803.208	27135
803.35	27180
803.492	27173
803.635	27313
803.777	27176
803.919	27237
804.061	27572
804.204	27435
804.346	27272
804.488	27313
804.63	27462
804.773	27256
804.915	27363
805.057	27610
805.199	27523
805.341	27504
805.483	27523
805.626	27492
805.768	27462
805.91	27542
806.052	27477
806.194	27370
806.336	27622
806.478	27648
806.62	27488
806.762	27599
806.904	27846
807.046	27941
807.188	27937
807.33	27960
807.472	27911
807.614	27953
807.756	27789
807.898	27846
808.04	27831
808.182	27945
808.324	27831
808.465	27846
808.607	27899
808.749	28044
808.891	28257
809.033	28265
809.174	28299
809.316	28128
809.458	28093
809.6	28128
809.741	28276
809.883	28219
810.025	28474
810.166	28519
810.308	28599
810.45	28428
810.591	28375
810.733	28314
810.875	28230
811.016	28128
811.158	27972
811.299	28135
811.441	28242
811.582	28322
811.724	28249
811.865	28006
812.007	28128
812.148	28116
812.29	28101
812.431	28299
812.573	28443
812.714	28512
812.855	28653
812.997	28820
813.138	28820
813.279	28797
813.421	28725
813.562	28691
813.703	28542
813.845	28440
813.986	28128
814.127	27960
814.268	27945
814.41	27800
814.551	27812
814.692	27975
814.833	27854
814.974	27865
815.115	27937
815.256	27599
815.397	27686
815.539	27648
815.68	27751
815.821	27587
815.962	27648
816.103	27507
816.244	27580
816.385	27591
816.526	27344
816.666	27275
816.807	27180
816.948	27157
817.089	27260
817.23	27230
817.371	27173
817.512	27203
817.653	27089
817.793	27154
817.934	27188
818.075	27173
818.216	27184
818.356	27081
818.497	27051
818.638	26948
818.778	26826
818.919	26990
819.06	27062
819.2	26982
819.341	27116
819.481	27233
819.622	27233
819.762	27557
819.903	27393
820.043	27382
820.184	27348
820.324	27348
820.465	27306
820.605	27275
820.746	27218
820.886	27104
821.026	27344
821.167	27252
821.307	27313
821.447	27093
821.588	27173
821.728	26986
821.868	26701
822.008	26663
822.149	26594
822.289	26743
822.429	26389
822.569	26431
822.709	26355
822.849	26210
822.99	26134
823.13	25921
823.27	26043
823.41	25966
823.55	25879
823.69	25947
823.83	26081
823.97	25966
824.11	25951
824.25	25818
824.389	25750
824.529	25917
824.669	25681
824.809	25890
824.949	25883
825.089	25814
825.228	25849
825.368	25575
825.508	25639
825.648	25643
825.787	25742
825.927	25814
826.067	25719
826.206	25647
826.346	25578
826.485	25670
826.625	25552
826.765	25811
826.904	25738
827.044	25403
827.183	25438
827.323	25377
827.462	25445
827.601	25487
827.741	25278
827.88	25468
828.02	25263
828.159	25274
828.298	25453
828.437	25388
828.577	25396
828.716	25533
828.855	25255
828.994	25069
829.134	25107
829.273	25251
829.412	25088
829.551	24970
829.69	25042
829.829	25103
829.968	25285
830.107	25152
830.246	25122
830.385	25076
830.524	25012
830.663	25008
830.802	24882
830.941	24802
831.08	24829
831.219	24886
831.357	24810
831.496	24878
831.635	24677
831.774	24616
831.913	24593
832.051	24494
832.19	24494
832.329	24479
832.467	24486
832.606	24319
832.744	24361
832.883	24384
833.022	24232
833.16	24399
833.299	24437
833.437	24494
833.576	24650
833.714	24441
833.852	24559
833.991	24544
834.129	24623
834.267	24475
834.406	24460
834.544	24528
834.682	24483
834.821	24418
834.959	24589
835.097	24270
835.235	24426
835.373	24414
835.511	24475
835.65	24273
835.788	24426
835.926	24251
836.064	24209
836.202	24167
836.34	24327
836.478	24395
836.615	24277
836.753	24232
836.891	24365
837.029	24239
837.167	24163
837.305	24323
837.443	24171
837.58	24041
837.718	24251
837.856	24102
837.993	23984
838.131	24129
838.269	24030
838.406	23904
838.544	23999
838.681	23764
838.819	23718
838.956	23680
839.094	23608
839.231	23794
839.369	23809
839.506	24095
839.643	23866
839.781	23695
839.918	23528
840.055	23646
840.193	23623
840.33	23425
840.467	23395
840.604	23551
840.742	23695
840.879	23376
841.016	23497
841.153	23436
841.29	23608
841.427	23589
841.564	23520
841.701	23562
841.838	23474
841.975	23379
842.112	23429
842.249	23368
842.385	23353
842.522	23376
842.659	23223
842.796	23193
842.933	23280
843.069	23212
843.206	23280
843.343	23292
843.479	23341
843.616	23200
843.752	23044
843.889	23102
844.025	23280
844.162	22946
844.298	23090
844.435	23140
844.571	22934
844.708	23166
844.844	23151
844.98	23353
845.117	23090
845.253	23067
845.389	22999
845.525	22930
845.661	22991
845.798	22721
845.934	22755
846.07	22782
846.206	22869
846.342	22843
846.478	22835
846.614	22546
846.75	22493
846.886	22546
847.022	22580
847.158	22569
847.294	22645
847.429	22474
847.565	22504
847.701	22801
847.837	22253
847.972	22192
848.108	22287
848.244	22348
848.379	22147
848.515	21941
848.65	22181
848.786	22188
848.921	22070
849.057	22337
849.192	22131
849.328	22192
849.463	22025
849.598	22063
849.734	21972
849.869	22063
850.004	21930
850.14	21937
850.275	21956
850.41	21747
850.545	21865
850.68	21736
850.815	21922
850.95	21915
851.085	21968
851.22	21968
851.355	21930
851.49	21895
851.625	21930
851.76	21857
851.895	21762
852.03	21827
852.165	21888
852.299	21869
852.434	21895
852.569	21880
852.703	21812
852.838	21926
852.973	22032
853.107	22021
853.242	21888
853.376	21778
853.511	21667
853.645	21534
853.78	21922
853.914	21705
854.048	21648
854.183	21724
854.317	21842
854.451	21895
854.585	21709
854.72	21641
854.854	21770
854.988	21644
855.122	21713
855.256	21469
855.39	21705
855.524	21766
855.658	21759
855.792	21660
855.926	21690
856.06	21728
856.194	21770
856.327	21488
856.461	21545
856.595	21644
856.729	21652
856.862	21800
856.996	21838
857.13	21842
857.263	21842
857.397	21816
857.53	21751
857.664	21762
857.797	21682
857.931	21675
858.064	21759
858.197	21770
858.331	21724
858.464	21694
858.597	21625
858.731	21739
858.864	21538
858.997	21583
859.13	21743
859.263	21774
859.396	21751
859.529	21728
859.662	21637
859.795	21633
859.928	21656
860.061	21960
860.194	21869
860.327	21709
860.46	21652
860.592	21876
860.725	21888
860.858	21873
860.99	21732
861.123	21690
861.256	21614
861.388	21835
861.521	22489
861.653	21580
861.786	21450
861.918	21572
862.05	21481
862.183	21500
862.315	21625
862.447	21694
862.58	21648
862.712	21466
862.844	21382
862.976	21485
863.108	21435
863.24	21713
863.372	21329
863.504	21466
863.636	21393
863.768	21485
863.9	21450
864.032	21241
864.164	21447
864.296	21340
864.428	21500
864.559	21405
864.691	21557
864.823	21386
864.954	21275
865.086	21420
865.217	21321
865.349	21184
865.48	21386
865.612	21340
865.743	21485
865.875	21294
866.006	21279
866.137	21351
866.269	21268
866.4	21294
866.531	21340
866.662	21199
866.793	21127
866.924	21230
867.055	21245
867.186	21291
867.317	21165
867.448	21154
867.579	21268
867.71	21127
867.841	21264
867.972	21123
868.103	21291
868.233	21298
868.364	21283
868.495	21275
868.625	21534
868.756	21644
868.886	21431
869.017	21481
869.147	21572
869.278	21660
869.408	21462
869.539	21443
869.669	21557
869.799	21511
869.929	21583
870.06	21492
870.19	21808
870.32	21720
870.45	21770
870.58	21793
870.71	21983
870.84	21899
870.97	21899
871.1	21869
871.23	22063
871.36	22120
871.489	21869
871.619	21964
871.749	22036
871.879	22048
872.008	22173
872.138	22162
872.267	22051
872.397	22067
872.526	21899
872.656	21918
872.785	21846
872.915	22173
873.044	22131
873.173	22128
873.303	22086
873.432	22192
873.561	22090
873.69	22048
873.819	22116
873.948	22158
874.077	22070
874.206	22025
874.335	22131
874.464	22246
874.593	22337
874.722	22211
874.851	22238
874.979	22337
875.108	22424
875.237	22207
875.365	22234
875.494	22219
875.623	22306
875.751	22310
875.88	22405
876.008	22287
876.136	22519
876.265	22687
876.393	22831
876.521	22812
876.65	22778
876.778	22584
876.906	22569
877.034	22542
877.162	22588
877.29	22774
877.418	22748
877.546	22672
877.674	22717
877.802	22588
877.93	22691
878.058	22721
878.185	22523
878.313	22569
878.441	22702
878.568	22356
878.696	22683
878.824	22615
878.951	22835
879.079	22809
879.206	22976
879.333	22915
879.461	22683
879.588	22637
879.715	22858
879.842	22828
879.97	22717
880.097	22584
880.224	22519
880.351	22504
880.478	22478
880.605	22512
880.732	22447
880.859	22626
880.986	22531
881.112	22535
881.239	22310
881.366	22173
881.493	22101
881.619	22162
881.746	22181
881.872	22010
881.999	22112
882.125	21968
882.252	22139
882.378	22040
882.505	22112
882.631	21937
882.757	21850
882.883	21812
883.01	21762
883.136	21641
883.262	21576
883.388	21656
883.514	21770
883.64	21644
883.766	21660
883.892	21591
884.018	21542
884.143	21622
884.269	21724
884.395	21477
884.52	21458
884.646	21431
884.772	21222
884.897	21310
885.023	21332
885.148	21504
885.274	21515
885.399	21492
885.524	21416
885.65	21439
885.775	21389
885.9	21416
886.025	21553
886.15	21545
886.275	21325
886.4	21268
886.525	21340
886.65	21287
886.775	21256
886.9	21618
887.025	21583
887.149	21367
887.274	21176
887.399	21104
887.523	21104
887.648	21131
887.773	20994
887.897	21260
888.021	21192
888.146	21161
888.27	21412
888.395	21336
888.519	21051
888.643	21252
888.767	21199
888.891	21154
889.015	20948
889.139	21039
889.263	20960
889.387	21028
889.511	21249
889.635	21123
889.759	20925
889.883	21013
890.006	20990
890.13	20979
890.254	20826
890.377	20906
890.501	20678
890.624	20549
890.748	20785
890.871	20560
890.995	20514
891.118	20427
891.241	20507
891.364	20461
891.488	20552
891.611	20499
891.734	20503
891.857	20560
891.98	20545
892.103	20609
892.226	20556
892.349	20427
892.471	20328
892.594	20355
892.717	20484
892.839	20385
892.962	20408
893.085	20377
893.207	20423
893.33	20320
893.452	20298
893.575	20495
893.697	20427
893.819	20552
893.941	20583
894.064	20667
894.186	20480
894.308	20309
894.43	20511
894.552	20590
894.674	20549
894.796	20202
894.918	20301
895.04	20309
895.161	20408
895.283	20393
895.405	20275
895.526	20503
895.648	20473
895.769	20480
895.891	20408
896.012	20438
896.134	20461
896.255	20484
896.376	20393
896.498	20366
896.619	20434
896.74	20400
896.861	20355
896.982	20663
897.103	20956
897.224	20632
897.345	20613
897.466	20579
897.587	20701
897.708	20746
897.828	20659
897.949	20648
898.07	20446
898.19	20571
898.311	20701
898.431	20636
898.552	20663
898.672	20533
898.792	20579
898.913	20526
899.033	20473
899.153	20408
899.273	20374
899.393	20294
899.513	20545
899.633	20366
899.753	20404
899.873	20377
899.993	20454
900.113	20229
900.232	20385
900.352	20240
900.472	20126
900.591	20134
900.711	20218
900.83	20122
900.95	20278
901.069	20161
901.189	19978
901.308	19791
901.427	19731
901.546	19670
901.665	19761
901.784	19662
901.904	19624
902.023	19540
902.141	19324
902.26	19266
902.379	19266
902.498	19194
902.617	19175
902.735	19240
902.854	19160
902.973	19206
903.091	18989
903.21	18848
903.328	18878
903.446	18825
903.565	18707
903.683	18715
903.801	18547
903.919	18673
904.038	18639
904.156	18494
904.274	18544
904.392	18399
904.51	18448
904.627	18403
904.745	18536
904.863	18547
904.981	18262
905.098	18026
905.216	18121
905.334	18205
905.451	18182
905.569	18083
905.686	18110
905.803	18125
905.921	18022
906.038	17980
906.155	17999
906.272	17794
906.389	17870
906.506	17703
906.623	17661
906.74	17657
906.857	17562
906.974	17558
907.091	17745
907.208	17878
907.324	17665
907.441	17611
907.557	17459
907.674	17372
907.79	17216
907.907	17265
908.023	17341
908.139	17433
908.256	17379
908.372	17242
908.488	17246
908.604	17083
908.72	16991
908.836	17155
908.952	16965
909.068	17124
909.184	17254
909.3	16991
909.415	17124
909.531	17098
909.647	16752
909.762	16900
909.878	16778
909.993	16771
910.108	16721
910.224	16763
910.339	16824
910.454	16702
910.57	16618
910.685	16599
910.8	16824
910.915	16911
911.03	16527
911.145	16436
911.259	16284
911.374	16447
911.489	16306
911.604	16329
911.718	16051
911.833	16105
911.947	15975
912.062	16048
912.176	16071
912.291	16059
912.405	16112
912.519	16291
912.633	16276
912.748	16074
912.862	16017
912.976	15964
913.09	15831
913.204	15930
913.318	16006
913.431	15987
913.545	16124
913.659	15983
913.772	15918
913.886	15808
914	15739
914.113	15709
914.226	15888
914.34	15789
914.453	15648
914.566	15823
914.68	15667
914.793	15564
914.906	15412
915.019	15416
915.132	15298
915.245	15310
915.358	15306
915.47	15287
915.583	15374
915.696	15306
915.809	15374
915.921	15405
916.034	15173
916.146	15188
916.259	15173
916.371	15298
916.483	15287
916.595	15055
916.708	15195
916.82	15195
916.932	15032
917.044	15131
917.156	15104
917.268	14975
917.38	14986
917.491	15024
917.603	15039
917.715	15024
917.826	14998
917.938	14830
918.049	14823
918.161	15005
918.272	15001
918.384	15112
918.495	14887
918.606	14765
918.717	14674
918.828	14804
918.939	14807
919.05	14724
919.161	14762
919.272	14419
919.383	14549
919.494	14758
919.604	14906
919.715	14636
919.826	14514
919.936	14667
920.047	14849
920.157	14754
920.267	14788
920.378	14777
920.488	14739
920.598	14849
920.708	15028
920.818	14895
920.928	14826
921.038	14933
921.148	14960
921.258	14629
921.368	14522
921.477	14431
921.587	14332
921.697	14286
921.806	14358
921.916	14248
922.025	14084
922.134	14050
922.244	14077
922.353	14027
922.462	13986
922.571	13852
922.68	13693
922.789	13807
922.898	13723
923.007	13670
923.116	13712
923.224	13620
923.333	13670
923.442	13563
923.55	13537
923.659	13567
923.767	13609
923.876	13537
923.984	13594
924.092	13415
924.201	13502
924.309	13506
924.417	13563
924.525	13403
924.633	13343
924.741	14301
924.849	13179
924.956	13293
925.064	13149
925.172	13019
925.279	13072
925.387	13137
925.494	13099
925.602	13209
925.709	13103
925.816	12905
925.924	13050
926.031	13122
926.138	13046
926.245	13091
926.352	12939
926.459	13107
926.566	13129
926.673	12939
926.779	12848
926.886	12817
926.993	12814
927.099	12662
927.206	12722
927.312	12639
927.419	12753
927.525	12574
927.631	12658
927.737	12646
927.843	12532
927.95	12437
928.056	12498
928.162	12506
928.267	12479
928.373	13053
928.479	12498
928.585	12334
928.69	12437
928.796	12502
928.901	12357
929.007	12232
929.112	12239
929.218	12296
929.323	12220
929.428	12194
929.533	12338
929.638	12121
929.743	12163
929.848	12262
929.953	12144
930.058	11977
930.163	11893
930.267	11885
930.372	12053
930.477	11939
930.581	12019
930.685	12007
930.79	11794
930.894	11748
930.998	11718
931.103	11893
931.207	11429
931.311	11471
931.415	11345
931.519	11181
931.623	11105
