Data from test_V78500241_1136.txt Node
Date: Fri Mar 25 15:17:46 CST 2022
User: usil
Spectrometer: V785-0024
Trigger mode: 0
Integration Time (sec): 4.000000E-1
Scans to average: 1
Nonlinearity correction enabled: false
Boxcar width: 0
Storing dark spectrum: false
XAxis mode: Wavelengths
Number of Pixels in Spectrum: 1024
>>>>>Begin Spectral Data<<<<<
801.071	28074
801.214	28048
801.356	27911
801.499	27816
801.641	27587
801.783	27587
801.926	27637
802.068	27637
802.211	27694
802.353	27523
802.496	27408
802.638	27157
802.78	27348
802.923	27252
803.065	27283
803.208	27252
803.35	27245
803.492	27370
803.635	27496
803.777	27279
803.919	27561
804.061	27899
804.204	27473
804.346	27485
804.488	27329
804.63	27462
804.773	27416
804.915	27534
805.057	27542
805.199	27488
805.341	27545
805.483	27686
805.626	27736
805.768	27355
805.91	27610
806.052	27485
806.194	27530
806.336	27762
806.478	27629
806.62	27819
806.762	27835
806.904	27884
807.046	28074
807.188	27991
807.33	28090
807.472	28040
807.614	28124
807.756	28128
807.898	28010
808.04	28040
808.182	27823
808.324	27880
808.465	28010
808.607	28230
808.749	28318
808.891	28409
809.033	28447
809.174	28310
809.316	28120
809.458	28223
809.6	28352
809.741	28352
809.883	28401
810.025	28421
810.166	28508
810.308	28603
810.45	28500
810.591	28580
810.733	28265
810.875	28356
811.016	28185
811.158	28173
811.299	28421
811.441	28523
811.582	28459
811.724	28310
811.865	28181
812.007	28348
812.148	28177
812.29	28348
812.431	28577
812.573	28580
812.714	28763
812.855	28812
812.997	28908
813.138	29083
813.279	28866
813.421	28885
813.562	28725
813.703	28596
813.845	28527
813.986	28344
814.127	28280
814.268	27945
814.41	28010
814.551	28048
814.692	27918
814.833	27934
814.974	28048
815.115	28067
815.256	27846
815.397	27960
815.539	27888
815.68	27812
815.821	27785
815.962	27778
816.103	27717
816.244	27694
816.385	27690
816.526	27519
816.666	27283
816.807	27176
816.948	27355
817.089	27466
817.23	27412
817.371	27367
817.512	27294
817.653	27332
817.793	27272
817.934	27469
818.075	27252
818.216	27287
818.356	27272
818.497	27272
818.638	27039
818.778	27043
818.919	27047
819.06	27062
819.2	27127
819.341	27272
819.481	27275
819.622	27443
819.762	27530
819.903	27504
820.043	27370
820.184	27500
820.324	27405
820.465	27450
820.605	27389
820.746	27496
820.886	27336
821.026	27359
821.167	27363
821.307	27374
821.447	27340
821.588	27169
821.728	27226
821.868	26971
822.008	26731
822.149	26819
822.289	26781
822.429	26537
822.569	26606
822.709	26507
822.849	26358
822.99	26313
823.13	26305
823.27	26149
823.41	26168
823.55	25993
823.69	26043
823.83	26153
823.97	25997
824.11	25951
824.25	25944
824.389	25890
824.529	26084
824.669	25909
824.809	26145
824.949	26005
825.089	26065
825.228	25997
825.368	25921
825.508	25906
825.648	25830
825.787	25803
825.927	25906
826.067	25727
826.206	25871
826.346	25837
826.485	25871
826.625	25769
826.765	25811
826.904	25856
827.044	25567
827.183	25620
827.323	25422
827.462	25704
827.601	25624
827.741	25670
827.88	25628
828.02	25331
828.159	25472
828.298	25575
828.437	25495
828.577	25411
828.716	25567
828.855	25472
828.994	25263
829.134	25194
829.273	25301
829.412	25247
829.551	25057
829.69	25244
829.829	25453
829.968	25339
830.107	25365
830.246	25278
830.385	25202
830.524	25202
830.663	25168
830.802	24943
830.941	24981
831.08	24757
831.219	25031
831.357	24867
831.496	25206
831.635	24947
831.774	24707
831.913	24897
832.051	24760
832.19	24669
832.329	24798
832.467	24639
832.606	24544
832.744	24532
832.883	24650
833.022	24528
833.16	24509
833.299	24551
833.437	24631
833.576	24658
833.714	24627
833.852	24684
833.991	24688
834.129	24688
834.267	24616
834.406	24722
834.544	24589
834.682	24620
834.821	24658
834.959	24810
835.097	24494
835.235	24707
835.373	24544
835.511	24578
835.65	24559
835.788	24376
835.926	24407
836.064	24311
836.202	24395
836.34	24483
836.478	24528
836.615	24467
836.753	24384
836.891	24490
837.029	24513
837.167	24464
837.305	24433
837.443	24285
837.58	24407
837.718	24384
837.856	24228
837.993	24194
838.131	24376
838.269	24262
838.406	24216
838.544	23999
838.681	24015
838.819	24015
838.956	23843
839.094	23802
839.231	23832
839.369	23885
839.506	24155
839.643	23992
839.781	23794
839.918	23627
840.055	23897
840.193	23786
840.33	23554
840.467	23661
840.604	23714
840.742	23946
840.879	23619
841.016	23608
841.153	23592
841.29	23805
841.427	23665
841.564	23710
841.701	23691
841.838	23573
841.975	23566
842.112	23554
842.249	23570
842.385	23433
842.522	23581
842.659	23649
842.796	23524
842.933	23452
843.069	23417
843.206	23471
843.343	23505
843.479	23368
843.616	23379
843.752	23235
843.889	23242
844.025	23402
844.162	23235
844.298	23360
844.435	23235
844.571	23170
844.708	23292
844.844	23326
844.98	23372
845.117	23391
845.253	23121
845.389	23147
845.525	23197
845.661	23056
845.798	22930
845.934	23018
846.07	22946
846.206	22889
846.342	23128
846.478	22828
846.614	22759
846.75	22793
846.886	22755
847.022	22816
847.158	22740
847.294	22717
847.429	22805
847.565	22717
847.701	22835
847.837	22413
847.972	22493
848.108	22428
848.244	22512
848.379	22310
848.515	22287
848.65	22249
848.786	22379
848.921	22154
849.057	22417
849.192	22405
849.328	22363
849.463	22455
849.598	22226
849.734	22204
849.869	22055
850.004	22036
850.14	22341
850.275	22013
850.41	21998
850.545	21918
850.68	21854
850.815	22040
850.95	22090
851.085	22249
851.22	22082
851.355	22010
851.49	22048
851.625	21922
851.76	22093
851.895	22036
852.03	21956
852.165	21903
852.299	22010
852.434	22173
852.569	22112
852.703	22086
852.838	22204
852.973	22181
853.107	22272
853.242	22006
853.376	21953
853.511	21751
853.645	21884
853.78	21918
853.914	21968
854.048	21846
854.183	21861
854.317	21956
854.451	21968
854.585	21880
854.72	21937
854.854	21930
854.988	21835
855.122	21899
855.256	21781
855.39	21857
855.524	21854
855.658	21899
855.792	21983
855.926	21964
856.06	21892
856.194	21956
856.327	21884
856.461	21698
856.595	21895
856.729	21869
856.862	21835
856.996	21816
857.13	21899
857.263	21922
857.397	22036
857.53	21941
857.664	21865
857.797	21816
857.931	22074
858.064	21968
858.197	21911
858.331	21922
858.464	21812
858.597	21823
858.731	21873
858.864	21812
858.997	21720
859.13	21759
859.263	21854
859.396	22036
859.529	21907
859.662	21903
859.795	21819
859.928	21857
860.061	21968
860.194	21991
860.327	21934
860.46	21922
860.592	22029
860.725	21991
860.858	22040
860.99	21823
861.123	21819
861.256	21819
861.388	21926
861.521	22653
861.653	21774
861.786	21751
861.918	21671
862.05	21686
862.183	21671
862.315	21854
862.447	21755
862.58	21789
862.712	21652
862.844	21568
862.976	21694
863.108	21690
863.24	22059
863.372	21568
863.504	21538
863.636	21568
863.768	21587
863.9	21629
864.032	21564
864.164	21435
864.296	21610
864.428	21751
864.559	21614
864.691	21477
864.823	21633
864.954	21637
865.086	21496
865.217	21488
865.349	21439
865.48	21447
865.612	21431
865.743	21641
865.875	21576
866.006	21538
866.137	21424
866.269	21523
866.4	21458
866.531	21416
866.662	21355
866.793	21313
866.924	21363
867.055	21473
867.186	21325
867.317	21401
867.448	21325
867.579	21397
867.71	21283
867.841	21245
867.972	21416
868.103	21367
868.233	21389
868.364	21252
868.495	21545
868.625	21580
868.756	21667
868.886	21549
869.017	21629
869.147	21648
869.278	21717
869.408	21701
869.539	21629
869.669	21671
869.799	21595
869.929	21819
870.06	21667
870.19	21994
870.32	22017
870.45	21987
870.58	21922
870.71	22207
870.84	22120
870.97	21979
871.1	21960
871.23	22169
871.36	22268
871.489	22150
871.619	22158
871.749	22215
871.879	22185
872.008	22169
872.138	22284
872.267	22242
872.397	22082
872.526	22067
872.656	22021
872.785	21983
872.915	22325
873.044	22303
873.173	22169
873.303	22299
873.432	22230
873.561	22390
873.69	22219
873.819	22249
873.948	22451
874.077	22242
874.206	22234
874.335	22276
874.464	22295
874.593	22470
874.722	22341
874.851	22546
874.979	22459
875.108	22493
875.237	22405
875.365	22341
875.494	22325
875.623	22656
875.751	22363
875.88	22481
876.008	22554
876.136	22565
876.265	22862
876.393	22984
876.521	22869
876.65	22702
876.778	22869
876.906	22778
877.034	22740
877.162	22698
877.29	22782
877.418	22622
877.546	22797
877.674	22889
877.802	22698
877.93	22759
878.058	22725
878.185	22755
878.313	22645
878.441	22763
878.568	22752
878.696	22656
878.824	22771
878.951	22900
879.079	22961
879.206	23159
879.333	22957
879.461	22896
879.588	22930
879.715	23025
879.842	23018
879.97	22824
880.097	22694
880.224	22580
880.351	22618
880.478	22615
880.605	22546
880.732	22531
880.859	22847
880.986	22588
881.112	22656
881.239	22413
881.366	22341
881.493	22371
881.619	22147
881.746	22207
881.872	22204
881.999	22139
882.125	22192
882.252	22116
882.378	22173
882.505	22177
882.631	22025
882.757	21945
882.883	21972
883.01	22010
883.136	21823
883.262	21804
883.388	21747
883.514	21755
883.64	21873
883.766	21854
883.892	21679
884.018	21633
884.143	21854
884.269	21911
884.395	21580
884.52	21439
884.646	21447
884.772	21519
884.897	21439
885.023	21477
885.148	21675
885.274	21652
885.399	21576
885.524	21545
885.65	21534
885.775	21523
885.9	21519
886.025	21667
886.15	21595
886.275	21401
886.4	21412
886.525	21553
886.65	21412
886.775	21412
886.9	21618
887.025	21667
887.149	21454
887.274	21291
887.399	21370
887.523	21230
887.648	21370
887.773	21245
887.897	21302
888.021	21241
888.146	21233
888.27	21389
888.395	21306
888.519	21363
888.643	21317
888.767	21378
888.891	21237
889.015	21089
889.139	21096
889.263	21032
889.387	21157
889.511	21313
889.635	21176
889.759	21135
889.883	21112
890.006	21055
890.13	21028
890.254	21024
890.377	20998
890.501	20872
890.624	20838
890.748	20918
890.871	20689
890.995	20670
891.118	20598
891.241	20606
891.364	20655
891.488	20872
891.611	20651
891.734	20731
891.857	20701
891.98	20640
892.103	20754
892.226	20720
892.349	20689
892.471	20454
892.594	20571
892.717	20568
892.839	20571
892.962	20507
893.085	20613
893.207	20568
893.33	20636
893.452	20507
893.575	20705
893.697	20469
893.819	20598
893.941	20648
894.064	20701
894.186	20590
894.308	20530
894.43	20571
894.552	20731
894.674	20625
894.796	20415
894.918	20495
895.04	20640
895.161	20606
895.283	20568
895.405	20507
895.526	20533
895.648	20560
895.769	20457
895.891	20511
896.012	20667
896.134	20682
896.255	20495
896.376	20526
896.498	20514
896.619	20541
896.74	20541
896.861	20617
896.982	20982
897.103	20975
897.224	20807
897.345	20743
897.466	20648
897.587	20819
897.708	20998
897.828	20697
897.949	20701
898.07	20648
898.19	20602
898.311	20750
898.431	20743
898.552	20746
898.672	20853
898.792	20739
898.913	20712
899.033	20629
899.153	20575
899.273	20488
899.393	20385
899.513	20556
899.633	20575
899.753	20419
899.873	20419
899.993	20560
900.113	20362
900.232	20522
900.352	20438
900.472	20271
900.591	20366
900.711	20240
900.83	20130
900.95	20351
901.069	20362
901.189	20164
901.308	19970
901.427	19799
901.546	19849
901.665	19791
901.784	19875
901.904	19712
902.023	19582
902.141	19426
902.26	19384
902.379	19445
902.498	19327
902.617	19278
902.735	19384
902.854	19358
902.973	19259
903.091	19164
903.21	18958
903.328	19050
903.446	18996
903.565	18897
903.683	18779
903.801	18665
903.919	18730
904.038	18757
904.156	18574
904.274	18623
904.392	18639
904.51	18582
904.627	18448
904.745	18669
904.863	18528
904.981	18441
905.098	18311
905.216	18281
905.334	18334
905.451	18311
905.569	18205
905.686	18330
905.803	18213
905.921	18007
906.038	18114
906.155	18045
906.272	17958
906.389	18026
906.506	17885
906.623	17779
906.74	17756
906.857	17638
906.974	17665
907.091	17866
907.208	17889
907.324	17794
907.441	17630
907.557	17566
907.674	17448
907.79	17440
907.907	17512
908.023	17547
908.139	17539
908.256	17421
908.372	17410
908.488	17391
908.604	17349
908.72	17227
908.836	17185
908.952	17178
909.068	17227
909.184	17345
909.3	17250
909.415	17204
909.531	17155
909.647	16946
909.762	16965
909.878	16866
909.993	16889
910.108	16904
910.224	16961
910.339	16847
910.454	16683
910.57	16725
910.685	16736
910.8	16927
910.915	16885
911.03	16683
911.145	16470
911.259	16580
911.374	16538
911.489	16440
911.604	16436
911.718	16188
911.833	16246
911.947	16101
912.062	16097
912.176	16162
912.291	16272
912.405	16147
912.519	16356
912.633	16386
912.748	16333
912.862	16185
912.976	16044
913.09	15937
913.204	16090
913.318	16040
913.431	16112
913.545	16040
913.659	16306
913.772	16059
913.886	15937
914	15934
914.113	15953
914.226	15983
914.34	15994
914.453	15797
914.566	15892
914.68	15835
914.793	15720
914.906	15488
915.019	15469
915.132	15393
915.245	15481
915.358	15466
915.47	15519
915.583	15462
915.696	15447
915.809	15576
915.921	15584
916.034	15382
916.146	15389
916.259	15416
916.371	15473
916.483	15382
916.595	15336
916.708	15272
916.82	15325
916.932	15321
917.044	15199
917.156	15074
917.268	15074
917.38	15195
917.491	15062
917.603	15112
917.715	15093
917.826	15154
917.938	15001
918.049	14952
918.161	15085
918.272	15222
918.384	15055
918.495	15097
918.606	14914
918.717	14861
918.828	14838
918.939	14887
919.05	14705
919.161	14800
919.272	14613
919.383	14777
919.494	14792
919.604	15013
919.715	14769
919.826	14727
919.936	14864
920.047	14838
920.157	14845
920.267	14960
920.378	14823
920.488	14826
920.598	14902
920.708	15108
920.818	14902
920.928	14880
921.038	15184
921.148	15036
921.258	14769
921.368	14606
921.477	14499
921.587	14499
921.697	14385
921.806	14465
921.916	14419
922.025	14149
922.134	14229
922.244	14103
922.353	14240
922.462	14096
922.571	13890
922.68	13871
922.789	13795
922.898	13795
923.007	13772
923.116	13849
923.224	13887
923.333	13693
923.442	13662
923.55	13632
923.659	13681
923.767	13696
923.876	13476
923.984	13567
924.092	13502
924.201	13487
924.309	13556
924.417	13460
924.525	13430
924.633	13518
924.741	14343
924.849	13263
924.956	13392
925.064	13297
925.172	13187
925.279	13346
925.387	13187
925.494	13221
925.602	13274
925.709	13259
925.816	13095
925.924	13145
926.031	13183
926.138	13149
926.245	13179
926.352	13110
926.459	13114
926.566	13312
926.673	13126
926.779	12924
926.886	12932
926.993	12844
927.099	12791
927.206	12681
927.312	12722
927.419	12760
927.525	12772
927.631	12734
927.737	12650
927.843	12582
927.95	12532
928.056	12677
928.162	12589
928.267	12578
928.373	13129
928.479	12646
928.585	12372
928.69	12494
928.796	12589
928.901	12445
929.007	12239
929.112	12456
929.218	12426
929.323	12380
929.428	12201
929.533	12467
929.638	12285
929.743	12224
929.848	12281
929.953	12247
930.058	12041
930.163	11984
930.267	12034
930.372	12167
930.477	12022
930.581	12163
930.685	12003
930.79	11897
930.894	11874
930.998	11828
931.103	12041
931.207	11592
931.311	11532
931.415	11459
931.519	11273
931.623	11204
