Data from test_V78500241_3068.txt Node
Date: Fri Mar 25 15:31:13 CST 2022
User: usil
Spectrometer: V785-0024
Trigger mode: 0
Integration Time (sec): 4.000000E-1
Scans to average: 1
Nonlinearity correction enabled: false
Boxcar width: 0
Storing dark spectrum: false
XAxis mode: Wavelengths
Number of Pixels in Spectrum: 1024
>>>>>Begin Spectral Data<<<<<
801.071	27199
801.214	27260
801.356	27005
801.499	26918
801.641	26804
801.783	26815
801.926	26880
802.068	26811
802.211	26701
802.353	26724
802.496	26514
802.638	26415
802.78	26480
802.923	26423
803.065	26362
803.208	26301
803.35	26514
803.492	26640
803.635	26674
803.777	26594
803.919	26724
804.061	26975
804.204	26754
804.346	26560
804.488	26511
804.63	26579
804.773	26480
804.915	26583
805.057	26716
805.199	26568
805.341	26541
805.483	26735
805.626	26807
805.768	26621
805.91	26792
806.052	26750
806.194	26670
806.336	26743
806.478	26762
806.62	26777
806.762	26861
806.904	26937
807.046	27207
807.188	27203
807.33	27279
807.472	27245
807.614	27116
807.756	27199
807.898	26979
808.04	26944
808.182	26940
808.324	26948
808.465	27100
808.607	27211
808.749	27237
808.891	27351
809.033	27412
809.174	27420
809.316	27382
809.458	27469
809.6	27203
809.741	27367
809.883	27393
810.025	27610
810.166	27618
810.308	27591
810.45	27511
810.591	27416
810.733	27458
810.875	27420
811.016	27157
811.158	27218
811.299	27408
811.441	27534
811.582	27450
811.724	27466
811.865	27294
812.007	27298
812.148	27131
812.29	27329
812.431	27386
812.573	27663
812.714	27736
812.855	27998
812.997	27850
813.138	27983
813.279	27991
813.421	27876
813.562	27755
813.703	27595
813.845	27458
813.986	27264
814.127	27005
814.268	26975
814.41	27001
814.551	26925
814.692	27062
814.833	26990
814.974	26956
815.115	26910
815.256	26849
815.397	26857
815.539	26937
815.68	26735
815.821	26727
815.962	26670
816.103	26746
816.244	26575
816.385	26446
816.526	26473
816.666	26339
816.807	26267
816.948	26233
817.089	26377
817.23	26183
817.371	26301
817.512	26142
817.653	26370
817.793	26271
817.934	26172
818.075	26161
818.216	26256
818.356	26187
818.497	26046
818.638	26065
818.778	25841
818.919	25982
819.06	26088
819.2	26031
819.341	26244
819.481	26206
819.622	26347
819.762	26461
819.903	26393
820.043	26377
820.184	26488
820.324	26347
820.465	26442
820.605	26290
820.746	26233
820.886	26180
821.026	26400
821.167	26237
821.307	26400
821.447	26183
821.588	26092
821.728	26062
821.868	25871
822.008	25791
822.149	25700
822.289	25628
822.429	25445
822.569	25324
822.709	25601
822.849	25297
822.99	25194
823.13	25198
823.27	25031
823.41	25095
823.55	24958
823.69	25061
823.83	24981
823.97	25084
824.11	24867
824.25	24623
824.389	24837
824.529	25004
824.669	24795
824.809	24977
824.949	24943
825.089	24981
825.228	24825
825.368	24688
825.508	24867
825.648	24669
825.787	24726
825.927	24833
826.067	24635
826.206	24684
826.346	24738
826.485	24745
826.625	24760
826.765	24875
826.904	24665
827.044	24505
827.183	24391
827.323	24266
827.462	24407
827.601	24426
827.741	24445
827.88	24292
828.02	24334
828.159	24353
828.298	24380
828.437	24544
828.577	24361
828.716	24448
828.855	24247
828.994	24155
829.134	24133
829.273	24133
829.412	24068
829.551	24038
829.69	24155
829.829	24095
829.968	24136
830.107	24110
830.246	24190
830.385	24079
830.524	23908
830.663	23904
830.802	23775
830.941	23733
831.08	23714
831.219	23802
831.357	23794
831.496	23897
831.635	23592
831.774	23707
831.913	23585
832.051	23608
832.19	23452
832.329	23493
832.467	23345
832.606	23299
832.744	23326
832.883	23429
833.022	23322
833.16	23429
833.299	23337
833.437	23337
833.576	23478
833.714	23455
833.852	23433
833.991	23421
834.129	23486
834.267	23467
834.406	23524
834.544	23558
834.682	23414
834.821	23410
834.959	23653
835.097	23493
835.235	23452
835.373	23398
835.511	23376
835.65	23379
835.788	23318
835.926	23318
836.064	23056
836.202	23151
836.34	23318
836.478	23372
836.615	23181
836.753	23197
836.891	23383
837.029	23269
837.167	23193
837.305	23204
837.443	23220
837.58	23140
837.718	23086
837.856	23151
837.993	23181
838.131	23117
838.269	23056
838.406	23083
838.544	23018
838.681	22927
838.819	22774
838.956	22603
839.094	22592
839.231	22702
839.369	22854
839.506	22824
839.643	22900
839.781	22656
839.918	22535
840.055	22615
840.193	22729
840.33	22573
840.467	22637
840.604	22565
840.742	22793
840.879	22409
841.016	22466
841.153	22493
841.29	22694
841.427	22527
841.564	22466
841.701	22527
841.838	22470
841.975	22455
842.112	22603
842.249	22451
842.385	22409
842.522	22565
842.659	22535
842.796	22276
842.933	22284
843.069	22219
843.206	22280
843.343	22337
843.479	22200
843.616	22348
843.752	22105
843.889	22070
844.025	22219
844.162	22128
844.298	22131
844.435	22002
844.571	22040
844.708	22166
844.844	22188
844.98	22253
845.117	22253
845.253	22006
845.389	21994
845.525	21926
845.661	21945
845.798	21835
845.934	21823
846.07	21838
846.206	21861
846.342	21903
846.478	21644
846.614	21599
846.75	21393
846.886	21485
847.022	21500
847.158	21656
847.294	21553
847.429	21667
847.565	21572
847.701	21751
847.837	21332
847.972	21249
848.108	21351
848.244	21367
848.379	21180
848.515	21241
848.65	21108
848.786	21142
848.921	21230
849.057	21336
849.192	21184
849.328	21317
849.463	21173
849.598	20982
849.734	21150
849.869	20967
850.004	20842
850.14	20952
850.275	20921
850.41	20807
850.545	20895
850.68	20899
850.815	20979
850.95	20796
851.085	21077
851.22	21112
851.355	20944
851.49	20937
851.625	20891
851.76	20960
851.895	20899
852.03	20800
852.165	20868
852.299	21058
852.434	20960
852.569	20872
852.703	20895
852.838	20887
852.973	21089
853.107	21096
853.242	20781
853.376	20769
853.511	20621
853.645	20727
853.78	20876
853.914	20739
854.048	20758
854.183	20716
854.317	20857
854.451	20906
854.585	20750
854.72	20678
854.854	20823
854.988	20648
855.122	20697
855.256	20701
855.39	20686
855.524	20724
855.658	20762
855.792	20853
855.926	20568
856.06	20724
856.194	20796
856.327	20735
856.461	20625
856.595	20571
856.729	20705
856.862	20701
856.996	20697
857.13	20857
857.263	20800
857.397	20929
857.53	20720
857.664	20773
857.797	20788
857.931	20834
858.064	20773
858.197	20868
858.331	20689
858.464	20693
858.597	20606
858.731	20587
858.864	20731
858.997	20651
859.13	20815
859.263	20857
859.396	20731
859.529	20735
859.662	20686
859.795	20663
859.928	20743
860.061	20823
860.194	20914
860.327	20785
860.46	20727
860.592	20868
860.725	20769
860.858	20781
860.99	20674
861.123	20788
861.256	20670
861.388	20849
861.521	21317
861.653	20564
861.786	20507
861.918	20648
862.05	20556
862.183	20705
862.315	20602
862.447	20758
862.58	20651
862.712	20518
862.844	20419
862.976	20613
863.108	20556
863.24	20754
863.372	20343
863.504	20324
863.636	20393
863.768	20446
863.9	20419
864.032	20347
864.164	20351
864.296	20408
864.428	20625
864.559	20545
864.691	20457
864.823	20434
864.954	20400
865.086	20355
865.217	20408
865.349	20336
865.48	20374
865.612	20259
865.743	20400
865.875	20343
866.006	20355
866.137	20385
866.269	20305
866.4	20339
866.531	20237
866.662	20336
866.793	20180
866.924	20305
867.055	20393
867.186	20381
867.317	20389
867.448	20286
867.579	20290
867.71	20237
867.841	20252
867.972	20400
868.103	20328
868.233	20347
868.364	20244
868.495	20454
868.625	20526
868.756	20644
868.886	20336
869.017	20473
869.147	20598
869.278	20606
869.408	20556
869.539	20526
869.669	20640
869.799	20587
869.929	20609
870.06	20625
870.19	20811
870.32	20853
870.45	20792
870.58	20994
870.71	21051
870.84	21013
870.97	20941
871.1	20899
871.23	21051
871.36	21154
871.489	21001
871.619	21127
871.749	21055
871.879	21218
872.008	21211
872.138	21119
872.267	21146
872.397	21036
872.526	20952
872.656	20895
872.785	20986
872.915	21104
873.044	21245
873.173	21108
873.303	21195
873.432	21199
873.561	21325
873.69	21203
873.819	21169
873.948	21214
874.077	21214
874.206	21116
874.335	21077
874.464	21355
874.593	21355
874.722	21374
874.851	21367
874.979	21466
875.108	21496
875.237	21340
875.365	21245
875.494	21325
875.623	21401
875.751	21443
875.88	21450
876.008	21561
876.136	21507
876.265	21778
876.393	21880
876.521	21861
876.65	21941
876.778	21949
876.906	21812
877.034	21686
877.162	21701
877.29	21743
877.418	21774
877.546	21846
877.674	21671
877.802	21808
877.93	21739
878.058	21739
878.185	21500
878.313	21739
878.441	21660
878.568	21488
878.696	21618
878.824	21884
878.951	21823
879.079	21876
879.206	22128
879.333	21994
879.461	21804
879.588	21937
879.715	21922
879.842	22006
879.97	21766
880.097	21587
880.224	21534
880.351	21663
880.478	21534
880.605	21625
880.732	21549
880.859	21816
880.986	21633
881.112	21561
881.239	21412
881.366	21313
881.493	21256
881.619	21138
881.746	21173
881.872	21161
881.999	21192
882.125	21108
882.252	21150
882.378	21100
882.505	21226
882.631	21043
882.757	20887
882.883	21005
883.01	20952
883.136	20777
883.262	20621
883.388	20617
883.514	20849
883.64	20788
883.766	20883
883.892	20602
884.018	20689
884.143	20864
884.269	20963
884.395	20598
884.52	20434
884.646	20473
884.772	20488
884.897	20408
885.023	20568
885.148	20492
885.274	20667
885.399	20682
885.524	20541
885.65	20511
885.775	20575
885.9	20602
886.025	20560
886.15	20568
886.275	20473
886.4	20377
886.525	20476
886.65	20484
886.775	20488
886.9	20541
887.025	20617
887.149	20511
887.274	20381
887.399	20286
887.523	20267
887.648	20218
887.773	20122
887.897	20377
888.021	20286
888.146	20298
888.27	20480
888.395	20324
888.519	20282
888.643	20267
888.767	20332
888.891	20229
889.015	20161
889.139	20100
889.263	20016
889.387	20233
889.511	20355
889.635	20240
889.759	20084
889.883	19917
890.006	20016
890.13	20259
890.254	19978
890.377	19955
890.501	19947
890.624	19814
890.748	19902
890.871	19765
890.995	19628
891.118	19632
891.241	19712
891.364	19738
891.488	19814
891.611	19677
891.734	19639
891.857	19685
891.98	19700
892.103	19681
892.226	19761
892.349	19632
892.471	19571
892.594	19552
892.717	19647
892.839	19514
892.962	19620
893.085	19677
893.207	19556
893.33	19544
893.452	19590
893.575	19674
893.697	19605
893.819	19734
893.941	19887
894.064	19795
894.186	19529
894.308	19495
894.43	19727
894.552	19761
894.674	19597
894.796	19441
894.918	19586
895.04	19559
895.161	19674
895.283	19613
895.405	19533
895.526	19609
895.648	19525
895.769	19502
895.891	19567
896.012	19693
896.134	19738
896.255	19521
896.376	19609
896.498	19738
896.619	19537
896.74	19620
896.861	19609
896.982	19864
897.103	20062
897.224	19917
897.345	19700
897.466	19662
897.587	19830
897.708	19928
897.828	19833
897.949	19670
898.07	19620
898.19	19860
898.311	19993
898.431	19757
898.552	19898
898.672	19849
898.792	19795
898.913	19761
899.033	19715
899.153	19639
899.273	19457
899.393	19506
899.513	19586
899.633	19635
899.753	19468
899.873	19571
899.993	19689
900.113	19476
900.232	19624
900.352	19460
900.472	19278
900.591	19350
900.711	19537
900.83	19365
900.95	19407
901.069	19392
901.189	19308
901.308	19103
901.427	18973
901.546	18932
901.665	19076
901.784	18852
901.904	18783
902.023	18776
902.141	18646
902.26	18509
902.379	18547
902.498	18403
902.617	18441
902.735	18437
902.854	18559
902.973	18426
903.091	18148
903.21	18110
903.328	18197
903.446	18167
903.565	17889
903.683	17965
903.801	17832
903.919	18034
904.038	17942
904.156	17695
904.274	17798
904.392	17847
904.51	17722
904.627	17710
904.745	17726
904.863	17741
904.981	17474
905.098	17372
905.216	17429
905.334	17501
905.451	17379
905.569	17376
905.686	17383
905.803	17299
905.921	17242
906.038	17315
906.155	17208
906.272	17147
906.389	17094
906.506	17022
906.623	17037
906.74	16923
906.857	16858
906.974	16778
907.091	17022
907.208	17045
907.324	16908
907.441	16786
907.557	16736
907.674	16660
907.79	16538
907.907	16637
908.023	16706
908.139	16687
908.256	16531
908.372	16558
908.488	16519
908.604	16398
908.72	16360
908.836	16577
908.952	16382
909.068	16417
909.184	16523
909.3	16394
909.415	16409
909.531	16337
909.647	16044
909.762	16025
909.878	16029
909.993	16078
910.108	16032
910.224	16044
910.339	16124
910.454	15975
910.57	15956
910.685	15793
910.8	16090
910.915	16093
911.03	15926
911.145	15663
911.259	15629
911.374	15728
911.489	15675
911.604	15587
911.718	15519
911.833	15545
911.947	15389
912.062	15332
912.176	15538
912.291	15408
912.405	15519
912.519	15701
912.633	15622
912.748	15534
912.862	15443
912.976	15272
913.09	15207
913.204	15237
913.318	15321
913.431	15329
913.545	15359
913.659	15306
913.772	15165
913.886	15066
914	15127
914.113	15146
914.226	15180
914.34	15089
914.453	15039
914.566	15077
914.68	14956
914.793	14906
914.906	14758
915.019	14743
915.132	14594
915.245	14762
915.358	14613
915.47	14716
915.583	14777
915.696	14754
915.809	14712
915.921	14834
916.034	14667
916.146	14602
916.259	14564
916.371	14686
916.483	14648
916.595	14541
916.708	14598
916.82	14454
916.932	14522
917.044	14514
917.156	14492
917.268	14427
917.38	14438
917.491	14290
917.603	14400
917.715	14450
917.826	14434
917.938	14309
918.049	14278
918.161	14355
918.272	14389
918.384	14438
918.495	14271
918.606	14210
918.717	14172
918.828	14252
918.939	14138
919.05	14073
919.161	14153
919.272	13947
919.383	14024
919.494	14058
919.604	14389
919.715	14123
919.826	14024
919.936	14119
920.047	14199
920.157	14100
920.267	14263
920.378	14111
920.488	14107
920.598	14366
920.708	14412
920.818	14290
920.928	14275
921.038	14495
921.148	14362
921.258	13989
921.368	13970
921.477	13890
921.587	13826
921.697	13814
921.806	13928
921.916	13757
922.025	13624
922.134	13605
922.244	13434
922.353	13552
922.462	13430
922.571	13354
922.68	13266
922.789	13187
922.898	13244
923.007	13137
923.116	13270
923.224	13183
923.333	13152
923.442	13053
923.55	13069
923.659	13069
923.767	13133
923.876	12993
923.984	13012
924.092	12924
924.201	12966
924.309	12985
924.417	12916
924.525	12901
924.633	12924
924.741	13750
924.849	12669
924.956	12821
925.064	12642
925.172	12589
925.279	12604
925.387	12635
925.494	12593
925.602	12745
925.709	12639
925.816	12566
925.924	12498
926.031	12722
926.138	12593
926.245	12551
926.352	12471
926.459	12593
926.566	12700
926.673	12555
926.779	12372
926.886	12391
926.993	12247
927.099	12148
927.206	12133
927.312	12182
927.419	12251
927.525	12106
927.631	12243
927.737	12167
927.843	12068
927.95	12011
928.056	12015
928.162	12007
928.267	12140
928.373	12734
928.479	12022
928.585	11908
928.69	11923
928.796	12011
928.901	11965
929.007	11802
929.112	11977
929.218	11840
929.323	11828
929.428	11676
929.533	11901
929.638	11691
929.743	11737
929.848	11786
929.953	11726
930.058	11596
930.163	11497
930.267	11433
930.372	11619
930.477	11360
930.581	11581
930.685	11558
930.79	11395
930.894	11353
930.998	11250
931.103	11501
931.207	11033
931.311	11048
931.415	10965
931.519	10797
931.623	10786
