Data from test_V78500241_1145.txt Node
Date: Fri Mar 25 15:17:49 CST 2022
User: usil
Spectrometer: V785-0024
Trigger mode: 0
Integration Time (sec): 4.000000E-1
Scans to average: 1
Nonlinearity correction enabled: false
Boxcar width: 0
Storing dark spectrum: false
XAxis mode: Wavelengths
Number of Pixels in Spectrum: 1024
>>>>>Begin Spectral Data<<<<<
801.071	28158
801.214	28070
801.356	27831
801.499	27800
801.641	27629
801.783	27587
801.926	27610
802.068	27656
802.211	27553
802.353	27538
802.496	27355
802.638	27245
802.78	27211
802.923	27302
803.065	27241
803.208	27294
803.35	27310
803.492	27412
803.635	27485
803.777	27218
803.919	27599
804.061	27869
804.204	27538
804.346	27515
804.488	27386
804.63	27473
804.773	27454
804.915	27515
805.057	27656
805.199	27587
805.341	27644
805.483	27663
805.626	27614
805.768	27500
805.91	27663
806.052	27625
806.194	27549
806.336	27793
806.478	27675
806.62	27625
806.762	27831
806.904	28021
807.046	28166
807.188	28177
807.33	28013
807.472	28097
807.614	28105
807.756	28154
807.898	27975
808.04	27842
808.182	27987
808.324	28002
808.465	28010
808.607	28124
808.749	28310
808.891	28371
809.033	28447
809.174	28413
809.316	28379
809.458	28082
809.6	28246
809.741	28417
809.883	28432
810.025	28531
810.166	28592
810.308	28683
810.45	28481
810.591	28436
810.733	28310
810.875	28238
811.016	28177
811.158	28200
811.299	28318
811.441	28417
811.582	28401
811.724	28344
811.865	28166
812.007	28276
812.148	28329
812.29	28447
812.431	28512
812.573	28637
812.714	28664
812.855	28748
812.997	28797
813.138	29067
813.279	29064
813.421	28896
813.562	28866
813.703	28706
813.845	28455
813.986	28310
814.127	28112
814.268	28051
814.41	28017
814.551	27945
814.692	27998
814.833	27895
814.974	27979
815.115	27979
815.256	27914
815.397	27964
815.539	27884
815.68	27907
815.821	27717
815.962	27831
816.103	27804
816.244	27781
816.385	27591
816.526	27553
816.666	27439
816.807	27237
816.948	27329
817.089	27237
817.23	27317
817.371	27393
817.512	27252
817.653	27218
817.793	27233
817.934	27291
818.075	27401
818.216	27405
818.356	27237
818.497	27195
818.638	27039
818.778	27184
818.919	26998
819.06	27062
819.2	27100
819.341	27260
819.481	27245
819.622	27568
819.762	27572
819.903	27553
820.043	27458
820.184	27492
820.324	27450
820.465	27431
820.605	27420
820.746	27431
820.886	27150
821.026	27294
821.167	27351
821.307	27427
821.447	27317
821.588	27344
821.728	27093
821.868	27074
822.008	26838
822.149	26807
822.289	26743
822.429	26503
822.569	26488
822.709	26575
822.849	26286
822.99	26286
823.13	26282
823.27	26073
823.41	26134
823.55	25955
823.69	26058
823.83	26092
823.97	26027
824.11	25890
824.25	26043
824.389	25860
824.529	25959
824.669	25868
824.809	26313
824.949	26111
825.089	26244
825.228	26024
825.368	25879
825.508	25906
825.648	25814
825.787	25830
825.927	25989
826.067	25761
826.206	25765
826.346	25700
826.485	25936
826.625	25712
826.765	25894
826.904	25826
827.044	25719
827.183	25594
827.323	25514
827.462	25670
827.601	25582
827.741	25552
827.88	25575
828.02	25453
828.159	25559
828.298	25556
828.437	25719
828.577	25632
828.716	25651
828.855	25639
828.994	25343
829.134	25320
829.273	25350
829.412	25285
829.551	25206
829.69	25209
829.829	25312
829.968	25396
830.107	25320
830.246	25282
830.385	25175
830.524	25209
830.663	25046
830.802	25137
830.941	24989
831.08	24928
831.219	25015
831.357	25046
831.496	25133
831.635	24981
831.774	25031
831.913	24787
832.051	24738
832.19	24650
832.329	24715
832.467	24578
832.606	24467
832.744	24616
832.883	24612
833.022	24486
833.16	24589
833.299	24601
833.437	24601
833.576	24631
833.714	24711
833.852	24658
833.991	24749
834.129	24772
834.267	24738
834.406	24559
834.544	24654
834.682	24639
834.821	24505
834.959	24825
835.097	24547
835.235	24661
835.373	24525
835.511	24601
835.65	24540
835.788	24426
835.926	24300
836.064	24273
836.202	24323
836.34	24536
836.478	24582
836.615	24490
836.753	24467
836.891	24566
837.029	24448
837.167	24422
837.305	24338
837.443	24319
837.58	24300
837.718	24407
837.856	24346
837.993	24117
838.131	24228
838.269	24190
838.406	24330
838.544	24235
838.681	24121
838.819	23980
838.956	23828
839.094	23931
839.231	23855
839.369	23927
839.506	24281
839.643	23977
839.781	23786
839.918	23714
840.055	23764
840.193	23882
840.33	23695
840.467	23726
840.604	23824
840.742	23908
840.879	23649
841.016	23493
841.153	23577
841.29	23851
841.427	23680
841.564	23729
841.701	23657
841.838	23608
841.975	23562
842.112	23543
842.249	23482
842.385	23501
842.522	23752
842.659	23570
842.796	23452
842.933	23452
843.069	23414
843.206	23421
843.343	23497
843.479	23482
843.616	23372
843.752	23185
843.889	23235
844.025	23417
844.162	23200
844.298	23235
844.435	23246
844.571	23277
844.708	23326
844.844	23436
844.98	23364
845.117	23398
845.253	23223
845.389	23155
845.525	23105
845.661	23147
845.798	22858
845.934	23044
846.07	22968
846.206	23010
846.342	23083
846.478	22949
846.614	22755
846.75	22672
846.886	22565
847.022	22812
847.158	22634
847.294	22771
847.429	22702
847.565	22664
847.701	22854
847.837	22493
847.972	22375
848.108	22443
848.244	22554
848.379	22265
848.515	22276
848.65	22322
848.786	22333
848.921	22204
849.057	22329
849.192	22386
849.328	22219
849.463	22291
849.598	22287
849.734	22147
849.869	22150
850.004	22044
850.14	22090
850.275	22116
850.41	21911
850.545	22006
850.68	22013
850.815	22124
850.95	22032
851.085	22131
851.22	22051
851.355	22109
851.49	21956
851.625	22078
851.76	22101
851.895	22002
852.03	21895
852.165	22074
852.299	22086
852.434	22192
852.569	22006
852.703	22105
852.838	22055
852.973	22029
853.107	22109
853.242	21956
853.376	21956
853.511	21781
853.645	21694
853.78	21903
853.914	21873
854.048	21854
854.183	21835
854.317	21835
854.451	22158
854.585	21759
854.72	21922
854.854	21991
854.988	21778
855.122	21873
855.256	21755
855.39	21800
855.524	21945
855.658	21835
855.792	21827
855.926	21823
856.06	21816
856.194	22036
856.327	21880
856.461	21884
856.595	21774
856.729	21884
856.862	21876
856.996	21842
857.13	21880
857.263	22097
857.397	21888
857.53	21850
857.664	21819
857.797	21865
857.931	21895
858.064	21861
858.197	21949
858.331	21876
858.464	21816
858.597	21907
858.731	21880
858.864	21774
858.997	21895
859.13	21797
859.263	21869
859.396	21895
859.529	21873
859.662	21911
859.795	21842
859.928	21994
860.061	22002
860.194	21994
860.327	21975
860.46	21781
860.592	21945
860.725	22078
860.858	21991
860.99	21816
861.123	21808
861.256	21755
861.388	21884
861.521	22561
861.653	21656
861.786	21652
861.918	21751
862.05	21759
862.183	21808
862.315	21869
862.447	21823
862.58	21743
862.712	21595
862.844	21614
862.976	21549
863.108	21599
863.24	22044
863.372	21595
863.504	21504
863.636	21637
863.768	21648
863.9	21523
864.032	21370
864.164	21549
864.296	21462
864.428	21633
864.559	21667
864.691	21622
864.823	21568
864.954	21591
865.086	21511
865.217	21469
865.349	21416
865.48	21416
865.612	21545
865.743	21553
865.875	21564
866.006	21412
866.137	21606
866.269	21435
866.4	21412
866.531	21321
866.662	21283
866.793	21283
866.924	21374
867.055	21473
867.186	21332
867.317	21298
867.448	21264
867.579	21336
867.71	21237
867.841	21252
867.972	21408
868.103	21405
868.233	21450
868.364	21287
868.495	21412
868.625	21610
868.756	21694
868.886	21667
869.017	21576
869.147	21633
869.278	21705
869.408	21572
869.539	21603
869.669	21614
869.799	21682
869.929	21679
870.06	21618
870.19	21861
870.32	21827
870.45	21975
870.58	22040
870.71	22109
870.84	22086
870.97	22021
871.1	21953
871.23	22181
871.36	22211
871.489	22135
871.619	22219
871.749	22139
871.879	22341
872.008	22341
872.138	22219
872.267	22272
872.397	22082
872.526	22006
872.656	22120
872.785	22173
872.915	22314
873.044	22325
873.173	22234
873.303	22299
873.432	22310
873.561	22398
873.69	22207
873.819	22257
873.948	22272
874.077	22253
874.206	22188
874.335	22367
874.464	22322
874.593	22451
874.722	22440
874.851	22466
874.979	22436
875.108	22577
875.237	22474
875.365	22428
875.494	22500
875.623	22508
875.751	22310
875.88	22436
876.008	22542
876.136	22618
876.265	22885
876.393	22972
876.521	22908
876.65	22881
876.778	22778
876.906	22752
877.034	22869
877.162	22919
877.29	22752
877.418	22778
877.546	22904
877.674	22782
877.802	22824
877.93	22877
878.058	22858
878.185	22626
878.313	22717
878.441	22824
878.568	22691
878.696	22710
878.824	22828
878.951	22801
879.079	22984
879.206	23121
879.333	22843
879.461	22706
879.588	22824
879.715	22930
879.842	23033
879.97	22896
880.097	22603
880.224	22660
880.351	22649
880.478	22512
880.605	22538
880.732	22660
880.859	22733
880.986	22588
881.112	22672
881.239	22474
881.366	22417
881.493	22272
881.619	22329
881.746	22090
881.872	22219
881.999	22200
882.125	22120
882.252	22101
882.378	22219
882.505	22295
882.631	22135
882.757	21930
882.883	22055
883.01	21899
883.136	21831
883.262	21705
883.388	21682
883.514	21918
883.64	21785
883.766	21804
883.892	21553
884.018	21713
884.143	21720
884.269	21800
884.395	21523
884.52	21526
884.646	21549
884.772	21458
884.897	21412
885.023	21412
885.148	21637
885.274	21637
885.399	21633
885.524	21530
885.65	21564
885.775	21530
885.9	21606
886.025	21679
886.15	21618
886.275	21477
886.4	21450
886.525	21564
886.65	21450
886.775	21420
886.9	21652
887.025	21743
887.149	21424
887.274	21378
887.399	21272
887.523	21192
887.648	21188
887.773	21249
887.897	21405
888.021	21439
888.146	21161
888.27	21393
888.395	21336
888.519	21302
888.643	21260
888.767	21378
888.891	21070
889.015	21047
889.139	21131
889.263	21005
889.387	21070
889.511	21329
889.635	21146
889.759	21047
889.883	21070
890.006	21024
890.13	21036
890.254	21013
890.377	20944
890.501	20899
890.624	20792
890.748	20899
890.871	20731
890.995	20674
891.118	20598
891.241	20667
891.364	20568
891.488	20868
891.611	20644
891.734	20655
891.857	20636
891.98	20617
892.103	20701
892.226	20697
892.349	20499
892.471	20469
892.594	20514
892.717	20495
892.839	20575
892.962	20484
893.085	20552
893.207	20625
893.33	20396
893.452	20476
893.575	20541
893.697	20537
893.819	20568
893.941	20743
894.064	20819
894.186	20438
894.308	20476
894.43	20571
894.552	20697
894.674	20617
894.796	20381
894.918	20412
895.04	20537
895.161	20522
895.283	20537
895.405	20400
895.526	20469
895.648	20514
895.769	20446
895.891	20541
896.012	20545
896.134	20484
896.255	20442
896.376	20499
896.498	20461
896.619	20492
896.74	20621
896.861	20499
896.982	20933
897.103	20994
897.224	20667
897.345	20731
897.466	20735
897.587	20731
897.708	20883
897.828	20944
897.949	20613
898.07	20644
898.19	20606
898.311	20826
898.431	20712
898.552	20830
898.672	20826
898.792	20762
898.913	20735
899.033	20621
899.153	20495
899.273	20469
899.393	20412
899.513	20492
899.633	20393
899.753	20385
899.873	20442
899.993	20503
900.113	20476
900.232	20393
900.352	20415
900.472	20157
900.591	20130
900.711	20221
900.83	20122
900.95	20290
901.069	20240
901.189	20153
901.308	19860
901.427	19830
901.546	19879
901.665	19784
901.784	19742
901.904	19651
902.023	19529
902.141	19388
902.26	19377
902.379	19400
902.498	19293
902.617	19362
902.735	19411
902.854	19247
902.973	19236
903.091	18897
903.21	18882
903.328	19008
903.446	18863
903.565	18810
903.683	18719
903.801	18730
903.919	18753
904.038	18814
904.156	18616
904.274	18692
904.392	18441
904.51	18528
904.627	18551
904.745	18677
904.863	18494
904.981	18369
905.098	18213
905.216	18270
905.334	18296
905.451	18357
905.569	18125
905.686	18266
905.803	18239
905.921	18095
906.038	18117
906.155	18011
906.272	17836
906.389	17908
906.506	17748
906.623	17775
906.74	17786
906.857	17695
906.974	17604
907.091	17855
907.208	17882
907.324	17729
907.441	17714
907.557	17551
907.674	17471
907.79	17452
907.907	17429
908.023	17459
908.139	17459
908.256	17452
908.372	17356
908.488	17299
908.604	17178
908.72	17208
908.836	17231
908.952	17136
909.068	17231
909.184	17280
909.3	17239
909.415	17220
909.531	17208
909.647	16904
909.762	16972
909.878	16847
909.993	16782
910.108	16885
910.224	16828
910.339	16828
910.454	16733
910.57	16790
910.685	16634
910.8	16995
910.915	16900
911.03	16683
911.145	16561
911.259	16523
911.374	16535
911.489	16459
911.604	16424
911.718	16192
911.833	16280
911.947	16223
912.062	16063
912.176	16257
912.291	16181
912.405	16166
912.519	16386
912.633	16249
912.748	16246
912.862	16169
912.976	16063
913.09	15945
913.204	15937
913.318	16032
913.431	15979
913.545	16097
913.659	16207
913.772	15979
913.886	15797
914	15873
914.113	15945
914.226	15880
914.34	15846
914.453	15694
914.566	15915
914.68	15755
914.793	15762
914.906	15584
915.019	15389
915.132	15329
915.245	15378
915.358	15363
915.47	15431
915.583	15317
915.696	15450
915.809	15526
915.921	15450
916.034	15408
916.146	15313
916.259	15180
916.371	15447
916.483	15252
916.595	15214
916.708	15310
916.82	15226
916.932	15222
917.044	15195
917.156	15157
917.268	15108
917.38	15074
917.491	14952
917.603	15001
917.715	15138
917.826	15165
917.938	15047
918.049	14910
918.161	14994
918.272	15157
918.384	15245
918.495	15020
918.606	14910
918.717	14819
918.828	14876
918.939	14800
919.05	14754
919.161	14785
919.272	14610
919.383	14686
919.494	14891
919.604	14914
919.715	14746
919.826	14743
919.936	14750
920.047	14857
920.157	14811
920.267	14990
920.378	14819
920.488	14788
920.598	14971
920.708	15165
920.818	14830
920.928	14861
921.038	15169
921.148	14982
921.258	14731
921.368	14587
921.477	14480
921.587	14541
921.697	14446
921.806	14446
921.916	14324
922.025	14214
922.134	14054
922.244	14123
922.353	14164
922.462	14065
922.571	13951
922.68	13936
922.789	13742
922.898	13761
923.007	13750
923.116	13822
923.224	13818
923.333	13822
923.442	13696
923.55	13605
923.659	13643
923.767	13632
923.876	13518
923.984	13578
924.092	13506
924.201	13449
924.309	13533
924.417	13449
924.525	13426
924.633	13392
924.741	14294
924.849	13171
924.956	13373
925.064	13244
925.172	13190
925.279	13183
925.387	13221
925.494	13088
925.602	13270
925.709	13240
925.816	13000
925.924	13206
926.031	13217
926.138	13072
926.245	13160
926.352	13027
926.459	13259
926.566	13122
926.673	13061
926.779	13023
926.886	12897
926.993	12806
927.099	12806
927.206	12688
927.312	12711
927.419	12745
927.525	12692
927.631	12753
927.737	12677
927.843	12669
927.95	12486
928.056	12490
928.162	12566
928.267	12536
928.373	13175
928.479	12635
928.585	12311
928.69	12456
928.796	12544
928.901	12467
929.007	12289
929.112	12422
929.218	12357
929.323	12281
929.428	12289
929.533	12399
929.638	12235
929.743	12148
929.848	12228
929.953	12232
930.058	12110
930.163	12011
930.267	11958
930.372	12144
930.477	11878
930.581	12114
930.685	11973
930.79	11889
930.894	11847
930.998	11805
931.103	11882
931.207	11589
931.311	11520
931.415	11402
931.519	11223
931.623	11201
