Data from test_V78500241_2261.txt Node
Date: Fri Mar 25 15:25:36 CST 2022
User: usil
Spectrometer: V785-0024
Trigger mode: 0
Integration Time (sec): 4.000000E-1
Scans to average: 1
Nonlinearity correction enabled: false
Boxcar width: 0
Storing dark spectrum: false
XAxis mode: Wavelengths
Number of Pixels in Spectrum: 1024
>>>>>Begin Spectral Data<<<<<
801.071	27774
801.214	27557
801.356	27427
801.499	27386
801.641	27085
801.783	27055
801.926	27142
802.068	27233
802.211	27100
802.353	27032
802.496	26902
802.638	26804
802.78	26712
802.923	26678
803.065	26845
803.208	26727
803.35	26800
803.492	26975
803.635	27108
803.777	26975
803.919	26861
804.061	27298
804.204	27070
804.346	26887
804.488	26975
804.63	27062
804.773	26849
804.915	27085
805.057	27077
805.199	27024
805.341	27032
805.483	27195
805.626	27081
805.768	27070
805.91	27165
806.052	27077
806.194	27188
806.336	27112
806.478	27195
806.62	27096
806.762	27203
806.904	27469
807.046	27599
807.188	27561
807.33	27610
807.472	27686
807.614	27580
807.756	27580
807.898	27340
808.04	27447
808.182	27504
808.324	27393
808.465	27431
808.607	27694
808.749	27629
808.891	27884
809.033	27899
809.174	27892
809.316	27823
809.458	27648
809.6	27671
809.741	27998
809.883	27956
810.025	28048
810.166	28063
810.308	28135
810.45	27937
810.591	27941
810.733	27816
810.875	27625
811.016	27466
811.158	27724
811.299	27846
811.441	27823
811.582	27945
811.724	27717
811.865	27751
812.007	27861
812.148	27781
812.29	27838
812.431	27892
812.573	28093
812.714	28204
812.855	28287
812.997	28394
813.138	28497
813.279	28440
813.421	28211
813.562	28253
813.703	28093
813.845	27903
813.986	27606
814.127	27610
814.268	27397
814.41	27500
814.551	27488
814.692	27534
814.833	27329
814.974	27344
815.115	27511
815.256	27279
815.397	27249
815.539	27302
815.68	27313
815.821	27222
815.962	27245
816.103	27142
816.244	27249
816.385	27055
816.526	27017
816.666	26830
816.807	26712
816.948	26781
817.089	26849
817.23	26819
817.371	26533
817.512	26682
817.653	26644
817.793	26670
817.934	26655
818.075	26708
818.216	26724
818.356	26636
818.497	26594
818.638	26423
818.778	26473
818.919	26400
819.06	26511
819.2	26651
819.341	26636
819.481	26606
819.622	26796
819.762	26982
819.903	26857
820.043	26743
820.184	26773
820.324	26765
820.465	26849
820.605	26834
820.746	26640
820.886	26602
821.026	26708
821.167	26762
821.307	26663
821.447	26552
821.588	26644
821.728	26408
821.868	26377
822.008	26149
822.149	26119
822.289	26043
822.429	26054
822.569	25833
822.709	25860
822.849	25647
822.99	25689
823.13	25544
823.27	25567
823.41	25601
823.55	25415
823.69	25411
823.83	25616
823.97	25373
824.11	25213
824.25	25133
824.389	25282
824.529	25369
824.669	25434
824.809	25403
824.949	25445
825.089	25419
825.228	25263
825.368	25091
825.508	25232
825.648	25133
825.787	25282
825.927	25308
826.067	25023
826.206	25110
826.346	25274
826.485	25293
826.625	25050
826.765	25285
826.904	25095
827.044	24943
827.183	24935
827.323	24878
827.462	24840
827.601	24909
827.741	24890
827.88	24947
828.02	24631
828.159	24802
828.298	24867
828.437	24913
828.577	24795
828.716	24890
828.855	24802
828.994	24486
829.134	24620
829.273	24635
829.412	24448
829.551	24467
829.69	24559
829.829	24555
829.968	24612
830.107	24642
830.246	24585
830.385	24475
830.524	24555
830.663	24330
830.802	24342
830.941	23992
831.08	24121
831.219	24232
831.357	24220
831.496	24418
831.635	24125
831.774	23954
831.913	24053
832.051	24003
832.19	23832
832.329	23961
832.467	23859
832.606	23733
832.744	23802
832.883	23863
833.022	23832
833.16	23992
833.299	23901
833.437	23870
833.576	23828
833.714	23889
833.852	23809
833.991	23984
834.129	23984
834.267	23996
834.406	23969
834.544	23878
834.682	23828
834.821	23897
834.959	23939
835.097	23836
835.235	23984
835.373	23882
835.511	23840
835.65	23737
835.788	23665
835.926	23543
836.064	23520
836.202	23657
836.34	23710
836.478	23870
836.615	23779
836.753	23741
836.891	23809
837.029	23687
837.167	23676
837.305	23600
837.443	23653
837.58	23535
837.718	23547
837.856	23596
837.993	23512
838.131	23497
838.269	23509
838.406	23452
838.544	23315
838.681	23277
838.819	23193
838.956	23079
839.094	23090
839.231	23064
839.369	23239
839.506	23482
839.643	23349
839.781	22991
839.918	22949
840.055	23105
840.193	23064
840.33	22961
840.467	22900
840.604	22961
840.742	23208
840.879	22843
841.016	22991
841.153	22976
841.29	23025
841.427	22968
841.564	22885
841.701	22946
841.838	22843
841.975	22850
842.112	22877
842.249	22797
842.385	22645
842.522	23025
842.659	22797
842.796	22687
842.933	22748
843.069	22717
843.206	22759
843.343	22736
843.479	22759
843.616	22774
843.752	22447
843.889	22466
844.025	22630
844.162	22478
844.298	22592
844.435	22493
844.571	22428
844.708	22573
844.844	22683
844.98	22565
845.117	22421
845.253	22390
845.389	22424
845.525	22356
845.661	22352
845.798	22226
845.934	22284
846.07	22116
846.206	22200
846.342	22375
846.478	22154
846.614	22055
846.75	21835
846.886	21983
847.022	22086
847.158	21968
847.294	21960
847.429	21975
847.565	21960
847.701	22261
847.837	21736
847.972	21698
848.108	21873
848.244	21850
848.379	21618
848.515	21462
848.65	21587
848.786	21561
848.921	21564
849.057	21728
849.192	21641
849.328	21671
849.463	21534
849.598	21488
849.734	21401
849.869	21454
850.004	21466
850.14	21420
850.275	21283
850.41	21393
850.545	21207
850.68	21233
850.815	21397
850.95	21351
851.085	21462
851.22	21447
851.355	21264
851.49	21321
851.625	21268
851.76	21192
851.895	21089
852.03	21192
852.165	21325
852.299	21374
852.434	21332
852.569	21306
852.703	21336
852.838	21351
852.973	21416
853.107	21492
853.242	21294
853.376	21173
853.511	21051
853.645	21192
853.78	21195
853.914	21146
854.048	21165
854.183	21154
854.317	21077
854.451	21329
854.585	21066
854.72	21184
854.854	21245
854.988	20998
855.122	21112
855.256	20967
855.39	21184
855.524	21165
855.658	21195
855.792	21131
855.926	21146
856.06	21283
856.194	21127
856.327	21138
856.461	21070
856.595	21104
856.729	21119
856.862	21249
856.996	21089
857.13	21161
857.263	21192
857.397	21157
857.53	21169
857.664	21123
857.797	21195
857.931	21104
858.064	21119
858.197	21211
858.331	21135
858.464	21100
858.597	20902
858.731	21138
858.864	21104
858.997	21150
859.13	21165
859.263	21237
859.396	21169
859.529	21013
859.662	21116
859.795	21058
859.928	21165
860.061	21306
860.194	21241
860.327	21245
860.46	21123
860.592	21218
860.725	21260
860.858	21169
860.99	21116
861.123	21051
861.256	21112
861.388	21157
861.521	21838
861.653	21119
861.786	21001
861.918	20914
862.05	20998
862.183	21070
862.315	21112
862.447	21199
862.58	21074
862.712	20891
862.844	20826
862.976	20952
863.108	20880
863.24	21230
863.372	20796
863.504	20815
863.636	20902
863.768	20895
863.9	20872
864.032	20708
864.164	20849
864.296	20914
864.428	20933
864.559	20906
864.691	21043
864.823	20921
864.954	20899
865.086	20826
865.217	20746
865.349	20640
865.48	20640
865.612	20705
865.743	20887
865.875	20773
866.006	20693
866.137	20731
866.269	20750
866.4	20743
866.531	20689
866.662	20731
866.793	20720
866.924	20640
867.055	20746
867.186	20651
867.317	20667
867.448	20587
867.579	20659
867.71	20476
867.841	20579
867.972	20632
868.103	20674
868.233	20705
868.364	20724
868.495	20682
868.625	20872
868.756	20986
868.886	20880
869.017	20876
869.147	21024
869.278	21024
869.408	20914
869.539	20918
869.669	20990
869.799	20967
869.929	20948
870.06	20979
870.19	21249
870.32	21135
870.45	21192
870.58	21249
870.71	21389
870.84	21420
870.97	21192
871.1	21348
871.23	21507
871.36	21458
871.489	21359
871.619	21374
871.749	21443
871.879	21519
872.008	21610
872.138	21633
872.267	21370
872.397	21424
872.526	21214
872.656	21363
872.785	21355
872.915	21625
873.044	21538
873.173	21542
873.303	21595
873.432	21564
873.561	21732
873.69	21389
873.819	21557
873.948	21652
874.077	21469
874.206	21568
874.335	21393
874.464	21686
874.593	21709
874.722	21785
874.851	21808
874.979	21736
875.108	21797
875.237	21686
875.365	21561
875.494	21762
875.623	21819
875.751	21690
875.88	21667
876.008	21873
876.136	21979
876.265	22067
876.393	22257
876.521	22249
876.65	22280
876.778	22063
876.906	22097
877.034	22093
877.162	22135
877.29	22124
877.418	22234
877.546	22177
877.674	22112
877.802	22082
877.93	22036
878.058	21968
878.185	22029
878.313	22063
878.441	22169
878.568	21937
878.696	22070
878.824	22101
878.951	22226
879.079	22325
879.206	22360
879.333	22352
879.461	22207
879.588	22200
879.715	22226
879.842	22428
879.97	22181
880.097	22006
880.224	21774
880.351	21930
880.478	21915
880.605	21937
880.732	21812
880.859	22017
880.986	21918
881.112	21930
881.239	21778
881.366	21720
881.493	21591
881.619	21485
881.746	21477
881.872	21614
881.999	21485
882.125	21462
882.252	21485
882.378	21473
882.505	21682
882.631	21355
882.757	21306
882.883	21298
883.01	21165
883.136	21085
883.262	21138
883.388	21074
883.514	21199
883.64	21241
883.766	21252
883.892	21036
884.018	20967
884.143	21180
884.269	21180
884.395	20944
884.52	20788
884.646	20735
884.772	20800
884.897	20842
885.023	20804
885.148	20952
885.274	21062
885.399	20941
885.524	20777
885.65	20883
885.775	20845
885.9	20823
886.025	20800
886.15	20864
886.275	20785
886.4	20899
886.525	20830
886.65	20750
886.775	20811
886.9	20910
887.025	21013
887.149	20845
887.274	20659
887.399	20511
887.523	20640
887.648	20621
887.773	20549
887.897	20727
888.021	20682
888.146	20594
888.27	20727
888.395	20571
888.519	20670
888.643	20701
888.767	20651
888.891	20514
889.015	20290
889.139	20537
889.263	20446
889.387	20484
889.511	20621
889.635	20522
889.759	20423
889.883	20385
890.006	20351
890.13	20526
890.254	20298
890.377	20328
890.501	20157
890.624	20202
890.748	20267
890.871	20077
890.995	19997
891.118	19917
891.241	20031
891.364	19997
891.488	20210
891.611	20046
891.734	19997
891.857	20024
891.98	19894
892.103	20043
892.226	19936
892.349	20005
892.471	19746
892.594	19845
892.717	19978
892.839	19887
892.962	20012
893.085	19944
893.207	19894
893.33	19871
893.452	19818
893.575	19906
893.697	19932
893.819	20020
893.941	20157
894.064	20039
894.186	19871
894.308	19845
894.43	20001
894.552	19974
894.674	19967
894.796	19833
894.918	19913
895.04	19784
895.161	19845
895.283	19868
895.405	19894
895.526	19974
895.648	19925
895.769	19909
895.891	19989
896.012	19940
896.134	19887
896.255	19852
896.376	19986
896.498	19841
896.619	20077
896.74	19879
896.861	19917
896.982	20206
897.103	20328
897.224	20126
897.345	20100
897.466	20024
897.587	20092
897.708	20206
897.828	20164
897.949	20100
898.07	20024
898.19	20096
898.311	20225
898.431	20001
898.552	20069
898.672	20233
898.792	20119
898.913	20043
899.033	19959
899.153	19875
899.273	19868
899.393	19860
899.513	19864
899.633	19913
899.753	19902
899.873	19887
899.993	19818
900.113	19776
900.232	19894
900.352	19693
900.472	19814
900.591	19575
900.711	19833
900.83	19674
900.95	19719
901.069	19807
901.189	19476
901.308	19358
901.427	19266
901.546	19160
901.665	19263
901.784	19278
901.904	19145
902.023	19000
902.141	18897
902.26	18814
902.379	18825
902.498	18779
902.617	18654
902.735	18878
902.854	18757
902.973	18654
903.091	18502
903.21	18410
903.328	18391
903.446	18209
903.565	18308
903.683	18262
903.801	18205
903.919	18178
904.038	18201
904.156	17965
904.274	18121
904.392	17999
904.51	17950
904.627	17973
904.745	18026
904.863	18049
904.981	17775
905.098	17687
905.216	17661
905.334	17802
905.451	17570
905.569	17680
905.686	17737
905.803	17722
905.921	17448
906.038	17520
906.155	17665
906.272	17349
906.389	17330
906.506	17181
906.623	17242
906.74	17303
906.857	17029
906.974	17151
907.091	17296
907.208	17372
907.324	17185
907.441	17124
907.557	16946
907.674	16923
907.79	16892
907.907	16976
908.023	17003
908.139	16873
908.256	16835
908.372	16812
908.488	16858
908.604	16774
908.72	16664
908.836	16592
908.952	16493
909.068	16702
909.184	16687
909.3	16592
909.415	16664
909.531	16672
909.647	16360
909.762	16405
909.878	16417
909.993	16333
910.108	16226
910.224	16337
910.339	16371
910.454	16143
910.57	16128
910.685	16112
910.8	16318
910.915	16284
911.03	16188
911.145	15960
911.259	15941
911.374	15930
911.489	15915
911.604	15880
911.718	15709
911.833	15679
911.947	15584
912.062	15481
912.176	15637
912.291	15667
912.405	15728
912.519	15827
912.633	15869
912.748	15842
912.862	15797
912.976	15553
913.09	15469
913.204	15549
913.318	15420
913.431	15599
913.545	15580
913.659	15663
913.772	15382
913.886	15317
914	15466
914.113	15439
914.226	15397
914.34	15462
914.453	15249
914.566	15370
914.68	15211
914.793	15135
914.906	15024
915.019	14952
915.132	14834
915.245	14975
915.358	14948
915.47	14967
915.583	14948
915.696	14975
915.809	15043
915.921	15058
916.034	14864
916.146	14777
916.259	14743
916.371	14891
916.483	14891
916.595	14804
916.708	14823
916.82	14788
916.932	14686
917.044	14716
917.156	14648
917.268	14701
917.38	14651
917.491	14526
917.603	14533
917.715	14651
917.826	14773
917.938	14492
918.049	14396
918.161	14655
918.272	14549
918.384	14667
918.495	14530
918.606	14408
918.717	14366
918.828	14446
918.939	14408
919.05	14271
919.161	14317
919.272	14126
919.383	14138
919.494	14461
919.604	14583
919.715	14389
919.826	14199
919.936	14339
920.047	14404
920.157	14347
920.267	14514
920.378	14320
920.488	14240
920.598	14537
920.708	14659
920.818	14476
920.928	14465
921.038	14598
921.148	14571
921.258	14351
921.368	14115
921.477	14130
921.587	14046
921.697	13913
921.806	14039
921.916	13936
922.025	13727
922.134	13742
922.244	13757
922.353	13658
922.462	13636
922.571	13529
922.68	13358
922.789	13343
922.898	13388
923.007	13304
923.116	13346
923.224	13327
923.333	13282
923.442	13236
923.55	13194
923.659	13285
923.767	13339
923.876	13122
923.984	13175
924.092	13126
924.201	13110
924.309	13072
924.417	13080
924.525	12973
924.633	13145
924.741	13852
924.849	12791
924.956	12958
925.064	12878
925.172	12779
925.279	12833
925.387	12829
925.494	12764
925.602	12928
925.709	12837
925.816	12692
925.924	12730
926.031	12795
926.138	12741
926.245	12741
926.352	12631
926.459	12726
926.566	12817
926.673	12642
926.779	12642
926.886	12540
926.993	12338
927.099	12403
927.206	12353
927.312	12285
927.419	12376
927.525	12429
927.631	12395
927.737	12258
927.843	12197
927.95	12019
928.056	12197
928.162	12159
928.267	12152
928.373	12825
928.479	12258
928.585	12079
928.69	12091
928.796	12205
928.901	12053
929.007	11980
929.112	12049
929.218	12007
929.323	11897
929.428	11958
929.533	12095
929.638	11828
929.743	11847
929.848	11893
929.953	11836
930.058	11756
930.163	11680
930.267	11627
930.372	11771
930.477	11592
930.581	11729
930.685	11657
930.79	11539
930.894	11566
930.998	11482
931.103	11630
931.207	11235
931.311	11151
931.415	11113
931.519	10812
931.623	10885
