Data from test_V78500241_1610.txt Node
Date: Fri Mar 25 15:21:04 CST 2022
User: usil
Spectrometer: V785-0024
Trigger mode: 0
Integration Time (sec): 4.000000E-1
Scans to average: 1
Nonlinearity correction enabled: false
Boxcar width: 0
Storing dark spectrum: false
XAxis mode: Wavelengths
Number of Pixels in Spectrum: 1024
>>>>>Begin Spectral Data<<<<<
801.071	27747
801.214	27648
801.356	27454
801.499	27481
801.641	27351
801.783	27283
801.926	27230
802.068	27321
802.211	27176
802.353	27195
802.496	27005
802.638	26982
802.78	26830
802.923	26811
803.065	26960
803.208	26838
803.35	26937
803.492	27047
803.635	27074
803.777	26914
803.919	27108
804.061	27431
804.204	27127
804.346	27249
804.488	27047
804.63	27138
804.773	27036
804.915	27066
805.057	27127
805.199	26845
805.341	27169
805.483	27230
805.626	27192
805.768	27165
805.91	27070
806.052	27180
806.194	27203
806.336	27408
806.478	27233
806.62	27241
806.762	27306
806.904	27492
807.046	27671
807.188	27561
807.33	27751
807.472	27743
807.614	27614
807.756	27545
807.898	27549
808.04	27534
808.182	27458
808.324	27500
808.465	27561
808.607	27682
808.749	27671
808.891	27857
809.033	27949
809.174	28006
809.316	27720
809.458	27751
809.6	27759
809.741	27941
809.883	27991
810.025	28044
810.166	28116
810.308	28093
810.45	27960
810.591	28166
810.733	27914
810.875	27831
811.016	27785
811.158	27701
811.299	27911
811.441	27892
811.582	27857
811.724	27895
811.865	27766
812.007	27709
812.148	27850
812.29	27930
812.431	28143
812.573	28124
812.714	28314
812.855	28242
812.997	28550
813.138	28577
813.279	28493
813.421	28299
813.562	28398
813.703	28196
813.845	28177
813.986	27873
814.127	27580
814.268	27519
814.41	27507
814.551	27488
814.692	27572
814.833	27443
814.974	27519
815.115	27435
815.256	27329
815.397	27488
815.539	27355
815.68	27310
815.821	27272
815.962	27302
816.103	27439
816.244	27214
816.385	27055
816.526	27100
816.666	26868
816.807	26857
816.948	26948
817.089	26826
817.23	26899
817.371	26796
817.512	26842
817.653	26731
817.793	26575
817.934	26682
818.075	26800
818.216	26743
818.356	26682
818.497	26579
818.638	26484
818.778	26556
818.919	26488
819.06	26522
819.2	26667
819.341	26648
819.481	26746
819.622	26937
819.762	27070
819.903	27013
820.043	26944
820.184	26994
820.324	26807
820.465	27005
820.605	26800
820.746	26864
820.886	26769
821.026	26902
821.167	26845
821.307	26925
821.447	26819
821.588	26720
821.728	26613
821.868	26438
822.008	26259
822.149	26221
822.289	26240
822.429	26008
822.569	26020
822.709	25826
822.849	25871
822.99	25803
823.13	25795
823.27	25613
823.41	25616
823.55	25373
823.69	25674
823.83	25537
823.97	25575
824.11	25331
824.25	25278
824.389	25441
824.529	25312
824.669	25362
824.809	25502
824.949	25426
825.089	25582
825.228	25457
825.368	25324
825.508	25335
825.648	25304
825.787	25255
825.927	25266
826.067	25259
826.206	25320
826.346	25400
826.485	25320
826.625	25266
826.765	25362
826.904	25285
827.044	25000
827.183	25145
827.323	25061
827.462	25027
827.601	24970
827.741	25000
827.88	24882
828.02	24768
828.159	24962
828.298	25034
828.437	24996
828.577	24890
828.716	25107
828.855	24901
828.994	24623
829.134	24741
829.273	24639
829.412	24700
829.551	24574
829.69	24726
829.829	24757
829.968	24772
830.107	24764
830.246	24681
830.385	24612
830.524	24597
830.663	24437
830.802	24350
830.941	24213
831.08	24247
831.219	24422
831.357	24384
831.496	24521
831.635	24372
831.774	24159
831.913	24232
832.051	24125
832.19	24079
832.329	24148
832.467	24030
832.606	23866
832.744	23999
832.883	23946
833.022	24030
833.16	23973
833.299	24026
833.437	23996
833.576	24068
833.714	24064
833.852	24083
833.991	23973
834.129	24041
834.267	24068
834.406	23999
834.544	24083
834.682	24049
834.821	24030
834.959	24163
835.097	23969
835.235	24106
835.373	23973
835.511	24018
835.65	23946
835.788	23992
835.926	23638
836.064	23745
836.202	23554
836.34	23942
836.478	23969
836.615	23771
836.753	23889
836.891	23961
837.029	23889
837.167	23942
837.305	23840
837.443	23680
837.58	23714
837.718	23733
837.856	23729
837.993	23695
838.131	23737
838.269	23710
838.406	23764
838.544	23558
838.681	23379
838.819	23356
838.956	23155
839.094	23235
839.231	23204
839.369	23292
839.506	23592
839.643	23524
839.781	23155
839.918	23162
840.055	23330
840.193	23178
840.33	23136
840.467	23132
840.604	23170
840.742	23486
840.879	22881
841.016	23109
841.153	23014
841.29	23231
841.427	23132
841.564	23193
841.701	23155
841.838	23121
841.975	22972
842.112	23006
842.249	22858
842.385	22923
842.522	22961
842.659	22946
842.796	22854
842.933	22869
843.069	22908
843.206	22843
843.343	22938
843.479	22778
843.616	22900
843.752	22637
843.889	22603
844.025	22767
844.162	22786
844.298	22721
844.435	22607
844.571	22500
844.708	22683
844.844	22869
844.98	22858
845.117	22733
845.253	22535
845.389	22527
845.525	22634
845.661	22516
845.798	22394
845.934	22382
846.07	22382
846.206	22314
846.342	22485
846.478	22500
846.614	22226
846.75	22055
846.886	22230
847.022	22162
847.158	22192
847.294	22166
847.429	22078
847.565	22017
847.701	22363
847.837	21892
847.972	21743
848.108	22048
848.244	21922
848.379	21850
848.515	21724
848.65	21629
848.786	21732
848.921	21785
849.057	21705
849.192	21698
849.328	21622
849.463	21743
849.598	21644
849.734	21610
849.869	21564
850.004	21473
850.14	21606
850.275	21443
850.41	21435
850.545	21386
850.68	21477
850.815	21583
850.95	21492
851.085	21648
851.22	21561
851.355	21515
851.49	21389
851.625	21336
851.76	21450
851.895	21401
852.03	21469
852.165	21519
852.299	21519
852.434	21507
852.569	21507
852.703	21545
852.838	21595
852.973	21587
853.107	21530
853.242	21416
853.376	21291
853.511	21188
853.645	21256
853.78	21359
853.914	21458
854.048	21287
854.183	21443
854.317	21272
854.451	21443
854.585	21237
854.72	21329
854.854	21412
854.988	21287
855.122	21310
855.256	21203
855.39	21237
855.524	21332
855.658	21344
855.792	21291
855.926	21317
856.06	21374
856.194	21306
856.327	21264
856.461	21348
856.595	21169
856.729	21302
856.862	21336
856.996	21374
857.13	21336
857.263	21443
857.397	21378
857.53	21245
857.664	21298
857.797	21435
857.931	21367
858.064	21336
858.197	21401
858.331	21279
858.464	21252
858.597	21184
858.731	21195
858.864	21302
858.997	21165
859.13	21325
859.263	21291
859.396	21287
859.529	21249
859.662	21237
859.795	21302
859.928	21370
860.061	21397
860.194	21492
860.327	21176
860.46	21287
860.592	21428
860.725	21424
860.858	21370
860.99	21222
861.123	21264
861.256	21207
861.388	21272
861.521	21907
861.653	21176
861.786	21150
861.918	21096
862.05	21077
862.183	21230
862.315	21291
862.447	21310
862.58	21195
862.712	21093
862.844	21043
862.976	21074
863.108	21051
863.24	21351
863.372	20914
863.504	21104
863.636	20994
863.768	21116
863.9	21020
864.032	20853
864.164	20937
864.296	21066
864.428	21001
864.559	21017
864.691	21081
864.823	20960
864.954	21013
865.086	20971
865.217	20868
865.349	20902
865.48	20880
865.612	20971
865.743	20994
865.875	20963
866.006	20777
866.137	20883
866.269	20910
866.4	20876
866.531	20796
866.662	20724
866.793	20853
866.924	20826
867.055	20670
867.186	20868
867.317	20785
867.448	20807
867.579	20876
867.71	20785
867.841	20651
867.972	20785
868.103	20788
868.233	20891
868.364	20880
868.495	20754
868.625	21043
868.756	21119
868.886	20971
869.017	21001
869.147	21169
869.278	21085
869.408	21142
869.539	21138
869.669	21188
869.799	21096
869.929	21287
870.06	21131
870.19	21313
870.32	21450
870.45	21310
870.58	21450
870.71	21686
870.84	21660
870.97	21542
871.1	21492
871.23	21488
871.36	21625
871.489	21507
871.619	21610
871.749	21599
871.879	21568
872.008	21808
872.138	21667
872.267	21641
872.397	21496
872.526	21572
872.656	21561
872.785	21454
872.915	21656
873.044	21728
873.173	21698
873.303	21694
873.432	21892
873.561	21816
873.69	21686
873.819	21633
873.948	21819
874.077	21660
874.206	21694
874.335	21679
874.464	21736
874.593	21884
874.722	21850
874.851	21934
874.979	21922
875.108	21869
875.237	21915
875.365	21835
875.494	21937
875.623	21922
875.751	21869
875.88	21956
876.008	22074
876.136	22177
876.265	22341
876.393	22440
876.521	22356
876.65	22390
876.778	22200
876.906	22246
877.034	22318
877.162	22223
877.29	22158
877.418	22219
877.546	22265
877.674	22215
877.802	22276
877.93	22207
878.058	22272
878.185	22124
878.313	22291
878.441	22257
878.568	22101
878.696	22234
878.824	22280
878.951	22204
879.079	22409
879.206	22622
879.333	22573
879.461	22325
879.588	22329
879.715	22405
879.842	22603
879.97	22306
880.097	22078
880.224	22116
880.351	22147
880.478	22154
880.605	21983
880.732	22040
880.859	22261
880.986	22032
881.112	22074
881.239	21926
881.366	21857
881.493	21789
881.619	21564
881.746	21656
881.872	21728
881.999	21656
882.125	21663
882.252	21705
882.378	21530
882.505	21717
882.631	21576
882.757	21370
882.883	21386
883.01	21317
883.136	21321
883.262	21233
883.388	21283
883.514	21397
883.64	21416
883.766	21146
883.892	21135
884.018	21119
884.143	21340
884.269	21340
884.395	21157
884.52	21055
884.646	21093
884.772	20948
884.897	20952
885.023	21066
885.148	21146
885.274	21176
885.399	21066
885.524	21009
885.65	20910
885.775	21013
885.9	20986
886.025	21036
886.15	20979
886.275	21089
886.4	20853
886.525	21039
886.65	20868
886.775	20819
886.9	21024
887.025	21173
887.149	21066
887.274	20849
887.399	20708
887.523	20773
887.648	20667
887.773	20621
887.897	20769
888.021	20674
888.146	20750
888.27	20849
888.395	20899
888.519	20845
888.643	20769
888.767	20800
888.891	20670
889.015	20667
889.139	20598
889.263	20590
889.387	20651
889.511	20697
889.635	20682
889.759	20609
889.883	20556
890.006	20670
890.13	20606
890.254	20301
890.377	20393
890.501	20374
890.624	20259
890.748	20298
890.871	20183
890.995	20145
891.118	20111
891.241	20062
891.364	20195
891.488	20229
891.611	20218
891.734	20145
891.857	20195
891.98	19989
892.103	20073
892.226	20096
892.349	20058
892.471	19894
892.594	20027
892.717	20008
892.839	20020
892.962	20081
893.085	20046
893.207	20111
893.33	19963
893.452	20100
893.575	20092
893.697	20020
893.819	20218
893.941	20134
894.064	20168
894.186	20005
894.308	19890
894.43	20107
894.552	20115
894.674	20107
894.796	20027
894.918	20043
895.04	20001
895.161	20161
895.283	20084
895.405	19955
895.526	20115
895.648	19967
895.769	20020
895.891	19917
896.012	20157
896.134	20043
896.255	20107
896.376	20020
896.498	19982
896.619	20008
896.74	20176
896.861	20043
896.982	20347
897.103	20484
897.224	20301
897.345	20259
897.466	20092
897.587	20263
897.708	20362
897.828	20343
897.949	20202
898.07	19970
898.19	20199
898.311	20317
898.431	20229
898.552	20240
898.672	20313
898.792	20301
898.913	20259
899.033	20153
899.153	19967
899.273	20073
899.393	19955
899.513	20031
899.633	19997
899.753	20001
899.873	19993
899.993	19997
900.113	19967
900.232	19928
900.352	19982
900.472	19807
900.591	19814
900.711	19841
900.83	19655
900.95	19989
901.069	19864
901.189	19708
901.308	19483
901.427	19293
901.546	19304
901.665	19422
901.784	19320
901.904	19190
902.023	19118
902.141	18943
902.26	18973
902.379	19004
902.498	18928
902.617	19019
902.735	18897
902.854	18783
902.973	18715
903.091	18631
903.21	18517
903.328	18563
903.446	18521
903.565	18403
903.683	18441
903.801	18197
903.919	18213
904.038	18190
904.156	18095
904.274	18251
904.392	18121
904.51	18076
904.627	18171
904.745	18197
904.863	18186
904.981	17904
905.098	17832
905.216	17870
905.334	17802
905.451	17752
905.569	17790
905.686	17824
905.803	17779
905.921	17627
906.038	17714
906.155	17642
906.272	17440
906.389	17528
906.506	17318
906.623	17379
906.74	17368
906.857	17258
906.974	17242
907.091	17349
907.208	17368
907.324	17311
907.441	17185
907.557	17056
907.674	17014
907.79	17071
907.907	17064
908.023	17029
908.139	17083
908.256	16927
908.372	16923
908.488	16835
908.604	16774
908.72	16759
908.836	16725
908.952	16828
909.068	16774
909.184	16809
909.3	16744
909.415	16847
909.531	16755
909.647	16527
909.762	16546
909.878	16489
909.993	16470
910.108	16421
910.224	16519
910.339	16394
910.454	16242
910.57	16360
910.685	16223
910.8	16447
910.915	16413
911.03	16265
911.145	16162
911.259	16071
911.374	16063
911.489	16006
911.604	15994
911.718	15899
911.833	15781
911.947	15648
912.062	15576
912.176	15880
912.291	15793
912.405	15865
912.519	16063
912.633	16040
912.748	15907
912.862	15892
912.976	15606
913.09	15469
913.204	15675
913.318	15709
913.431	15701
913.545	15644
913.659	15736
913.772	15534
913.886	15496
914	15405
914.113	15519
914.226	15526
914.34	15443
914.453	15310
914.566	15568
914.68	15329
914.793	15245
914.906	15203
915.019	14956
915.132	15032
915.245	15047
915.358	15104
915.47	15131
915.583	15028
915.696	15123
915.809	15226
915.921	15199
916.034	14914
916.146	14956
916.259	14872
916.371	14956
916.483	15020
916.595	14887
916.708	14925
916.82	14842
916.932	14838
917.044	14735
917.156	14811
917.268	14655
917.38	14678
917.491	14712
917.603	14659
917.715	14769
917.826	14785
917.938	14644
918.049	14438
918.161	14648
918.272	14807
918.384	14811
918.495	14667
918.606	14492
918.717	14362
918.828	14514
918.939	14423
919.05	14385
919.161	14434
919.272	14298
919.383	14377
919.494	14469
919.604	14670
919.715	14377
919.826	14282
919.936	14374
920.047	14480
920.157	14438
920.267	14625
920.378	14431
920.488	14358
920.598	14587
920.708	14731
920.818	14511
920.928	14499
921.038	14678
921.148	14598
921.258	14404
921.368	14275
921.477	14195
921.587	14103
921.697	14043
921.806	14176
921.916	13928
922.025	13875
922.134	13807
922.244	13734
922.353	13856
922.462	13715
922.571	13689
922.68	13480
922.789	13403
922.898	13480
923.007	13350
923.116	13472
923.224	13419
923.333	13362
923.442	13240
923.55	13320
923.659	13324
923.767	13289
923.876	13221
923.984	13236
924.092	13164
924.201	13160
924.309	13145
924.417	13122
924.525	13110
924.633	13103
924.741	14016
924.849	12897
924.956	12954
925.064	12886
925.172	12734
925.279	12806
925.387	12882
925.494	12924
925.602	12993
925.709	12897
925.816	12795
925.924	12913
926.031	12962
926.138	12821
926.245	12817
926.352	12684
926.459	12734
926.566	12890
926.673	12692
926.779	12654
926.886	12582
926.993	12418
927.099	12437
927.206	12433
927.312	12353
927.419	12433
927.525	12483
927.631	12460
927.737	12327
927.843	12346
927.95	12152
928.056	12239
928.162	12308
928.267	12380
928.373	12954
928.479	12327
928.585	12117
928.69	12247
928.796	12205
928.901	12152
929.007	11950
929.112	12087
929.218	12091
929.323	12041
929.428	11920
929.533	12053
929.638	11920
929.743	11916
929.848	12049
929.953	11992
930.058	11783
930.163	11668
930.267	11665
930.372	11760
930.477	11653
930.581	11847
930.685	11748
930.79	11627
930.894	11604
930.998	11509
931.103	11718
931.207	11322
931.311	11269
931.415	11193
931.519	11006
931.623	10968
