Data from test_V78500241_13.txt Node
Date: Fri Mar 25 15:09:57 CST 2022
User: usil
Spectrometer: V785-0024
Trigger mode: 0
Integration Time (sec): 4.000000E-1
Scans to average: 1
Nonlinearity correction enabled: false
Boxcar width: 0
Storing dark spectrum: false
XAxis mode: Wavelengths
Number of Pixels in Spectrum: 1024
>>>>>Begin Spectral Data<<<<<
801.071	27633
801.214	27686
801.356	27469
801.499	27317
801.641	27066
801.783	27184
801.926	27214
802.068	27233
802.211	27024
802.353	27013
802.496	26861
802.638	26716
802.78	26686
802.923	26823
803.065	26735
803.208	26705
803.35	26796
803.492	26823
803.635	26883
803.777	26746
803.919	26937
804.061	27207
804.204	26754
804.346	26849
804.488	26613
804.63	26735
804.773	26678
804.915	26697
805.057	26899
805.199	26705
805.341	26819
805.483	26899
805.626	26880
805.768	26743
805.91	26963
806.052	26861
806.194	26716
806.336	27039
806.478	26864
806.62	26842
806.762	26967
806.904	26994
807.046	27131
807.188	27146
807.33	27024
807.472	27256
807.614	27123
807.756	27123
807.898	26925
808.04	26887
808.182	26864
808.324	26834
808.465	26883
808.607	27020
808.749	27142
808.891	27306
809.033	27420
809.174	27355
809.316	27184
809.458	27298
809.6	27146
809.741	27317
809.883	27249
810.025	27492
810.166	27427
810.308	27458
810.45	27401
810.591	27237
810.733	27184
810.875	27123
811.016	26944
811.158	27001
811.299	27218
811.441	27226
811.582	27058
811.724	27154
811.865	27108
812.007	27058
812.148	27127
812.29	27112
812.431	27306
812.573	27431
812.714	27439
812.855	27648
812.997	27751
813.138	27846
813.279	27633
813.421	27675
813.562	27572
813.703	27359
813.845	27180
813.986	27024
814.127	26773
814.268	26655
814.41	26670
814.551	26773
814.692	26804
814.833	26545
814.974	26617
815.115	26560
815.256	26465
815.397	26457
815.539	26636
815.68	26377
815.821	26427
815.962	26461
816.103	26298
816.244	26058
816.385	26050
816.526	26069
816.666	25780
816.807	25807
816.948	25841
817.089	25845
817.23	25940
817.371	25681
817.512	25670
817.653	25742
817.793	25757
817.934	25849
818.075	25693
818.216	25811
818.356	25643
818.497	25594
818.638	25403
818.778	25362
818.919	25400
819.06	25556
819.2	25521
819.341	25708
819.481	25681
819.622	25788
819.762	25928
819.903	25864
820.043	25788
820.184	25696
820.324	25666
820.465	25776
820.605	25750
820.746	25643
820.886	25544
821.026	25571
821.167	25586
821.307	25742
821.447	25533
821.588	25533
821.728	25426
821.868	25251
822.008	25232
822.149	25057
822.289	24973
822.429	24840
822.569	24753
822.709	24646
822.849	24612
822.99	24585
823.13	24681
823.27	24418
823.41	24315
823.55	24285
823.69	24407
823.83	24289
823.97	24152
824.11	24213
824.25	23984
824.389	24053
824.529	24220
824.669	24136
824.809	24228
824.949	24121
825.089	24201
825.228	23961
825.368	23851
825.508	23859
825.648	23931
825.787	23969
825.927	23893
826.067	23836
826.206	23805
826.346	24022
826.485	23912
826.625	23870
826.765	24053
826.904	23824
827.044	23585
827.183	23657
827.323	23433
827.462	23649
827.601	23531
827.741	23368
827.88	23356
828.02	23421
828.159	23444
828.298	23501
828.437	23619
828.577	23657
828.716	23512
828.855	23516
828.994	23239
829.134	23227
829.273	23284
829.412	23083
829.551	23113
829.69	23330
829.829	23121
829.968	23296
830.107	23261
830.246	23124
830.385	23075
830.524	23159
830.663	22885
830.802	22828
830.941	22767
831.08	22748
831.219	22877
831.357	22744
831.496	22991
831.635	22706
831.774	22508
831.913	22538
832.051	22470
832.19	22428
832.329	22584
832.467	22421
832.606	22489
832.744	22363
832.883	22382
833.022	22356
833.16	22276
833.299	22428
833.437	22470
833.576	22466
833.714	22329
833.852	22382
833.991	22337
834.129	22485
834.267	22443
834.406	22367
834.544	22459
834.682	22341
834.821	22341
834.959	22519
835.097	22318
835.235	22367
835.373	22303
835.511	22280
835.65	22257
835.788	22207
835.926	22048
836.064	21987
836.202	21964
836.34	22238
836.478	22314
836.615	22135
836.753	22234
836.891	22280
837.029	22188
837.167	22166
837.305	22177
837.443	22051
837.58	22055
837.718	22078
837.856	22059
837.993	22013
838.131	22063
838.269	21884
838.406	21979
838.544	21850
838.681	21747
838.819	21690
838.956	21519
839.094	21351
839.231	21572
839.369	21641
839.506	21907
839.643	21686
839.781	21443
839.918	21329
840.055	21507
840.193	21374
840.33	21374
840.467	21386
840.604	21408
840.742	21633
840.879	21260
841.016	21310
841.153	21272
841.29	21511
841.427	21431
841.564	21359
841.701	21405
841.838	21245
841.975	21272
842.112	21131
842.249	21195
842.385	21154
842.522	21332
842.659	21074
842.796	21108
842.933	20868
843.069	20990
843.206	21062
843.343	21081
843.479	21017
843.616	21066
843.752	20883
843.889	20849
844.025	20960
844.162	20823
844.298	20880
844.435	20804
844.571	20674
844.708	20739
844.844	20921
844.98	20933
845.117	21047
845.253	20765
845.389	20686
845.525	20705
845.661	20678
845.798	20404
845.934	20568
846.07	20484
846.206	20560
846.342	20731
846.478	20469
846.614	20362
846.75	20191
846.886	20271
847.022	20218
847.158	20317
847.294	20233
847.429	20161
847.565	20244
847.701	20408
847.837	20027
847.972	19993
848.108	20103
848.244	20031
848.379	19921
848.515	19849
848.65	19738
848.786	19723
848.921	19753
849.057	19947
849.192	19894
849.328	19822
849.463	19811
849.598	19738
849.734	19681
849.869	19586
850.004	19559
850.14	19457
850.275	19556
850.41	19495
850.545	19499
850.68	19453
850.815	19544
850.95	19548
851.085	19693
851.22	19537
851.355	19529
851.49	19483
851.625	19445
851.76	19384
851.895	19415
852.03	19289
852.165	19441
852.299	19529
852.434	19533
852.569	19616
852.703	19441
852.838	19559
852.973	19670
853.107	19651
853.242	19392
853.376	19327
853.511	19202
853.645	19400
853.78	19510
853.914	19373
854.048	19236
854.183	19304
854.317	19343
854.451	19445
854.585	19400
854.72	19304
854.854	19384
854.988	19266
855.122	19213
855.256	19114
855.39	19270
855.524	19480
855.658	19365
855.792	19358
855.926	19171
856.06	19457
856.194	19293
856.327	19392
856.461	19145
856.595	19213
856.729	19324
856.862	19358
856.996	19255
857.13	19350
857.263	19308
857.397	19415
857.53	19377
857.664	19388
857.797	19365
857.931	19384
858.064	19278
858.197	19384
858.331	19263
858.464	19148
858.597	19217
858.731	19217
858.864	19263
858.997	19247
859.13	19324
859.263	19278
859.396	19358
859.529	19221
859.662	19270
859.795	19129
859.928	19232
860.061	19327
860.194	19407
860.327	19320
860.46	19236
860.592	19384
860.725	19316
860.858	19365
860.99	19141
861.123	19095
861.256	19103
861.388	19175
861.521	19776
861.653	19152
861.786	18996
861.918	19141
862.05	19225
862.183	19270
862.315	19263
862.447	19308
862.58	19164
862.712	19103
862.844	19046
862.976	18996
863.108	18924
863.24	19339
863.372	18985
863.504	18890
863.636	18958
863.768	18909
863.9	19050
864.032	18837
864.164	18852
864.296	18897
864.428	18989
864.559	19008
864.691	19027
864.823	18996
864.954	18924
865.086	18897
865.217	18829
865.349	18787
865.48	18867
865.612	18856
865.743	18962
865.875	18916
866.006	18829
866.137	18817
866.269	18916
866.4	18894
866.531	18848
866.662	18696
866.793	18783
866.924	18798
867.055	18825
867.186	18711
867.317	18715
867.448	18635
867.579	18749
867.71	18646
867.841	18700
867.972	18840
868.103	18688
868.233	18776
868.364	18802
868.495	18882
868.625	18897
868.756	19076
868.886	18958
869.017	19061
869.147	19034
869.278	19050
869.408	19046
869.539	18943
869.669	19061
869.799	18966
869.929	19225
870.06	19148
870.19	19426
870.32	19228
870.45	19373
870.58	19377
870.71	19518
870.84	19586
870.97	19480
871.1	19304
871.23	19563
871.36	19616
871.489	19445
871.619	19666
871.749	19533
871.879	19639
872.008	19761
872.138	19533
872.267	19651
872.397	19388
872.526	19350
872.656	19312
872.785	19472
872.915	19594
873.044	19780
873.173	19563
873.303	19772
873.432	19696
873.561	19658
873.69	19643
873.819	19757
873.948	19715
874.077	19594
874.206	19567
874.335	19712
874.464	19761
874.593	19913
874.722	19822
874.851	19989
874.979	19928
875.108	19959
875.237	19902
875.365	19791
875.494	19791
875.623	19894
875.751	19795
875.88	19993
876.008	20020
876.136	20130
876.265	20362
876.393	20385
876.521	20442
876.65	20377
876.778	20362
876.906	20244
877.034	20180
877.162	20309
877.29	20229
877.418	20218
877.546	20259
877.674	20134
877.802	20317
877.93	20225
878.058	20259
878.185	20202
878.313	20298
878.441	20225
878.568	20027
878.696	20164
878.824	20290
878.951	20259
879.079	20393
879.206	20625
879.333	20377
879.461	20233
879.588	20412
879.715	20419
879.842	20564
879.97	20362
880.097	20088
880.224	20084
880.351	20107
880.478	19986
880.605	20054
880.732	20092
880.859	20320
880.986	20065
881.112	20122
881.239	19932
881.366	19963
881.493	19696
881.619	19681
881.746	19780
881.872	19586
881.999	19601
882.125	19708
882.252	19780
882.378	19704
882.505	19856
882.631	19632
882.757	19502
882.883	19483
883.01	19518
883.136	19392
883.262	19407
883.388	19411
883.514	19480
883.64	19590
883.766	19320
883.892	19335
884.018	19381
884.143	19464
884.269	19563
884.395	19278
884.52	19129
884.646	19137
884.772	19084
884.897	19076
885.023	19236
885.148	19228
885.274	19244
885.399	19259
885.524	19148
885.65	19145
885.775	19126
885.9	19065
886.025	19266
886.15	19156
886.275	19126
886.4	19023
886.525	19118
886.65	19072
886.775	19057
886.9	19206
887.025	19304
887.149	19145
887.274	18970
887.399	18886
887.523	18947
887.648	18802
887.773	18802
887.897	18939
888.021	18932
888.146	18939
888.27	19027
888.395	19061
888.519	19141
888.643	18947
888.767	18932
888.891	18814
889.015	18779
889.139	18722
889.263	18757
889.387	18901
889.511	18962
889.635	18886
889.759	18776
889.883	18734
890.006	18688
890.13	18764
890.254	18627
890.377	18646
890.501	18429
890.624	18418
890.748	18544
890.871	18407
890.995	18353
891.118	18277
891.241	18376
891.364	18315
891.488	18544
891.611	18376
891.734	18201
891.857	18429
891.98	18376
892.103	18460
892.226	18319
892.349	18319
892.471	18243
892.594	18323
892.717	18277
892.839	18201
892.962	18311
893.085	18311
893.207	18308
893.33	18201
893.452	18174
893.575	18327
893.697	18243
893.819	18452
893.941	18570
894.064	18483
894.186	18186
894.308	18121
894.43	18403
894.552	18414
894.674	18403
894.796	18194
894.918	18323
895.04	18323
895.161	18365
895.283	18270
895.405	18239
895.526	18262
895.648	18327
895.769	18205
895.891	18311
896.012	18353
896.134	18308
896.255	18403
896.376	18323
896.498	18372
896.619	18403
896.74	18296
896.861	18460
896.982	18684
897.103	18837
897.224	18642
897.345	18597
897.466	18513
897.587	18741
897.708	18753
897.828	18677
897.949	18471
898.07	18532
898.19	18361
898.311	18574
898.431	18467
898.552	18525
898.672	18601
898.792	18654
898.913	18578
899.033	18353
899.153	18281
899.273	18213
899.393	18235
899.513	18277
899.633	18353
899.753	18350
899.873	18304
899.993	18388
900.113	18022
900.232	18376
900.352	18220
900.472	18125
900.591	18186
900.711	18182
900.83	18011
900.95	18186
901.069	18205
901.189	18133
901.308	17813
901.427	17707
901.546	17767
901.665	17802
901.784	17775
901.904	17649
902.023	17471
902.141	17318
902.26	17227
902.379	17368
902.498	17345
902.617	17185
902.735	17273
902.854	17288
902.973	17193
903.091	16927
903.21	16793
903.328	16904
903.446	16729
903.565	16843
903.683	16835
903.801	16542
903.919	16774
904.038	16733
904.156	16546
904.274	16645
904.392	16565
904.51	16558
904.627	16535
904.745	16569
904.863	16645
904.981	16363
905.098	16185
905.216	16238
905.334	16207
905.451	16265
905.569	16139
905.686	16188
905.803	16128
905.921	16017
906.038	16135
906.155	16040
906.272	15949
906.389	15895
906.506	15797
906.623	15785
906.74	15770
906.857	15622
906.974	15580
907.091	15762
907.208	15907
907.324	15816
907.441	15709
907.557	15454
907.674	15473
907.79	15329
907.907	15405
908.023	15389
908.139	15450
908.256	15443
908.372	15439
908.488	15329
908.604	15268
908.72	15058
908.836	15123
908.952	15154
909.068	15097
909.184	15294
909.3	15017
909.415	15173
909.531	15066
909.647	14838
909.762	14872
909.878	14849
909.993	14804
910.108	14819
910.224	14807
910.339	14891
910.454	14811
910.57	14655
910.685	14617
910.8	14952
910.915	14826
911.03	14590
911.145	14457
911.259	14560
911.374	14442
911.489	14389
911.604	14465
911.718	14244
911.833	14183
911.947	14107
912.062	14081
912.176	14191
912.291	14145
912.405	14130
912.519	14450
912.633	14343
912.748	14161
912.862	14126
912.976	13955
913.09	13860
913.204	14077
913.318	14043
913.431	14107
913.545	14126
913.659	14168
913.772	13913
913.886	13868
914	13845
914.113	13921
914.226	13986
914.34	13951
914.453	13772
914.566	13845
914.68	13742
914.793	13772
914.906	13586
915.019	13411
915.132	13476
915.245	13533
915.358	13521
915.47	13597
915.583	13540
915.696	13643
915.809	13643
915.921	13670
916.034	13396
916.146	13419
916.259	13362
916.371	13616
916.483	13533
916.595	13434
916.708	13388
916.82	13381
916.932	13327
917.044	13491
917.156	13289
917.268	13209
917.38	13251
917.491	13221
917.603	13206
917.715	13384
917.826	13441
917.938	13259
918.049	13080
918.161	13232
918.272	13331
918.384	13396
918.495	13187
918.606	13031
918.717	13019
918.828	13053
918.939	13061
919.05	12886
919.161	13133
919.272	12806
919.383	12821
919.494	13061
919.604	13251
919.715	12943
919.826	12894
919.936	12958
920.047	13019
920.157	12939
920.267	13145
920.378	12977
920.488	12962
920.598	13171
920.708	13369
920.818	13141
920.928	13065
921.038	13247
921.148	13247
921.258	12916
921.368	12882
921.477	12764
921.587	12719
921.697	12601
921.806	12738
921.916	12570
922.025	12437
922.134	12399
922.244	12407
922.353	12441
922.462	12395
922.571	12186
922.68	12163
922.789	12015
922.898	11988
923.007	12007
923.116	12175
923.224	11920
923.333	11992
923.442	11824
923.55	11920
923.659	11980
923.767	11863
923.876	11863
923.984	11912
924.092	11840
924.201	11802
924.309	11847
924.417	11855
924.525	11760
924.633	11779
924.741	12486
924.849	11539
924.956	11764
925.064	11520
925.172	11501
925.279	11558
925.387	11657
925.494	11547
925.602	11691
925.709	11661
925.816	11436
925.924	11539
926.031	11623
926.138	11596
926.245	11547
926.352	11402
926.459	11551
926.566	11615
926.673	11406
926.779	11299
926.886	11311
926.993	11227
927.099	11170
927.206	11178
927.312	11090
927.419	11242
927.525	11162
927.631	11220
927.737	11037
927.843	10976
927.95	10927
928.056	10957
928.162	11075
928.267	11056
928.373	11668
928.479	11109
928.585	10850
928.69	11003
928.796	11029
928.901	10923
929.007	10710
929.112	10877
929.218	10896
929.323	10816
929.428	10748
929.533	10934
929.638	10710
929.743	10656
929.848	10793
929.953	10733
930.058	10641
930.163	10493
930.267	10462
930.372	10535
930.477	10436
930.581	10672
930.685	10573
930.79	10310
930.894	10424
930.998	10341
931.103	10367
931.207	10109
931.311	10063
931.415	9960
931.519	9812
931.623	9819
