Data from test_V78500241_1283.txt Node
Date: Fri Mar 25 15:18:47 CST 2022
User: usil
Spectrometer: V785-0024
Trigger mode: 0
Integration Time (sec): 4.000000E-1
Scans to average: 1
Nonlinearity correction enabled: false
Boxcar width: 0
Storing dark spectrum: false
XAxis mode: Wavelengths
Number of Pixels in Spectrum: 1024
>>>>>Begin Spectral Data<<<<<
801.071	28177
801.214	28059
801.356	27888
801.499	27739
801.641	27663
801.783	27724
801.926	27603
802.068	27656
802.211	27519
802.353	27427
802.496	27420
802.638	27211
802.78	27180
802.923	27268
803.065	27207
803.208	27279
803.35	27298
803.492	27473
803.635	27447
803.777	27283
803.919	27545
804.061	27869
804.204	27553
804.346	27553
804.488	27237
804.63	27450
804.773	27435
804.915	27580
805.057	27671
805.199	27481
805.341	27549
805.483	27705
805.626	27743
805.768	27523
805.91	27610
806.052	27652
806.194	27542
806.336	27827
806.478	27785
806.62	27561
806.762	27781
806.904	27857
807.046	28147
807.188	28116
807.33	28082
807.472	28181
807.614	28048
807.756	27930
807.898	27991
808.04	27914
808.182	27903
808.324	27888
808.465	28040
808.607	28059
808.749	28303
808.891	28314
809.033	28459
809.174	28462
809.316	28272
809.458	28401
809.6	28177
809.741	28527
809.883	28481
810.025	28561
810.166	28500
810.308	28542
810.45	28344
810.591	28325
810.733	28295
810.875	28276
811.016	28249
811.158	28230
811.299	28443
811.441	28470
811.582	28314
811.724	28276
811.865	28432
812.007	28249
812.148	28329
812.29	28401
812.431	28584
812.573	28519
812.714	28698
812.855	28767
812.997	28896
813.138	28987
813.279	28888
813.421	28847
813.562	28866
813.703	28725
813.845	28470
813.986	28306
814.127	28051
814.268	28040
814.41	28055
814.551	28025
814.692	27983
814.833	27911
814.974	27941
815.115	28021
815.256	27880
815.397	27918
815.539	27937
815.68	27869
815.821	27759
815.962	27816
816.103	27808
816.244	27667
816.385	27724
816.526	27644
816.666	27420
816.807	27275
816.948	27488
817.089	27351
817.23	27431
817.371	27378
817.512	27370
817.653	27199
817.793	27268
817.934	27329
818.075	27367
818.216	27275
818.356	27184
818.497	27157
818.638	27093
818.778	27047
818.919	27119
819.06	27058
819.2	27173
819.341	27233
819.481	27363
819.622	27526
819.762	27755
819.903	27580
820.043	27500
820.184	27477
820.324	27477
820.465	27466
820.605	27454
820.746	27538
820.886	27264
821.026	27408
821.167	27344
821.307	27443
821.447	27283
821.588	27165
821.728	26994
821.868	27001
822.008	26849
822.149	26670
822.289	26792
822.429	26507
822.569	26514
822.709	26457
822.849	26267
822.99	26389
823.13	26385
823.27	26256
823.41	26134
823.55	26107
823.69	26043
823.83	26199
823.97	26157
824.11	25864
824.25	25894
824.389	26012
824.529	26008
824.669	26039
824.809	26020
824.949	26111
825.089	26012
825.228	25997
825.368	25753
825.508	25936
825.648	25822
825.787	25830
825.927	25917
826.067	25780
826.206	25772
826.346	25856
826.485	25871
826.625	25791
826.765	25780
826.904	25761
827.044	25674
827.183	25552
827.323	25639
827.462	25601
827.601	25518
827.741	25594
827.88	25544
828.02	25476
828.159	25445
828.298	25575
828.437	25590
828.577	25533
828.716	25506
828.855	25445
828.994	25282
829.134	25251
829.273	25297
829.412	25293
829.551	25141
829.69	25206
829.829	25392
829.968	25343
830.107	25266
830.246	25301
830.385	25209
830.524	25141
830.663	25088
830.802	25069
830.941	24875
831.08	24753
831.219	24939
831.357	24894
831.496	25141
831.635	24992
831.774	24852
831.913	24760
832.051	24890
832.19	24623
832.329	24745
832.467	24627
832.606	24475
832.744	24475
832.883	24467
833.022	24563
833.16	24441
833.299	24540
833.437	24597
833.576	24608
833.714	24574
833.852	24631
833.991	24688
834.129	24810
834.267	24623
834.406	24570
834.544	24650
834.682	24563
834.821	24642
834.959	24745
835.097	24650
835.235	24642
835.373	24547
835.511	24665
835.65	24517
835.788	24517
835.926	24361
836.064	24247
836.202	24464
836.34	24384
836.478	24460
836.615	24429
836.753	24448
836.891	24593
837.029	24388
837.167	24353
837.305	24399
837.443	24292
837.58	24327
837.718	24247
837.856	24311
837.993	24205
838.131	24380
838.269	24102
838.406	24163
838.544	24053
838.681	23832
838.819	23748
838.956	23691
839.094	23687
839.231	23798
839.369	23942
839.506	24102
839.643	24018
839.781	23733
839.918	23798
840.055	23756
840.193	23634
840.33	23562
840.467	23634
840.604	23745
840.742	23920
840.879	23471
841.016	23570
841.153	23444
841.29	23623
841.427	23638
841.564	23680
841.701	23775
841.838	23566
841.975	23463
842.112	23516
842.249	23471
842.385	23440
842.522	23570
842.659	23463
842.796	23379
842.933	23395
843.069	23436
843.206	23292
843.343	23345
843.479	23372
843.616	23459
843.752	23235
843.889	23204
844.025	23246
844.162	23128
844.298	23147
844.435	23193
844.571	23147
844.708	23318
844.844	23288
844.98	23181
845.117	23246
845.253	23151
845.389	23052
845.525	23048
845.661	23033
845.798	22934
845.934	22965
846.07	22858
846.206	23048
846.342	22957
846.478	22923
846.614	22573
846.75	22736
846.886	22580
847.022	22683
847.158	22664
847.294	22538
847.429	22759
847.565	22679
847.701	22946
847.837	22455
847.972	22360
848.108	22394
848.244	22394
848.379	22322
848.515	22230
848.65	22196
848.786	22131
848.921	22196
849.057	22447
849.192	22253
849.328	22325
849.463	22295
849.598	22166
849.734	22078
849.869	22010
850.004	22002
850.14	22017
850.275	22063
850.41	21903
850.545	22074
850.68	21930
850.815	22017
850.95	22013
851.085	22074
851.22	22086
851.355	21972
851.49	21972
851.625	21945
851.76	21983
851.895	21861
852.03	21816
852.165	21949
852.299	22021
852.434	22040
852.569	21964
852.703	22025
852.838	22131
852.973	22173
853.107	22063
853.242	21888
853.376	21850
853.511	21644
853.645	21766
853.78	21926
853.914	21953
854.048	21755
854.183	21747
854.317	21880
854.451	22063
854.585	21861
854.72	21816
854.854	21949
854.988	21713
855.122	21755
855.256	21622
855.39	21797
855.524	21854
855.658	21865
855.792	21880
855.926	21747
856.06	21816
856.194	21960
856.327	21766
856.461	21656
856.595	21625
856.729	21827
856.862	21812
856.996	21949
857.13	21892
857.263	21949
857.397	21850
857.53	21823
857.664	21785
857.797	21861
857.931	21812
858.064	21854
858.197	21930
858.331	21717
858.464	21755
858.597	21614
858.731	21705
858.864	21774
858.997	21690
859.13	21808
859.263	21800
859.396	21880
859.529	21797
859.662	21747
859.795	21797
859.928	21835
860.061	21975
860.194	21930
860.327	21816
860.46	21827
860.592	21869
860.725	22059
860.858	21998
860.99	21850
861.123	21781
861.256	21755
861.388	21827
861.521	22474
861.653	21648
861.786	21701
861.918	21778
862.05	21709
862.183	21717
862.315	21842
862.447	21804
862.58	21774
862.712	21382
862.844	21523
862.976	21603
863.108	21709
863.24	21960
863.372	21447
863.504	21530
863.636	21553
863.768	21603
863.9	21473
864.032	21359
864.164	21386
864.296	21561
864.428	21515
864.559	21652
864.691	21583
864.823	21545
864.954	21393
865.086	21496
865.217	21488
865.349	21272
865.48	21496
865.612	21351
865.743	21492
865.875	21428
866.006	21496
866.137	21462
866.269	21329
866.4	21367
866.531	21317
866.662	21275
866.793	21291
866.924	21416
867.055	21332
867.186	21218
867.317	21256
867.448	21336
867.579	21184
867.71	21279
867.841	21218
867.972	21359
868.103	21306
868.233	21321
868.364	21214
868.495	21317
868.625	21507
868.756	21610
868.886	21408
869.017	21515
869.147	21652
869.278	21667
869.408	21583
869.539	21629
869.669	21648
869.799	21549
869.929	21698
870.06	21701
870.19	21850
870.32	21873
870.45	21709
870.58	21960
870.71	21979
870.84	21991
870.97	21934
871.1	21949
871.23	22234
871.36	22090
871.489	22036
871.619	22238
871.749	22147
871.879	22055
872.008	22234
872.138	22158
872.267	22166
872.397	22070
872.526	21934
872.656	22070
872.785	22029
872.915	22120
873.044	22223
873.173	22223
873.303	22242
873.432	22291
873.561	22394
873.69	22265
873.819	22207
873.948	22135
874.077	22204
874.206	22086
874.335	22109
874.464	22173
874.593	22455
874.722	22360
874.851	22363
874.979	22462
875.108	22447
875.237	22344
875.365	22280
875.494	22428
875.623	22466
875.751	22489
875.88	22417
876.008	22618
876.136	22599
876.265	22904
876.393	22934
876.521	22911
876.65	22733
876.778	22778
876.906	22866
877.034	22744
877.162	22774
877.29	22812
877.418	22805
877.546	22733
877.674	22744
877.802	22675
877.93	22790
878.058	22706
878.185	22736
878.313	22599
878.441	22820
878.568	22698
878.696	22679
878.824	22615
878.951	22850
879.079	22824
879.206	23060
879.333	22812
879.461	22759
879.588	22892
879.715	22961
879.842	22972
879.97	22965
880.097	22489
880.224	22599
880.351	22596
880.478	22611
880.605	22557
880.732	22535
880.859	22797
880.986	22580
881.112	22634
881.239	22512
881.366	22215
881.493	22101
881.619	22131
881.746	22166
881.872	22105
881.999	22207
882.125	22135
882.252	22200
882.378	22166
882.505	22181
882.631	21945
882.757	21930
882.883	21991
883.01	21766
883.136	21728
883.262	21728
883.388	21698
883.514	21819
883.64	21922
883.766	21751
883.892	21549
884.018	21545
884.143	21774
884.269	21770
884.395	21629
884.52	21351
884.646	21473
884.772	21504
884.897	21416
885.023	21488
885.148	21412
885.274	21667
885.399	21663
885.524	21397
885.65	21340
885.775	21481
885.9	21424
886.025	21367
886.15	21534
886.275	21428
886.4	21283
886.525	21408
886.65	21466
886.775	21462
886.9	21488
887.025	21622
887.149	21511
887.274	21256
887.399	21184
887.523	21173
887.648	21230
887.773	21192
887.897	21321
888.021	21298
888.146	21260
888.27	21325
888.395	21367
888.519	21245
888.643	21211
888.767	21287
888.891	21013
889.015	20982
889.139	21074
889.263	21043
889.387	21138
889.511	21249
889.635	21047
889.759	20971
889.883	20880
890.006	21119
890.13	21039
890.254	20895
890.377	20891
890.501	20918
890.624	20743
890.748	20788
890.871	20724
890.995	20549
891.118	20590
891.241	20663
891.364	20598
891.488	20762
891.611	20613
891.734	20583
891.857	20480
891.98	20530
892.103	20735
892.226	20621
892.349	20492
892.471	20476
892.594	20511
892.717	20431
892.839	20400
892.962	20552
893.085	20590
893.207	20514
893.33	20290
893.452	20461
893.575	20526
893.697	20518
893.819	20716
893.941	20686
894.064	20651
894.186	20423
894.308	20351
894.43	20549
894.552	20636
894.674	20480
894.796	20339
894.918	20438
895.04	20423
895.161	20514
895.283	20530
895.405	20282
895.526	20457
895.648	20450
895.769	20415
895.891	20427
896.012	20640
896.134	20461
896.255	20461
896.376	20408
896.498	20533
896.619	20457
896.74	20461
896.861	20434
896.982	20792
897.103	20872
897.224	20762
897.345	20781
897.466	20617
897.587	20583
897.708	20823
897.828	20644
897.949	20632
898.07	20473
898.19	20568
898.311	20545
898.431	20537
898.552	20651
898.672	20651
898.792	20648
898.913	20667
899.033	20495
899.153	20400
899.273	20332
899.393	20396
899.513	20465
899.633	20450
899.753	20419
899.873	20332
899.993	20552
900.113	20362
900.232	20355
900.352	20252
900.472	20142
900.591	20164
900.711	20252
900.83	20259
900.95	20313
901.069	20263
901.189	20202
901.308	19925
901.427	19712
901.546	19811
901.665	19807
901.784	19757
901.904	19628
902.023	19556
902.141	19327
902.26	19270
902.379	19289
902.498	19160
902.617	19213
902.735	19263
902.854	19187
902.973	19175
903.091	18890
903.21	18913
903.328	18886
903.446	18913
903.565	18749
903.683	18715
903.801	18726
903.919	18665
904.038	18722
904.156	18509
904.274	18597
904.392	18448
904.51	18471
904.627	18506
904.745	18654
904.863	18460
904.981	18247
905.098	18148
905.216	18159
905.334	18296
905.451	18144
905.569	18129
905.686	18285
905.803	18152
905.921	17927
906.038	18060
906.155	18019
906.272	17843
906.389	17870
906.506	17859
906.623	17691
906.74	17756
906.857	17741
906.974	17707
907.091	17684
907.208	17901
907.324	17779
907.441	17703
907.557	17444
907.674	17448
907.79	17383
907.907	17349
908.023	17425
908.139	17421
908.256	17376
908.372	17212
908.488	17345
908.604	17193
908.72	17067
908.836	17155
908.952	17140
909.068	17094
909.184	17265
909.3	17147
909.415	17064
909.531	17193
909.647	16881
909.762	16835
909.878	16839
909.993	16839
910.108	16854
910.224	16927
910.339	16782
910.454	16630
910.57	16668
910.685	16550
910.8	16831
910.915	16759
911.03	16664
911.145	16538
911.259	16455
911.374	16299
911.489	16325
911.604	16211
911.718	16166
911.833	16325
911.947	16150
912.062	15975
912.176	16112
912.291	16192
912.405	16223
912.519	16329
912.633	16249
912.748	16181
912.862	16051
912.976	15991
913.09	15930
913.204	15884
913.318	15964
913.431	16051
913.545	16074
913.659	16105
913.772	15987
913.886	15823
914	15724
914.113	15915
914.226	15899
914.34	15907
914.453	15701
914.566	15804
914.68	15641
914.793	15599
914.906	15386
915.019	15466
915.132	15317
915.245	15424
915.358	15519
915.47	15374
915.583	15469
915.696	15389
915.809	15439
915.921	15564
916.034	15340
916.146	15401
916.259	15298
916.371	15355
916.483	15321
916.595	15249
916.708	15157
916.82	15214
916.932	15180
917.044	15180
917.156	15207
917.268	15032
917.38	15142
917.491	14963
917.603	15020
917.715	15055
917.826	15066
917.938	14834
918.049	14902
918.161	15028
918.272	15165
918.384	15085
918.495	14899
918.606	14731
918.717	14796
918.828	14800
918.939	14788
919.05	14648
919.161	14701
919.272	14533
919.383	14575
919.494	14804
919.604	14963
919.715	14788
919.826	14640
919.936	14727
920.047	14727
920.157	14739
920.267	14956
920.378	14765
920.488	14750
920.598	14857
920.708	14994
920.818	14785
920.928	14800
921.038	15024
921.148	14914
921.258	14697
921.368	14579
921.477	14480
921.587	14480
921.697	14355
921.806	14427
921.916	14259
922.025	14183
922.134	14054
922.244	13974
922.353	14180
922.462	14065
922.571	13974
922.68	13723
922.789	13788
922.898	13814
923.007	13643
923.116	13776
923.224	13780
923.333	13727
923.442	13586
923.55	13594
923.659	13601
923.767	13662
923.876	13563
923.984	13594
924.092	13495
924.201	13476
924.309	13483
924.417	13460
924.525	13411
924.633	13449
924.741	14317
924.849	13244
924.956	13457
925.064	13274
925.172	13171
925.279	13061
925.387	13240
925.494	13225
925.602	13259
925.709	13308
925.816	13038
925.924	13129
926.031	13156
926.138	12985
926.245	13168
926.352	12996
926.459	13065
926.566	13194
926.673	12973
926.779	12882
926.886	12882
926.993	12677
927.099	12707
927.206	12734
927.312	12646
927.419	12700
927.525	12677
927.631	12741
927.737	12635
927.843	12574
927.95	12403
928.056	12437
928.162	12612
928.267	12555
928.373	13133
928.479	12582
928.585	12346
928.69	12407
928.796	12544
928.901	12361
929.007	12220
929.112	12357
929.218	12372
929.323	12338
929.428	12159
929.533	12327
929.638	12239
929.743	12106
929.848	12209
929.953	12194
930.058	12015
930.163	11878
930.267	11931
930.372	12087
930.477	11889
930.581	12102
930.685	11946
930.79	11817
930.894	11863
930.998	11786
931.103	11901
931.207	11505
931.311	11585
931.415	11402
931.519	11212
931.623	11185
