Data from test_V78500241_3212.txt Node
Date: Fri Mar 25 15:32:13 CST 2022
User: usil
Spectrometer: V785-0024
Trigger mode: 0
Integration Time (sec): 4.000000E-1
Scans to average: 1
Nonlinearity correction enabled: false
Boxcar width: 0
Storing dark spectrum: false
XAxis mode: Wavelengths
Number of Pixels in Spectrum: 1024
>>>>>Begin Spectral Data<<<<<
801.071	27017
801.214	27017
801.356	26823
801.499	26705
801.641	26571
801.783	26602
801.926	26587
802.068	26621
802.211	26549
802.353	26431
802.496	26259
802.638	26366
802.78	26324
802.923	26084
803.065	25978
803.208	26176
803.35	26191
803.492	26130
803.635	26275
803.777	26218
803.919	26461
804.061	26663
804.204	26317
804.346	26282
804.488	26206
804.63	26450
804.773	26324
804.915	26339
805.057	26457
805.199	26168
805.341	26495
805.483	26453
805.626	26415
805.768	26408
805.91	26400
806.052	26465
806.194	26423
806.336	26533
806.478	26343
806.62	26259
806.762	26602
806.904	26602
807.046	26982
807.188	26804
807.33	26986
807.472	26960
807.614	26777
807.756	26819
807.898	26716
808.04	26613
808.182	26632
808.324	26758
808.465	26720
808.607	26857
808.749	27066
808.891	27127
809.033	27214
809.174	26998
809.316	27081
809.458	27001
809.6	26948
809.741	27100
809.883	27146
810.025	27310
810.166	27378
810.308	27188
810.45	27256
810.591	27287
810.733	27142
810.875	27020
811.016	27089
811.158	26975
811.299	27230
811.441	27074
811.582	27077
811.724	27028
811.865	26975
812.007	27089
812.148	27066
812.29	27108
812.431	27222
812.573	27218
812.714	27443
812.855	27576
812.997	27641
813.138	27778
813.279	27576
813.421	27469
813.562	27329
813.703	27291
813.845	27264
813.986	26918
814.127	26838
814.268	26769
814.41	26705
814.551	26655
814.692	26724
814.833	26644
814.974	26537
815.115	26708
815.256	26511
815.397	26514
815.539	26552
815.68	26431
815.821	26419
815.962	26438
816.103	26518
816.244	26358
816.385	26275
816.526	26100
816.666	26058
816.807	25902
816.948	25887
817.089	25986
817.23	25765
817.371	25959
817.512	25925
817.653	25841
817.793	25879
817.934	25989
818.075	25944
818.216	25860
818.356	25887
818.497	25845
818.638	25700
818.778	25658
818.919	25620
819.06	25727
819.2	25803
819.341	25944
819.481	25811
819.622	26069
819.762	26206
819.903	26111
820.043	26054
820.184	26069
820.324	25902
820.465	25906
820.605	25947
820.746	25928
820.886	25837
821.026	25993
821.167	25925
821.307	26005
821.447	25959
821.588	25837
821.728	25601
821.868	25464
822.008	25411
822.149	25388
822.289	25430
822.429	25057
822.569	25091
822.709	25137
822.849	24890
822.99	24871
823.13	24916
823.27	24741
823.41	24681
823.55	24608
823.69	24787
823.83	24616
823.97	24734
824.11	24441
824.25	24532
824.389	24532
824.529	24585
824.669	24505
824.809	24532
824.949	24669
825.089	24555
825.228	24509
825.368	24388
825.508	24300
825.648	24372
825.787	24456
825.927	24452
826.067	24361
826.206	24323
826.346	24475
826.485	24376
826.625	24365
826.765	24437
826.904	24528
827.044	24182
827.183	24098
827.323	24121
827.462	24155
827.601	24041
827.741	24114
827.88	24034
828.02	23958
828.159	23973
828.298	24114
828.437	24197
828.577	23954
828.716	24152
828.855	23942
828.994	23771
829.134	23760
829.273	23923
829.412	23756
829.551	23699
829.69	23767
829.829	23840
829.968	23866
830.107	23718
830.246	23741
830.385	23832
830.524	23649
830.663	23535
830.802	23589
830.941	23398
831.08	23311
831.219	23554
831.357	23509
831.496	23592
831.635	23501
831.774	23417
831.913	23326
832.051	23170
832.19	23239
832.329	23280
832.467	23052
832.606	23006
832.744	23098
832.883	23094
833.022	22953
833.16	23136
833.299	23037
833.437	22987
833.576	23136
833.714	23174
833.852	23402
833.991	23235
834.129	23296
834.267	23220
834.406	23113
834.544	23223
834.682	23102
834.821	23128
834.959	23322
835.097	23155
835.235	23216
835.373	23193
835.511	23067
835.65	23022
835.788	23079
835.926	22919
836.064	22885
836.202	22972
836.34	23079
836.478	23075
836.615	22892
836.753	23033
836.891	22927
837.029	23102
837.167	23022
837.305	23022
837.443	22877
837.58	22820
837.718	22942
837.856	22938
837.993	22828
838.131	22801
838.269	22713
838.406	22809
838.544	22759
838.681	22459
838.819	22500
838.956	22382
839.094	22421
839.231	22356
839.369	22546
839.506	22771
839.643	22672
839.781	22322
839.918	22344
840.055	22303
840.193	22211
840.33	22261
840.467	22291
840.604	22223
840.742	22550
840.879	22196
841.016	22299
841.153	22166
841.29	22333
841.427	22318
841.564	22177
841.701	22200
841.838	22181
841.975	22158
842.112	22154
842.249	22242
842.385	22150
842.522	22154
842.659	22124
842.796	22078
842.933	21953
843.069	21953
843.206	22036
843.343	22036
843.479	22139
843.616	21979
843.752	21865
843.889	21838
844.025	21888
844.162	21884
844.298	22013
844.435	21785
844.571	21823
844.708	21865
844.844	21937
844.98	21998
845.117	21922
845.253	21797
845.389	21739
845.525	21629
845.661	21732
845.798	21625
845.934	21599
846.07	21606
846.206	21549
846.342	21785
846.478	21507
846.614	21424
846.75	21184
846.886	21272
847.022	21344
847.158	21332
847.294	21359
847.429	21378
847.565	21176
847.701	21591
847.837	21077
847.972	20971
848.108	21203
848.244	21135
848.379	20994
848.515	20937
848.65	20914
848.786	20815
848.921	20785
849.057	20925
849.192	20921
849.328	20918
849.463	20933
849.598	20891
849.734	20792
849.869	20739
850.004	20606
850.14	20697
850.275	20655
850.41	20590
850.545	20629
850.68	20583
850.815	20636
850.95	20739
851.085	20727
851.22	20583
851.355	20659
851.49	20762
851.625	20667
851.76	20594
851.895	20571
852.03	20522
852.165	20697
852.299	20693
852.434	20670
852.569	20640
852.703	20621
852.838	20674
852.973	20804
853.107	20902
853.242	20598
853.376	20465
853.511	20370
853.645	20393
853.78	20568
853.914	20583
854.048	20355
854.183	20583
854.317	20632
854.451	20735
854.585	20473
854.72	20583
854.854	20488
854.988	20533
855.122	20454
855.256	20374
855.39	20518
855.524	20495
855.658	20579
855.792	20579
855.926	20427
856.06	20431
856.194	20503
856.327	20438
856.461	20370
856.595	20358
856.729	20419
856.862	20568
856.996	20488
857.13	20541
857.263	20560
857.397	20518
857.53	20450
857.664	20530
857.797	20617
857.931	20488
858.064	20583
858.197	20549
858.331	20408
858.464	20514
858.597	20381
858.731	20351
858.864	20495
858.997	20476
859.13	20423
859.263	20518
859.396	20568
859.529	20537
859.662	20400
859.795	20450
859.928	20427
860.061	20606
860.194	20670
860.327	20499
860.46	20530
860.592	20716
860.725	20651
860.858	20469
860.99	20492
861.123	20526
861.256	20408
861.388	20385
861.521	20937
861.653	20336
861.786	20358
861.918	20377
862.05	20366
862.183	20355
862.315	20400
862.447	20450
862.58	20404
862.712	20214
862.844	20157
862.976	20278
863.108	20225
863.24	20537
863.372	20233
863.504	20195
863.636	20142
863.768	20229
863.9	20237
864.032	20111
864.164	20267
864.296	20195
864.428	20278
864.559	20320
864.691	20309
864.823	20119
864.954	20145
865.086	20153
865.217	20138
865.349	20043
865.48	20031
865.612	20134
865.743	20195
865.875	20138
866.006	19989
866.137	19944
866.269	19993
866.4	20161
866.531	20046
866.662	20130
866.793	20119
866.924	20058
867.055	20157
867.186	20092
867.317	19967
867.448	20024
867.579	20008
867.71	19963
867.841	19997
867.972	20005
868.103	20134
868.233	20210
868.364	20096
868.495	20210
868.625	20358
868.756	20511
868.886	20115
869.017	20362
869.147	20370
869.278	20374
869.408	20229
869.539	20275
869.669	20480
869.799	20317
869.929	20473
870.06	20396
870.19	20602
870.32	20579
870.45	20568
870.58	20716
870.71	20811
870.84	20659
870.97	20640
871.1	20686
871.23	20796
871.36	20952
871.489	20788
871.619	20960
871.749	20921
871.879	20941
872.008	21013
872.138	20948
872.267	20861
872.397	20807
872.526	20834
872.656	20708
872.785	20796
872.915	20872
873.044	21009
873.173	20933
873.303	20986
873.432	20910
873.561	20941
873.69	21047
873.819	20880
873.948	20895
874.077	20982
874.206	20807
874.335	21009
874.464	21123
874.593	21077
874.722	21112
874.851	21093
874.979	21211
875.108	21192
875.237	21161
875.365	21108
875.494	21085
875.623	21233
875.751	21077
875.88	21264
876.008	21211
876.136	21363
876.265	21477
876.393	21709
876.521	21603
876.65	21652
876.778	21622
876.906	21561
877.034	21458
877.162	21367
877.29	21473
877.418	21545
877.546	21656
877.674	21534
877.802	21534
877.93	21553
878.058	21663
878.185	21378
878.313	21492
878.441	21553
878.568	21473
878.696	21431
878.824	21458
878.951	21549
879.079	21682
879.206	21800
879.333	21549
879.461	21557
879.588	21614
879.715	21641
879.842	21808
879.97	21614
880.097	21397
880.224	21329
880.351	21416
880.478	21275
880.605	21306
880.732	21431
880.859	21694
880.986	21428
881.112	21367
881.239	21302
881.366	21081
881.493	20990
881.619	20887
881.746	20906
881.872	21013
881.999	20796
882.125	20872
882.252	20952
882.378	20952
882.505	20982
882.631	20754
882.757	20602
882.883	20735
883.01	20693
883.136	20632
883.262	20442
883.388	20545
883.514	20625
883.64	20644
883.766	20636
883.892	20404
884.018	20450
884.143	20686
884.269	20598
884.395	20278
884.52	20256
884.646	20343
884.772	20191
884.897	20298
885.023	20320
885.148	20366
885.274	20305
885.399	20317
885.524	20206
885.65	20328
885.775	20320
885.9	20389
886.025	20415
886.15	20290
886.275	20366
886.4	20259
886.525	20248
886.65	20145
886.775	20130
886.9	20309
887.025	20571
887.149	20214
887.274	20153
887.399	19913
887.523	20103
887.648	20081
887.773	19997
887.897	20138
888.021	20229
888.146	19982
888.27	20164
888.395	20157
888.519	19997
888.643	20172
888.767	20145
888.891	19944
889.015	19963
889.139	19982
889.263	19830
889.387	19993
889.511	20206
889.635	19963
889.759	19833
889.883	19913
890.006	19913
890.13	20016
890.254	19826
890.377	19791
890.501	19613
890.624	19616
890.748	19689
890.871	19616
890.995	19476
891.118	19335
891.241	19453
891.364	19396
891.488	19548
891.611	19297
891.734	19430
891.857	19533
891.98	19476
892.103	19449
892.226	19495
892.349	19430
892.471	19183
892.594	19331
892.717	19453
892.839	19430
892.962	19491
893.085	19400
893.207	19297
893.33	19270
893.452	19263
893.575	19552
893.697	19312
893.819	19434
893.941	19571
894.064	19499
894.186	19263
894.308	19293
894.43	19491
894.552	19605
894.674	19464
894.796	19247
894.918	19343
895.04	19350
895.161	19480
895.283	19445
895.405	19331
895.526	19373
895.648	19396
895.769	19339
895.891	19301
896.012	19502
896.134	19525
896.255	19464
896.376	19388
896.498	19411
896.619	19430
896.74	19343
896.861	19426
896.982	19693
897.103	19898
897.224	19662
897.345	19628
897.466	19472
897.587	19662
897.708	19788
897.828	19708
897.949	19510
898.07	19544
898.19	19499
898.311	19803
898.431	19468
898.552	19651
898.672	19780
898.792	19677
898.913	19750
899.033	19411
899.153	19537
899.273	19263
899.393	19392
899.513	19346
899.633	19453
899.753	19460
899.873	19282
899.993	19388
900.113	19285
900.232	19282
900.352	19244
900.472	19240
900.591	18989
900.711	19152
900.83	19194
900.95	19198
901.069	19327
901.189	19061
901.308	18821
901.427	18696
901.546	18696
901.665	18806
901.784	18764
901.904	18669
902.023	18563
902.141	18311
902.26	18190
902.379	18254
902.498	18315
902.617	18410
902.735	18323
902.854	18171
902.973	18194
903.091	17954
903.21	17980
903.328	18011
903.446	17935
903.565	17874
903.683	17874
903.801	17642
903.919	17847
904.038	17687
904.156	17577
904.274	17554
904.392	17463
904.51	17570
904.627	17547
904.745	17699
904.863	17630
904.981	17277
905.098	17242
905.216	17322
905.334	17273
905.451	17200
905.569	17178
905.686	17242
905.803	17242
905.921	17067
906.038	17162
906.155	16961
906.272	16892
906.389	16881
906.506	16687
906.623	16790
906.74	16828
906.857	16596
906.974	16626
907.091	16771
907.208	16866
907.324	16831
907.441	16626
907.557	16462
907.674	16500
907.79	16333
907.907	16493
908.023	16516
908.139	16523
908.256	16413
908.372	16318
908.488	16459
908.604	16177
908.72	16207
908.836	16386
908.952	16181
909.068	16234
909.184	16234
909.3	16169
909.415	16219
909.531	16154
909.647	15953
909.762	16067
909.878	15789
909.993	15842
910.108	15915
910.224	15869
910.339	15876
910.454	15736
910.57	15797
910.685	15667
910.8	15987
910.915	15816
911.03	15713
911.145	15568
911.259	15557
911.374	15458
911.489	15454
911.604	15538
911.718	15264
911.833	15249
911.947	15184
912.062	15218
912.176	15348
912.291	15313
912.405	15310
912.519	15526
912.633	15458
912.748	15344
912.862	15283
912.976	15104
913.09	14994
913.204	15043
913.318	15173
913.431	15131
913.545	15192
913.659	15154
913.772	15123
913.886	14990
914	14929
914.113	15047
914.226	15039
914.34	14838
914.453	14777
914.566	14891
914.68	14872
914.793	14796
914.906	14636
915.019	14571
915.132	14457
915.245	14594
915.358	14465
915.47	14533
915.583	14545
915.696	14686
915.809	14735
915.921	14705
916.034	14488
916.146	14545
916.259	14374
916.371	14450
916.483	14454
916.595	14374
916.708	14450
916.82	14301
916.932	14358
917.044	14377
917.156	14381
917.268	14168
917.38	14252
917.491	14248
917.603	14252
917.715	14275
917.826	14317
917.938	14187
918.049	14012
918.161	14202
918.272	14256
918.384	14214
918.495	14107
918.606	14050
918.717	13978
918.828	14046
918.939	14046
919.05	13849
919.161	13993
919.272	13811
919.383	13788
919.494	14058
919.604	14218
919.715	13947
919.826	13864
919.936	13974
920.047	13936
920.157	13890
920.267	14050
920.378	14065
920.488	13951
920.598	14126
920.708	14275
920.818	14134
920.928	14077
921.038	14225
921.148	14218
921.258	13951
921.368	13936
921.477	13715
921.587	13712
921.697	13643
921.806	13761
921.916	13700
922.025	13480
922.134	13316
922.244	13324
922.353	13449
922.462	13266
922.571	13232
922.68	13061
922.789	12989
922.898	13065
923.007	12886
923.116	13061
923.224	13012
923.333	12939
923.442	12886
923.55	12829
923.659	12856
923.767	12935
923.876	12859
923.984	12886
924.092	12783
924.201	12829
924.309	12692
924.417	12696
924.525	12681
924.633	12726
924.741	13655
924.849	12517
924.956	12612
925.064	12502
925.172	12357
925.279	12456
925.387	12479
925.494	12437
925.602	12563
925.709	12525
925.816	12338
925.924	12334
926.031	12513
926.138	12361
926.245	12471
926.352	12346
926.459	12467
926.566	12467
926.673	12330
926.779	12243
926.886	12148
926.993	12030
927.099	11977
927.206	11939
927.312	12003
927.419	11999
927.525	12083
927.631	12129
927.737	11912
927.843	11874
927.95	11783
928.056	11802
928.162	11836
928.267	11870
928.373	12540
928.479	11927
928.585	11737
928.69	11870
928.796	11828
928.901	11741
929.007	11653
929.112	11699
929.218	11695
929.323	11752
929.428	11520
929.533	11760
929.638	11592
929.743	11543
929.848	11642
929.953	11573
930.058	11459
930.163	11261
930.267	11398
930.372	11535
930.477	11208
930.581	11402
930.685	11345
930.79	11204
930.894	11273
930.998	11124
931.103	11280
931.207	11022
931.311	10908
931.415	10896
931.519	10546
931.623	10637
