Data from test_V78500241_3071.txt Node
Date: Fri Mar 25 15:31:14 CST 2022
User: usil
Spectrometer: V785-0024
Trigger mode: 0
Integration Time (sec): 4.000000E-1
Scans to average: 1
Nonlinearity correction enabled: false
Boxcar width: 0
Storing dark spectrum: false
XAxis mode: Wavelengths
Number of Pixels in Spectrum: 1024
>>>>>Begin Spectral Data<<<<<
801.071	27359
801.214	27195
801.356	27039
801.499	26838
801.641	26785
801.783	26807
801.926	26857
802.068	26727
802.211	26815
802.353	26678
802.496	26522
802.638	26492
802.78	26393
802.923	26366
803.065	26412
803.208	26438
803.35	26480
803.492	26473
803.635	26583
803.777	26511
803.919	26636
804.061	26918
804.204	26552
804.346	26568
804.488	26537
804.63	26655
804.773	26404
804.915	26537
805.057	26678
805.199	26583
805.341	26678
805.483	26762
805.626	26648
805.768	26587
805.91	26651
806.052	26632
806.194	26705
806.336	26853
806.478	26629
806.62	26861
806.762	26769
806.904	26883
807.046	27283
807.188	27165
807.33	27199
807.472	27116
807.614	27138
807.756	27104
807.898	26971
808.04	27100
808.182	27039
808.324	27036
808.465	27074
808.607	27093
808.749	27332
808.891	27393
809.033	27534
809.174	27370
809.316	27279
809.458	27515
809.6	27275
809.741	27348
809.883	27424
810.025	27454
810.166	27545
810.308	27496
810.45	27488
810.591	27526
810.733	27252
810.875	27389
811.016	27226
811.158	27378
811.299	27477
811.441	27363
811.582	27614
811.724	27325
811.865	27458
812.007	27294
812.148	27313
812.29	27226
812.431	27424
812.573	27564
812.714	27667
812.855	27869
812.997	27857
813.138	27945
813.279	27975
813.421	27907
813.562	27778
813.703	27580
813.845	27473
813.986	27100
814.127	27108
814.268	26986
814.41	27047
814.551	26986
814.692	27047
814.833	26876
814.974	26937
815.115	26982
815.256	26785
815.397	27032
815.539	26906
815.68	26724
815.821	26758
815.962	26746
816.103	26640
816.244	26583
816.385	26507
816.526	26545
816.666	26320
816.807	26138
816.948	26206
817.089	26301
817.23	26202
817.371	26252
817.512	26172
817.653	26168
817.793	26138
817.934	26301
818.075	26256
818.216	26202
818.356	26263
818.497	26069
818.638	25906
818.778	25898
818.919	25890
819.06	26054
819.2	26039
819.341	26157
819.481	26221
819.622	26442
819.762	26408
819.903	26537
820.043	26404
820.184	26396
820.324	26320
820.465	26324
820.605	26374
820.746	26305
820.886	26142
821.026	26229
821.167	26396
821.307	26404
821.447	26206
821.588	26084
821.728	25917
821.868	25742
822.008	25628
822.149	25647
822.289	25582
822.429	25343
822.569	25392
822.709	25411
822.849	25255
822.99	25114
823.13	25141
823.27	25221
823.41	25156
823.55	24947
823.69	25038
823.83	25012
823.97	24867
824.11	24757
824.25	24764
824.389	24760
824.529	24890
824.669	24772
824.809	24909
824.949	24772
825.089	24909
825.228	24924
825.368	24642
825.508	24570
825.648	24791
825.787	24681
825.927	24715
826.067	24604
826.206	24631
826.346	24684
826.485	24627
826.625	24631
826.765	24829
826.904	24654
827.044	24528
827.183	24467
827.323	24448
827.462	24445
827.601	24460
827.741	24513
827.88	24467
828.02	24190
828.159	24330
828.298	24330
828.437	24437
828.577	24235
828.716	24486
828.855	24292
828.994	24125
829.134	24098
829.273	24068
829.412	23984
829.551	24007
829.69	24106
829.829	23999
829.968	24220
830.107	24064
830.246	24026
830.385	24045
830.524	23893
830.663	23927
830.802	23714
830.941	23741
831.08	23634
831.219	23748
831.357	23908
831.496	23980
831.635	23779
831.774	23687
831.913	23619
832.051	23379
832.19	23524
832.329	23581
832.467	23383
832.606	23368
832.744	23398
832.883	23360
833.022	23296
833.16	23364
833.299	23360
833.437	23269
833.576	23414
833.714	23444
833.852	23600
833.991	23471
834.129	23524
834.267	23547
834.406	23356
834.544	23410
834.682	23471
834.821	23387
834.959	23539
835.097	23368
835.235	23516
835.373	23524
835.511	23436
835.65	23341
835.788	23269
835.926	23254
836.064	22968
836.202	23083
836.34	23311
836.478	23345
836.615	23273
836.753	23261
836.891	23307
837.029	23383
837.167	23204
837.305	23200
837.443	23102
837.58	23151
837.718	23242
837.856	23185
837.993	23121
838.131	23079
838.269	23060
838.406	22991
838.544	22946
838.681	22824
838.819	22824
838.956	22546
839.094	22694
839.231	22668
839.369	22786
839.506	22995
839.643	22866
839.781	22538
839.918	22474
840.055	22641
840.193	22462
840.33	22561
840.467	22580
840.604	22516
840.742	22824
840.879	22447
841.016	22508
841.153	22386
841.29	22615
841.427	22607
841.564	22519
841.701	22409
841.838	22443
841.975	22371
842.112	22481
842.249	22360
842.385	22310
842.522	22485
842.659	22489
842.796	22249
842.933	22295
843.069	22215
843.206	22257
843.343	22341
843.479	22303
843.616	22234
843.752	22135
843.889	22082
844.025	22299
844.162	22036
844.298	22204
844.435	22158
844.571	21998
844.708	22025
844.844	22166
844.98	22280
845.117	22196
845.253	22059
845.389	21892
845.525	21926
845.661	21960
845.798	21785
845.934	21766
846.07	21705
846.206	21823
846.342	21831
846.478	21945
846.614	21591
846.75	21553
846.886	21561
847.022	21606
847.158	21633
847.294	21496
847.429	21572
847.565	21481
847.701	21819
847.837	21275
847.972	21256
848.108	21321
848.244	21287
848.379	21142
848.515	21173
848.65	21127
848.786	21142
848.921	21123
849.057	21302
849.192	21184
849.328	21184
849.463	21157
849.598	21028
849.734	21013
849.869	20967
850.004	21005
850.14	20910
850.275	20979
850.41	20868
850.545	20876
850.68	20800
850.815	20899
850.95	20918
851.085	21176
851.22	21039
851.355	21013
851.49	20868
851.625	20830
851.76	20842
851.895	20762
852.03	20849
852.165	20872
852.299	21013
852.434	20986
852.569	21013
852.703	20826
852.838	21036
852.973	21005
853.107	21036
853.242	20914
853.376	20621
853.511	20606
853.645	20686
853.78	20982
853.914	20811
854.048	20716
854.183	20712
854.317	20659
854.451	20845
854.585	20826
854.72	20750
854.854	20804
854.988	20667
855.122	20708
855.256	20689
855.39	20712
855.524	20750
855.658	20941
855.792	20769
855.926	20712
856.06	20800
856.194	20849
856.327	20739
856.461	20689
856.595	20686
856.729	20708
856.862	20788
856.996	20655
857.13	20792
857.263	20834
857.397	20792
857.53	20712
857.664	20735
857.797	20769
857.931	20849
858.064	20781
858.197	20754
858.331	20735
858.464	20636
858.597	20663
858.731	20727
858.864	20765
858.997	20571
859.13	20746
859.263	20708
859.396	20678
859.529	20701
859.662	20712
859.795	20659
859.928	20762
860.061	20895
860.194	20868
860.327	20705
860.46	20739
860.592	20853
860.725	20891
860.858	20868
860.99	20765
861.123	20636
861.256	20625
861.388	20826
861.521	21287
861.653	20629
861.786	20571
861.918	20556
862.05	20697
862.183	20746
862.315	20670
862.447	20655
862.58	20632
862.712	20526
862.844	20404
862.976	20693
863.108	20415
863.24	20826
863.372	20374
863.504	20434
863.636	20370
863.768	20480
863.9	20408
864.032	20305
864.164	20400
864.296	20545
864.428	20503
864.559	20556
864.691	20492
864.823	20659
864.954	20522
865.086	20488
865.217	20328
865.349	20225
865.48	20370
865.612	20347
865.743	20556
865.875	20415
866.006	20454
866.137	20484
866.269	20347
866.4	20263
866.531	20355
866.662	20317
866.793	20290
866.924	20263
867.055	20313
867.186	20396
867.317	20317
867.448	20343
867.579	20351
867.71	20290
867.841	20259
867.972	20347
868.103	20339
868.233	20400
868.364	20305
868.495	20339
868.625	20488
868.756	20648
868.886	20473
869.017	20552
869.147	20739
869.278	20682
869.408	20594
869.539	20552
869.669	20689
869.799	20564
869.929	20716
870.06	20617
870.19	20868
870.32	20834
870.45	20990
870.58	20883
870.71	21020
870.84	21028
870.97	20944
871.1	21043
871.23	21074
871.36	21150
871.489	21017
871.619	21138
871.749	21207
871.879	21207
872.008	21218
872.138	21192
872.267	21192
872.397	21039
872.526	20918
872.656	20910
872.785	20963
872.915	21226
873.044	21161
873.173	21116
873.303	21237
873.432	21260
873.561	21321
873.69	21199
873.819	21138
873.948	21252
874.077	21237
874.206	21195
874.335	21169
874.464	21211
874.593	21412
874.722	21374
874.851	21412
874.979	21450
875.108	21477
875.237	21386
875.365	21310
875.494	21367
875.623	21545
875.751	21439
875.88	21477
876.008	21557
876.136	21644
876.265	21747
876.393	21876
876.521	21926
876.65	21899
876.778	21823
876.906	21743
877.034	21785
877.162	21671
877.29	21663
877.418	21835
877.546	21739
877.674	21789
877.802	21698
877.93	21660
878.058	21789
878.185	21618
878.313	21679
878.441	21637
878.568	21553
878.696	21739
878.824	21778
878.951	21816
879.079	21842
879.206	22032
879.333	21911
879.461	21739
879.588	21865
879.715	22006
879.842	21956
879.97	21865
880.097	21504
880.224	21618
880.351	21732
880.478	21583
880.605	21618
880.732	21561
880.859	21941
880.986	21648
881.112	21583
881.239	21496
881.366	21325
881.493	21275
881.619	21260
881.746	21176
881.872	21211
881.999	21131
882.125	21146
882.252	21230
882.378	21268
882.505	21230
882.631	20952
882.757	20906
882.883	20941
883.01	20906
883.136	20849
883.262	20849
883.388	20777
883.514	20883
883.64	20849
883.766	20777
883.892	20606
884.018	20678
884.143	20697
884.269	20834
884.395	20583
884.52	20594
884.646	20530
884.772	20450
884.897	20480
885.023	20484
885.148	20712
885.274	20735
885.399	20655
885.524	20446
885.65	20537
885.775	20606
885.9	20518
886.025	20617
886.15	20594
886.275	20495
886.4	20579
886.525	20556
886.65	20366
886.775	20461
886.9	20590
887.025	20602
887.149	20438
887.274	20393
887.399	20301
887.523	20381
887.648	20259
887.773	20298
887.897	20347
888.021	20290
888.146	20298
888.27	20240
888.395	20400
888.519	20385
888.643	20332
888.767	20320
888.891	20199
889.015	20168
889.139	20103
889.263	20081
889.387	20172
889.511	20317
889.635	20237
889.759	20046
889.883	20096
890.006	20065
890.13	20313
890.254	20001
890.377	20020
890.501	19833
890.624	19803
890.748	19856
890.871	19818
890.995	19677
891.118	19639
891.241	19757
891.364	19769
891.488	19761
891.611	19719
891.734	19769
891.857	19696
891.98	19590
892.103	19761
892.226	19635
892.349	19582
892.471	19362
892.594	19597
892.717	19731
892.839	19605
892.962	19472
893.085	19681
893.207	19578
893.33	19533
893.452	19597
893.575	19582
893.697	19533
893.819	19811
893.941	19761
894.064	19731
894.186	19518
894.308	19605
894.43	19689
894.552	19776
894.674	19693
894.796	19559
894.918	19700
895.04	19537
895.161	19643
895.283	19666
895.405	19563
895.526	19624
895.648	19552
895.769	19525
895.891	19742
896.012	19628
896.134	19689
896.255	19552
896.376	19491
896.498	19620
896.619	19525
896.74	19605
896.861	19681
896.982	19967
897.103	20077
897.224	19932
897.345	19837
897.466	19761
897.587	19955
897.708	19917
897.828	19917
897.949	19788
898.07	19704
898.19	19731
898.311	19803
898.431	19841
898.552	19841
898.672	19795
898.792	19780
898.913	19742
899.033	19616
899.153	19655
899.273	19601
899.393	19518
899.513	19655
899.633	19594
899.753	19651
899.873	19525
899.993	19540
900.113	19586
900.232	19571
900.352	19575
900.472	19518
900.591	19400
900.711	19419
900.83	19373
900.95	19476
901.069	19468
901.189	19289
901.308	19091
901.427	18970
901.546	19000
901.665	18989
901.784	18897
901.904	18905
902.023	18741
902.141	18578
902.26	18532
902.379	18620
902.498	18407
902.617	18532
902.735	18456
902.854	18422
902.973	18350
903.091	18254
903.21	18152
903.328	18091
903.446	18079
903.565	18060
903.683	17977
903.801	17882
903.919	17897
904.038	17920
904.156	17847
904.274	17866
904.392	17726
904.51	17649
904.627	17741
904.745	17775
904.863	17790
904.981	17581
905.098	17474
905.216	17459
905.334	17444
905.451	17448
905.569	17345
905.686	17463
905.803	17387
905.921	17258
906.038	17360
906.155	17227
906.272	17102
906.389	17197
906.506	16877
906.623	16953
906.74	16942
906.857	16911
906.974	16793
907.091	16984
907.208	17151
907.324	16953
907.441	16843
907.557	16729
907.674	16664
907.79	16679
907.907	16653
908.023	16805
908.139	16744
908.256	16618
908.372	16523
908.488	16481
908.604	16432
908.72	16421
908.836	16474
908.952	16276
909.068	16386
909.184	16504
909.3	16421
909.415	16348
909.531	16413
909.647	16135
909.762	16207
909.878	15994
909.993	16059
910.108	16105
910.224	16116
910.339	16086
910.454	15915
910.57	15869
910.685	15816
910.8	16036
910.915	16059
911.03	15895
911.145	15743
911.259	15755
911.374	15667
911.489	15618
911.604	15564
911.718	15435
911.833	15473
911.947	15462
912.062	15294
912.176	15580
912.291	15447
912.405	15473
912.519	15709
912.633	15648
912.748	15576
912.862	15488
912.976	15458
913.09	15211
913.204	15294
913.318	15287
913.431	15325
913.545	15336
913.659	15374
913.772	15283
913.886	15066
914	15070
914.113	15192
914.226	15268
914.34	15173
914.453	14967
914.566	15070
914.68	15001
914.793	14906
914.906	14754
915.019	14678
915.132	14621
915.245	14640
915.358	14781
915.47	14705
915.583	14663
915.696	14708
915.809	14807
915.921	14842
916.034	14663
916.146	14606
916.259	14575
916.371	14792
916.483	14640
916.595	14549
916.708	14533
916.82	14469
916.932	14446
917.044	14514
917.156	14488
917.268	14408
917.38	14408
917.491	14423
917.603	14400
917.715	14434
917.826	14442
917.938	14377
918.049	14317
918.161	14351
918.272	14469
918.384	14434
918.495	14347
918.606	14168
918.717	14088
918.828	14168
918.939	14149
919.05	14058
919.161	14126
919.272	13913
919.383	13989
919.494	14164
919.604	14275
919.715	14259
919.826	14020
919.936	14126
920.047	14084
920.157	14039
920.267	14240
920.378	14096
920.488	14081
920.598	14347
920.708	14454
920.818	14248
920.928	14214
921.038	14412
921.148	14358
921.258	14077
921.368	13921
921.477	13890
921.587	13909
921.697	13765
921.806	13776
921.916	13776
922.025	13590
922.134	13502
922.244	13487
922.353	13628
922.462	13362
922.571	13373
922.68	13213
922.789	13129
922.898	13168
923.007	13038
923.116	13202
923.224	13126
923.333	13168
923.442	13091
923.55	12996
923.659	13057
923.767	13065
923.876	13004
923.984	13050
924.092	12859
924.201	12909
924.309	12947
924.417	12871
924.525	12776
924.633	12806
924.741	13791
924.849	12574
924.956	12772
925.064	12642
925.172	12582
925.279	12608
925.387	12631
925.494	12677
925.602	12726
925.709	12741
925.816	12521
925.924	12582
926.031	12612
926.138	12437
926.245	12513
926.352	12547
926.459	12703
926.566	12536
926.673	12422
926.779	12399
926.886	12277
926.993	12277
927.099	12167
927.206	12057
927.312	12091
927.419	12220
927.525	12155
927.631	12201
927.737	12079
927.843	12030
927.95	11935
928.056	11946
928.162	12064
928.267	12102
928.373	12601
928.479	12041
928.585	11786
928.69	11901
928.796	11954
928.901	11809
929.007	11714
929.112	11874
929.218	11813
929.323	11767
929.428	11760
929.533	11878
929.638	11630
929.743	11718
929.848	11710
929.953	11676
930.058	11589
930.163	11376
930.267	11421
930.372	11581
930.477	11364
930.581	11596
930.685	11493
930.79	11337
930.894	11349
930.998	11318
931.103	11421
931.207	11121
931.311	11060
931.415	10892
931.519	10786
931.623	10759
