Data from test_V78500241_1568.txt Node
Date: Fri Mar 25 15:20:46 CST 2022
User: usil
Spectrometer: V785-0024
Trigger mode: 0
Integration Time (sec): 4.000000E-1
Scans to average: 1
Nonlinearity correction enabled: false
Boxcar width: 0
Storing dark spectrum: false
XAxis mode: Wavelengths
Number of Pixels in Spectrum: 1024
>>>>>Begin Spectral Data<<<<<
801.071	28032
801.214	27926
801.356	27625
801.499	27603
801.641	27431
801.783	27336
801.926	27561
802.068	27568
802.211	27412
802.353	27329
802.496	27245
802.638	27230
802.78	27184
802.923	27135
803.065	27009
803.208	26998
803.35	27104
803.492	27332
803.635	27363
803.777	27146
803.919	27424
804.061	27606
804.204	27268
804.346	27241
804.488	27165
804.63	27302
804.773	27211
804.915	27302
805.057	27370
805.199	27351
805.341	27355
805.483	27496
805.626	27450
805.768	27397
805.91	27416
806.052	27427
806.194	27439
806.336	27576
806.478	27450
806.62	27504
806.762	27511
806.904	27660
807.046	27945
807.188	27816
807.33	27945
807.472	27937
807.614	27819
807.756	27827
807.898	27675
808.04	27709
808.182	27622
808.324	27667
808.465	27679
808.607	28032
808.749	28029
808.891	28223
809.033	28257
809.174	28090
809.316	28188
809.458	28063
809.6	28284
809.741	28310
809.883	28150
810.025	28337
810.166	28485
810.308	28424
810.45	28295
810.591	28291
810.733	28124
810.875	28090
811.016	28032
811.158	28067
811.299	28120
811.441	28276
811.582	28185
811.724	28101
811.865	28063
812.007	28067
812.148	27975
812.29	28226
812.431	28276
812.573	28478
812.714	28561
812.855	28607
812.997	28885
813.138	28934
813.279	28763
813.421	28847
813.562	28660
813.703	28474
813.845	28192
813.986	27998
814.127	27884
814.268	27861
814.41	27774
814.551	27629
814.692	27865
814.833	27739
814.974	27766
815.115	27797
815.256	27713
815.397	27641
815.539	27667
815.68	27583
815.821	27603
815.962	27644
816.103	27530
816.244	27511
816.385	27405
816.526	27192
816.666	27256
816.807	27036
816.948	27199
817.089	27268
817.23	27085
817.371	27100
817.512	26967
817.653	27028
817.793	27005
817.934	27017
818.075	27119
818.216	27005
818.356	27085
818.497	26823
818.638	26804
818.778	26940
818.919	26819
819.06	26906
819.2	27043
819.341	26971
819.481	27112
819.622	27207
819.762	27336
819.903	27401
820.043	27218
820.184	27169
820.324	27226
820.465	27260
820.605	27066
820.746	27085
820.886	27127
821.026	27096
821.167	27233
821.307	27173
821.447	27051
821.588	27001
821.728	26914
821.868	26667
822.008	26461
822.149	26575
822.289	26549
822.429	26275
822.569	26320
822.709	26199
822.849	26016
822.99	26020
823.13	25913
823.27	26096
823.41	25932
823.55	25814
823.69	25841
823.83	25959
823.97	25734
824.11	25814
824.25	25700
824.389	25635
824.529	25753
824.669	25753
824.809	25822
824.949	25757
825.089	25753
825.228	25708
825.368	25438
825.508	25563
825.648	25609
825.787	25647
825.927	25689
826.067	25590
826.206	25533
826.346	25521
826.485	25666
826.625	25521
826.765	25597
826.904	25575
827.044	25358
827.183	25316
827.323	25236
827.462	25365
827.601	25232
827.741	25320
827.88	25240
828.02	25202
828.159	25225
828.298	25301
828.437	25278
828.577	25247
828.716	25293
828.855	25213
828.994	24928
829.134	24905
829.273	25122
829.412	24886
829.551	24837
829.69	24970
829.829	25080
829.968	25012
830.107	24909
830.246	24973
830.385	24928
830.524	24935
830.663	24753
830.802	24642
830.941	24525
831.08	24604
831.219	24517
831.357	24574
831.496	24852
831.635	24479
831.774	24467
831.913	24505
832.051	24414
832.19	24304
832.329	24452
832.467	24300
832.606	24220
832.744	24235
832.883	24327
833.022	24205
833.16	24262
833.299	24254
833.437	24365
833.576	24376
833.714	24403
833.852	24437
833.991	24300
834.129	24346
834.267	24296
834.406	24311
834.544	24342
834.682	24319
834.821	24201
834.959	24483
835.097	24224
835.235	24433
835.373	24494
835.511	24239
835.65	24121
835.788	24190
835.926	24121
836.064	23927
836.202	24011
836.34	24163
836.478	24319
836.615	24152
836.753	24190
836.891	24174
837.029	24159
837.167	24060
837.305	24018
837.443	24011
837.58	23904
837.718	24007
837.856	23996
837.993	24030
838.131	24045
838.269	23756
838.406	23893
838.544	23813
838.681	23520
838.819	23600
838.956	23611
839.094	23372
839.231	23349
839.369	23547
839.506	23824
839.643	23619
839.781	23520
839.918	23402
840.055	23444
840.193	23425
840.33	23299
840.467	23326
840.604	23410
840.742	23589
840.879	23174
841.016	23345
841.153	23220
841.29	23493
841.427	23277
841.564	23395
841.701	23345
841.838	23311
841.975	23140
842.112	23212
842.249	23128
842.385	23067
842.522	23341
842.659	23162
842.796	23056
842.933	23071
843.069	23010
843.206	23037
843.343	23022
843.479	23102
843.616	23147
843.752	22850
843.889	23060
844.025	22991
844.162	22938
844.298	22972
844.435	22873
844.571	22831
844.708	22911
844.844	23018
844.98	23037
845.117	22976
845.253	22839
845.389	22847
845.525	22660
845.661	22641
845.798	22569
845.934	22683
846.07	22512
846.206	22641
846.342	22645
846.478	22493
846.614	22542
846.75	22329
846.886	22318
847.022	22424
847.158	22337
847.294	22287
847.429	22451
847.565	22314
847.701	22641
847.837	22051
847.972	22112
848.108	22249
848.244	22139
848.379	21873
848.515	21880
848.65	21956
848.786	21934
848.921	21918
849.057	22116
849.192	22070
849.328	21953
849.463	21884
849.598	21869
849.734	21865
849.869	21709
850.004	21622
850.14	21622
850.275	21739
850.41	21671
850.545	21599
850.68	21572
850.815	21747
850.95	21717
851.085	21812
851.22	21819
851.355	21739
851.49	21728
851.625	21641
851.76	21698
851.895	21462
852.03	21576
852.165	21713
852.299	21739
852.434	21835
852.569	21793
852.703	21698
852.838	21827
852.973	21778
853.107	21816
853.242	21717
853.376	21675
853.511	21431
853.645	21488
853.78	21641
853.914	21542
854.048	21439
854.183	21580
854.317	21576
854.451	21637
854.585	21515
854.72	21557
854.854	21542
854.988	21397
855.122	21564
855.256	21332
855.39	21477
855.524	21496
855.658	21568
855.792	21545
855.926	21618
856.06	21530
856.194	21545
856.327	21576
856.461	21389
856.595	21416
856.729	21424
856.862	21633
856.996	21523
857.13	21614
857.263	21519
857.397	21679
857.53	21542
857.664	21618
857.797	21564
857.931	21690
858.064	21515
858.197	21572
858.331	21447
858.464	21435
858.597	21458
858.731	21462
858.864	21454
858.997	21370
859.13	21523
859.263	21637
859.396	21622
859.529	21553
859.662	21557
859.795	21561
859.928	21557
860.061	21633
860.194	21766
860.327	21477
860.46	21519
860.592	21511
860.725	21610
860.858	21534
860.99	21526
861.123	21507
861.256	21447
861.388	21412
861.521	22173
861.653	21351
861.786	21252
861.918	21279
862.05	21283
862.183	21435
862.315	21458
862.447	21466
862.58	21473
862.712	21218
862.844	21157
862.976	21211
863.108	21310
863.24	21511
863.372	21184
863.504	21131
863.636	21195
863.768	21241
863.9	21195
864.032	21108
864.164	21165
864.296	21214
864.428	21313
864.559	21291
864.691	21275
864.823	21169
864.954	21184
865.086	21233
865.217	21188
865.349	21009
865.48	21070
865.612	21119
865.743	21104
865.875	21154
866.006	21116
866.137	21184
866.269	21119
866.4	20998
866.531	21051
866.662	21081
866.793	20998
866.924	21058
867.055	21036
867.186	21119
867.317	20986
867.448	21005
867.579	21013
867.71	20933
867.841	21043
867.972	21047
868.103	21009
868.233	21108
868.364	21028
868.495	21104
868.625	21214
868.756	21344
868.886	21279
869.017	21268
869.147	21317
869.278	21386
869.408	21306
869.539	21237
869.669	21439
869.799	21359
869.929	21428
870.06	21412
870.19	21583
870.32	21530
870.45	21496
870.58	21694
870.71	21717
870.84	21751
870.97	21671
871.1	21709
871.23	21922
871.36	21865
871.489	21747
871.619	21701
871.749	21895
871.879	21838
872.008	21964
872.138	21797
872.267	21911
872.397	21679
872.526	21717
872.656	21724
872.785	21812
872.915	21907
873.044	21991
873.173	21842
873.303	21876
873.432	21991
873.561	21979
873.69	21892
873.819	21804
873.948	22070
874.077	21895
874.206	21778
874.335	21819
874.464	22029
874.593	22021
874.722	22124
874.851	22105
874.979	22158
875.108	22188
875.237	21987
875.365	21998
875.494	21918
875.623	22169
875.751	22063
875.88	22219
876.008	22226
876.136	22261
876.265	22504
876.393	22577
876.521	22584
876.65	22615
876.778	22447
876.906	22352
877.034	22523
877.162	22500
877.29	22489
877.418	22481
877.546	22500
877.674	22512
877.802	22451
877.93	22409
878.058	22478
878.185	22322
878.313	22508
878.441	22436
878.568	22147
878.696	22341
878.824	22493
878.951	22462
879.079	22580
879.206	22820
879.333	22679
879.461	22424
879.588	22546
879.715	22634
879.842	22588
879.97	22535
880.097	22322
880.224	22185
880.351	22287
880.478	22249
880.605	22154
880.732	22219
880.859	22561
880.986	22234
881.112	22280
881.239	22105
881.366	22040
881.493	21827
881.619	21915
881.746	21892
881.872	21781
881.999	21850
882.125	21785
882.252	21892
882.378	21766
882.505	21869
882.631	21679
882.757	21606
882.883	21576
883.01	21599
883.136	21507
883.262	21488
883.388	21336
883.514	21523
883.64	21583
883.766	21542
883.892	21321
884.018	21329
884.143	21504
884.269	21545
884.395	21336
884.52	21180
884.646	21207
884.772	21119
884.897	21100
885.023	21264
885.148	21214
885.274	21405
885.399	21310
885.524	21169
885.65	21226
885.775	21268
885.9	21165
886.025	21279
886.15	21131
886.275	21119
886.4	21195
886.525	21176
886.65	21131
886.775	21188
886.9	21283
887.025	21431
887.149	21116
887.274	20998
887.399	20895
887.523	20937
887.648	20921
887.773	20914
887.897	21036
888.021	20971
888.146	20861
888.27	20929
888.395	21165
888.519	20971
888.643	21043
888.767	20990
888.891	20895
889.015	20785
889.139	20746
889.263	20727
889.387	20864
889.511	21005
889.635	20864
889.759	20667
889.883	20667
890.006	20815
890.13	20804
890.254	20678
890.377	20773
890.501	20484
890.624	20423
890.748	20644
890.871	20393
890.995	20271
891.118	20191
891.241	20324
891.364	20301
891.488	20434
891.611	20290
891.734	20484
891.857	20419
891.98	20324
892.103	20396
892.226	20381
892.349	20168
892.471	20119
892.594	20290
892.717	20320
892.839	20119
892.962	20244
893.085	20221
893.207	20244
893.33	20046
893.452	20221
893.575	20244
893.697	20111
893.819	20267
893.941	20476
894.064	20237
894.186	20221
894.308	20298
894.43	20263
894.552	20492
894.674	20233
894.796	20138
894.918	20221
895.04	20168
895.161	20309
895.283	20244
895.405	20138
895.526	20183
895.648	20282
895.769	20122
895.891	20233
896.012	20286
896.134	20229
896.255	20206
896.376	20161
896.498	20195
896.619	20206
896.74	20195
896.861	20221
896.982	20568
897.103	20648
897.224	20423
897.345	20396
897.466	20267
897.587	20396
897.708	20533
897.828	20415
897.949	20252
898.07	20183
898.19	20290
898.311	20415
898.431	20434
898.552	20457
898.672	20446
898.792	20560
898.913	20488
899.033	20305
899.153	20225
899.273	20119
899.393	20202
899.513	20218
899.633	20115
899.753	20187
899.873	20142
899.993	20218
900.113	20180
900.232	20062
900.352	20065
900.472	20084
900.591	19974
900.711	20142
900.83	19894
900.95	20027
901.069	20027
901.189	19753
901.308	19723
901.427	19556
901.546	19620
901.665	19563
901.784	19575
901.904	19343
902.023	19354
902.141	19179
902.26	19065
902.379	19137
902.498	19114
902.617	18970
902.735	18966
902.854	19027
902.973	19008
903.091	18753
903.21	18627
903.328	18760
903.446	18673
903.565	18486
903.683	18483
903.801	18315
903.919	18483
904.038	18544
904.156	18323
904.274	18232
904.392	18327
904.51	18285
904.627	18251
904.745	18342
904.863	18186
904.981	18015
905.098	18030
905.216	17942
905.334	18011
905.451	17988
905.569	17783
905.686	18049
905.803	17958
905.921	17737
906.038	17855
906.155	17836
906.272	17672
906.389	17608
906.506	17585
906.623	17448
906.74	17467
906.857	17406
906.974	17429
907.091	17539
907.208	17516
907.324	17535
907.441	17433
907.557	17292
907.674	17265
907.79	17117
907.907	17223
908.023	17322
908.139	17170
908.256	17284
908.372	17159
908.488	17037
908.604	16972
908.72	16862
908.836	16858
908.952	16850
909.068	16904
909.184	17060
909.3	16828
909.415	16915
909.531	16911
909.647	16706
909.762	16634
909.878	16580
909.993	16538
910.108	16637
910.224	16565
910.339	16618
910.454	16493
910.57	16413
910.685	16440
910.8	16683
910.915	16611
911.03	16424
911.145	16299
911.259	16162
911.374	16276
911.489	16200
911.604	16071
911.718	15812
911.833	15941
911.947	15895
912.062	15671
912.176	15937
912.291	15972
912.405	15930
912.519	16048
912.633	16097
912.748	15998
912.862	15979
912.976	15774
913.09	15690
913.204	15736
913.318	15819
913.431	15895
913.545	15865
913.659	15873
913.772	15770
913.886	15599
914	15557
914.113	15660
914.226	15759
914.34	15648
914.453	15481
914.566	15568
914.68	15439
914.793	15408
914.906	15424
915.019	15272
915.132	15135
915.245	15097
915.358	15173
915.47	15245
915.583	15116
915.696	15100
915.809	15272
915.921	15420
916.034	15005
916.146	15077
916.259	15108
916.371	15058
916.483	15100
916.595	14971
916.708	15047
916.82	15077
916.932	14982
917.044	15055
917.156	14982
917.268	14819
917.38	14921
917.491	14823
917.603	14819
917.715	14921
917.826	14933
917.938	14754
918.049	14655
918.161	14826
918.272	14819
918.384	14857
918.495	14815
918.606	14636
918.717	14499
918.828	14575
918.939	14678
919.05	14431
919.161	14526
919.272	14419
919.383	14457
919.494	14549
919.604	14746
919.715	14507
919.826	14522
919.936	14556
920.047	14606
920.157	14465
920.267	14838
920.378	14610
920.488	14526
920.598	14712
920.708	14815
920.818	14727
920.928	14693
921.038	14876
921.148	14739
921.258	14461
921.368	14339
921.477	14343
921.587	14278
921.697	14119
921.806	14218
921.916	14065
922.025	13974
922.134	13955
922.244	13887
922.353	13978
922.462	13845
922.571	13776
922.68	13605
922.789	13453
922.898	13563
923.007	13529
923.116	13590
923.224	13518
923.333	13556
923.442	13445
923.55	13339
923.659	13487
923.767	13415
923.876	13407
923.984	13396
924.092	13259
924.201	13354
924.309	13293
924.417	13350
924.525	13160
924.633	13190
924.741	14001
924.849	13050
924.956	13206
925.064	13095
925.172	12973
925.279	12916
925.387	13027
925.494	13034
925.602	13095
925.709	13133
925.816	12897
925.924	12924
926.031	12962
926.138	12966
926.245	12897
926.352	12821
926.459	12958
926.566	13012
926.673	12802
926.779	12795
926.886	12776
926.993	12532
927.099	12528
927.206	12502
927.312	12559
927.419	12635
927.525	12502
927.631	12547
927.737	12490
927.843	12380
927.95	12330
928.056	12327
928.162	12426
928.267	12418
928.373	12947
928.479	12384
928.585	12224
928.69	12311
928.796	12365
928.901	12251
929.007	12136
929.112	12235
929.218	12167
929.323	12129
929.428	12038
929.533	12243
929.638	11969
929.743	12064
929.848	12045
929.953	12068
930.058	11950
930.163	11843
930.267	11851
930.372	11969
930.477	11802
930.581	11927
930.685	11767
930.79	11756
930.894	11672
930.998	11592
931.103	11680
931.207	11493
931.311	11372
931.415	11273
931.519	11086
931.623	11048
