Data from test_V78500241_1291.txt Node
Date: Fri Mar 25 15:18:50 CST 2022
User: usil
Spectrometer: V785-0024
Trigger mode: 0
Integration Time (sec): 4.000000E-1
Scans to average: 1
Nonlinearity correction enabled: false
Boxcar width: 0
Storing dark spectrum: false
XAxis mode: Wavelengths
Number of Pixels in Spectrum: 1024
>>>>>Begin Spectral Data<<<<<
801.071	28105
801.214	27998
801.356	27888
801.499	27755
801.641	27705
801.783	27580
801.926	27625
802.068	27542
802.211	27610
802.353	27443
802.496	27450
802.638	27310
802.78	27302
802.923	27272
803.065	27203
803.208	27298
803.35	27458
803.492	27500
803.635	27534
803.777	27420
803.919	27526
804.061	27857
804.204	27686
804.346	27557
804.488	27291
804.63	27603
804.773	27408
804.915	27542
805.057	27629
805.199	27466
805.341	27660
805.483	27698
805.626	27610
805.768	27599
805.91	27595
806.052	27545
806.194	27534
806.336	27793
806.478	27831
806.62	27625
806.762	27808
806.904	28025
807.046	28287
807.188	28025
807.33	27983
807.472	28082
807.614	27972
807.756	28051
807.898	27960
808.04	27983
808.182	27899
808.324	27888
808.465	28051
808.607	28192
808.749	28390
808.891	28485
809.033	28519
809.174	28405
809.316	28382
809.458	28371
809.6	28310
809.741	28573
809.883	28478
810.025	28736
810.166	28580
810.308	28557
810.45	28485
810.591	28470
810.733	28428
810.875	28363
811.016	28120
811.158	28223
811.299	28550
811.441	28462
811.582	28508
811.724	28303
811.865	28329
812.007	28299
812.148	28322
812.29	28261
812.431	28451
812.573	28752
812.714	28896
812.855	28915
812.997	29056
813.138	29143
813.279	29064
813.421	28862
813.562	28961
813.703	28740
813.845	28489
813.986	28363
814.127	28295
814.268	28044
814.41	28162
814.551	28029
814.692	28162
814.833	28196
814.974	28105
815.115	28048
815.256	27869
815.397	27850
815.539	27793
815.68	27743
815.821	27766
815.962	27975
816.103	27778
816.244	27671
816.385	27686
816.526	27622
816.666	27633
816.807	27344
816.948	27439
817.089	27454
817.23	27389
817.371	27329
817.512	27272
817.653	27344
817.793	27214
817.934	27367
818.075	27473
818.216	27325
818.356	27477
818.497	27291
818.638	27108
818.778	27138
818.919	27142
819.06	27252
819.2	27325
819.341	27382
819.481	27424
819.622	27496
819.762	27625
819.903	27553
820.043	27534
820.184	27367
820.324	27405
820.465	27671
820.605	27462
820.746	27439
820.886	27348
821.026	27443
821.167	27374
821.307	27500
821.447	27321
821.588	27393
821.728	27226
821.868	27085
822.008	26792
822.149	26754
822.289	26689
822.429	26560
822.569	26609
822.709	26659
822.849	26408
822.99	26526
823.13	26267
823.27	26256
823.41	26176
823.55	25947
823.69	26225
823.83	26252
823.97	26195
824.11	26020
824.25	25955
824.389	26027
824.529	26054
824.669	26001
824.809	26100
824.949	26012
825.089	26043
825.228	26039
825.368	25833
825.508	25799
825.648	25799
825.787	25986
825.927	25852
826.067	25856
826.206	25932
826.346	25890
826.485	25982
826.625	25925
826.765	26005
826.904	25898
827.044	25632
827.183	25666
827.323	25567
827.462	25594
827.601	25666
827.741	25518
827.88	25563
828.02	25537
828.159	25609
828.298	25582
828.437	25479
828.577	25407
828.716	25635
828.855	25533
828.994	25247
829.134	25346
829.273	25304
829.412	25266
829.551	25278
829.69	25225
829.829	25369
829.968	25346
830.107	25464
830.246	25259
830.385	25301
830.524	25285
830.663	25042
830.802	25065
830.941	24947
831.08	24916
831.219	24970
831.357	25053
831.496	25168
831.635	24970
831.774	24947
831.913	24700
832.051	24661
832.19	24779
832.329	24787
832.467	24593
832.606	24471
832.744	24589
832.883	24582
833.022	24559
833.16	24563
833.299	24696
833.437	24642
833.576	24753
833.714	24719
833.852	24844
833.991	24703
834.129	24726
834.267	24570
834.406	24688
834.544	24783
834.682	24719
834.821	24669
834.959	24856
835.097	24433
835.235	24768
835.373	24684
835.511	24631
835.65	24536
835.788	24479
835.926	24486
836.064	24292
836.202	24247
836.34	24525
836.478	24547
836.615	24513
836.753	24559
836.891	24547
837.029	24380
837.167	24437
837.305	24407
837.443	24490
837.58	24391
837.718	24426
837.856	24505
837.993	24338
838.131	24372
838.269	24251
838.406	24209
838.544	24140
838.681	23999
838.819	23866
838.956	23764
839.094	23748
839.231	23824
839.369	23908
839.506	24159
839.643	23958
839.781	23668
839.918	23691
840.055	23752
840.193	23775
840.33	23695
840.467	23718
840.604	23767
840.742	23882
840.879	23562
841.016	23573
841.153	23695
841.29	23786
841.427	23619
841.564	23726
841.701	23737
841.838	23585
841.975	23623
842.112	23554
842.249	23398
842.385	23395
842.522	23707
842.659	23383
842.796	23395
842.933	23554
843.069	23474
843.206	23478
843.343	23433
843.479	23585
843.616	23524
843.752	23162
843.889	23204
844.025	23467
844.162	23155
844.298	23364
844.435	23376
844.571	23216
844.708	23345
844.844	23372
844.98	23311
845.117	23406
845.253	23223
845.389	23067
845.525	23075
845.661	23254
845.798	23029
845.934	22961
846.07	22953
846.206	23014
846.342	23170
846.478	22904
846.614	22824
846.75	22641
846.886	22653
847.022	22816
847.158	22805
847.294	22782
847.429	22740
847.565	22706
847.701	22976
847.837	22443
847.972	22371
848.108	22424
848.244	22622
848.379	22398
848.515	22272
848.65	22348
848.786	22226
848.921	22310
849.057	22341
849.192	22485
849.328	22344
849.463	22291
849.598	22295
849.734	22090
849.869	22143
850.004	22147
850.14	22204
850.275	22021
850.41	21960
850.545	22021
850.68	22029
850.815	22025
850.95	22097
851.085	22322
851.22	22105
851.355	22101
851.49	22112
851.625	21994
851.76	22013
851.895	22006
852.03	22002
852.165	22032
852.299	22086
852.434	22078
852.569	22040
852.703	22173
852.838	22181
852.973	22181
853.107	22143
853.242	22059
853.376	21884
853.511	21892
853.645	21854
853.78	22032
853.914	21876
854.048	21778
854.183	21838
854.317	21873
854.451	22017
854.585	21869
854.72	21998
854.854	21960
854.988	21831
855.122	21819
855.256	21675
855.39	21854
855.524	21880
855.658	22074
855.792	21956
855.926	21789
856.06	21739
856.194	22051
856.327	21823
856.461	21770
856.595	21694
856.729	21869
856.862	21850
856.996	21941
857.13	22044
857.263	21934
857.397	21941
857.53	21739
857.664	21892
857.797	21998
857.931	22025
858.064	21865
858.197	21983
858.331	21724
858.464	21876
858.597	21568
858.731	21857
858.864	21774
858.997	21823
859.13	21819
859.263	21873
859.396	21926
859.529	21861
859.662	21854
859.795	21819
859.928	21823
860.061	22032
860.194	21949
860.327	21979
860.46	21911
860.592	22021
860.725	22078
860.858	21998
860.99	21857
861.123	21838
861.256	21778
861.388	21888
861.521	22466
861.653	21793
861.786	21789
861.918	21663
862.05	21583
862.183	21709
862.315	21759
862.447	21755
862.58	21667
862.712	21450
862.844	21458
862.976	21698
863.108	21576
863.24	21930
863.372	21564
863.504	21542
863.636	21591
863.768	21671
863.9	21523
864.032	21447
864.164	21447
864.296	21557
864.428	21580
864.559	21583
864.691	21614
864.823	21492
864.954	21519
865.086	21625
865.217	21519
865.349	21302
865.48	21447
865.612	21504
865.743	21667
865.875	21587
866.006	21416
866.137	21469
866.269	21408
866.4	21507
866.531	21397
866.662	21325
866.793	21359
866.924	21363
867.055	21348
867.186	21500
867.317	21329
867.448	21298
867.579	21389
867.71	21317
867.841	21218
867.972	21355
868.103	21313
868.233	21382
868.364	21393
868.495	21538
868.625	21580
868.756	21728
868.886	21568
869.017	21656
869.147	21599
869.278	21759
869.408	21667
869.539	21568
869.669	21724
869.799	21618
869.929	21610
870.06	21739
870.19	21941
870.32	21983
870.45	22055
870.58	22044
870.71	22078
870.84	22120
870.97	22002
871.1	21994
871.23	22215
871.36	22166
871.489	22112
871.619	22086
871.749	22173
871.879	22253
872.008	22322
872.138	22177
872.267	22101
872.397	22055
872.526	22002
872.656	22078
872.785	22059
872.915	22306
873.044	22455
873.173	22284
873.303	22295
873.432	22147
873.561	22207
873.69	22257
873.819	22261
873.948	22299
874.077	22310
874.206	22169
874.335	22158
874.464	22299
874.593	22443
874.722	22421
874.851	22489
874.979	22504
875.108	22451
875.237	22295
875.365	22402
875.494	22436
875.623	22569
875.751	22371
875.88	22322
876.008	22527
876.136	22535
876.265	22824
876.393	22915
876.521	22923
876.65	22858
876.778	22911
876.906	22805
877.034	22881
877.162	22797
877.29	22721
877.418	22797
877.546	22759
877.674	22816
877.802	22729
877.93	22767
878.058	22721
878.185	22664
878.313	22801
878.441	22694
878.568	22527
878.696	22706
878.824	22957
878.951	22816
879.079	22999
879.206	23010
879.333	23048
879.461	22873
879.588	22858
879.715	22915
879.842	23056
879.97	22801
880.097	22645
880.224	22573
880.351	22634
880.478	22554
880.605	22497
880.732	22546
880.859	22847
880.986	22516
881.112	22664
881.239	22348
881.366	22375
881.493	22287
881.619	22154
881.746	22226
881.872	22169
881.999	22169
882.125	22048
882.252	22082
882.378	22166
882.505	22341
882.631	21922
882.757	21884
882.883	21930
883.01	21869
883.136	21972
883.262	21690
883.388	21686
883.514	21842
883.64	21907
883.766	21717
883.892	21591
884.018	21637
884.143	21789
884.269	21880
884.395	21496
884.52	21447
884.646	21629
884.772	21473
884.897	21485
885.023	21564
885.148	21606
885.274	21610
885.399	21545
885.524	21587
885.65	21549
885.775	21599
885.9	21492
886.025	21561
886.15	21549
886.275	21496
886.4	21530
886.525	21473
886.65	21332
886.775	21359
886.9	21667
887.025	21694
887.149	21511
887.274	21226
887.399	21264
887.523	21336
887.648	21218
887.773	21188
887.897	21340
888.021	21317
888.146	21241
888.27	21344
888.395	21275
888.519	21218
888.643	21245
888.767	21298
888.891	21169
889.015	21127
889.139	21028
889.263	21028
889.387	21085
889.511	21313
889.635	21211
889.759	21100
889.883	21009
890.006	20910
890.13	21024
890.254	20956
890.377	21009
890.501	20819
890.624	20708
890.748	20777
890.871	20644
890.995	20537
891.118	20602
891.241	20606
891.364	20693
891.488	20667
891.611	20632
891.734	20644
891.857	20571
891.98	20625
892.103	20659
892.226	20549
892.349	20670
892.471	20309
892.594	20476
892.717	20503
892.839	20526
892.962	20598
893.085	20454
893.207	20526
893.33	20442
893.452	20461
893.575	20495
893.697	20533
893.819	20632
893.941	20682
894.064	20697
894.186	20469
894.308	20408
894.43	20590
894.552	20724
894.674	20594
894.796	20332
894.918	20552
895.04	20499
895.161	20609
895.283	20590
895.405	20408
895.526	20590
895.648	20511
895.769	20492
895.891	20594
896.012	20571
896.134	20655
896.255	20454
896.376	20514
896.498	20609
896.619	20495
896.74	20492
896.861	20499
896.982	20849
897.103	20914
897.224	20746
897.345	20724
897.466	20613
897.587	20598
897.708	20762
897.828	20762
897.949	20636
898.07	20450
898.19	20571
898.311	20708
898.431	20674
898.552	20697
898.672	20663
898.792	20758
898.913	20739
899.033	20518
899.153	20495
899.273	20469
899.393	20389
899.513	20503
899.633	20393
899.753	20442
899.873	20446
899.993	20533
900.113	20374
900.232	20351
900.352	20355
900.472	20195
900.591	20278
900.711	20278
900.83	20115
900.95	20332
901.069	20271
901.189	20065
901.308	19902
901.427	19780
901.546	19830
901.665	19906
901.784	19879
901.904	19605
902.023	19696
902.141	19426
902.26	19259
902.379	19350
902.498	19297
902.617	19346
902.735	19285
902.854	19274
902.973	19209
903.091	18863
903.21	19004
903.328	18920
903.446	18848
903.565	18798
903.683	18821
903.801	18658
903.919	18681
904.038	18738
904.156	18547
904.274	18688
904.392	18494
904.51	18494
904.627	18517
904.745	18570
904.863	18589
904.981	18281
905.098	18262
905.216	18266
905.334	18209
905.451	18300
905.569	18174
905.686	18155
905.803	18277
905.921	18015
906.038	18136
906.155	18011
906.272	17836
906.389	17885
906.506	17786
906.623	17718
906.74	17802
906.857	17600
906.974	17756
907.091	17741
907.208	17805
907.324	17680
907.441	17623
907.557	17429
907.674	17440
907.79	17436
907.907	17303
908.023	17520
908.139	17516
908.256	17383
908.372	17410
908.488	17265
908.604	17102
908.72	17166
908.836	17239
908.952	17124
909.068	17299
909.184	17311
909.3	17121
909.415	17151
909.531	17189
909.647	16812
909.762	16904
909.878	16843
909.993	16843
910.108	16881
910.224	16774
910.339	16763
910.454	16755
910.57	16565
910.685	16599
910.8	16828
910.915	16885
911.03	16660
911.145	16500
911.259	16455
911.374	16531
911.489	16413
911.604	16329
911.718	16162
911.833	16150
911.947	16071
912.062	16036
912.176	16135
912.291	16162
912.405	16268
912.519	16379
912.633	16432
912.748	16215
912.862	16188
912.976	15991
913.09	15850
913.204	15972
913.318	16032
913.431	16059
913.545	16067
913.659	16211
913.772	16021
913.886	15930
914	15857
914.113	15915
914.226	15876
914.34	15827
914.453	15728
914.566	15766
914.68	15633
914.793	15663
914.906	15481
915.019	15420
915.132	15416
915.245	15412
915.358	15344
915.47	15363
915.583	15382
915.696	15431
915.809	15564
915.921	15485
916.034	15397
916.146	15321
916.259	15207
916.371	15424
916.483	15298
916.595	15294
916.708	15226
916.82	15203
916.932	15192
917.044	15154
917.156	15180
917.268	15062
917.38	15001
917.491	15043
917.603	15020
917.715	15108
917.826	15119
917.938	15066
918.049	14823
918.161	15062
918.272	15119
918.384	15089
918.495	14948
918.606	14807
918.717	14765
918.828	14902
918.939	14823
919.05	14648
919.161	14724
919.272	14492
919.383	14785
919.494	14883
919.604	14838
919.715	14769
919.826	14655
919.936	14731
920.047	14853
920.157	14750
920.267	15020
920.378	14754
920.488	14708
920.598	14998
920.708	15123
920.818	14823
920.928	14864
921.038	15017
921.148	14948
921.258	14735
921.368	14667
921.477	14377
921.587	14431
921.697	14366
921.806	14499
921.916	14343
922.025	14199
922.134	14020
922.244	14043
922.353	14176
922.462	14054
922.571	14016
922.68	13799
922.789	13753
922.898	13742
923.007	13788
923.116	13875
923.224	13753
923.333	13708
923.442	13708
923.55	13666
923.659	13586
923.767	13670
923.876	13487
923.984	13605
924.092	13476
924.201	13499
924.309	13518
924.417	13495
924.525	13491
924.633	13354
924.741	14229
924.849	13183
924.956	13343
925.064	13251
925.172	13122
925.279	13202
925.387	13217
925.494	13209
925.602	13285
925.709	13175
925.816	13084
925.924	13019
926.031	13213
926.138	13141
926.245	13031
926.352	13095
926.459	13206
926.566	13198
926.673	13019
926.779	12897
926.886	12932
926.993	12753
927.099	12741
927.206	12593
927.312	12654
927.419	12646
927.525	12669
927.631	12768
927.737	12540
927.843	12631
927.95	12532
928.056	12441
928.162	12528
928.267	12597
928.373	13175
928.479	12662
928.585	12346
928.69	12589
928.796	12509
928.901	12342
929.007	12319
929.112	12490
929.218	12429
929.323	12262
929.428	12254
929.533	12407
929.638	12121
929.743	12330
929.848	12273
929.953	12235
930.058	12152
930.163	11946
930.267	11931
930.372	12190
930.477	11958
930.581	12064
930.685	11946
930.79	11764
930.894	11802
930.998	11897
931.103	11927
931.207	11566
931.311	11505
931.415	11417
931.519	11220
931.623	11201
