Data from test_V78500241_2422.txt Node
Date: Fri Mar 25 15:26:43 CST 2022
User: usil
Spectrometer: V785-0024
Trigger mode: 0
Integration Time (sec): 4.000000E-1
Scans to average: 1
Nonlinearity correction enabled: false
Boxcar width: 0
Storing dark spectrum: false
XAxis mode: Wavelengths
Number of Pixels in Spectrum: 1024
>>>>>Begin Spectral Data<<<<<
801.071	27256
801.214	27188
801.356	26979
801.499	26853
801.641	26739
801.783	26708
801.926	26743
802.068	26785
802.211	26606
802.353	26495
802.496	26431
802.638	26434
802.78	26233
802.923	26286
803.065	26301
803.208	26275
803.35	26286
803.492	26552
803.635	26648
803.777	26453
803.919	26499
804.061	26880
804.204	26640
804.346	26381
804.488	26393
804.63	26492
804.773	26473
804.915	26358
805.057	26712
805.199	26518
805.341	26716
805.483	26560
805.626	26518
805.768	26541
805.91	26716
806.052	26575
806.194	26533
806.336	26853
806.478	26629
806.62	26602
806.762	26891
806.904	26960
807.046	27127
807.188	27135
807.33	27131
807.472	27260
807.614	26952
807.756	26914
807.898	27020
808.04	26887
808.182	26861
808.324	26872
808.465	26948
808.607	27089
808.749	27272
808.891	27256
809.033	27393
809.174	27203
809.316	27161
809.458	27195
809.6	27157
809.741	27374
809.883	27515
810.025	27500
810.166	27564
810.308	27393
810.45	27321
810.591	27447
810.733	27268
810.875	27154
811.016	27055
811.158	27096
811.299	27161
811.441	27302
811.582	27420
811.724	27150
811.865	27142
812.007	27051
812.148	27176
812.29	27123
812.431	27325
812.573	27306
812.714	27629
812.855	27770
812.997	27854
813.138	27876
813.279	27831
813.421	27690
813.562	27629
813.703	27447
813.845	27291
813.986	27157
814.127	26872
814.268	26921
814.41	26895
814.551	26739
814.692	26975
814.833	26796
814.974	26895
815.115	26796
815.256	26880
815.397	26720
815.539	26731
815.68	26617
815.821	26571
815.962	26602
816.103	26613
816.244	26545
816.385	26514
816.526	26431
816.666	26275
816.807	26130
816.948	26172
817.089	26180
817.23	26157
817.371	26202
817.512	26161
817.653	26024
817.793	26100
817.934	26168
818.075	26088
818.216	26176
818.356	26043
818.497	26187
818.638	25799
818.778	25917
818.919	25909
819.06	25871
819.2	26027
819.341	26142
819.481	26138
819.622	26191
819.762	26518
819.903	26393
820.043	26343
820.184	26248
820.324	26191
820.465	26358
820.605	26187
820.746	26400
820.886	26092
821.026	26145
821.167	26065
821.307	26309
821.447	26107
821.588	26122
821.728	25898
821.868	25807
822.008	25624
822.149	25616
822.289	25628
822.429	25343
822.569	25354
822.709	25312
822.849	25129
822.99	25126
823.13	25065
823.27	25103
823.41	24894
823.55	24890
823.69	24943
823.83	25053
823.97	24840
824.11	24814
824.25	24684
824.389	24833
824.529	24692
824.669	24776
824.809	24935
824.949	24875
825.089	24802
825.228	24791
825.368	24551
825.508	24601
825.648	24635
825.787	24779
825.927	24623
826.067	24544
826.206	24498
826.346	24574
826.485	24563
826.625	24635
826.765	24722
826.904	24582
827.044	24403
827.183	24372
827.323	24197
827.462	24399
827.601	24342
827.741	24338
827.88	24426
828.02	24190
828.159	24426
828.298	24376
828.437	24445
828.577	24224
828.716	24448
828.855	24243
828.994	24030
829.134	23996
829.273	24045
829.412	24079
829.551	24018
829.69	24003
829.829	24018
829.968	23988
830.107	24114
830.246	24155
830.385	23946
830.524	23939
830.663	23813
830.802	23657
830.941	23627
831.08	23676
831.219	23672
831.357	23760
831.496	23847
831.635	23619
831.774	23589
831.913	23505
832.051	23387
832.19	23395
832.329	23440
832.467	23383
832.606	23212
832.744	23212
832.883	23269
833.022	23284
833.16	23288
833.299	23227
833.437	23269
833.576	23254
833.714	23414
833.852	23425
833.991	23299
834.129	23433
834.267	23490
834.406	23318
834.544	23356
834.682	23406
834.821	23322
834.959	23516
835.097	23246
835.235	23372
835.373	23322
835.511	23341
835.65	23258
835.788	23155
835.926	23166
836.064	22965
836.202	23014
836.34	23193
836.478	23326
836.615	23128
836.753	23277
836.891	23227
837.029	23349
837.167	23124
837.305	23143
837.443	22965
837.58	23079
837.718	23166
837.856	23109
837.993	23041
838.131	23052
838.269	22968
838.406	22866
838.544	22995
838.681	22672
838.819	22561
838.956	22432
839.094	22580
839.231	22565
839.369	22820
839.506	23003
839.643	22809
839.781	22584
839.918	22481
840.055	22512
840.193	22592
840.33	22504
840.467	22462
840.604	22527
840.742	22774
840.879	22394
841.016	22299
841.153	22421
841.29	22637
841.427	22573
841.564	22527
841.701	22535
841.838	22519
841.975	22424
842.112	22318
842.249	22257
842.385	22272
842.522	22394
842.659	22120
842.796	22192
842.933	22147
843.069	22162
843.206	22097
843.343	22257
843.479	22177
843.616	22322
843.752	22143
843.889	21941
844.025	22261
844.162	22093
844.298	22112
844.435	22093
844.571	21937
844.708	22002
844.844	22116
844.98	22200
845.117	22154
845.253	22010
845.389	21949
845.525	21956
845.661	21838
845.798	21846
845.934	21770
846.07	21762
846.206	21804
846.342	21823
846.478	21736
846.614	21629
846.75	21397
846.886	21485
847.022	21591
847.158	21412
847.294	21583
847.429	21622
847.565	21412
847.701	21774
847.837	21230
847.972	21180
848.108	21291
848.244	21321
848.379	21192
848.515	21127
848.65	21100
848.786	21093
848.921	21100
849.057	21104
849.192	21161
849.328	21100
849.463	21017
849.598	21066
849.734	20929
849.869	21009
850.004	20868
850.14	21001
850.275	20853
850.41	20746
850.545	20819
850.68	20754
850.815	20880
850.95	20937
851.085	20971
851.22	20887
851.355	20891
851.49	20876
851.625	20796
851.76	20868
851.895	20773
852.03	20621
852.165	20689
852.299	20857
852.434	21047
852.569	20891
852.703	20883
852.838	20891
852.973	20918
853.107	21039
853.242	20765
853.376	20724
853.511	20621
853.645	20701
853.78	20765
853.914	20781
854.048	20701
854.183	20651
854.317	20727
854.451	20842
854.585	20693
854.72	20636
854.854	20796
854.988	20549
855.122	20689
855.256	20613
855.39	20644
855.524	20765
855.658	20864
855.792	20686
855.926	20754
856.06	20678
856.194	20834
856.327	20705
856.461	20651
856.595	20670
856.729	20815
856.862	20781
856.996	20640
857.13	20735
857.263	20716
857.397	20819
857.53	20587
857.664	20746
857.797	20804
857.931	20750
858.064	20724
858.197	20849
858.331	20693
858.464	20571
858.597	20716
858.731	20716
858.864	20575
858.997	20667
859.13	20731
859.263	20655
859.396	20731
859.529	20686
859.662	20621
859.795	20651
859.928	20678
860.061	20876
860.194	20921
860.327	20731
860.46	20705
860.592	20792
860.725	20880
860.858	20792
860.99	20636
861.123	20724
861.256	20670
861.388	20796
861.521	21230
861.653	20541
861.786	20594
861.918	20625
862.05	20629
862.183	20693
862.315	20533
862.447	20765
862.58	20655
862.712	20434
862.844	20415
862.976	20552
863.108	20495
863.24	20739
863.372	20355
863.504	20442
863.636	20385
863.768	20476
863.9	20355
864.032	20389
864.164	20446
864.296	20301
864.428	20495
864.559	20457
864.691	20446
864.823	20461
864.954	20358
865.086	20355
865.217	20393
865.349	20286
865.48	20385
865.612	20351
865.743	20480
865.875	20442
866.006	20381
866.137	20362
866.269	20286
866.4	20259
866.531	20199
866.662	20347
866.793	20195
866.924	20237
867.055	20263
867.186	20324
867.317	20298
867.448	20062
867.579	20339
867.71	20115
867.841	20157
867.972	20282
868.103	20180
868.233	20305
868.364	20298
868.495	20309
868.625	20541
868.756	20629
868.886	20530
869.017	20438
869.147	20602
869.278	20686
869.408	20511
869.539	20393
869.669	20564
869.799	20579
869.929	20727
870.06	20594
870.19	20823
870.32	20769
870.45	20891
870.58	20880
870.71	20990
870.84	21058
870.97	20861
871.1	20998
871.23	21119
871.36	21112
871.489	21001
871.619	20986
871.749	21245
871.879	21199
872.008	21127
872.138	21108
872.267	21192
872.397	21085
872.526	21032
872.656	20933
872.785	20963
872.915	21165
873.044	21138
873.173	21093
873.303	21169
873.432	21279
873.561	21108
873.69	21070
873.819	21123
873.948	21256
874.077	21165
874.206	21077
874.335	21123
874.464	21199
874.593	21351
874.722	21275
874.851	21340
874.979	21424
875.108	21504
875.237	21310
875.365	21302
875.494	21367
875.623	21549
875.751	21363
875.88	21443
876.008	21496
876.136	21534
876.265	21724
876.393	21911
876.521	21880
876.65	21926
876.778	21751
876.906	21781
877.034	21686
877.162	21804
877.29	21633
877.418	21736
877.546	21728
877.674	21724
877.802	21755
877.93	21690
878.058	21675
878.185	21671
878.313	21728
878.441	21766
878.568	21587
878.696	21690
878.824	21819
878.951	21766
879.079	21861
879.206	22006
879.333	21975
879.461	21759
879.588	21804
879.715	21869
879.842	22120
879.97	21698
880.097	21610
880.224	21549
880.351	21530
880.478	21511
880.605	21561
880.732	21496
880.859	21888
880.986	21587
881.112	21549
881.239	21374
881.366	21386
881.493	21294
881.619	21184
881.746	21275
881.872	21024
881.999	21020
882.125	21138
882.252	21150
882.378	21131
882.505	21188
882.631	21036
882.757	20876
882.883	20982
883.01	20788
883.136	20796
883.262	20739
883.388	20785
883.514	20796
883.64	20796
883.766	20689
883.892	20640
884.018	20720
884.143	20800
884.269	20826
884.395	20438
884.52	20408
884.646	20613
884.772	20514
884.897	20408
885.023	20473
885.148	20606
885.274	20648
885.399	20606
885.524	20549
885.65	20469
885.775	20617
885.9	20537
886.025	20587
886.15	20636
886.275	20526
886.4	20408
886.525	20358
886.65	20457
886.775	20381
886.9	20590
887.025	20754
887.149	20457
887.274	20263
887.399	20408
887.523	20252
887.648	20111
887.773	20176
887.897	20377
888.021	20259
888.146	20191
888.27	20282
888.395	20336
888.519	20389
888.643	20355
888.767	20263
888.891	20180
889.015	20122
889.139	20130
889.263	20027
889.387	20256
889.511	20396
889.635	20130
889.759	20161
889.883	20115
890.006	20084
890.13	20187
890.254	20043
890.377	19955
890.501	19906
890.624	19982
890.748	19921
890.871	19769
890.995	19643
891.118	19605
891.241	19715
891.364	19582
891.488	19879
891.611	19620
891.734	19658
891.857	19635
891.98	19693
892.103	19734
892.226	19643
892.349	19582
892.471	19419
892.594	19537
892.717	19529
892.839	19453
892.962	19616
893.085	19677
893.207	19537
893.33	19499
893.452	19540
893.575	19685
893.697	19582
893.819	19708
893.941	19731
894.064	19795
894.186	19316
894.308	19480
894.43	19586
894.552	19723
894.674	19651
894.796	19556
894.918	19495
895.04	19563
895.161	19647
895.283	19731
895.405	19518
895.526	19537
895.648	19434
895.769	19544
895.891	19624
896.012	19689
896.134	19658
896.255	19639
896.376	19422
896.498	19609
896.619	19639
896.74	19693
896.861	19662
896.982	19818
897.103	20054
897.224	19871
897.345	19791
897.466	19719
897.587	19814
897.708	19989
897.828	19795
897.949	19731
898.07	19727
898.19	19727
898.311	19902
898.431	19826
898.552	19655
898.672	19875
898.792	19936
898.913	19772
899.033	19734
899.153	19556
899.273	19495
899.393	19537
899.513	19624
899.633	19521
899.753	19521
899.873	19556
899.993	19559
900.113	19438
900.232	19613
900.352	19354
900.472	19377
900.591	19358
900.711	19266
900.83	19244
900.95	19369
901.069	19438
901.189	19312
901.308	19042
901.427	18973
901.546	18973
901.665	19008
901.784	18996
901.904	18776
902.023	18692
902.141	18612
902.26	18433
902.379	18620
902.498	18486
902.617	18464
902.735	18479
902.854	18426
902.973	18369
903.091	18262
903.21	18068
903.328	18152
903.446	18087
903.565	18030
903.683	17927
903.801	17813
903.919	17859
904.038	17821
904.156	17729
904.274	17737
904.392	17695
904.51	17741
904.627	17756
904.745	17722
904.863	17802
904.981	17478
905.098	17364
905.216	17516
905.334	17459
905.451	17490
905.569	17337
905.686	17360
905.803	17425
905.921	17227
906.038	17296
906.155	17121
906.272	17227
906.389	17094
906.506	16946
906.623	17037
906.74	16809
906.857	16839
906.974	16850
907.091	16919
907.208	16946
907.324	17010
907.441	16778
907.557	16656
907.674	16660
907.79	16596
907.907	16535
908.023	16607
908.139	16630
908.256	16687
908.372	16527
908.488	16516
908.604	16360
908.72	16238
908.836	16344
908.952	16306
909.068	16390
909.184	16497
909.3	16394
909.415	16394
909.531	16390
909.647	16063
909.762	16173
909.878	15991
909.993	16090
910.108	16143
910.224	16185
910.339	16055
910.454	16067
910.57	15937
910.685	15717
910.8	16158
910.915	16082
911.03	15937
911.145	15751
911.259	15641
911.374	15671
911.489	15622
911.604	15587
911.718	15458
911.833	15412
911.947	15310
912.062	15256
912.176	15397
912.291	15397
912.405	15523
912.519	15599
912.633	15656
912.748	15439
912.862	15332
912.976	15256
913.09	15157
913.204	15195
913.318	15260
913.431	15313
913.545	15382
913.659	15252
913.772	15264
913.886	15127
914	15097
914.113	15100
914.226	15150
914.34	15112
914.453	14975
914.566	15066
914.68	14941
914.793	15013
914.906	14807
915.019	14663
915.132	14590
915.245	14667
915.358	14697
915.47	14682
915.583	14648
915.696	14735
915.809	14777
915.921	14807
916.034	14640
916.146	14571
916.259	14507
916.371	14705
916.483	14560
916.595	14533
916.708	14560
916.82	14549
916.932	14408
917.044	14579
917.156	14385
917.268	14374
917.38	14355
917.491	14240
917.603	14328
917.715	14404
917.826	14450
917.938	14267
918.049	14282
918.161	14218
918.272	14495
918.384	14347
918.495	14286
918.606	14176
918.717	14084
918.828	14062
918.939	14145
919.05	14016
919.161	13993
919.272	13841
919.383	13989
919.494	14210
919.604	14252
919.715	14069
919.826	13993
919.936	14077
920.047	14103
920.157	14107
920.267	14298
920.378	14039
920.488	14096
920.598	14195
920.708	14362
920.818	14343
920.928	14294
921.038	14313
921.148	14298
921.258	14138
921.368	13944
921.477	13898
921.587	13776
921.697	13643
921.806	13822
921.916	13753
922.025	13540
922.134	13533
922.244	13445
922.353	13487
922.462	13422
922.571	13274
922.68	13084
922.789	13164
922.898	13244
923.007	13088
923.116	13122
923.224	13053
923.333	13061
923.442	12993
923.55	12882
923.659	12985
923.767	13027
923.876	12886
923.984	13065
924.092	12886
924.201	12897
924.309	12833
924.417	12939
924.525	12817
924.633	12856
924.741	13693
924.849	12681
924.956	12684
925.064	12593
925.172	12551
925.279	12544
925.387	12642
925.494	12597
925.602	12703
925.709	12646
925.816	12551
925.924	12582
926.031	12665
926.138	12544
926.245	12654
926.352	12498
926.459	12620
926.566	12570
926.673	12540
926.779	12289
926.886	12414
926.993	12144
927.099	12163
927.206	12182
927.312	12091
927.419	12213
927.525	12175
927.631	12197
927.737	12038
927.843	12057
927.95	11999
928.056	12015
928.162	12106
928.267	11988
928.373	12642
928.479	12133
928.585	11927
928.69	11954
928.796	12003
928.901	11954
929.007	11684
929.112	11859
929.218	11802
929.323	11710
929.428	11714
929.533	11950
929.638	11760
929.743	11680
929.848	11657
929.953	11726
930.058	11589
930.163	11398
930.267	11463
930.372	11577
930.477	11414
930.581	11630
930.685	11554
930.79	11360
930.894	11277
930.998	11280
931.103	11474
931.207	11056
931.311	11029
931.415	10938
931.519	10736
931.623	10717
