Data from test_V78500241_3493.txt Node
Date: Fri Mar 25 15:34:10 CST 2022
User: usil
Spectrometer: V785-0024
Trigger mode: 0
Integration Time (sec): 4.000000E-1
Scans to average: 1
Nonlinearity correction enabled: false
Boxcar width: 0
Storing dark spectrum: false
XAxis mode: Wavelengths
Number of Pixels in Spectrum: 1024
>>>>>Begin Spectral Data<<<<<
801.071	27218
801.214	27211
801.356	26940
801.499	26876
801.641	26663
801.783	26811
801.926	26762
802.068	26849
802.211	26765
802.353	26712
802.496	26530
802.638	26404
802.78	26355
802.923	26282
803.065	26370
803.208	26362
803.35	26434
803.492	26598
803.635	26659
803.777	26701
803.919	26765
804.061	26944
804.204	26629
804.346	26473
804.488	26556
804.63	26488
804.773	26499
804.915	26438
805.057	26750
805.199	26552
805.341	26659
805.483	26693
805.626	26838
805.768	26743
805.91	26545
806.052	26640
806.194	26792
806.336	26952
806.478	26746
806.62	26720
806.762	26769
806.904	26982
807.046	27195
807.188	27161
807.33	26986
807.472	27222
807.614	27096
807.756	26956
807.898	26929
808.04	26826
808.182	26921
808.324	26979
808.465	26986
808.607	27207
808.749	27283
808.891	27454
809.033	27496
809.174	27302
809.316	27241
809.458	27374
809.6	27245
809.741	27355
809.883	27321
810.025	27450
810.166	27466
810.308	27641
810.45	27618
810.591	27564
810.733	27348
810.875	27184
811.016	27256
811.158	27100
811.299	27412
811.441	27507
811.582	27386
811.724	27336
811.865	27363
812.007	27420
812.148	27176
812.29	27401
812.431	27462
812.573	27572
812.714	27663
812.855	27652
812.997	27994
813.138	27892
813.279	27991
813.421	27854
813.562	27682
813.703	27698
813.845	27576
813.986	27283
814.127	27058
814.268	26872
814.41	27089
814.551	27096
814.692	26971
814.833	26899
814.974	26750
815.115	26891
815.256	26849
815.397	26857
815.539	26819
815.68	26667
815.821	26765
815.962	26769
816.103	26670
816.244	26522
816.385	26537
816.526	26522
816.666	26347
816.807	26069
816.948	26336
817.089	26385
817.23	26195
817.371	26069
817.512	26199
817.653	26202
817.793	26092
817.934	26229
818.075	26233
818.216	26210
818.356	26187
818.497	26206
818.638	26062
818.778	25993
818.919	26035
819.06	26092
819.2	26145
819.341	26214
819.481	26248
819.622	26377
819.762	26602
819.903	26438
820.043	26408
820.184	26240
820.324	26351
820.465	26362
820.605	26355
820.746	26153
820.886	26305
821.026	26206
821.167	26259
821.307	26362
821.447	26111
821.588	26172
821.728	26043
821.868	25909
822.008	25704
822.149	25674
822.289	25563
822.429	25445
822.569	25388
822.709	25339
822.849	25198
822.99	25304
823.13	25198
823.27	25107
823.41	25057
823.55	24951
823.69	25091
823.83	25129
823.97	24920
824.11	24821
824.25	24817
824.389	24954
824.529	24905
824.669	24924
824.809	24943
824.949	24905
825.089	24916
825.228	24859
825.368	24639
825.508	24658
825.648	24715
825.787	24627
825.927	24779
826.067	24585
826.206	24642
826.346	24688
826.485	24650
826.625	24753
826.765	24814
826.904	24779
827.044	24589
827.183	24608
827.323	24521
827.462	24376
827.601	24437
827.741	24448
827.88	24464
828.02	24247
828.159	24422
828.298	24350
828.437	24399
828.577	24369
828.716	24574
828.855	24319
828.994	24213
829.134	24167
829.273	24228
829.412	24076
829.551	23996
829.69	24174
829.829	24136
829.968	24186
830.107	24319
830.246	24235
830.385	24125
830.524	24083
830.663	24026
830.802	23851
830.941	23779
831.08	23668
831.219	23809
831.357	23908
831.496	23946
831.635	23783
831.774	23714
831.913	23623
832.051	23528
832.19	23490
832.329	23543
832.467	23524
832.606	23303
832.744	23433
832.883	23459
833.022	23307
833.16	23501
833.299	23528
833.437	23608
833.576	23512
833.714	23490
833.852	23433
833.991	23611
834.129	23596
834.267	23551
834.406	23505
834.544	23528
834.682	23505
834.821	23334
834.959	23657
835.097	23474
835.235	23558
835.373	23440
835.511	23448
835.65	23254
835.788	23349
835.926	23216
836.064	23235
836.202	23292
836.34	23398
836.478	23467
836.615	23421
836.753	23315
836.891	23490
837.029	23459
837.167	23356
837.305	23318
837.443	23140
837.58	23151
837.718	23330
837.856	23185
837.993	23223
838.131	23220
838.269	23102
838.406	23052
838.544	23094
838.681	22866
838.819	22755
838.956	22679
839.094	22634
839.231	22626
839.369	22942
839.506	23208
839.643	22885
839.781	22672
839.918	22656
840.055	22615
840.193	22713
840.33	22630
840.467	22599
840.604	22645
840.742	22911
840.879	22577
841.016	22577
841.153	22485
841.29	22752
841.427	22592
841.564	22615
841.701	22603
841.838	22561
841.975	22554
842.112	22546
842.249	22451
842.385	22424
842.522	22546
842.659	22504
842.796	22413
842.933	22451
843.069	22177
843.206	22379
843.343	22341
843.479	22337
843.616	22402
843.752	22150
843.889	22158
844.025	22211
844.162	22192
844.298	22261
844.435	22162
844.571	22048
844.708	22154
844.844	22394
844.98	22306
845.117	22257
845.253	22158
845.389	21991
845.525	22169
845.661	22131
845.798	21800
845.934	21922
846.07	21812
846.206	21918
846.342	22063
846.478	21918
846.614	21656
846.75	21614
846.886	21675
847.022	21751
847.158	21561
847.294	21549
847.429	21671
847.565	21644
847.701	21793
847.837	21431
847.972	21389
848.108	21504
848.244	21367
848.379	21264
848.515	21199
848.65	21176
848.786	21226
848.921	21199
849.057	21268
849.192	21222
849.328	21199
849.463	21188
849.598	21264
849.734	21089
849.869	21066
850.004	21020
850.14	21013
850.275	21024
850.41	20960
850.545	20990
850.68	20944
850.815	21055
850.95	21001
851.085	21157
851.22	21154
851.355	20880
851.49	20899
851.625	20891
851.76	20895
851.895	20861
852.03	20979
852.165	20982
852.299	20956
852.434	21009
852.569	21001
852.703	20937
852.838	20963
852.973	21089
853.107	21169
853.242	20948
853.376	20823
853.511	20682
853.645	20895
853.78	20918
853.914	20883
854.048	20655
854.183	20785
854.317	20872
854.451	21001
854.585	20788
854.72	20842
854.854	20769
854.988	20773
855.122	20872
855.256	20800
855.39	20750
855.524	20834
855.658	20823
855.792	20842
855.926	20746
856.06	20823
856.194	20914
856.327	20739
856.461	20853
856.595	20754
856.729	20765
856.862	20906
856.996	20826
857.13	20868
857.263	20868
857.397	20925
857.53	20727
857.664	20857
857.797	20864
857.931	20944
858.064	20807
858.197	20765
858.331	20815
858.464	20899
858.597	20796
858.731	20864
858.864	20796
858.997	20823
859.13	20804
859.263	20788
859.396	20929
859.529	20777
859.662	20826
859.795	20811
859.928	20906
860.061	20948
860.194	21047
860.327	20849
860.46	20800
860.592	20975
860.725	20891
860.858	20929
860.99	20727
861.123	20750
861.256	20701
861.388	20804
861.521	21526
861.653	20800
861.786	20693
861.918	20571
862.05	20743
862.183	20830
862.315	20674
862.447	20785
862.58	20750
862.712	20583
862.844	20503
862.976	20549
863.108	20568
863.24	21089
863.372	20442
863.504	20564
863.636	20488
863.768	20324
863.9	20530
864.032	20518
864.164	20495
864.296	20568
864.428	20689
864.559	20587
864.691	20575
864.823	20465
864.954	20640
865.086	20423
865.217	20450
865.349	20476
865.48	20533
865.612	20408
865.743	20579
865.875	20476
866.006	20370
866.137	20366
866.269	20518
866.4	20423
866.531	20404
866.662	20427
866.793	20450
866.924	20362
867.055	20374
867.186	20415
867.317	20385
867.448	20206
867.579	20332
867.71	20400
867.841	20385
867.972	20366
868.103	20366
868.233	20332
868.364	20339
868.495	20484
868.625	20644
868.756	20708
868.886	20533
869.017	20537
869.147	20716
869.278	20712
869.408	20701
869.539	20693
869.669	20785
869.799	20769
869.929	20693
870.06	20674
870.19	20895
870.32	20826
870.45	20967
870.58	20891
870.71	21188
870.84	21157
870.97	20963
871.1	21055
871.23	21123
871.36	21093
871.489	21062
871.619	21169
871.749	21207
871.879	21268
872.008	21249
872.138	21199
872.267	21173
872.397	21089
872.526	21043
872.656	21051
872.785	21146
872.915	21264
873.044	21397
873.173	21135
873.303	21370
873.432	21291
873.561	21332
873.69	21154
873.819	21218
873.948	21363
874.077	21283
874.206	21192
874.335	21260
874.464	21389
874.593	21469
874.722	21424
874.851	21526
874.979	21606
875.108	21564
875.237	21492
875.365	21462
875.494	21564
875.623	21507
875.751	21485
875.88	21557
876.008	21682
876.136	21690
876.265	21880
876.393	21968
876.521	21956
876.65	21934
876.778	21831
876.906	21838
877.034	21701
877.162	21838
877.29	21766
877.418	21873
877.546	21808
877.674	21854
877.802	21953
877.93	21934
878.058	21785
878.185	21648
878.313	21831
878.441	21743
878.568	21789
878.696	21759
878.824	21918
878.951	21816
879.079	22086
879.206	22143
879.333	21983
879.461	21873
879.588	22055
879.715	21937
879.842	22097
879.97	21884
880.097	21785
880.224	21675
880.351	21656
880.478	21660
880.605	21717
880.732	21679
880.859	21854
880.986	21629
881.112	21720
881.239	21458
881.366	21260
881.493	21302
881.619	21192
881.746	21222
881.872	21367
881.999	21184
882.125	21195
882.252	21302
882.378	21188
882.505	21268
882.631	21039
882.757	21005
882.883	21062
883.01	21093
883.136	20899
883.262	20914
883.388	20708
883.514	20914
883.64	20963
883.766	20910
883.892	20617
884.018	20815
884.143	20864
884.269	20994
884.395	20667
884.52	20629
884.646	20651
884.772	20663
884.897	20473
885.023	20613
885.148	20743
885.274	20716
885.399	20670
885.524	20663
885.65	20670
885.775	20625
885.9	20556
886.025	20727
886.15	20823
886.275	20568
886.4	20594
886.525	20617
886.65	20560
886.775	20693
886.9	20659
887.025	20853
887.149	20644
887.274	20469
887.399	20408
887.523	20400
887.648	20393
887.773	20332
887.897	20571
888.021	20492
888.146	20195
888.27	20442
888.395	20457
888.519	20419
888.643	20423
888.767	20526
888.891	20343
889.015	20180
889.139	20320
889.263	20332
889.387	20328
889.511	20423
889.635	20431
889.759	20111
889.883	20309
890.006	20286
890.13	20415
890.254	20172
890.377	20149
890.501	19978
890.624	20016
890.748	20096
890.871	19894
890.995	19750
891.118	19620
891.241	19788
891.364	19879
891.488	19955
891.611	19738
891.734	19811
891.857	19868
891.98	19818
892.103	19811
892.226	19814
892.349	19655
892.471	19571
892.594	19750
892.717	19765
892.839	19609
892.962	19712
893.085	19818
893.207	19700
893.33	19681
893.452	19655
893.575	19750
893.697	19609
893.819	19868
893.941	19978
894.064	19753
894.186	19616
894.308	19696
894.43	19902
894.552	19841
894.674	19814
894.796	19605
894.918	19837
895.04	19651
895.161	19746
895.283	19685
895.405	19575
895.526	19719
895.648	19662
895.769	19791
895.891	19822
896.012	19818
896.134	19712
896.255	19757
896.376	19696
896.498	19643
896.619	19803
896.74	19761
896.861	19685
896.982	19921
897.103	20134
897.224	20054
897.345	19982
897.466	19868
897.587	19989
897.708	20107
897.828	19974
897.949	19856
898.07	19864
898.19	19788
898.311	19974
898.431	19989
898.552	19868
898.672	20012
898.792	20027
898.913	20008
899.033	19788
899.153	19674
899.273	19624
899.393	19791
899.513	19826
899.633	19704
899.753	19685
899.873	19734
899.993	19681
900.113	19632
900.232	19639
900.352	19651
900.472	19449
900.591	19335
900.711	19468
900.83	19369
900.95	19586
901.069	19529
901.189	19381
901.308	19137
901.427	19156
901.546	18970
901.665	18989
901.784	19061
901.904	18951
902.023	18840
902.141	18585
902.26	18540
902.379	18635
902.498	18601
902.617	18532
902.735	18646
902.854	18532
902.973	18498
903.091	18243
903.21	18182
903.328	18235
903.446	18174
903.565	18159
903.683	18057
903.801	17977
903.919	17897
904.038	18076
904.156	17813
904.274	17813
904.392	17878
904.51	17805
904.627	17878
904.745	17935
904.863	17882
904.981	17600
905.098	17535
905.216	17490
905.334	17482
905.451	17509
905.569	17467
905.686	17535
905.803	17554
905.921	17250
906.038	17402
906.155	17330
906.272	17102
906.389	17220
906.506	17086
906.623	17060
906.74	17083
906.857	16900
906.974	17014
907.091	17102
907.208	17155
907.324	17079
907.441	16877
907.557	16797
907.674	16793
907.79	16675
907.907	16755
908.023	16854
908.139	16824
908.256	16645
908.372	16752
908.488	16630
908.604	16504
908.72	16474
908.836	16440
908.952	16512
909.068	16451
909.184	16561
909.3	16478
909.415	16481
909.531	16478
909.647	16257
909.762	16181
909.878	16158
909.993	16246
910.108	16169
910.224	16185
910.339	16188
910.454	16112
910.57	16029
910.685	15899
910.8	16265
910.915	16196
911.03	15937
911.145	15831
911.259	15781
911.374	15751
911.489	15728
911.604	15781
911.718	15584
911.833	15568
911.947	15443
912.062	15348
912.176	15542
912.291	15622
912.405	15507
912.519	15732
912.633	15819
912.748	15663
912.862	15523
912.976	15367
913.09	15176
913.204	15367
913.318	15416
913.431	15443
913.545	15507
913.659	15504
913.772	15321
913.886	15214
914	15119
914.113	15275
914.226	15348
914.34	15192
914.453	15062
914.566	15195
914.68	15077
914.793	14960
914.906	14785
915.019	14842
915.132	14678
915.245	14792
915.358	14727
915.47	14735
915.583	14769
915.696	14743
915.809	14921
915.921	14960
916.034	14731
916.146	14686
916.259	14689
916.371	14746
916.483	14823
916.595	14613
916.708	14708
916.82	14629
916.932	14556
917.044	14606
917.156	14583
917.268	14560
917.38	14537
917.491	14381
917.603	14423
917.715	14648
917.826	14518
917.938	14419
918.049	14282
918.161	14431
918.272	14522
918.384	14454
918.495	14514
918.606	14244
918.717	14199
918.828	14275
918.939	14282
919.05	14153
919.161	14202
919.272	14069
919.383	14134
919.494	14313
919.604	14412
919.715	14142
919.826	14115
919.936	14134
920.047	14256
920.157	14164
920.267	14465
920.378	14225
920.488	14065
920.598	14298
920.708	14446
920.818	14301
920.928	14317
921.038	14552
921.148	14370
921.258	14058
921.368	13997
921.477	13928
921.587	13947
921.697	13906
921.806	13921
921.916	13795
922.025	13643
922.134	13571
922.244	13590
922.353	13582
922.462	13426
922.571	13441
922.68	13240
922.789	13278
922.898	13282
923.007	13202
923.116	13289
923.224	13232
923.333	13206
923.442	13114
923.55	13145
923.659	13156
923.767	13110
923.876	13072
923.984	13114
924.092	13023
924.201	13023
924.309	13004
924.417	12958
924.525	12916
924.633	12825
924.741	13681
924.849	12741
924.956	12859
925.064	12662
925.172	12601
925.279	12662
925.387	12665
925.494	12597
925.602	12817
925.709	12757
925.816	12566
925.924	12528
926.031	12692
926.138	12608
926.245	12722
926.352	12540
926.459	12654
926.566	12669
926.673	12525
926.779	12475
926.886	12426
926.993	12311
927.099	12311
927.206	12213
927.312	12190
927.419	12243
927.525	12190
927.631	12235
927.737	12095
927.843	12121
927.95	12038
928.056	11992
928.162	12144
928.267	12083
928.373	12650
928.479	12098
928.585	11878
928.69	12072
928.796	12136
928.901	11946
929.007	11809
929.112	11939
929.218	11897
929.323	11832
929.428	11821
929.533	11946
929.638	11741
929.743	11775
929.848	11790
929.953	11809
930.058	11657
930.163	11478
930.267	11391
930.372	11634
930.477	11433
930.581	11691
930.685	11486
930.79	11402
930.894	11303
930.998	11318
931.103	11493
931.207	11075
931.311	11060
931.415	11006
931.519	10793
931.623	10721
