Data from test_V78500241_1261.txt Node
Date: Fri Mar 25 15:18:38 CST 2022
User: usil
Spectrometer: V785-0024
Trigger mode: 0
Integration Time (sec): 4.000000E-1
Scans to average: 1
Nonlinearity correction enabled: false
Boxcar width: 0
Storing dark spectrum: false
XAxis mode: Wavelengths
Number of Pixels in Spectrum: 1024
>>>>>Begin Spectral Data<<<<<
801.071	28093
801.214	28154
801.356	27759
801.499	27538
801.641	27663
801.783	27553
801.926	27526
802.068	27633
802.211	27462
802.353	27431
802.496	27427
802.638	27313
802.78	27252
802.923	27184
803.065	27199
803.208	27252
803.35	27211
803.492	27363
803.635	27321
803.777	27344
803.919	27568
804.061	27614
804.204	27462
804.346	27492
804.488	27336
804.63	27477
804.773	27325
804.915	27397
805.057	27450
805.199	27367
805.341	27511
805.483	27610
805.626	27545
805.768	27439
805.91	27454
806.052	27504
806.194	27545
806.336	27701
806.478	27660
806.62	27698
806.762	27580
806.904	27800
807.046	27991
807.188	28048
807.33	28086
807.472	28059
807.614	27956
807.756	27922
807.898	27835
808.04	27701
808.182	27705
808.324	27949
808.465	27922
808.607	28101
808.749	28169
808.891	28333
809.033	28428
809.174	28200
809.316	28272
809.458	28188
809.6	28128
809.741	28360
809.883	28352
810.025	28557
810.166	28683
810.308	28497
810.45	28489
810.591	28253
810.733	28367
810.875	28200
811.016	28143
811.158	28173
811.299	28234
811.441	28470
811.582	28356
811.724	28268
811.865	28173
812.007	28215
812.148	28234
812.29	28226
812.431	28405
812.573	28527
812.714	28630
812.855	28782
812.997	28771
813.138	28896
813.279	28748
813.421	28862
813.562	28752
813.703	28683
813.845	28584
813.986	28249
814.127	28070
814.268	27953
814.41	27979
814.551	28002
814.692	28067
814.833	27831
814.974	27819
815.115	27857
815.256	27766
815.397	27823
815.539	27717
815.68	27823
815.821	27736
815.962	27743
816.103	27648
816.244	27648
816.385	27500
816.526	27469
816.666	27405
816.807	27135
816.948	27344
817.089	27283
817.23	27146
817.371	27188
817.512	27264
817.653	27169
817.793	27195
817.934	27180
818.075	27233
818.216	27218
818.356	27207
818.497	27089
818.638	26990
818.778	27036
818.919	27127
819.06	27150
819.2	27123
819.341	27249
819.481	27173
819.622	27329
819.762	27538
819.903	27568
820.043	27310
820.184	27363
820.324	27188
820.465	27458
820.605	27393
820.746	27412
820.886	27173
821.026	27351
821.167	27252
821.307	27462
821.447	27135
821.588	27264
821.728	27005
821.868	26979
822.008	26842
822.149	26648
822.289	26845
822.429	26419
822.569	26362
822.709	26446
822.849	26225
822.99	26221
823.13	26275
823.27	26134
823.41	25966
823.55	26031
823.69	26020
823.83	26069
823.97	25974
824.11	25784
824.25	25913
824.389	25822
824.529	25963
824.669	25860
824.809	26058
824.949	25887
825.089	25909
825.228	25917
825.368	25849
825.508	25879
825.648	25780
825.787	25833
825.927	25807
826.067	25689
826.206	25670
826.346	25715
826.485	25791
826.625	25723
826.765	25864
826.904	25731
827.044	25510
827.183	25525
827.323	25407
827.462	25540
827.601	25468
827.741	25449
827.88	25548
828.02	25396
828.159	25457
828.298	25506
828.437	25540
828.577	25320
828.716	25445
828.855	25350
828.994	25114
829.134	25095
829.273	25141
829.412	25148
829.551	25126
829.69	25122
829.829	25164
829.968	25194
830.107	25217
830.246	25160
830.385	25080
830.524	24935
830.663	25008
830.802	24951
830.941	24783
831.08	24798
831.219	24867
831.357	24890
831.496	25057
831.635	24753
831.774	24582
831.913	24700
832.051	24525
832.19	24574
832.329	24563
832.467	24399
832.606	24460
832.744	24429
832.883	24441
833.022	24399
833.16	24563
833.299	24540
833.437	24521
833.576	24536
833.714	24540
833.852	24639
833.991	24566
834.129	24593
834.267	24646
834.406	24616
834.544	24486
834.682	24544
834.821	24448
834.959	24593
835.097	24544
835.235	24536
835.373	24486
835.511	24464
835.65	24372
835.788	24296
835.926	24319
836.064	24228
836.202	24220
836.34	24380
836.478	24456
836.615	24296
836.753	24273
836.891	24346
837.029	24300
837.167	24262
837.305	24292
837.443	24201
837.58	24171
837.718	24152
837.856	24228
837.993	24121
838.131	24270
838.269	24098
838.406	24106
838.544	23988
838.681	23756
838.819	23847
838.956	23623
839.094	23634
839.231	23657
839.369	23874
839.506	24003
839.643	23901
839.781	23615
839.918	23600
840.055	23589
840.193	23623
840.33	23562
840.467	23687
840.604	23535
840.742	23863
840.879	23429
841.016	23585
841.153	23368
841.29	23672
841.427	23505
841.564	23600
841.701	23687
841.838	23490
841.975	23490
842.112	23501
842.249	23452
842.385	23303
842.522	23611
842.659	23455
842.796	23326
842.933	23356
843.069	23292
843.206	23254
843.343	23421
843.479	23326
843.616	23330
843.752	23162
843.889	23193
844.025	23204
844.162	23200
844.298	23147
844.435	23048
844.571	23105
844.708	23052
844.844	23315
844.98	23246
845.117	23060
845.253	23083
845.389	23071
845.525	23014
845.661	22915
845.798	22835
845.934	22949
846.07	22759
846.206	22904
846.342	22866
846.478	22706
846.614	22706
846.75	22580
846.886	22432
847.022	22592
847.158	22538
847.294	22565
847.429	22592
847.565	22622
847.701	22805
847.837	22318
847.972	22409
848.108	22367
848.244	22512
848.379	22215
848.515	22242
848.65	22109
848.786	22200
848.921	22211
849.057	22333
849.192	22295
849.328	22261
849.463	22086
849.598	22112
849.734	22013
849.869	21991
850.004	21884
850.14	21888
850.275	22017
850.41	21846
850.545	21937
850.68	21907
850.815	21861
850.95	21888
851.085	22128
851.22	22177
851.355	21968
851.49	22029
851.625	21880
851.76	21899
851.895	21854
852.03	21873
852.165	21892
852.299	21926
852.434	22029
852.569	21892
852.703	21899
852.838	21941
852.973	22067
853.107	21911
853.242	21899
853.376	21720
853.511	21606
853.645	21732
853.78	21892
853.914	21747
854.048	21732
854.183	21736
854.317	21812
854.451	21884
854.585	21846
854.72	21762
854.854	21762
854.988	21679
855.122	21709
855.256	21656
855.39	21595
855.524	21747
855.658	21755
855.792	21747
855.926	21781
856.06	21732
856.194	21895
856.327	21671
856.461	21747
856.595	21656
856.729	21694
856.862	21915
856.996	21804
857.13	21899
857.263	21804
857.397	21861
857.53	21663
857.664	21804
857.797	21774
857.931	21907
858.064	21694
858.197	21899
858.331	21751
858.464	21629
858.597	21698
858.731	21816
858.864	21641
858.997	21732
859.13	21831
859.263	21816
859.396	21865
859.529	21679
859.662	21728
859.795	21732
859.928	21610
860.061	21838
860.194	21953
860.327	21922
860.46	21709
860.592	21907
860.725	21941
860.858	21835
860.99	21797
861.123	21728
861.256	21648
861.388	21831
861.521	22421
861.653	21644
861.786	21542
861.918	21663
862.05	21614
862.183	21644
862.315	21595
862.447	21675
862.58	21739
862.712	21401
862.844	21447
862.976	21549
863.108	21492
863.24	21759
863.372	21473
863.504	21545
863.636	21492
863.768	21443
863.9	21431
864.032	21507
864.164	21348
864.296	21428
864.428	21511
864.559	21462
864.691	21526
864.823	21405
864.954	21519
865.086	21420
865.217	21367
865.349	21313
865.48	21336
865.612	21302
865.743	21500
865.875	21363
866.006	21310
866.137	21325
866.269	21408
866.4	21325
866.531	21214
866.662	21180
866.793	21214
866.924	21241
867.055	21119
867.186	21230
867.317	21283
867.448	21237
867.579	21268
867.71	21146
867.841	21226
867.972	21336
868.103	21233
868.233	21268
868.364	21237
868.495	21298
868.625	21526
868.756	21568
868.886	21443
869.017	21466
869.147	21534
869.278	21652
869.408	21534
869.539	21462
869.669	21504
869.799	21553
869.929	21709
870.06	21534
870.19	21755
870.32	21816
870.45	21846
870.58	21956
870.71	21953
870.84	22025
870.97	21884
871.1	21873
871.23	22116
871.36	22051
871.489	21956
871.619	22032
871.749	22169
871.879	22150
872.008	22226
872.138	22036
872.267	22162
872.397	21941
872.526	21876
872.656	21972
872.785	21918
872.915	22135
873.044	22196
873.173	22158
873.303	22173
873.432	22147
873.561	22360
873.69	21983
873.819	22128
873.948	22234
874.077	22120
874.206	22147
874.335	22097
874.464	22242
874.593	22230
874.722	22211
874.851	22386
874.979	22341
875.108	22493
875.237	22287
875.365	22268
875.494	22272
875.623	22322
875.751	22386
875.88	22322
876.008	22318
876.136	22447
876.265	22759
876.393	22771
876.521	22763
876.65	22828
876.778	22668
876.906	22607
877.034	22725
877.162	22889
877.29	22569
877.418	22748
877.546	22630
877.674	22820
877.802	22668
877.93	22577
878.058	22561
878.185	22706
878.313	22641
878.441	22729
878.568	22561
878.696	22519
878.824	22649
878.951	22713
879.079	22797
879.206	22968
879.333	22889
879.461	22812
879.588	22744
879.715	22706
879.842	22904
879.97	22725
880.097	22546
880.224	22561
880.351	22436
880.478	22497
880.605	22402
880.732	22432
880.859	22710
880.986	22428
881.112	22577
881.239	22443
881.366	22204
881.493	22158
881.619	22032
881.746	22166
881.872	22067
881.999	22147
882.125	21880
882.252	22090
882.378	22048
882.505	22230
882.631	21979
882.757	21804
882.883	21797
883.01	21827
883.136	21751
883.262	21644
883.388	21523
883.514	21709
883.64	21728
883.766	21698
883.892	21580
884.018	21549
884.143	21663
884.269	21823
884.395	21488
884.52	21393
884.646	21431
884.772	21344
884.897	21332
885.023	21317
885.148	21420
885.274	21507
885.399	21420
885.524	21405
885.65	21389
885.775	21431
885.9	21302
886.025	21374
886.15	21462
886.275	21348
886.4	21344
886.525	21447
886.65	21306
886.775	21348
886.9	21348
887.025	21724
887.149	21275
887.274	21184
887.399	21241
887.523	21150
887.648	21176
887.773	21005
887.897	21374
888.021	21207
888.146	21150
888.27	21272
888.395	21264
888.519	21100
888.643	21230
888.767	21329
888.891	21055
889.015	21032
889.139	21032
889.263	20857
889.387	21165
889.511	21233
889.635	21077
889.759	20887
889.883	21009
890.006	21024
890.13	21104
890.254	21005
890.377	20872
890.501	20762
890.624	20758
890.748	20807
890.871	20552
890.995	20503
891.118	20499
891.241	20488
891.364	20636
891.488	20617
891.611	20648
891.734	20583
891.857	20530
891.98	20495
892.103	20583
892.226	20560
892.349	20530
892.471	20446
892.594	20415
892.717	20613
892.839	20465
892.962	20461
893.085	20636
893.207	20434
893.33	20355
893.452	20248
893.575	20434
893.697	20446
893.819	20602
893.941	20606
894.064	20670
894.186	20381
894.308	20221
894.43	20625
894.552	20606
894.674	20541
894.796	20263
894.918	20530
895.04	20442
895.161	20575
895.283	20488
895.405	20400
895.526	20434
895.648	20499
895.769	20377
895.891	20484
896.012	20594
896.134	20476
896.255	20370
896.376	20404
896.498	20431
896.619	20488
896.74	20518
896.861	20530
896.982	20754
897.103	20815
897.224	20724
897.345	20579
897.466	20507
897.587	20613
897.708	20769
897.828	20609
897.949	20545
898.07	20648
898.19	20693
898.311	20701
898.431	20537
898.552	20697
898.672	20720
898.792	20781
898.913	20552
899.033	20438
899.153	20541
899.273	20286
899.393	20431
899.513	20244
899.633	20400
899.753	20370
899.873	20244
899.993	20423
900.113	20438
900.232	20229
900.352	20210
900.472	20221
900.591	20164
900.711	20176
900.83	19997
900.95	20252
901.069	20130
901.189	20031
901.308	19841
901.427	19731
901.546	19708
901.665	19723
901.784	19765
901.904	19696
902.023	19434
902.141	19346
902.26	19293
902.379	19263
902.498	19251
902.617	19259
902.735	19255
902.854	19244
902.973	19076
903.091	18939
903.21	18875
903.328	18951
903.446	18749
903.565	18669
903.683	18715
903.801	18551
903.919	18608
904.038	18661
904.156	18528
904.274	18513
904.392	18456
904.51	18494
904.627	18437
904.745	18506
904.863	18521
904.981	18353
905.098	18030
905.216	18205
905.334	18197
905.451	18144
905.569	18057
905.686	18216
905.803	18140
905.921	17999
906.038	18034
906.155	17958
906.272	17889
906.389	17904
906.506	17764
906.623	17676
906.74	17649
906.857	17642
906.974	17596
907.091	17672
907.208	17798
907.324	17794
907.441	17604
907.557	17505
907.674	17391
907.79	17353
907.907	17337
908.023	17334
908.139	17459
908.256	17429
908.372	17239
908.488	17239
908.604	17174
908.72	17151
908.836	17204
908.952	17086
909.068	17200
909.184	17170
909.3	17071
909.415	17246
909.531	17136
909.647	16911
909.762	16885
909.878	16877
909.993	16812
910.108	16805
910.224	16812
910.339	16755
910.454	16733
910.57	16603
910.685	16565
910.8	16915
910.915	16782
911.03	16675
911.145	16462
911.259	16417
911.374	16455
911.489	16382
911.604	16371
911.718	16192
911.833	16192
911.947	16097
912.062	15915
912.176	16162
912.291	16196
912.405	16086
912.519	16337
912.633	16371
912.748	16139
912.862	16131
912.976	15964
913.09	15854
913.204	16010
913.318	16032
913.431	16036
913.545	16090
913.659	16078
913.772	15964
913.886	15762
914	15720
914.113	15892
914.226	15842
914.34	15778
914.453	15629
914.566	15762
914.68	15694
914.793	15603
914.906	15492
915.019	15367
915.132	15363
915.245	15351
915.358	15359
915.47	15393
915.583	15401
915.696	15458
915.809	15397
915.921	15481
916.034	15298
916.146	15317
916.259	15386
916.371	15416
916.483	15313
916.595	15230
916.708	15176
916.82	15180
916.932	15161
917.044	15173
917.156	15108
917.268	14944
917.38	15062
917.491	14975
917.603	14956
917.715	15066
917.826	15119
917.938	14967
918.049	14819
918.161	14918
918.272	15085
918.384	15135
918.495	14925
918.606	14876
918.717	14735
918.828	14826
918.939	14845
919.05	14651
919.161	14815
919.272	14617
919.383	14518
919.494	14800
919.604	15001
919.715	14712
919.826	14606
919.936	14667
920.047	14811
920.157	14811
920.267	14788
920.378	14731
920.488	14651
920.598	14887
920.708	15028
920.818	14815
920.928	14712
921.038	14921
921.148	14925
921.258	14735
921.368	14511
921.477	14526
921.587	14446
921.697	14336
921.806	14408
921.916	14294
922.025	14176
922.134	14111
922.244	14008
922.353	14096
922.462	14043
922.571	13917
922.68	13833
922.789	13731
922.898	13788
923.007	13700
923.116	13818
923.224	13632
923.333	13704
923.442	13632
923.55	13537
923.659	13552
923.767	13681
923.876	13483
923.984	13628
924.092	13419
924.201	13521
924.309	13491
924.417	13464
924.525	13362
924.633	13434
924.741	14256
924.849	13209
924.956	13354
925.064	13145
925.172	13088
925.279	13122
925.387	13179
925.494	13175
925.602	13324
925.709	13240
925.816	13046
925.924	13080
926.031	13190
926.138	13122
926.245	13095
926.352	13000
926.459	13152
926.566	13084
926.673	12977
926.779	12913
926.886	12856
926.993	12749
927.099	12658
927.206	12757
927.312	12574
927.419	12791
927.525	12616
927.631	12673
927.737	12570
927.843	12604
927.95	12486
928.056	12528
928.162	12616
928.267	12559
928.373	13221
928.479	12616
928.585	12311
928.69	12498
928.796	12509
928.901	12403
929.007	12262
929.112	12372
929.218	12311
929.323	12247
929.428	12285
929.533	12304
929.638	12232
929.743	12095
929.848	12224
929.953	12266
930.058	12053
930.163	11920
930.267	11927
930.372	12068
930.477	11832
930.581	12148
930.685	11996
930.79	11748
930.894	11885
930.998	11779
931.103	11904
931.207	11638
931.311	11490
931.415	11391
931.519	11197
931.623	11159
