Data from test_V78500241_2194.txt Node
Date: Fri Mar 25 15:25:08 CST 2022
User: usil
Spectrometer: V785-0024
Trigger mode: 0
Integration Time (sec): 4.000000E-1
Scans to average: 1
Nonlinearity correction enabled: false
Boxcar width: 0
Storing dark spectrum: false
XAxis mode: Wavelengths
Number of Pixels in Spectrum: 1024
>>>>>Begin Spectral Data<<<<<
801.071	27652
801.214	27709
801.356	27447
801.499	27473
801.641	27374
801.783	27340
801.926	27344
802.068	27283
802.211	27237
802.353	27203
802.496	27176
802.638	26880
802.78	26849
802.923	26750
803.065	26769
803.208	26853
803.35	26842
803.492	27062
803.635	27131
803.777	27039
803.919	27001
804.061	27397
804.204	27154
804.346	27058
804.488	27032
804.63	27093
804.773	26967
804.915	27230
805.057	27180
805.199	27173
805.341	27294
805.483	27256
805.626	27287
805.768	27112
805.91	27169
806.052	27192
806.194	27043
806.336	27469
806.478	27317
806.62	27173
806.762	27272
806.904	27481
807.046	27831
807.188	27690
807.33	27690
807.472	27690
807.614	27576
807.756	27690
807.898	27485
808.04	27427
808.182	27401
808.324	27679
808.465	27603
808.607	27713
808.749	27926
808.891	27930
809.033	28074
809.174	27991
809.316	27770
809.458	27907
809.6	27785
809.741	28040
809.883	27953
810.025	28215
810.166	28143
810.308	28215
810.45	28105
810.591	28063
810.733	27762
810.875	27850
811.016	27751
811.158	27675
811.299	28063
811.441	27941
811.582	27907
811.724	27835
811.865	27903
812.007	27831
812.148	27873
812.29	28021
812.431	28082
812.573	28120
812.714	28329
812.855	28238
812.997	28394
813.138	28607
813.279	28417
813.421	28299
813.562	28371
813.703	28029
813.845	28002
813.986	27842
814.127	27618
814.268	27473
814.41	27603
814.551	27523
814.692	27583
814.833	27557
814.974	27504
815.115	27610
815.256	27405
815.397	27618
815.539	27397
815.68	27340
815.821	27237
815.962	27370
816.103	27348
816.244	27146
816.385	27207
816.526	27119
816.666	26979
816.807	26785
816.948	26994
817.089	26963
817.23	26872
817.371	26800
817.512	26902
817.653	26857
817.793	26796
817.934	26880
818.075	26849
818.216	26880
818.356	26815
818.497	26796
818.638	26419
818.778	26682
818.919	26511
819.06	26655
819.2	26800
819.341	26830
819.481	26750
819.622	27005
819.762	27131
819.903	27180
820.043	26937
820.184	26979
820.324	26963
820.465	27036
820.605	26861
820.746	26830
820.886	26750
821.026	26853
821.167	26807
821.307	26921
821.447	26819
821.588	26785
821.728	26537
821.868	26408
822.008	26374
822.149	26381
822.289	26309
822.429	25993
822.569	25830
822.709	25986
822.849	25761
822.99	25875
823.13	25734
823.27	25742
823.41	25571
823.55	25613
823.69	25651
823.83	25506
823.97	25582
824.11	25438
824.25	25400
824.389	25457
824.529	25556
824.669	25411
824.809	25620
824.949	25578
825.089	25479
825.228	25483
825.368	25339
825.508	25285
825.648	25362
825.787	25358
825.927	25373
826.067	25293
826.206	25259
826.346	25312
826.485	25415
826.625	25213
826.765	25289
826.904	25331
827.044	24916
827.183	24977
827.323	24897
827.462	25183
827.601	25129
827.741	24920
827.88	24992
828.02	24810
828.159	24973
828.298	25042
828.437	25107
828.577	24951
828.716	25015
828.855	24951
828.994	24753
829.134	24711
829.273	24696
829.412	24719
829.551	24574
829.69	24840
829.829	24669
829.968	24844
830.107	24821
830.246	24589
830.385	24681
830.524	24563
830.663	24502
830.802	24422
830.941	24285
831.08	24437
831.219	24456
831.357	24304
831.496	24582
831.635	24334
831.774	24216
831.913	24220
832.051	24121
832.19	24068
832.329	24091
832.467	24102
832.606	23783
832.744	23984
832.883	23999
833.022	23973
833.16	24068
833.299	23935
833.437	23965
833.576	23973
833.714	23965
833.852	24182
833.991	24125
834.129	24159
834.267	24220
834.406	24091
834.544	24003
834.682	23965
834.821	23977
834.959	24106
835.097	23855
835.235	24083
835.373	23996
835.511	24026
835.65	23897
835.788	23855
835.926	23786
836.064	23699
836.202	23596
836.34	23893
836.478	23912
836.615	23775
836.753	23851
836.891	23893
837.029	23828
837.167	23950
837.305	23756
837.443	23767
837.58	23600
837.718	23802
837.856	23733
837.993	23722
838.131	23737
838.269	23623
838.406	23653
838.544	23676
838.681	23303
838.819	23360
838.956	23227
839.094	23280
839.231	23197
839.369	23356
839.506	23566
839.643	23353
839.781	23212
839.918	22984
840.055	23124
840.193	23235
840.33	22995
840.467	23003
840.604	23010
840.742	23414
840.879	22991
841.016	23071
841.153	22904
841.29	23208
841.427	23208
841.564	23105
841.701	23155
841.838	23105
841.975	22961
842.112	22976
842.249	22824
842.385	22782
842.522	23033
842.659	22923
842.796	22767
842.933	22904
843.069	22717
843.206	22687
843.343	22908
843.479	22778
843.616	22828
843.752	22729
843.889	22493
844.025	22645
844.162	22626
844.298	22626
844.435	22641
844.571	22542
844.708	22691
844.844	22744
844.98	22805
845.117	22641
845.253	22603
845.389	22455
845.525	22500
845.661	22573
845.798	22280
845.934	22181
846.07	22325
846.206	22352
846.342	22447
846.478	22261
846.614	22116
846.75	22013
846.886	22021
847.022	22131
847.158	22059
847.294	22128
847.429	22135
847.565	22025
847.701	22360
847.837	21835
847.972	21701
848.108	21880
848.244	21907
848.379	21690
848.515	21599
848.65	21648
848.786	21545
848.921	21618
849.057	21720
849.192	21800
849.328	21667
849.463	21663
849.598	21641
849.734	21644
849.869	21553
850.004	21275
850.14	21389
850.275	21397
850.41	21408
850.545	21283
850.68	21306
850.815	21428
850.95	21458
851.085	21542
851.22	21614
851.355	21538
851.49	21256
851.625	21519
851.76	21405
851.895	21268
852.03	21321
852.165	21458
852.299	21420
852.434	21466
852.569	21507
852.703	21454
852.838	21466
852.973	21561
853.107	21526
853.242	21469
853.376	21370
853.511	21180
853.645	21336
853.78	21412
853.914	21416
854.048	21173
854.183	21336
854.317	21317
854.451	21469
854.585	21241
854.72	21306
854.854	21226
854.988	21226
855.122	21237
855.256	21176
855.39	21211
855.524	21363
855.658	21466
855.792	21393
855.926	21378
856.06	21283
856.194	21355
856.327	21169
856.461	21245
856.595	21272
856.729	21233
856.862	21325
856.996	21256
857.13	21367
857.263	21485
857.397	21256
857.53	21256
857.664	21294
857.797	21363
857.931	21488
858.064	21294
858.197	21405
858.331	21264
858.464	21249
858.597	21233
858.731	21260
858.864	21294
858.997	21367
859.13	21340
859.263	21302
859.396	21344
859.529	21268
859.662	21241
859.795	21275
859.928	21310
860.061	21408
860.194	21485
860.327	21317
860.46	21405
860.592	21405
860.725	21466
860.858	21386
860.99	21344
861.123	21230
861.256	21302
861.388	21283
861.521	21949
861.653	21169
861.786	21058
861.918	21150
862.05	21131
862.183	21127
862.315	21218
862.447	21287
862.58	21226
862.712	21051
862.844	20857
862.976	21058
863.108	21108
863.24	21363
863.372	20906
863.504	21058
863.636	20979
863.768	21085
863.9	20979
864.032	20990
864.164	20929
864.296	21036
864.428	20994
864.559	21116
864.691	20933
864.823	21036
864.954	20895
865.086	20982
865.217	20979
865.349	20769
865.48	20887
865.612	20895
865.743	20979
865.875	20906
866.006	20899
866.137	20902
866.269	20864
866.4	20902
866.531	20849
866.662	20838
866.793	20910
866.924	20842
867.055	20758
867.186	20819
867.317	20781
867.448	20617
867.579	20705
867.71	20716
867.841	20819
867.972	20842
868.103	20819
868.233	20876
868.364	20872
868.495	20739
868.625	20994
868.756	21108
868.886	21013
869.017	21032
869.147	21131
869.278	21165
869.408	21051
869.539	20918
869.669	21165
869.799	21062
869.929	21081
870.06	21150
870.19	21374
870.32	21321
870.45	21367
870.58	21291
870.71	21507
870.84	21542
870.97	21477
871.1	21504
871.23	21618
871.36	21587
871.489	21553
871.619	21515
871.749	21690
871.879	21656
872.008	21751
872.138	21667
872.267	21759
872.397	21431
872.526	21481
872.656	21488
872.785	21496
872.915	21625
873.044	21751
873.173	21625
873.303	21656
873.432	21720
873.561	21808
873.69	21663
873.819	21774
873.948	21686
874.077	21599
874.206	21641
874.335	21797
874.464	21846
874.593	21816
874.722	21926
874.851	21964
874.979	21899
875.108	21922
875.237	21869
875.365	21854
875.494	21968
875.623	22040
875.751	21892
875.88	21865
876.008	22051
876.136	22154
876.265	22314
876.393	22409
876.521	22428
876.65	22436
876.778	22341
876.906	22211
877.034	22196
877.162	22318
877.29	22147
877.418	22173
877.546	22131
877.674	22257
877.802	22226
877.93	22299
878.058	22177
878.185	22086
878.313	22082
878.441	22128
878.568	22097
878.696	22150
878.824	22246
878.951	22261
879.079	22424
879.206	22561
879.333	22322
879.461	22405
879.588	22344
879.715	22386
879.842	22474
879.97	22402
880.097	22196
880.224	22139
880.351	22124
880.478	22131
880.605	22040
880.732	22097
880.859	22310
880.986	22173
881.112	22086
881.239	21918
881.366	21789
881.493	21819
881.619	21660
881.746	21660
881.872	21652
881.999	21576
882.125	21595
882.252	21641
882.378	21656
882.505	21774
882.631	21435
882.757	21374
882.883	21313
883.01	21279
883.136	21344
883.262	21233
883.388	21214
883.514	21298
883.64	21416
883.766	21226
883.892	21116
884.018	21100
884.143	21222
884.269	21287
884.395	21039
884.52	20944
884.646	20937
884.772	20986
884.897	20864
885.023	20994
885.148	21077
885.274	21066
885.399	21108
885.524	20941
885.65	20941
885.775	21032
885.9	20956
886.025	21081
886.15	21199
886.275	20937
886.4	20948
886.525	20826
886.65	20838
886.775	20796
886.9	21043
887.025	21154
887.149	20994
887.274	20849
887.399	20720
887.523	20720
887.648	20705
887.773	20708
887.897	20727
888.021	20853
888.146	20781
888.27	20758
888.395	20800
888.519	20663
888.643	20845
888.767	20838
888.891	20648
889.015	20476
889.139	20648
889.263	20503
889.387	20560
889.511	20724
889.635	20686
889.759	20488
889.883	20579
890.006	20484
890.13	20568
890.254	20587
890.377	20606
890.501	20244
890.624	20275
890.748	20389
890.871	20062
890.995	20240
891.118	20111
891.241	20237
891.364	20168
891.488	20294
891.611	20153
891.734	20024
891.857	20191
891.98	20058
892.103	20073
892.226	20062
892.349	19993
892.471	19856
892.594	19921
892.717	20103
892.839	19963
892.962	20065
893.085	20031
893.207	19947
893.33	19909
893.452	19814
893.575	20054
893.697	19917
893.819	20115
893.941	20256
894.064	20043
894.186	19955
894.308	19887
894.43	20214
894.552	20157
894.674	20058
894.796	19936
894.918	20046
895.04	20092
895.161	20111
895.283	20122
895.405	19936
895.526	20050
895.648	20012
895.769	20031
895.891	20024
896.012	19989
896.134	20058
896.255	20046
896.376	20020
896.498	20016
896.619	20031
896.74	19944
896.861	20187
896.982	20381
897.103	20400
897.224	20214
897.345	20233
897.466	20111
897.587	20168
897.708	20419
897.828	20465
897.949	20195
898.07	20111
898.19	20237
898.311	20320
898.431	20191
898.552	20320
898.672	20286
898.792	20332
898.913	20256
899.033	20134
899.153	20073
899.273	20008
899.393	19967
899.513	20035
899.633	19951
899.753	19928
899.873	20031
899.993	19970
900.113	20008
900.232	20081
900.352	19890
900.472	19734
900.591	19738
900.711	19925
900.83	19712
900.95	19860
901.069	19811
901.189	19674
901.308	19476
901.427	19411
901.546	19381
901.665	19396
901.784	19343
901.904	19289
902.023	19080
902.141	18920
902.26	18951
902.379	18970
902.498	18947
902.617	18852
902.735	18787
902.854	18973
902.973	18856
903.091	18502
903.21	18608
903.328	18604
903.446	18559
903.565	18365
903.683	18376
903.801	18197
903.919	18266
904.038	18334
904.156	18281
904.274	18209
904.392	18209
904.51	18144
904.627	18148
904.745	18106
904.863	18197
904.981	17931
905.098	17843
905.216	17722
905.334	17790
905.451	17775
905.569	17764
905.686	17710
905.803	17771
905.921	17592
906.038	17741
906.155	17668
906.272	17512
906.389	17459
906.506	17360
906.623	17284
906.74	17330
906.857	17265
906.974	17204
907.091	17372
907.208	17345
907.324	17334
907.441	17208
907.557	17242
907.674	17041
907.79	17071
907.907	16995
908.023	16991
908.139	16934
908.256	16965
908.372	16904
908.488	16980
908.604	16820
908.72	16721
908.836	16854
908.952	16752
909.068	16767
909.184	16790
909.3	16710
909.415	16790
909.531	16782
909.647	16485
909.762	16451
909.878	16462
909.993	16375
910.108	16428
910.224	16447
910.339	16360
910.454	16314
910.57	16188
910.685	16249
910.8	16398
910.915	16398
911.03	16333
911.145	16139
911.259	16078
911.374	16063
911.489	16010
911.604	15903
911.718	15827
911.833	15823
911.947	15793
912.062	15618
912.176	15808
912.291	15797
912.405	15857
912.519	16002
912.633	15842
912.748	15911
912.862	15812
912.976	15660
913.09	15526
913.204	15557
913.318	15523
913.431	15656
913.545	15625
913.659	15724
913.772	15633
913.886	15477
914	15367
914.113	15519
914.226	15515
914.34	15534
914.453	15344
914.566	15408
914.68	15268
914.793	15268
914.906	15066
915.019	14971
915.132	14956
915.245	14990
915.358	15028
915.47	15039
915.583	15028
915.696	15009
915.809	15135
915.921	15066
916.034	14986
916.146	14876
916.259	14906
916.371	15058
916.483	14979
916.595	14845
916.708	14986
916.82	14880
916.932	14864
917.044	14777
917.156	14773
917.268	14788
917.38	14773
917.491	14800
917.603	14701
917.715	14739
917.826	14785
917.938	14606
918.049	14552
918.161	14598
918.272	14750
918.384	14823
918.495	14670
918.606	14446
918.717	14499
918.828	14503
918.939	14511
919.05	14442
919.161	14393
919.272	14286
919.383	14286
919.494	14526
919.604	14571
919.715	14469
919.826	14313
919.936	14438
920.047	14450
920.157	14522
920.267	14495
920.378	14438
920.488	14355
920.598	14545
920.708	14727
920.818	14442
920.928	14575
921.038	14655
921.148	14564
921.258	14415
921.368	14347
921.477	14256
921.587	14142
921.697	14073
921.806	14092
921.916	13974
922.025	13894
922.134	13856
922.244	13818
922.353	13898
922.462	13632
922.571	13620
922.68	13506
922.789	13487
922.898	13533
923.007	13464
923.116	13537
923.224	13491
923.333	13464
923.442	13362
923.55	13293
923.659	13274
923.767	13384
923.876	13331
923.984	13312
924.092	13175
924.201	13126
924.309	13225
924.417	13069
924.525	13133
924.633	13228
924.741	13928
924.849	13004
924.956	13027
925.064	12882
925.172	12928
925.279	12943
925.387	12909
925.494	12909
925.602	13023
925.709	12875
925.816	12829
925.924	12863
926.031	12924
926.138	12867
926.245	12871
926.352	12768
926.459	12844
926.566	12916
926.673	12776
926.779	12677
926.886	12566
926.993	12365
927.099	12486
927.206	12410
927.312	12429
927.419	12399
927.525	12426
927.631	12593
927.737	12407
927.843	12372
927.95	12201
928.056	12190
928.162	12228
928.267	12441
928.373	12932
928.479	12353
928.585	12076
928.69	12300
928.796	12315
928.901	12178
929.007	12026
929.112	12102
929.218	12140
929.323	12053
929.428	12030
929.533	12201
929.638	11980
929.743	11920
929.848	12007
929.953	12034
930.058	11882
930.163	11691
930.267	11699
930.372	11908
930.477	11745
930.581	11912
930.685	11805
930.79	11520
930.894	11619
930.998	11547
931.103	11729
931.207	11372
931.311	11307
931.415	11242
931.519	10965
931.623	11025
