Data from test_V78500241_1595.txt Node
Date: Fri Mar 25 15:20:57 CST 2022
User: usil
Spectrometer: V785-0024
Trigger mode: 0
Integration Time (sec): 4.000000E-1
Scans to average: 1
Nonlinearity correction enabled: false
Boxcar width: 0
Storing dark spectrum: false
XAxis mode: Wavelengths
Number of Pixels in Spectrum: 1024
>>>>>Begin Spectral Data<<<<<
801.071	27983
801.214	27987
801.356	27686
801.499	27713
801.641	27557
801.783	27538
801.926	27481
802.068	27652
802.211	27507
802.353	27549
802.496	27180
802.638	27211
802.78	27287
802.923	27195
803.065	27096
803.208	27135
803.35	27298
803.492	27443
803.635	27450
803.777	27252
803.919	27473
804.061	27743
804.204	27492
804.346	27408
804.488	27450
804.63	27481
804.773	27214
804.915	27485
805.057	27622
805.199	27466
805.341	27625
805.483	27705
805.626	27538
805.768	27420
805.91	27534
806.052	27561
806.194	27424
806.336	27663
806.478	27618
806.62	27595
806.762	27686
806.904	27736
807.046	28192
807.188	27941
807.33	28010
807.472	28021
807.614	27816
807.756	27960
807.898	27705
808.04	27846
808.182	27747
808.324	27869
808.465	27869
808.607	27953
808.749	28147
808.891	28246
809.033	28371
809.174	28150
809.316	28177
809.458	28116
809.6	28128
809.741	28352
809.883	28268
810.025	28512
810.166	28527
810.308	28588
810.45	28287
810.591	28253
810.733	28177
810.875	28116
811.016	28055
811.158	28082
811.299	28219
811.441	28196
811.582	28280
811.724	28276
811.865	28181
812.007	28230
812.148	28276
812.29	28295
812.431	28341
812.573	28455
812.714	28672
812.855	28736
812.997	28820
813.138	29022
813.279	28748
813.421	28653
813.562	28615
813.703	28569
813.845	28344
813.986	28223
814.127	28040
814.268	27914
814.41	27884
814.551	27895
814.692	27983
814.833	27709
814.974	28002
815.115	27907
815.256	27778
815.397	27629
815.539	27713
815.68	27724
815.821	27648
815.962	27705
816.103	27728
816.244	27583
816.385	27439
816.526	27397
816.666	27135
816.807	27195
816.948	27363
817.089	27211
817.23	27142
817.371	27260
817.512	27085
817.653	27199
817.793	27176
817.934	27154
818.075	27165
818.216	27184
818.356	27138
818.497	27013
818.638	26819
818.778	27009
818.919	26910
819.06	26887
819.2	27051
819.341	27066
819.481	27188
819.622	27443
819.762	27580
819.903	27279
820.043	27351
820.184	27302
820.324	27321
820.465	27283
820.605	27264
820.746	27184
820.886	27260
821.026	27291
821.167	27336
821.307	27317
821.447	27192
821.588	27138
821.728	26910
821.868	26678
822.008	26750
822.149	26716
822.289	26746
822.429	26438
822.569	26294
822.709	26408
822.849	26149
822.99	26244
823.13	26191
823.27	26153
823.41	25890
823.55	25947
823.69	26084
823.83	26001
823.97	26020
824.11	25803
824.25	25772
824.389	25864
824.529	25906
824.669	25799
824.809	25875
824.949	25902
825.089	25818
825.228	25799
825.368	25582
825.508	25525
825.648	25643
825.787	25738
825.927	25719
826.067	25734
826.206	25647
826.346	25746
826.485	25651
826.625	25525
826.765	25738
826.904	25643
827.044	25548
827.183	25430
827.323	25388
827.462	25350
827.601	25403
827.741	25343
827.88	25411
828.02	25438
828.159	25460
828.298	25365
828.437	25365
828.577	25270
828.716	25430
828.855	25282
828.994	25095
829.134	25076
829.273	25129
829.412	25053
829.551	24852
829.69	25050
829.829	25027
829.968	25065
830.107	25168
830.246	25065
830.385	24966
830.524	24985
830.663	24951
830.802	24791
830.941	24658
831.08	24688
831.219	24806
831.357	24875
831.496	25046
831.635	24654
831.774	24646
831.913	24635
832.051	24509
832.19	24372
832.329	24547
832.467	24380
832.606	24220
832.744	24350
832.883	24334
833.022	24407
833.16	24319
833.299	24228
833.437	24437
833.576	24532
833.714	24315
833.852	24445
833.991	24410
834.129	24525
834.267	24410
834.406	24388
834.544	24452
834.682	24422
834.821	24399
834.959	24544
835.097	24471
835.235	24433
835.373	24525
835.511	24350
835.65	24224
835.788	24220
835.926	23977
836.064	24117
836.202	24076
836.34	24247
836.478	24365
836.615	24114
836.753	24247
836.891	24403
837.029	24247
837.167	24068
837.305	24133
837.443	24163
837.58	24152
837.718	24095
837.856	24079
837.993	24038
838.131	24003
838.269	23942
838.406	23912
838.544	23927
838.681	23843
838.819	23828
838.956	23535
839.094	23642
839.231	23611
839.369	23764
839.506	23904
839.643	23897
839.781	23539
839.918	23463
840.055	23665
840.193	23493
840.33	23467
840.467	23433
840.604	23490
840.742	23729
840.879	23425
841.016	23395
841.153	23497
841.29	23589
841.427	23501
841.564	23528
841.701	23463
841.838	23402
841.975	23360
842.112	23356
842.249	23159
842.385	23273
842.522	23379
842.659	23185
842.796	23265
842.933	23315
843.069	23166
843.206	23105
843.343	23284
843.479	23178
843.616	23334
843.752	23067
843.889	22904
844.025	23220
844.162	23010
844.298	23113
844.435	23003
844.571	22839
844.708	23022
844.844	23079
844.98	23071
845.117	22987
845.253	22976
845.389	22729
845.525	22968
845.661	22942
845.798	22767
845.934	22748
846.07	22683
846.206	22717
846.342	22839
846.478	22687
846.614	22542
846.75	22493
846.886	22394
847.022	22580
847.158	22348
847.294	22348
847.429	22470
847.565	22500
847.701	22675
847.837	22246
847.972	22230
848.108	22318
848.244	22166
848.379	22097
848.515	22154
848.65	22067
848.786	22051
848.921	22086
849.057	22185
849.192	22143
849.328	22173
849.463	22006
849.598	22093
849.734	22002
849.869	22010
850.004	21804
850.14	21800
850.275	21816
850.41	21766
850.545	21724
850.68	21865
850.815	21903
850.95	21819
851.085	21994
851.22	21808
851.355	21732
851.49	21869
851.625	21800
851.76	21797
851.895	21793
852.03	21899
852.165	21797
852.299	21759
852.434	21793
852.569	21960
852.703	21869
852.838	21884
852.973	21956
853.107	21854
853.242	21720
853.376	21690
853.511	21610
853.645	21458
853.78	21732
853.914	21663
854.048	21545
854.183	21606
854.317	21690
854.451	21797
854.585	21667
854.72	21698
854.854	21785
854.988	21698
855.122	21603
855.256	21576
855.39	21622
855.524	21736
855.658	21660
855.792	21652
855.926	21652
856.06	21732
856.194	21713
856.327	21595
856.461	21572
856.595	21561
856.729	21538
856.862	21698
856.996	21644
857.13	21713
857.263	21736
857.397	21789
857.53	21641
857.664	21603
857.797	21759
857.931	21663
858.064	21622
858.197	21755
858.331	21553
858.464	21591
858.597	21477
858.731	21519
858.864	21466
858.997	21488
859.13	21545
859.263	21641
859.396	21694
859.529	21580
859.662	21534
859.795	21648
859.928	21644
860.061	21686
860.194	21819
860.327	21637
860.46	21701
860.592	21732
860.725	21835
860.858	21751
860.99	21637
861.123	21526
861.256	21538
861.388	21671
861.521	22322
861.653	21515
861.786	21462
861.918	21416
862.05	21580
862.183	21728
862.315	21412
862.447	21625
862.58	21698
862.712	21393
862.844	21359
862.976	21462
863.108	21275
863.24	21690
863.372	21313
863.504	21283
863.636	21313
863.768	21382
863.9	21359
864.032	21272
864.164	21294
864.296	21420
864.428	21424
864.559	21374
864.691	21378
864.823	21192
864.954	21306
865.086	21317
865.217	21279
865.349	21184
865.48	21230
865.612	21306
865.743	21393
865.875	21264
866.006	21131
866.137	21096
866.269	21226
866.4	21135
866.531	21081
866.662	21043
866.793	21096
866.924	20994
867.055	21279
867.186	21230
867.317	21173
867.448	21135
867.579	21119
867.71	21009
867.841	21154
867.972	21135
868.103	21150
868.233	21020
868.364	21036
868.495	21313
868.625	21488
868.756	21660
868.886	21291
869.017	21370
869.147	21485
869.278	21633
869.408	21351
869.539	21389
869.669	21542
869.799	21454
869.929	21507
870.06	21492
870.19	21652
870.32	21705
870.45	21781
870.58	21797
870.71	21937
870.84	21861
870.97	21762
871.1	21755
871.23	21915
871.36	21964
871.489	21854
871.619	21937
871.749	21873
871.879	22013
872.008	22124
872.138	22013
872.267	22010
872.397	21804
872.526	21873
872.656	21781
872.785	21804
872.915	22093
873.044	21972
873.173	21991
873.303	22006
873.432	22078
873.561	22090
873.69	22055
873.819	22013
873.948	22078
874.077	21949
874.206	22086
874.335	22116
874.464	22036
874.593	22261
874.722	22128
874.851	22360
874.979	22413
875.108	22230
875.237	22192
875.365	22143
875.494	22223
875.623	22287
875.751	22143
875.88	22287
876.008	22322
876.136	22329
876.265	22611
876.393	22721
876.521	22637
876.65	22752
876.778	22653
876.906	22592
877.034	22592
877.162	22588
877.29	22455
877.418	22535
877.546	22656
877.674	22653
877.802	22519
877.93	22577
878.058	22535
878.185	22470
878.313	22554
878.441	22577
878.568	22402
878.696	22546
878.824	22516
878.951	22569
879.079	22679
879.206	22927
879.333	22637
879.461	22542
879.588	22637
879.715	22740
879.842	22908
879.97	22706
880.097	22356
880.224	22573
880.351	22405
880.478	22466
880.605	22310
880.732	22390
880.859	22481
880.986	22341
881.112	22402
881.239	22116
881.366	22139
881.493	22192
881.619	22067
881.746	22002
881.872	21899
881.999	22044
882.125	21854
882.252	21979
882.378	21861
882.505	22013
882.631	21816
882.757	21690
882.883	21819
883.01	21690
883.136	21648
883.262	21587
883.388	21652
883.514	21709
883.64	21679
883.766	21462
883.892	21420
884.018	21454
884.143	21637
884.269	21705
884.395	21378
884.52	21195
884.646	21241
884.772	21241
884.897	21199
885.023	21256
885.148	21264
885.274	21401
885.399	21412
885.524	21272
885.65	21340
885.775	21355
885.9	21222
886.025	21416
886.15	21317
886.275	21226
886.4	21256
886.525	21275
886.65	21245
886.775	21161
886.9	21370
887.025	21511
887.149	21321
887.274	21058
887.399	21089
887.523	21104
887.648	20986
887.773	21032
887.897	21150
888.021	21119
888.146	20960
888.27	21062
888.395	21211
888.519	20986
888.643	21127
888.767	21089
888.891	21070
889.015	20899
889.139	20864
889.263	20823
889.387	20979
889.511	21055
889.635	21017
889.759	20800
889.883	20876
890.006	20986
890.13	20842
890.254	20868
890.377	20811
890.501	20640
890.624	20549
890.748	20746
890.871	20503
890.995	20431
891.118	20286
891.241	20389
891.364	20480
891.488	20568
891.611	20434
891.734	20545
891.857	20465
891.98	20457
892.103	20469
892.226	20370
892.349	20328
892.471	20271
892.594	20252
892.717	20259
892.839	20317
892.962	20370
893.085	20336
893.207	20370
893.33	20328
893.452	20229
893.575	20351
893.697	20278
893.819	20503
893.941	20400
894.064	20457
894.186	20267
894.308	20294
894.43	20362
894.552	20492
894.674	20320
894.796	20298
894.918	20442
895.04	20324
895.161	20385
895.283	20457
895.405	20256
895.526	20320
895.648	20317
895.769	20419
895.891	20374
896.012	20419
896.134	20339
896.255	20332
896.376	20107
896.498	20313
896.619	20267
896.74	20305
896.861	20374
896.982	20583
897.103	20765
897.224	20552
897.345	20617
897.466	20450
897.587	20465
897.708	20602
897.828	20587
897.949	20389
898.07	20412
898.19	20571
898.311	20625
898.431	20537
898.552	20640
898.672	20545
898.792	20571
898.913	20400
899.033	20446
899.153	20229
899.273	20206
899.393	20362
899.513	20225
899.633	20328
899.753	20248
899.873	20161
899.993	20339
900.113	20122
900.232	20202
900.352	20206
900.472	19932
900.591	20058
900.711	20077
900.83	19936
900.95	20161
901.069	20081
901.189	19986
901.308	19693
901.427	19635
901.546	19784
901.665	19582
901.784	19616
901.904	19483
902.023	19430
902.141	19171
902.26	19213
902.379	19274
902.498	19152
902.617	19148
902.735	19209
902.854	19160
902.973	19065
903.091	18772
903.21	18802
903.328	18772
903.446	18798
903.565	18551
903.683	18635
903.801	18494
903.919	18544
904.038	18433
904.156	18494
904.274	18471
904.392	18372
904.51	18228
904.627	18361
904.745	18471
904.863	18403
904.981	18209
905.098	18053
905.216	18041
905.334	18125
905.451	18133
905.569	17984
905.686	18060
905.803	17988
905.921	17809
906.038	17908
906.155	17939
906.272	17722
906.389	17836
906.506	17630
906.623	17619
906.74	17627
906.857	17433
906.974	17433
907.091	17589
907.208	17748
907.324	17623
907.441	17425
907.557	17387
907.674	17261
907.79	17250
907.907	17231
908.023	17398
908.139	17318
908.256	17235
908.372	17178
908.488	17128
908.604	16938
908.72	17037
908.836	17022
908.952	17003
909.068	17071
909.184	17102
909.3	16919
909.415	17060
909.531	16877
909.647	16759
909.762	16687
909.878	16664
909.993	16736
910.108	16634
910.224	16660
910.339	16653
910.454	16603
910.57	16569
910.685	16409
910.8	16702
910.915	16710
911.03	16508
911.145	16363
911.259	16272
911.374	16219
911.489	16215
911.604	16147
911.718	16021
911.833	16143
911.947	15922
912.062	15880
912.176	15926
912.291	16051
912.405	15975
912.519	16051
912.633	16265
912.748	16067
912.862	16029
912.976	15846
913.09	15838
913.204	15717
913.318	15869
913.431	15842
913.545	15895
913.659	15892
913.772	15804
913.886	15633
914	15728
914.113	15842
914.226	15728
914.34	15648
914.453	15652
914.566	15584
914.68	15576
914.793	15416
914.906	15252
915.019	15298
915.132	15241
915.245	15260
915.358	15287
915.47	15351
915.583	15260
915.696	15233
915.809	15408
915.921	15313
916.034	15211
916.146	15169
916.259	15188
916.371	15256
916.483	15104
916.595	15070
916.708	15081
916.82	15116
916.932	15070
917.044	15081
917.156	15055
917.268	14868
917.38	14925
917.491	14941
917.603	14895
917.715	15013
917.826	14990
917.938	14910
918.049	14746
918.161	14872
918.272	14990
918.384	14883
918.495	14838
918.606	14716
918.717	14606
918.828	14708
918.939	14682
919.05	14659
919.161	14613
919.272	14442
919.383	14499
919.494	14754
919.604	14857
919.715	14701
919.826	14518
919.936	14583
920.047	14682
920.157	14636
920.267	14781
920.378	14587
920.488	14473
920.598	14762
920.708	14941
920.818	14678
920.928	14796
921.038	14914
921.148	14834
921.258	14617
921.368	14362
921.477	14290
921.587	14221
921.697	14343
921.806	14351
921.916	14123
922.025	14024
922.134	14001
922.244	13993
922.353	14046
922.462	13887
922.571	13875
922.68	13609
922.789	13605
922.898	13594
923.007	13518
923.116	13731
923.224	13548
923.333	13620
923.442	13518
923.55	13392
923.659	13441
923.767	13529
923.876	13422
923.984	13548
924.092	13308
924.201	13415
924.309	13343
924.417	13441
924.525	13274
924.633	13293
924.741	14267
924.849	13103
924.956	13274
925.064	13110
925.172	13000
925.279	13046
925.387	13091
925.494	13053
925.602	13228
925.709	13129
925.816	12970
925.924	12947
926.031	13031
926.138	12977
926.245	13126
926.352	12954
926.459	12951
926.566	13091
926.673	12901
926.779	12741
926.886	12772
926.993	12635
927.099	12658
927.206	12601
927.312	12544
927.419	12574
927.525	12544
927.631	12734
927.737	12486
927.843	12357
927.95	12346
928.056	12467
928.162	12418
928.267	12445
928.373	13160
928.479	12540
928.585	12372
928.69	12433
928.796	12437
928.901	12292
929.007	12197
929.112	12258
929.218	12194
929.323	12239
929.428	12117
929.533	12292
929.638	12205
929.743	12148
929.848	12152
929.953	12079
930.058	12030
930.163	11805
930.267	11904
930.372	12007
930.477	11878
930.581	11999
930.685	11935
930.79	11802
930.894	11874
930.998	11718
931.103	11866
931.207	11463
931.311	11440
931.415	11212
931.519	11086
931.623	11052
