Data from test_V78500241_1698.txt Node
Date: Fri Mar 25 15:21:40 CST 2022
User: usil
Spectrometer: V785-0024
Trigger mode: 0
Integration Time (sec): 4.000000E-1
Scans to average: 1
Nonlinearity correction enabled: false
Boxcar width: 0
Storing dark spectrum: false
XAxis mode: Wavelengths
Number of Pixels in Spectrum: 1024
>>>>>Begin Spectral Data<<<<<
801.071	27991
801.214	27884
801.356	27656
801.499	27587
801.641	27466
801.783	27603
801.926	27530
802.068	27454
802.211	27545
802.353	27268
802.496	27272
802.638	27207
802.78	27268
802.923	27093
803.065	27032
803.208	27108
803.35	27226
803.492	27329
803.635	27325
803.777	27192
803.919	27477
804.061	27831
804.204	27599
804.346	27378
804.488	27393
804.63	27344
804.773	27382
804.915	27473
805.057	27469
805.199	27355
805.341	27393
805.483	27473
805.626	27576
805.768	27382
805.91	27523
806.052	27523
806.194	27507
806.336	27660
806.478	27530
806.62	27583
806.762	27701
806.904	27743
807.046	27994
807.188	27945
807.33	27937
807.472	28063
807.614	27926
807.756	27968
807.898	27880
808.04	27789
808.182	27861
808.324	27873
808.465	27819
808.607	28063
808.749	28013
808.891	28192
809.033	28352
809.174	28177
809.316	28074
809.458	28154
809.6	28166
809.741	28337
809.883	28348
810.025	28538
810.166	28531
810.308	28527
810.45	28474
810.591	28417
810.733	28128
810.875	28150
811.016	27998
811.158	28059
811.299	28284
811.441	28375
811.582	28295
811.724	28246
811.865	28242
812.007	28185
812.148	28310
812.29	28204
812.431	28295
812.573	28535
812.714	28546
812.855	28626
812.997	28645
813.138	28927
813.279	28934
813.421	28854
813.562	28615
813.703	28527
813.845	28348
813.986	28207
814.127	28025
814.268	27873
814.41	27831
814.551	27682
814.692	27998
814.833	27679
814.974	27785
815.115	27823
815.256	27766
815.397	27766
815.539	27671
815.68	27564
815.821	27618
815.962	27549
816.103	27587
816.244	27583
816.385	27496
816.526	27355
816.666	27211
816.807	27135
816.948	27298
817.089	27226
817.23	27074
817.371	27176
817.512	27123
817.653	27127
817.793	27005
817.934	27116
818.075	27154
818.216	27127
818.356	27104
818.497	27024
818.638	26883
818.778	26982
818.919	26960
819.06	27138
819.2	27119
819.341	27142
819.481	27169
819.622	27340
819.762	27504
819.903	27325
820.043	27469
820.184	27268
820.324	27241
820.465	27435
820.605	27306
820.746	27249
820.886	27070
821.026	27310
821.167	27176
821.307	27173
821.447	27138
821.588	27173
821.728	26937
821.868	26792
822.008	26743
822.149	26720
822.289	26602
822.429	26469
822.569	26225
822.709	26248
822.849	26142
822.99	26233
823.13	26088
823.27	26161
823.41	25966
823.55	25887
823.69	26008
823.83	26020
823.97	25894
824.11	25769
824.25	25681
824.389	25693
824.529	25909
824.669	25811
824.809	25822
824.949	25746
825.089	25868
825.228	25772
825.368	25704
825.508	25681
825.648	25632
825.787	25578
825.927	25689
826.067	25525
826.206	25655
826.346	25727
826.485	25655
826.625	25628
826.765	25696
826.904	25780
827.044	25476
827.183	25415
827.323	25293
827.462	25483
827.601	25301
827.741	25388
827.88	25396
828.02	25263
828.159	25164
828.298	25304
828.437	25499
828.577	25460
828.716	25476
828.855	25304
828.994	25072
829.134	25122
829.273	25046
829.412	25023
829.551	25091
829.69	25031
829.829	25213
829.968	25000
830.107	25129
830.246	25152
830.385	25000
830.524	24935
830.663	24916
830.802	24867
830.941	24753
831.08	24730
831.219	24814
831.357	24844
831.496	25008
831.635	24639
831.774	24642
831.913	24513
832.051	24502
832.19	24513
832.329	24551
832.467	24403
832.606	24186
832.744	24247
832.883	24311
833.022	24327
833.16	24418
833.299	24429
833.437	24395
833.576	24410
833.714	24372
833.852	24589
833.991	24498
834.129	24452
834.267	24547
834.406	24460
834.544	24445
834.682	24505
834.821	24395
834.959	24555
835.097	24384
835.235	24612
835.373	24441
835.511	24289
835.65	24330
835.788	24258
835.926	24155
836.064	24110
836.202	24098
836.34	24220
836.478	24296
836.615	24228
836.753	24270
836.891	24311
837.029	24148
837.167	24232
837.305	24239
837.443	24057
837.58	23999
837.718	24159
837.856	24102
837.993	24121
838.131	23969
838.269	24026
838.406	24034
838.544	23950
838.681	23665
838.819	23630
838.956	23505
839.094	23512
839.231	23684
839.369	23802
839.506	24015
839.643	23748
839.781	23539
839.918	23539
840.055	23566
840.193	23600
840.33	23486
840.467	23596
840.604	23429
840.742	23653
840.879	23395
841.016	23315
841.153	23315
841.29	23623
841.427	23402
841.564	23539
841.701	23516
841.838	23330
841.975	23372
842.112	23391
842.249	23299
842.385	23223
842.522	23528
842.659	23254
842.796	23360
842.933	23254
843.069	23181
843.206	23212
843.343	23265
843.479	23360
843.616	23235
843.752	23010
843.889	23022
844.025	23136
844.162	23025
844.298	23128
844.435	23079
844.571	22991
844.708	23033
844.844	23235
844.98	23223
845.117	23189
845.253	22987
845.389	22999
845.525	22949
845.661	22831
845.798	22790
845.934	22839
846.07	22740
846.206	22774
846.342	22904
846.478	22767
846.614	22580
846.75	22382
846.886	22489
847.022	22382
847.158	22402
847.294	22485
847.429	22508
847.565	22561
847.701	22599
847.837	22188
847.972	22177
848.108	22318
848.244	22295
848.379	22139
848.515	22082
848.65	22040
848.786	22032
848.921	22150
849.057	22276
849.192	22147
849.328	22173
849.463	22143
849.598	22036
849.734	21991
849.869	21804
850.004	21949
850.14	21732
850.275	21660
850.41	21850
850.545	21842
850.68	21869
850.815	21865
850.95	21876
851.085	22021
851.22	21956
851.355	21823
851.49	21812
851.625	21762
851.76	21736
851.895	21755
852.03	21675
852.165	21831
852.299	21823
852.434	21869
852.569	21797
852.703	21838
852.838	21888
852.973	21926
853.107	21956
853.242	21732
853.376	21618
853.511	21538
853.645	21682
853.78	21648
853.914	21663
854.048	21679
854.183	21701
854.317	21633
854.451	21793
854.585	21633
854.72	21618
854.854	21686
854.988	21564
855.122	21694
855.256	21382
855.39	21553
855.524	21667
855.658	21701
855.792	21671
855.926	21618
856.06	21705
856.194	21720
856.327	21641
856.461	21652
856.595	21682
856.729	21633
856.862	21766
856.996	21724
857.13	21816
857.263	21755
857.397	21694
857.53	21603
857.664	21743
857.797	21686
857.931	21774
858.064	21698
858.197	21720
858.331	21648
858.464	21690
858.597	21534
858.731	21564
858.864	21523
858.997	21614
859.13	21618
859.263	21663
859.396	21785
859.529	21564
859.662	21652
859.795	21652
859.928	21686
860.061	21762
860.194	21747
860.327	21736
860.46	21637
860.592	21838
860.725	21770
860.858	21751
860.99	21660
861.123	21500
861.256	21644
861.388	21762
861.521	22265
861.653	21538
861.786	21507
861.918	21435
862.05	21515
862.183	21485
862.315	21469
862.447	21572
862.58	21545
862.712	21367
862.844	21325
862.976	21481
863.108	21405
863.24	21774
863.372	21294
863.504	21378
863.636	21363
863.768	21306
863.9	21424
864.032	21252
864.164	21306
864.296	21370
864.428	21454
864.559	21477
864.691	21405
864.823	21370
864.954	21310
865.086	21355
865.217	21310
865.349	21157
865.48	21176
865.612	21199
865.743	21359
865.875	21325
866.006	21195
866.137	21302
866.269	21237
866.4	21138
866.531	21230
866.662	21108
866.793	21173
866.924	21211
867.055	21203
867.186	21199
867.317	21116
867.448	21074
867.579	21169
867.71	21154
867.841	21077
867.972	21131
868.103	21214
868.233	21142
868.364	21199
868.495	21302
868.625	21264
868.756	21488
868.886	21359
869.017	21355
869.147	21629
869.278	21507
869.408	21412
869.539	21447
869.669	21561
869.799	21447
869.929	21553
870.06	21435
870.19	21682
870.32	21675
870.45	21694
870.58	21679
870.71	21945
870.84	21994
870.97	21861
871.1	21816
871.23	21964
871.36	22021
871.489	21930
871.619	21892
871.749	22124
871.879	22032
872.008	22086
872.138	22029
872.267	22010
872.397	21911
872.526	21827
872.656	21804
872.785	21895
872.915	22006
873.044	22059
873.173	22044
873.303	22032
873.432	22070
873.561	22131
873.69	22109
873.819	22112
873.948	22086
874.077	22158
874.206	21968
874.335	22223
874.464	22284
874.593	22352
874.722	22215
874.851	22200
874.979	22314
875.108	22268
875.237	22287
875.365	22215
875.494	22181
875.623	22325
875.751	22166
875.88	22356
876.008	22405
876.136	22394
876.265	22622
876.393	22824
876.521	22675
876.65	22664
876.778	22683
876.906	22599
877.034	22596
877.162	22645
877.29	22626
877.418	22584
877.546	22622
877.674	22497
877.802	22554
877.93	22485
878.058	22421
878.185	22470
878.313	22478
878.441	22611
878.568	22363
878.696	22466
878.824	22660
878.951	22584
879.079	22774
879.206	22908
879.333	22752
879.461	22630
879.588	22668
879.715	22721
879.842	22790
879.97	22733
880.097	22599
880.224	22493
880.351	22546
880.478	22436
880.605	22348
880.732	22386
880.859	22531
880.986	22398
881.112	22390
881.239	22314
881.366	22192
881.493	22013
881.619	21964
881.746	22067
881.872	22048
881.999	21903
882.125	21991
882.252	22013
882.378	21998
882.505	22048
882.631	21827
882.757	21800
882.883	21660
883.01	21660
883.136	21720
883.262	21656
883.388	21462
883.514	21690
883.64	21835
883.766	21614
883.892	21473
884.018	21424
884.143	21633
884.269	21675
884.395	21469
884.52	21374
884.646	21378
884.772	21325
884.897	21321
885.023	21428
885.148	21431
885.274	21466
885.399	21393
885.524	21310
885.65	21203
885.775	21351
885.9	21306
886.025	21447
886.15	21412
886.275	21264
886.4	21176
886.525	21336
886.65	21188
886.775	21268
886.9	21401
887.025	21519
887.149	21256
887.274	21119
887.399	21108
887.523	21062
887.648	21005
887.773	20967
887.897	21131
888.021	21119
888.146	21062
888.27	21176
888.395	21165
888.519	21062
888.643	21066
888.767	21036
888.891	20998
889.015	20765
889.139	20921
889.263	20788
889.387	20952
889.511	21104
889.635	20994
889.759	20921
889.883	20910
890.006	20823
890.13	20921
890.254	20910
890.377	20857
890.501	20651
890.624	20511
890.748	20796
890.871	20629
890.995	20370
891.118	20355
891.241	20533
891.364	20514
891.488	20564
891.611	20552
891.734	20404
891.857	20602
891.98	20446
892.103	20514
892.226	20514
892.349	20408
892.471	20286
892.594	20351
892.717	20336
892.839	20339
892.962	20393
893.085	20461
893.207	20457
893.33	20298
893.452	20240
893.575	20408
893.697	20343
893.819	20454
893.941	20507
894.064	20473
894.186	20221
894.308	20240
894.43	20423
894.552	20431
894.674	20446
894.796	20115
894.918	20366
895.04	20278
895.161	20473
895.283	20336
895.405	20320
895.526	20396
895.648	20290
895.769	20347
895.891	20328
896.012	20408
896.134	20301
896.255	20454
896.376	20259
896.498	20290
896.619	20408
896.74	20282
896.861	20434
896.982	20594
897.103	20834
897.224	20659
897.345	20575
897.466	20499
897.587	20541
897.708	20613
897.828	20598
897.949	20484
898.07	20393
898.19	20488
898.311	20678
898.431	20423
898.552	20560
898.672	20590
898.792	20552
898.913	20518
899.033	20396
899.153	20328
899.273	20214
899.393	20324
899.513	20347
899.633	20259
899.753	20370
899.873	20256
899.993	20389
900.113	20214
900.232	20218
900.352	20218
900.472	20065
900.591	20001
900.711	20020
900.83	20100
900.95	20142
901.069	20149
901.189	19814
901.308	19712
901.427	19666
901.546	19742
901.665	19704
901.784	19693
901.904	19472
902.023	19434
902.141	19152
902.26	19118
902.379	19255
902.498	19118
902.617	19023
902.735	19202
902.854	19164
902.973	19160
903.091	18897
903.21	18932
903.328	18856
903.446	18635
903.565	18719
903.683	18658
903.801	18456
903.919	18601
904.038	18585
904.156	18353
904.274	18555
904.392	18456
904.51	18327
904.627	18486
904.745	18410
904.863	18525
904.981	18216
905.098	17992
905.216	18178
905.334	17992
905.451	18026
905.569	18041
905.686	18064
905.803	18030
905.921	17874
906.038	17882
906.155	17927
906.272	17714
906.389	17832
906.506	17577
906.623	17623
906.74	17619
906.857	17539
906.974	17436
907.091	17623
907.208	17646
907.324	17745
907.441	17467
907.557	17345
907.674	17254
907.79	17341
907.907	17376
908.023	17330
908.139	17356
908.256	17277
908.372	17261
908.488	17155
908.604	17067
908.72	17025
908.836	17025
908.952	17029
909.068	16889
909.184	17086
909.3	17052
909.415	17052
909.531	16987
909.647	16759
909.762	16713
909.878	16752
909.993	16717
910.108	16634
910.224	16622
910.339	16675
910.454	16577
910.57	16603
910.685	16481
910.8	16755
910.915	16653
911.03	16535
911.145	16371
911.259	16443
911.374	16314
911.489	16188
911.604	16207
911.718	16097
911.833	16204
911.947	16010
912.062	15899
912.176	16063
912.291	16006
912.405	15994
912.519	16310
912.633	16200
912.748	15998
912.862	16029
912.976	15934
913.09	15751
913.204	15892
913.318	15915
913.431	15998
913.545	15934
913.659	15911
913.772	15812
913.886	15747
914	15675
914.113	15778
914.226	15705
914.34	15797
914.453	15599
914.566	15603
914.68	15587
914.793	15507
914.906	15351
915.019	15348
915.132	15165
915.245	15344
915.358	15283
915.47	15332
915.583	15351
915.696	15241
915.809	15405
915.921	15405
916.034	15127
916.146	15252
916.259	15112
916.371	15226
916.483	15165
916.595	15085
916.708	15131
916.82	15119
916.932	15097
917.044	15051
917.156	14994
917.268	14960
917.38	14998
917.491	14864
917.603	14906
917.715	15039
917.826	14960
917.938	14975
918.049	14777
918.161	14910
918.272	14967
918.384	14952
918.495	14781
918.606	14754
918.717	14613
918.828	14708
918.939	14716
919.05	14571
919.161	14594
919.272	14476
919.383	14610
919.494	14613
919.604	14785
919.715	14750
919.826	14667
919.936	14716
920.047	14708
920.157	14632
920.267	14845
920.378	14674
920.488	14598
920.598	14750
920.708	14887
920.818	14743
920.928	14773
921.038	15001
921.148	14842
921.258	14552
921.368	14507
921.477	14396
921.587	14332
921.697	14256
921.806	14298
921.916	14252
922.025	14050
922.134	13986
922.244	13913
922.353	14073
922.462	13917
922.571	13917
922.68	13658
922.789	13643
922.898	13636
923.007	13578
923.116	13704
923.224	13609
923.333	13590
923.442	13514
923.55	13480
923.659	13525
923.767	13544
923.876	13460
923.984	13525
924.092	13426
924.201	13354
924.309	13403
924.417	13316
924.525	13278
924.633	13282
924.741	14073
924.849	13168
924.956	13259
925.064	13004
925.172	13023
925.279	13050
925.387	13099
925.494	13038
925.602	13160
925.709	13110
925.816	12951
925.924	12947
926.031	13137
926.138	13027
926.245	12993
926.352	12954
926.459	13000
926.566	13114
926.673	12920
926.779	12810
926.886	12776
926.993	12601
927.099	12669
927.206	12635
927.312	12521
927.419	12764
927.525	12662
927.631	12696
927.737	12483
927.843	12418
927.95	12327
928.056	12403
928.162	12433
928.267	12448
928.373	12985
928.479	12448
928.585	12315
928.69	12342
928.796	12399
928.901	12296
929.007	12167
929.112	12380
929.218	12338
929.323	12224
929.428	12060
929.533	12254
929.638	12144
929.743	12155
929.848	12167
929.953	12106
930.058	12007
930.163	11840
930.267	11874
930.372	12011
930.477	11771
930.581	12034
930.685	11904
930.79	11752
930.894	11767
930.998	11615
931.103	11882
931.207	11452
931.311	11448
931.415	11307
931.519	11178
931.623	11124
