Data from test_V78500241_2980.txt Node
Date: Fri Mar 25 15:30:36 CST 2022
User: usil
Spectrometer: V785-0024
Trigger mode: 0
Integration Time (sec): 4.000000E-1
Scans to average: 1
Nonlinearity correction enabled: false
Boxcar width: 0
Storing dark spectrum: false
XAxis mode: Wavelengths
Number of Pixels in Spectrum: 1024
>>>>>Begin Spectral Data<<<<<
801.071	27195
801.214	27116
801.356	26998
801.499	26788
801.641	26781
801.783	26895
801.926	26929
802.068	26705
802.211	26682
802.353	26632
802.496	26495
802.638	26556
802.78	26328
802.923	26374
803.065	26256
803.208	26278
803.35	26423
803.492	26522
803.635	26697
803.777	26400
803.919	26518
804.061	26777
804.204	26541
804.346	26427
804.488	26476
804.63	26484
804.773	26408
804.915	26499
805.057	26667
805.199	26473
805.341	26507
805.483	26739
805.626	26629
805.768	26636
805.91	26590
806.052	26571
806.194	26648
806.336	26842
806.478	26678
806.62	26613
806.762	26720
806.904	26914
807.046	27157
807.188	27116
807.33	27028
807.472	27066
807.614	27013
807.756	26975
807.898	26815
808.04	26906
808.182	26826
808.324	27013
808.465	26899
808.607	27127
808.749	27192
808.891	27275
809.033	27389
809.174	27310
809.316	27321
809.458	27249
809.6	27268
809.741	27306
809.883	27408
810.025	27633
810.166	27515
810.308	27367
810.45	27492
810.591	27401
810.733	27230
810.875	27252
811.016	27241
811.158	27066
811.299	27382
811.441	27378
811.582	27370
811.724	27245
811.865	27180
812.007	27321
812.148	27165
812.29	27294
812.431	27386
812.573	27542
812.714	27625
812.855	27835
812.997	27797
813.138	27926
813.279	27774
813.421	27671
813.562	27701
813.703	27599
813.845	27458
813.986	27260
814.127	26971
814.268	26880
814.41	26933
814.551	26845
814.692	26956
814.833	26708
814.974	26769
815.115	26940
815.256	26724
815.397	26796
815.539	26735
815.68	26705
815.821	26541
815.962	26800
816.103	26670
816.244	26404
816.385	26461
816.526	26431
816.666	26240
816.807	26130
816.948	26294
817.089	26324
817.23	26119
817.371	26256
817.512	26218
817.653	25986
817.793	26111
817.934	26005
818.075	26267
818.216	26122
818.356	26172
818.497	25951
818.638	25791
818.778	25871
818.919	25845
819.06	25974
819.2	26035
819.341	26100
819.481	26077
819.622	26362
819.762	26434
819.903	26267
820.043	26374
820.184	26244
820.324	26126
820.465	26286
820.605	26233
820.746	26317
820.886	26088
821.026	26187
821.167	26012
821.307	26187
821.447	26214
821.588	26168
821.728	25989
821.868	25856
822.008	25594
822.149	25723
822.289	25540
822.429	25266
822.569	25331
822.709	25247
822.849	25118
822.99	25084
823.13	25000
823.27	25046
823.41	24935
823.55	24837
823.69	24909
823.83	24894
823.97	24772
824.11	24715
824.25	24559
824.389	24692
824.529	24867
824.669	24677
824.809	24886
824.949	24791
825.089	24722
825.228	24738
825.368	24639
825.508	24555
825.648	24601
825.787	24722
825.927	24646
826.067	24677
826.206	24593
826.346	24726
826.485	24563
826.625	24547
826.765	24764
826.904	24574
827.044	24448
827.183	24365
827.323	24308
827.462	24429
827.601	24273
827.741	24273
827.88	24254
828.02	24106
828.159	24148
828.298	24365
828.437	24323
828.577	24068
828.716	24407
828.855	24247
828.994	23950
829.134	23973
829.273	24091
829.412	23931
829.551	23939
829.69	23946
829.829	24049
829.968	24003
830.107	23942
830.246	24072
830.385	23908
830.524	23935
830.663	23954
830.802	23691
830.941	23672
831.08	23657
831.219	23634
831.357	23684
831.496	23718
831.635	23661
831.774	23623
831.913	23505
832.051	23364
832.19	23402
832.329	23486
832.467	23220
832.606	23124
832.744	23143
832.883	23296
833.022	23227
833.16	23265
833.299	23353
833.437	23303
833.576	23261
833.714	23280
833.852	23486
833.991	23353
834.129	23516
834.267	23360
834.406	23330
834.544	23433
834.682	23235
834.821	23258
834.959	23551
835.097	23200
835.235	23433
835.373	23284
835.511	23299
835.65	23159
835.788	23216
835.926	23022
836.064	23048
836.202	22923
836.34	23193
836.478	23231
836.615	23185
836.753	23166
836.891	23334
837.029	23227
837.167	23159
837.305	23037
837.443	23029
837.58	22881
837.718	23018
837.856	23018
837.993	23048
838.131	23052
838.269	22858
838.406	22866
838.544	22839
838.681	22752
838.819	22656
838.956	22367
839.094	22459
839.231	22440
839.369	22649
839.506	22774
839.643	22828
839.781	22432
839.918	22394
840.055	22489
840.193	22443
840.33	22386
840.467	22447
840.604	22516
840.742	22713
840.879	22242
841.016	22230
841.153	22280
841.29	22451
841.427	22337
841.564	22466
841.701	22394
841.838	22352
841.975	22291
842.112	22386
842.249	22215
842.385	22242
842.522	22459
842.659	22215
842.796	22272
842.933	22211
843.069	22112
843.206	22196
843.343	22188
843.479	22162
843.616	22230
843.752	21953
843.889	21968
844.025	22097
844.162	21888
844.298	22013
844.435	21918
844.571	21918
844.708	22006
844.844	22162
844.98	22036
845.117	22025
845.253	21785
845.389	21800
845.525	21838
845.661	21690
845.798	21629
845.934	21827
846.07	21599
846.206	21701
846.342	21865
846.478	21606
846.614	21530
846.75	21298
846.886	21351
847.022	21424
847.158	21549
847.294	21408
847.429	21408
847.565	21325
847.701	21660
847.837	21135
847.972	21093
848.108	21203
848.244	21268
848.379	21055
848.515	21058
848.65	21039
848.786	21070
848.921	20944
849.057	21161
849.192	21039
849.328	21028
849.463	21104
849.598	20960
849.734	20960
849.869	20868
850.004	20769
850.14	20807
850.275	20777
850.41	20750
850.545	20826
850.68	20769
850.815	20785
850.95	20708
851.085	20998
851.22	20853
851.355	20864
851.49	20815
851.625	20621
851.76	20735
851.895	20629
852.03	20697
852.165	20887
852.299	20819
852.434	20899
852.569	20785
852.703	20781
852.838	20823
852.973	20952
853.107	20864
853.242	20785
853.376	20629
853.511	20522
853.645	20606
853.78	20674
853.914	20659
854.048	20549
854.183	20689
854.317	20606
854.451	20876
854.585	20716
854.72	20667
854.854	20716
854.988	20590
855.122	20621
855.256	20526
855.39	20648
855.524	20663
855.658	20625
855.792	20640
855.926	20579
856.06	20667
856.194	20560
856.327	20602
856.461	20598
856.595	20549
856.729	20579
856.862	20743
856.996	20682
857.13	20648
857.263	20735
857.397	20765
857.53	20564
857.664	20556
857.797	20712
857.931	20773
858.064	20621
858.197	20773
858.331	20632
858.464	20507
858.597	20454
858.731	20640
858.864	20602
858.997	20549
859.13	20549
859.263	20807
859.396	20750
859.529	20640
859.662	20503
859.795	20659
859.928	20655
860.061	20861
860.194	20872
860.327	20678
860.46	20632
860.592	20804
860.725	20811
860.858	20765
860.99	20708
861.123	20549
861.256	20533
861.388	20606
861.521	21275
861.653	20465
861.786	20347
861.918	20370
862.05	20400
862.183	20670
862.315	20549
862.447	20689
862.58	20621
862.712	20271
862.844	20355
862.976	20495
863.108	20400
863.24	20670
863.372	20374
863.504	20256
863.636	20309
863.768	20370
863.9	20328
864.032	20305
864.164	20278
864.296	20374
864.428	20370
864.559	20324
864.691	20461
864.823	20488
864.954	20351
865.086	20385
865.217	20229
865.349	20115
865.48	20214
865.612	20259
865.743	20305
865.875	20282
866.006	20191
866.137	20374
866.269	20229
866.4	20252
866.531	20126
866.662	20229
866.793	20202
866.924	20187
867.055	20202
867.186	20191
867.317	20206
867.448	20149
867.579	20103
867.71	20092
867.841	20103
867.972	20237
868.103	20103
868.233	20263
868.364	20153
868.495	20351
868.625	20389
868.756	20587
868.886	20389
869.017	20412
869.147	20541
869.278	20636
869.408	20450
869.539	20446
869.669	20590
869.799	20530
869.929	20507
870.06	20564
870.19	20773
870.32	20716
870.45	20823
870.58	20880
870.71	20998
870.84	20842
870.97	20796
871.1	20781
871.23	21150
871.36	21112
871.489	20861
871.619	21024
871.749	21058
871.879	20948
872.008	21169
872.138	20982
872.267	21017
872.397	20990
872.526	20895
872.656	20834
872.785	20899
872.915	21112
873.044	21100
873.173	20998
873.303	21131
873.432	21112
873.561	21184
873.69	21157
873.819	21013
873.948	21169
874.077	21150
874.206	21119
874.335	20994
874.464	21252
874.593	21317
874.722	21237
874.851	21291
874.979	21268
875.108	21450
875.237	21256
875.365	21154
875.494	21272
875.623	21344
875.751	21393
875.88	21313
876.008	21416
876.136	21420
876.265	21701
876.393	21785
876.521	21629
876.65	21747
876.778	21732
876.906	21622
877.034	21705
877.162	21766
877.29	21762
877.418	21629
877.546	21637
877.674	21698
877.802	21644
877.93	21622
878.058	21454
878.185	21538
878.313	21652
878.441	21595
878.568	21587
878.696	21557
878.824	21739
878.951	21762
879.079	21835
879.206	21979
879.333	21766
879.461	21717
879.588	21724
879.715	21736
879.842	21857
879.97	21762
880.097	21564
880.224	21367
880.351	21485
880.478	21511
880.605	21538
880.732	21526
880.859	21724
880.986	21393
881.112	21557
881.239	21439
881.366	21135
881.493	21116
881.619	21154
881.746	21077
881.872	21074
881.999	21058
882.125	21028
882.252	21074
882.378	21112
882.505	21123
882.631	20899
882.757	20762
882.883	20921
883.01	20781
883.136	20659
883.262	20625
883.388	20629
883.514	20804
883.64	20773
883.766	20731
883.892	20522
884.018	20518
884.143	20674
884.269	20823
884.395	20381
884.52	20317
884.646	20514
884.772	20408
884.897	20252
885.023	20492
885.148	20488
885.274	20495
885.399	20541
885.524	20377
885.65	20400
885.775	20454
885.9	20495
886.025	20461
886.15	20507
886.275	20377
886.4	20176
886.525	20434
886.65	20351
886.775	20355
886.9	20575
887.025	20609
887.149	20438
887.274	20244
887.399	20282
887.523	20161
887.648	20168
887.773	20054
887.897	20244
888.021	20290
888.146	20020
888.27	20259
888.395	20320
888.519	20263
888.643	20305
888.767	20202
888.891	20164
889.015	20039
889.139	20069
889.263	20054
889.387	20168
889.511	20183
889.635	20119
889.759	19932
889.883	19936
890.006	19932
890.13	20077
890.254	19890
890.377	19894
890.501	19708
890.624	19715
890.748	19750
890.871	19685
890.995	19537
891.118	19552
891.241	19613
891.364	19537
891.488	19620
891.611	19575
891.734	19460
891.857	19635
891.98	19601
892.103	19582
892.226	19582
892.349	19495
892.471	19377
892.594	19495
892.717	19403
892.839	19434
892.962	19533
893.085	19594
893.207	19529
893.33	19373
893.452	19301
893.575	19556
893.697	19510
893.819	19700
893.941	19658
894.064	19571
894.186	19548
894.308	19350
894.43	19628
894.552	19590
894.674	19586
894.796	19346
894.918	19502
895.04	19422
895.161	19601
895.283	19556
895.405	19373
895.526	19525
895.648	19445
895.769	19506
895.891	19449
896.012	19476
896.134	19476
896.255	19537
896.376	19548
896.498	19491
896.619	19578
896.74	19426
896.861	19571
896.982	19841
897.103	20050
897.224	19731
897.345	19712
897.466	19578
897.587	19753
897.708	19940
897.828	19727
897.949	19632
898.07	19571
898.19	19693
898.311	19845
898.431	19807
898.552	19742
898.672	19761
898.792	19761
898.913	19761
899.033	19666
899.153	19582
899.273	19400
899.393	19518
899.513	19396
899.633	19457
899.753	19453
899.873	19422
899.993	19533
900.113	19388
900.232	19514
900.352	19537
900.472	19304
900.591	19194
900.711	19266
900.83	19168
900.95	19308
901.069	19285
901.189	19152
901.308	18947
901.427	19000
901.546	18973
901.665	18909
901.784	18966
901.904	18844
902.023	18669
902.141	18407
902.26	18467
902.379	18525
902.498	18353
902.617	18296
902.735	18525
902.854	18506
902.973	18323
903.091	18197
903.21	18079
903.328	18155
903.446	18030
903.565	17931
903.683	17988
903.801	17767
903.919	17931
904.038	17710
904.156	17634
904.274	17752
904.392	17649
904.51	17562
904.627	17676
904.745	17695
904.863	17809
904.981	17490
905.098	17368
905.216	17258
905.334	17334
905.451	17376
905.569	17280
905.686	17452
905.803	17322
905.921	17227
906.038	17151
906.155	17121
906.272	16987
906.389	17128
906.506	16908
906.623	16892
906.74	16820
906.857	16824
906.974	16816
907.091	16980
907.208	16968
907.324	16919
907.441	16725
907.557	16634
907.674	16622
907.79	16478
907.907	16474
908.023	16546
908.139	16683
908.256	16546
908.372	16546
908.488	16428
908.604	16337
908.72	16337
908.836	16371
908.952	16375
909.068	16268
909.184	16356
909.3	16253
909.415	16329
909.531	16352
909.647	16082
909.762	16055
909.878	15926
909.993	15998
910.108	16112
910.224	15903
910.339	15991
910.454	15899
910.57	15823
910.685	15865
910.8	16029
910.915	16025
911.03	15865
911.145	15675
911.259	15549
911.374	15538
911.489	15568
911.604	15386
911.718	15344
911.833	15416
911.947	15336
912.062	15226
912.176	15469
912.291	15329
912.405	15412
912.519	15564
912.633	15580
912.748	15374
912.862	15374
912.976	15188
913.09	15074
913.204	15131
913.318	15272
913.431	15348
913.545	15260
913.659	15233
913.772	15161
913.886	15077
914	14986
914.113	15104
914.226	15138
914.34	15127
914.453	14891
914.566	14937
914.68	14861
914.793	14788
914.906	14743
915.019	14617
915.132	14556
915.245	14697
915.358	14674
915.47	14636
915.583	14579
915.696	14587
915.809	14773
915.921	14754
916.034	14587
916.146	14514
916.259	14541
916.371	14522
916.483	14625
916.595	14381
916.708	14476
916.82	14518
916.932	14495
917.044	14393
917.156	14450
917.268	14324
917.38	14408
917.491	14259
917.603	14267
917.715	14404
917.826	14385
917.938	14202
918.049	14168
918.161	14328
918.272	14339
918.384	14377
918.495	14313
918.606	14050
918.717	13959
918.828	14100
918.939	14119
919.05	13947
919.161	14069
919.272	13841
919.383	13909
919.494	13997
919.604	14271
919.715	14142
919.826	13947
919.936	14001
920.047	14107
920.157	13974
920.267	14046
920.378	13989
920.488	14043
920.598	14282
920.708	14355
920.818	14210
920.928	14134
921.038	14313
921.148	14263
921.258	13982
921.368	13913
921.477	13879
921.587	13681
921.697	13601
921.806	13780
921.916	13670
922.025	13563
922.134	13460
922.244	13403
922.353	13373
922.462	13320
922.571	13278
922.68	13069
922.789	13050
922.898	13171
923.007	12981
923.116	13061
923.224	13069
923.333	13038
923.442	12909
923.55	12909
923.659	12954
923.767	12951
923.876	12795
923.984	12958
924.092	12875
924.201	12856
924.309	12875
924.417	12856
924.525	12798
924.633	12810
924.741	13502
924.849	12578
924.956	12639
925.064	12620
925.172	12570
925.279	12559
925.387	12589
925.494	12448
925.602	12654
925.709	12532
925.816	12437
925.924	12475
926.031	12498
926.138	12361
926.245	12547
926.352	12395
926.459	12498
926.566	12582
926.673	12388
926.779	12372
926.886	12308
926.993	12064
927.099	12057
927.206	12034
927.312	12034
927.419	12125
927.525	12121
927.631	12163
927.737	12034
927.843	11912
927.95	11843
928.056	11870
928.162	11901
928.267	11999
928.373	12654
928.479	11942
928.585	11703
928.69	11901
928.796	11874
928.901	11847
929.007	11733
929.112	11790
929.218	11752
929.323	11623
929.428	11573
929.533	11790
929.638	11551
929.743	11623
929.848	11634
929.953	11665
930.058	11524
930.163	11356
930.267	11395
930.372	11474
930.477	11296
930.581	11520
930.685	11383
930.79	11296
930.894	11284
930.998	11277
931.103	11311
931.207	11045
931.311	11003
931.415	10885
931.519	10710
931.623	10641
