Data from test_V78500241_3310.txt Node
Date: Fri Mar 25 15:32:54 CST 2022
User: usil
Spectrometer: V785-0024
Trigger mode: 0
Integration Time (sec): 4.000000E-1
Scans to average: 1
Nonlinearity correction enabled: false
Boxcar width: 0
Storing dark spectrum: false
XAxis mode: Wavelengths
Number of Pixels in Spectrum: 1024
>>>>>Begin Spectral Data<<<<<
801.071	27306
801.214	27222
801.356	26975
801.499	27047
801.641	26880
801.783	26842
801.926	26940
802.068	26823
802.211	26788
802.353	26735
802.496	26590
802.638	26613
802.78	26613
802.923	26332
803.065	26278
803.208	26290
803.35	26503
803.492	26450
803.635	26564
803.777	26609
803.919	26583
804.061	26929
804.204	26655
804.346	26442
804.488	26362
804.63	26541
804.773	26682
804.915	26625
805.057	26727
805.199	26575
805.341	26663
805.483	26762
805.626	26594
805.768	26670
805.91	26739
806.052	26579
806.194	26564
806.336	26815
806.478	26769
806.62	26735
806.762	26921
806.904	26971
807.046	27017
807.188	27176
807.33	27089
807.472	27226
807.614	27085
807.756	26975
807.898	26975
808.04	26914
808.182	26906
808.324	26975
808.465	27036
808.607	27176
808.749	27272
808.891	27370
809.033	27458
809.174	27207
809.316	27275
809.458	27313
809.6	27264
809.741	27344
809.883	27340
810.025	27492
810.166	27534
810.308	27416
810.45	27443
810.591	27473
810.733	27313
810.875	27116
811.016	27176
811.158	27245
811.299	27306
811.441	27523
811.582	27378
811.724	27351
811.865	27283
812.007	27317
812.148	27268
812.29	27302
812.431	27458
812.573	27587
812.714	27709
812.855	27812
812.997	27793
813.138	28017
813.279	27918
813.421	27755
813.562	27747
813.703	27633
813.845	27549
813.986	27180
814.127	27043
814.268	26975
814.41	26849
814.551	26830
814.692	27009
814.833	26940
814.974	26849
815.115	27020
815.256	26849
815.397	26857
815.539	26792
815.68	26670
815.821	26629
815.962	26731
816.103	26644
816.244	26450
816.385	26476
816.526	26453
816.666	26423
816.807	26065
816.948	26332
817.089	26404
817.23	26161
817.371	26172
817.512	26282
817.653	26301
817.793	26122
817.934	26100
818.075	26176
818.216	26122
818.356	26153
818.497	26107
818.638	25932
818.778	26012
818.919	26008
819.06	26092
819.2	26058
819.341	26218
819.481	26191
819.622	26282
819.762	26606
819.903	26442
820.043	26286
820.184	26336
820.324	26191
820.465	26362
820.605	26404
820.746	26225
820.886	26237
821.026	26305
821.167	26252
821.307	26301
821.447	26039
821.588	26050
821.728	25966
821.868	25852
822.008	25651
822.149	25814
822.289	25666
822.429	25350
822.569	25362
822.709	25392
822.849	25091
822.99	25095
823.13	25057
823.27	25148
823.41	25034
823.55	24810
823.69	25004
823.83	24886
823.97	24913
824.11	24779
824.25	24825
824.389	24692
824.529	24871
824.669	24871
824.809	24890
824.949	24909
825.089	24989
825.228	24973
825.368	24582
825.508	24646
825.648	24757
825.787	24738
825.927	24749
826.067	24684
826.206	24563
826.346	24711
826.485	24734
826.625	24684
826.765	24715
826.904	24684
827.044	24555
827.183	24380
827.323	24258
827.462	24422
827.601	24391
827.741	24414
827.88	24486
828.02	24292
828.159	24300
828.298	24376
828.437	24471
828.577	24448
828.716	24445
828.855	24308
828.994	24194
829.134	24076
829.273	24174
829.412	24114
829.551	24136
829.69	24144
829.829	24224
829.968	24308
830.107	24133
830.246	24030
830.385	24060
830.524	23954
830.663	23863
830.802	23863
830.941	23764
831.08	23775
831.219	23794
831.357	23771
831.496	23855
831.635	23726
831.774	23661
831.913	23665
832.051	23516
832.19	23417
832.329	23391
832.467	23376
832.606	23318
832.744	23436
832.883	23417
833.022	23318
833.16	23455
833.299	23406
833.437	23353
833.576	23463
833.714	23467
833.852	23539
833.991	23543
834.129	23478
834.267	23398
834.406	23482
834.544	23520
834.682	23444
834.821	23440
834.959	23657
835.097	23429
835.235	23558
835.373	23478
835.511	23478
835.65	23391
835.788	23444
835.926	23102
836.064	23200
836.202	23181
836.34	23299
836.478	23448
836.615	23303
836.753	23440
836.891	23474
837.029	23417
837.167	23280
837.305	23322
837.443	23220
837.58	23261
837.718	23265
837.856	23174
837.993	23090
838.131	23075
838.269	23128
838.406	23014
838.544	23003
838.681	22790
838.819	22828
838.956	22656
839.094	22683
839.231	22664
839.369	22782
839.506	22999
839.643	22885
839.781	22706
839.918	22546
840.055	22733
840.193	22493
840.33	22577
840.467	22740
840.604	22653
840.742	22831
840.879	22394
841.016	22538
841.153	22531
841.29	22664
841.427	22459
841.564	22588
841.701	22637
841.838	22538
841.975	22352
842.112	22523
842.249	22447
842.385	22421
842.522	22664
842.659	22303
842.796	22329
842.933	22352
843.069	22318
843.206	22249
843.343	22497
843.479	22382
843.616	22436
843.752	22070
843.889	22006
844.025	22295
844.162	22162
844.298	22162
844.435	22223
844.571	22029
844.708	22124
844.844	22390
844.98	22253
845.117	22291
845.253	22120
845.389	21907
845.525	21972
845.661	21888
845.798	21835
845.934	21884
846.07	21816
846.206	21865
846.342	21895
846.478	21816
846.614	21622
846.75	21576
846.886	21488
847.022	21599
847.158	21720
847.294	21614
847.429	21656
847.565	21599
847.701	21835
847.837	21294
847.972	21184
848.108	21450
848.244	21249
848.379	21173
848.515	21169
848.65	21195
848.786	21146
848.921	21214
849.057	21260
849.192	21241
849.328	21138
849.463	21127
849.598	21169
849.734	21081
849.869	21047
850.004	20944
850.14	20933
850.275	21013
850.41	20941
850.545	20857
850.68	20880
850.815	20891
850.95	20929
851.085	21055
851.22	21100
851.355	21058
851.49	20925
851.625	20956
851.76	20853
851.895	20872
852.03	20963
852.165	20842
852.299	21024
852.434	21055
852.569	21017
852.703	21017
852.838	20967
852.973	21131
853.107	21009
853.242	20899
853.376	20819
853.511	20659
853.645	20682
853.78	20849
853.914	20804
854.048	20739
854.183	20701
854.317	20826
854.451	20910
854.585	20819
854.72	20807
854.854	20849
854.988	20857
855.122	20804
855.256	20640
855.39	20788
855.524	20826
855.658	20750
855.792	20849
855.926	20621
856.06	20746
856.194	20982
856.327	20758
856.461	20705
856.595	20682
856.729	20800
856.862	20792
856.996	20842
857.13	20842
857.263	20956
857.397	20830
857.53	20754
857.664	20834
857.797	20918
857.931	20891
858.064	20640
858.197	20880
858.331	20701
858.464	20716
858.597	20674
858.731	20773
858.864	20644
858.997	20724
859.13	20815
859.263	20868
859.396	20781
859.529	20705
859.662	20773
859.795	20727
859.928	20750
860.061	20800
860.194	21085
860.327	20868
860.46	20785
860.592	20864
860.725	20902
860.858	20823
860.99	20842
861.123	20735
861.256	20693
861.388	20716
861.521	21283
861.653	20693
861.786	20522
861.918	20533
862.05	20549
862.183	20708
862.315	20686
862.447	20838
862.58	20644
862.712	20473
862.844	20484
862.976	20632
863.108	20545
863.24	20990
863.372	20442
863.504	20423
863.636	20492
863.768	20499
863.9	20564
864.032	20355
864.164	20545
864.296	20511
864.428	20655
864.559	20549
864.691	20560
864.823	20556
864.954	20473
865.086	20358
865.217	20575
865.349	20282
865.48	20328
865.612	20336
865.743	20552
865.875	20408
866.006	20427
866.137	20454
866.269	20317
866.4	20336
866.531	20237
866.662	20320
866.793	20298
866.924	20358
867.055	20347
867.186	20282
867.317	20347
867.448	20210
867.579	20374
867.71	20267
867.841	20275
867.972	20393
868.103	20305
868.233	20313
868.364	20282
868.495	20408
868.625	20590
868.756	20716
868.886	20457
869.017	20434
869.147	20598
869.278	20758
869.408	20579
869.539	20587
869.669	20651
869.799	20621
869.929	20594
870.06	20659
870.19	20956
870.32	20868
870.45	20933
870.58	20967
870.71	21074
870.84	20990
870.97	21066
871.1	21070
871.23	21192
871.36	21112
871.489	21047
871.619	21169
871.749	21123
871.879	21329
872.008	21450
872.138	21207
872.267	21165
872.397	21173
872.526	21024
872.656	20998
872.785	20990
872.915	21218
873.044	21325
873.173	21207
873.303	21180
873.432	21218
873.561	21306
873.69	21218
873.819	21161
873.948	21264
874.077	21241
874.206	21180
874.335	21230
874.464	21287
874.593	21389
874.722	21523
874.851	21378
874.979	21595
875.108	21515
875.237	21340
875.365	21378
875.494	21572
875.623	21374
875.751	21454
875.88	21443
876.008	21538
876.136	21614
876.265	21808
876.393	21873
876.521	21922
876.65	21953
876.778	22002
876.906	21774
877.034	21652
877.162	21808
877.29	21759
877.418	21781
877.546	21774
877.674	21724
877.802	21743
877.93	21823
878.058	21679
878.185	21709
878.313	21759
878.441	21644
878.568	21576
878.696	21778
878.824	21899
878.951	21983
879.079	21926
879.206	22006
879.333	21968
879.461	21785
879.588	21926
879.715	21918
879.842	22044
879.97	21819
880.097	21679
880.224	21660
880.351	21663
880.478	21606
880.605	21682
880.732	21622
880.859	21892
880.986	21660
881.112	21587
881.239	21545
881.366	21298
881.493	21393
881.619	21222
881.746	21241
881.872	21207
881.999	21100
882.125	21241
882.252	21066
882.378	21096
882.505	21374
882.631	21036
882.757	20967
882.883	21062
883.01	20921
883.136	20902
883.262	20807
883.388	20712
883.514	20914
883.64	20838
883.766	20857
883.892	20705
884.018	20720
884.143	20823
884.269	20876
884.395	20564
884.52	20568
884.646	20583
884.772	20488
884.897	20587
885.023	20522
885.148	20663
885.274	20644
885.399	20636
885.524	20568
885.65	20575
885.775	20473
885.9	20552
886.025	20731
886.15	20507
886.275	20583
886.4	20492
886.525	20594
886.65	20503
886.775	20465
886.9	20617
887.025	20693
887.149	20571
887.274	20396
887.399	20317
887.523	20408
887.648	20221
887.773	20221
887.897	20210
888.021	20396
888.146	20358
888.27	20377
888.395	20393
888.519	20328
888.643	20450
888.767	20328
888.891	20256
889.015	20107
889.139	20176
889.263	20149
889.387	20298
889.511	20355
889.635	20259
889.759	20103
889.883	20202
890.006	20142
890.13	20134
890.254	20024
890.377	20202
890.501	19940
890.624	19887
890.748	20001
890.871	19826
890.995	19651
891.118	19609
891.241	19742
891.364	19761
891.488	19795
891.611	19708
891.734	19712
891.857	19849
891.98	19719
892.103	19780
892.226	19693
892.349	19727
892.471	19495
892.594	19647
892.717	19685
892.839	19639
892.962	19696
893.085	19833
893.207	19533
893.33	19544
893.452	19548
893.575	19704
893.697	19624
893.819	19734
893.941	19708
894.064	19693
894.186	19670
894.308	19540
894.43	19795
894.552	19769
894.674	19666
894.796	19537
894.918	19616
895.04	19533
895.161	19753
895.283	19685
895.405	19590
895.526	19609
895.648	19540
895.769	19616
895.891	19731
896.012	19742
896.134	19700
896.255	19609
896.376	19578
896.498	19655
896.619	19818
896.74	19635
896.861	19582
896.982	19776
897.103	20043
897.224	19807
897.345	19791
897.466	19849
897.587	19913
897.708	19909
897.828	19887
897.949	19822
898.07	19674
898.19	19951
898.311	20008
898.431	19750
898.552	19845
898.672	19890
898.792	19860
898.913	19898
899.033	19765
899.153	19826
899.273	19510
899.393	19620
899.513	19700
899.633	19586
899.753	19605
899.873	19559
899.993	19712
900.113	19552
900.232	19582
900.352	19559
900.472	19506
900.591	19350
900.711	19384
900.83	19266
900.95	19480
901.069	19514
901.189	19339
901.308	18973
901.427	18947
901.546	18985
901.665	19046
901.784	18985
901.904	18920
902.023	18768
902.141	18578
902.26	18601
902.379	18650
902.498	18460
902.617	18551
902.735	18483
902.854	18445
902.973	18304
903.091	18167
903.21	18163
903.328	18083
903.446	18095
903.565	17958
903.683	17999
903.801	17882
903.919	17961
904.038	17946
904.156	17771
904.274	17699
904.392	17783
904.51	17718
904.627	17737
904.745	17824
904.863	17794
904.981	17672
905.098	17459
905.216	17398
905.334	17474
905.451	17410
905.569	17421
905.686	17497
905.803	17425
905.921	17235
906.038	17360
906.155	17269
906.272	17208
906.389	17102
906.506	16984
906.623	17048
906.74	17037
906.857	16923
906.974	16900
907.091	16927
907.208	17048
907.324	17052
907.441	16923
907.557	16717
907.674	16771
907.79	16649
907.907	16672
908.023	16706
908.139	16733
908.256	16542
908.372	16611
908.488	16550
908.604	16447
908.72	16455
908.836	16440
908.952	16379
909.068	16436
909.184	16508
909.3	16428
909.415	16417
909.531	16417
909.647	16147
909.762	16131
909.878	16090
909.993	16158
910.108	16097
910.224	16097
910.339	16055
910.454	16021
910.57	15934
910.685	15857
910.8	16223
910.915	16002
911.03	15888
911.145	15804
911.259	15709
911.374	15743
911.489	15663
911.604	15591
911.718	15481
911.833	15523
911.947	15443
912.062	15249
912.176	15587
912.291	15549
912.405	15454
912.519	15576
912.633	15618
912.748	15648
912.862	15389
912.976	15336
913.09	15154
913.204	15252
913.318	15374
913.431	15397
913.545	15397
913.659	15443
913.772	15233
913.886	15112
914	15180
914.113	15214
914.226	15256
914.34	15100
914.453	15104
914.566	15230
914.68	15047
914.793	14963
914.906	14826
915.019	14724
915.132	14659
915.245	14697
915.358	14712
915.47	14743
915.583	14617
915.696	14712
915.809	14906
915.921	14838
916.034	14693
916.146	14514
916.259	14693
916.371	14674
916.483	14705
916.595	14594
916.708	14560
916.82	14526
916.932	14511
917.044	14503
917.156	14400
917.268	14419
917.38	14396
917.491	14385
917.603	14431
917.715	14545
917.826	14503
917.938	14248
918.049	14267
918.161	14431
918.272	14461
918.384	14442
918.495	14290
918.606	14130
918.717	14062
918.828	14210
918.939	14142
919.05	14058
919.161	14115
919.272	13982
919.383	14096
919.494	14115
919.604	14465
919.715	14191
919.826	14103
919.936	14149
920.047	14218
920.157	14126
920.267	14301
920.378	14119
920.488	13989
920.598	14320
920.708	14396
920.818	14298
920.928	14317
921.038	14362
921.148	14328
921.258	14176
921.368	14069
921.477	13921
921.587	14012
921.697	13731
921.806	13955
921.916	13772
922.025	13590
922.134	13632
922.244	13422
922.353	13525
922.462	13400
922.571	13419
922.68	13194
922.789	13255
922.898	13217
923.007	13133
923.116	13285
923.224	13198
923.333	13122
923.442	13050
923.55	12962
923.659	13061
923.767	13012
923.876	13027
923.984	13084
924.092	12875
924.201	12954
924.309	12954
924.417	12916
924.525	12894
924.633	12863
924.741	13864
924.849	12627
924.956	12783
925.064	12658
925.172	12585
925.279	12665
925.387	12658
925.494	12585
925.602	12768
925.709	12593
925.816	12467
925.924	12494
926.031	12654
926.138	12498
926.245	12585
926.352	12445
926.459	12673
926.566	12585
926.673	12490
926.779	12437
926.886	12422
926.993	12209
927.099	12194
927.206	12163
927.312	12152
927.419	12220
927.525	12182
927.631	12239
927.737	12087
927.843	12015
927.95	11984
928.056	11977
928.162	12026
928.267	12064
928.373	12604
928.479	12087
928.585	11805
928.69	11901
928.796	11935
928.901	11927
929.007	11748
929.112	11863
929.218	11870
929.323	11790
929.428	11779
929.533	11882
929.638	11634
929.743	11691
929.848	11741
929.953	11649
930.058	11634
930.163	11417
930.267	11459
930.372	11581
930.477	11364
930.581	11619
930.685	11490
930.79	11315
930.894	11395
930.998	11341
931.103	11524
931.207	11128
931.311	11083
931.415	10900
931.519	10668
931.623	10759
