Data from test_V78500241_371.txt Node
Date: Fri Mar 25 15:12:26 CST 2022
User: usil
Spectrometer: V785-0024
Trigger mode: 0
Integration Time (sec): 4.000000E-1
Scans to average: 1
Nonlinearity correction enabled: false
Boxcar width: 0
Storing dark spectrum: false
XAxis mode: Wavelengths
Number of Pixels in Spectrum: 1024
>>>>>Begin Spectral Data<<<<<
801.071	26979
801.214	26948
801.356	26697
801.499	26648
801.641	26629
801.783	26545
801.926	26621
802.068	26556
802.211	26377
802.353	26419
802.496	26263
802.638	26320
802.78	26225
802.923	26103
803.065	26016
803.208	26065
803.35	26206
803.492	26317
803.635	26419
803.777	26180
803.919	26305
804.061	26781
804.204	26328
804.346	26218
804.488	26157
804.63	26233
804.773	26157
804.915	26145
805.057	26450
805.199	26244
805.341	26412
805.483	26541
805.626	26396
805.768	26206
805.91	26469
806.052	26442
806.194	26370
806.336	26556
806.478	26469
806.62	26343
806.762	26476
806.904	26621
807.046	26777
807.188	26823
807.33	26796
807.472	26815
807.614	26754
807.756	26842
807.898	26670
808.04	26590
808.182	26564
808.324	26651
808.465	26640
808.607	26823
808.749	27001
808.891	27032
809.033	27142
809.174	27051
809.316	26883
809.458	26986
809.6	27028
809.741	27009
809.883	27062
810.025	27051
810.166	27207
810.308	27241
810.45	27226
810.591	27070
810.733	27005
810.875	26963
811.016	26906
811.158	26914
811.299	27047
811.441	27108
811.582	27077
811.724	26910
811.865	26864
812.007	26944
812.148	26971
812.29	27131
812.431	27013
812.573	27355
812.714	27435
812.855	27511
812.997	27705
813.138	27667
813.279	27568
813.421	27534
813.562	27515
813.703	27214
813.845	27241
813.986	26967
814.127	26765
814.268	26705
814.41	26663
814.551	26514
814.692	26598
814.833	26560
814.974	26625
815.115	26602
815.256	26526
815.397	26450
815.539	26389
815.68	26389
815.821	26469
815.962	26404
816.103	26267
816.244	26305
816.385	26240
816.526	26210
816.666	26012
816.807	25860
816.948	25928
817.089	26043
817.23	25913
817.371	26001
817.512	25913
817.653	25890
817.793	25826
817.934	25799
818.075	26020
818.216	25978
818.356	25852
818.497	25696
818.638	25628
818.778	25734
818.919	25582
819.06	25769
819.2	25719
819.341	25913
819.481	25814
819.622	25936
819.762	26275
819.903	26267
820.043	26031
820.184	25928
820.324	26008
820.465	26043
820.605	25925
820.746	25963
820.886	25818
821.026	25830
821.167	25917
821.307	25921
821.447	25917
821.588	25757
821.728	25594
821.868	25464
822.008	25297
822.149	25445
822.289	25441
822.429	25099
822.569	25050
822.709	25091
822.849	24837
822.99	24954
823.13	24894
823.27	24958
823.41	24620
823.55	24585
823.69	24707
823.83	24787
823.97	24486
824.11	24532
824.25	24479
824.389	24464
824.529	24570
824.669	24448
824.809	24688
824.949	24616
825.089	24521
825.228	24601
825.368	24342
825.508	24292
825.648	24395
825.787	24460
825.927	24483
826.067	24357
826.206	24376
826.346	24330
826.485	24357
826.625	24338
826.765	24384
826.904	24365
827.044	24254
827.183	24205
827.323	23942
827.462	24095
827.601	24068
827.741	23996
827.88	24178
828.02	23859
828.159	23950
828.298	24117
828.437	24167
828.577	23988
828.716	24311
828.855	24015
828.994	23786
829.134	23748
829.273	23908
829.412	23710
829.551	23748
829.69	23737
829.829	23764
829.968	23863
830.107	23897
830.246	23832
830.385	23786
830.524	23615
830.663	23630
830.802	23585
830.941	23341
831.08	23398
831.219	23501
831.357	23516
831.496	23630
831.635	23417
831.774	23280
831.913	23315
832.051	23231
832.19	23193
832.329	23258
832.467	23136
832.606	22995
832.744	23010
832.883	23090
833.022	23056
833.16	23090
833.299	23113
833.437	23083
833.576	23128
833.714	23284
833.852	23208
833.991	23299
834.129	23288
834.267	23231
834.406	23151
834.544	23178
834.682	23246
834.821	23197
834.959	23341
835.097	23174
835.235	23170
835.373	23029
835.511	23113
835.65	22976
835.788	23136
835.926	22805
836.064	22858
836.202	22736
836.34	22987
836.478	23109
836.615	22984
836.753	23094
836.891	23037
837.029	23075
837.167	22984
837.305	22946
837.443	22820
837.58	22752
837.718	22968
837.856	22809
837.993	22767
838.131	22786
838.269	22778
838.406	22850
838.544	22740
838.681	22596
838.819	22630
838.956	22371
839.094	22390
839.231	22432
839.369	22615
839.506	22771
839.643	22626
839.781	22375
839.918	22303
840.055	22356
840.193	22344
840.33	22287
840.467	22352
840.604	22261
840.742	22577
840.879	22150
841.016	22067
841.153	22116
841.29	22363
841.427	22314
841.564	22314
841.701	22280
841.838	22173
841.975	22105
842.112	22120
842.249	22051
842.385	22032
842.522	22284
842.659	22059
842.796	22135
842.933	22074
843.069	21998
843.206	21945
843.343	22177
843.479	22040
843.616	22013
843.752	21751
843.889	21831
844.025	21892
844.162	21701
844.298	21915
844.435	21846
844.571	21800
844.708	21911
844.844	21937
844.98	21949
845.117	21911
845.253	21808
845.389	21644
845.525	21865
845.661	21660
845.798	21481
845.934	21625
846.07	21686
846.206	21629
846.342	21755
846.478	21515
846.614	21298
846.75	21169
846.886	21287
847.022	21363
847.158	21287
847.294	21291
847.429	21462
847.565	21351
847.701	21488
847.837	20986
847.972	20960
848.108	21112
848.244	21089
848.379	20891
848.515	20952
848.65	20773
848.786	20956
848.921	20944
849.057	20914
849.192	21096
849.328	20963
849.463	20929
849.598	20796
849.734	20708
849.869	20819
850.004	20602
850.14	20686
850.275	20743
850.41	20708
850.545	20629
850.68	20598
850.815	20629
850.95	20579
851.085	20807
851.22	20739
851.355	20754
851.49	20636
851.625	20564
851.76	20667
851.895	20587
852.03	20419
852.165	20609
852.299	20705
852.434	20750
852.569	20796
852.703	20651
852.838	20754
852.973	20712
853.107	20724
853.242	20507
853.376	20518
853.511	20389
853.645	20503
853.78	20552
853.914	20446
854.048	20495
854.183	20473
854.317	20522
854.451	20663
854.585	20438
854.72	20434
854.854	20602
854.988	20301
855.122	20446
855.256	20343
855.39	20446
855.524	20511
855.658	20560
855.792	20518
855.926	20495
856.06	20549
856.194	20552
856.327	20446
856.461	20438
856.595	20537
856.729	20457
856.862	20644
856.996	20541
857.13	20511
857.263	20648
857.397	20556
857.53	20488
857.664	20404
857.797	20480
857.931	20583
858.064	20629
858.197	20613
858.331	20336
858.464	20454
858.597	20366
858.731	20419
858.864	20389
858.997	20495
859.13	20503
859.263	20404
859.396	20507
859.529	20564
859.662	20526
859.795	20522
859.928	20396
860.061	20552
860.194	20579
860.327	20602
860.46	20461
860.592	20625
860.725	20590
860.858	20598
860.99	20552
861.123	20317
861.256	20427
861.388	20526
861.521	21081
861.653	20484
861.786	20259
861.918	20328
862.05	20317
862.183	20492
862.315	20457
862.447	20434
862.58	20450
862.712	20183
862.844	20103
862.976	20370
863.108	20385
863.24	20727
863.372	20088
863.504	20221
863.636	20176
863.768	20145
863.9	20206
864.032	20092
864.164	20103
864.296	20157
864.428	20309
864.559	20294
864.691	20290
864.823	20248
864.954	20130
865.086	20180
865.217	20210
865.349	20050
865.48	19978
865.612	20069
865.743	20244
865.875	20092
866.006	20008
866.137	20259
866.269	20077
866.4	20054
866.531	20168
866.662	19986
866.793	20027
866.924	20130
867.055	20073
867.186	20005
867.317	20020
867.448	19913
867.579	20119
867.71	19970
867.841	19913
867.972	20054
868.103	20039
868.233	20100
868.364	20111
868.495	20084
868.625	20309
868.756	20278
868.886	20294
869.017	20256
869.147	20404
869.278	20404
869.408	20366
869.539	20324
869.669	20370
869.799	20351
869.929	20415
870.06	20351
870.19	20575
870.32	20579
870.45	20659
870.58	20731
870.71	20716
870.84	20823
870.97	20735
871.1	20708
871.23	20823
871.36	20880
871.489	20857
871.619	20845
871.749	20941
871.879	20910
872.008	20967
872.138	20925
872.267	20891
872.397	20826
872.526	20678
872.656	20735
872.785	20811
872.915	20857
873.044	21013
873.173	20910
873.303	20956
873.432	20933
873.561	20994
873.69	20899
873.819	20952
873.948	21009
874.077	20963
874.206	20994
874.335	20872
874.464	21009
874.593	21055
874.722	21127
874.851	21279
874.979	21207
875.108	21272
875.237	21077
875.365	21074
875.494	21211
875.623	21222
875.751	21146
875.88	21161
876.008	21268
876.136	21351
876.265	21698
876.393	21618
876.521	21667
876.65	21595
876.778	21641
876.906	21542
877.034	21523
877.162	21519
877.29	21416
877.418	21553
877.546	21614
877.674	21557
877.802	21511
877.93	21519
878.058	21469
878.185	21416
878.313	21469
878.441	21564
878.568	21298
878.696	21507
878.824	21595
878.951	21637
879.079	21675
879.206	21808
879.333	21705
879.461	21599
879.588	21698
879.715	21667
879.842	21728
879.97	21500
880.097	21291
880.224	21218
880.351	21397
880.478	21218
880.605	21306
880.732	21310
880.859	21561
880.986	21325
881.112	21332
881.239	21306
881.366	21062
881.493	20899
881.619	20941
881.746	20899
881.872	20914
881.999	20804
882.125	20910
882.252	21009
882.378	20944
882.505	20868
882.631	20769
882.757	20731
882.883	20708
883.01	20705
883.136	20689
883.262	20617
883.388	20507
883.514	20670
883.64	20731
883.766	20625
883.892	20457
884.018	20374
884.143	20609
884.269	20587
884.395	20320
884.52	20229
884.646	20294
884.772	20206
884.897	20214
885.023	20225
885.148	20412
885.274	20522
885.399	20412
885.524	20347
885.65	20271
885.775	20370
885.9	20374
886.025	20366
886.15	20313
886.275	20252
886.4	20237
886.525	20218
886.65	20180
886.775	20206
886.9	20259
887.025	20434
887.149	20240
887.274	20092
887.399	20088
887.523	20058
887.648	19951
887.773	19963
887.897	20119
888.021	20054
888.146	19928
888.27	20206
888.395	20081
888.519	20046
888.643	20008
888.767	20107
888.891	19997
889.015	19856
889.139	19932
889.263	19791
889.387	20012
889.511	20157
889.635	19947
889.759	19765
889.883	19887
890.006	19944
890.13	19894
890.254	19742
890.377	19788
890.501	19628
890.624	19704
890.748	19548
890.871	19556
890.995	19403
891.118	19438
891.241	19464
891.364	19495
891.488	19647
891.611	19495
891.734	19518
891.857	19499
891.98	19419
892.103	19510
892.226	19438
892.349	19377
892.471	19179
892.594	19449
892.717	19350
892.839	19438
892.962	19377
893.085	19491
893.207	19422
893.33	19198
893.452	19236
893.575	19422
893.697	19236
893.819	19483
893.941	19578
894.064	19483
894.186	19384
894.308	19324
894.43	19362
894.552	19502
894.674	19419
894.796	19255
894.918	19346
895.04	19365
895.161	19483
895.283	19502
895.405	19354
895.526	19354
895.648	19343
895.769	19464
895.891	19434
896.012	19441
896.134	19518
896.255	19400
896.376	19285
896.498	19407
896.619	19487
896.74	19346
896.861	19487
896.982	19639
897.103	19894
897.224	19677
897.345	19563
897.466	19529
897.587	19643
897.708	19864
897.828	19529
897.949	19590
898.07	19400
898.19	19578
898.311	19609
898.431	19586
898.552	19529
898.672	19677
898.792	19708
898.913	19609
899.033	19590
899.153	19460
899.273	19331
899.393	19377
899.513	19438
899.633	19419
899.753	19362
899.873	19403
899.993	19343
900.113	19263
900.232	19278
900.352	19259
900.472	19164
900.591	19152
900.711	19206
900.83	19183
900.95	19297
901.069	19270
901.189	19076
901.308	18829
901.427	18814
901.546	18700
901.665	18696
901.784	18787
901.904	18601
902.023	18532
902.141	18338
902.26	18270
902.379	18304
902.498	18213
902.617	18220
902.735	18323
902.854	18190
902.973	18197
903.091	17908
903.21	17942
903.328	17866
903.446	17935
903.565	17786
903.683	17901
903.801	17558
903.919	17748
904.038	17752
904.156	17535
904.274	17600
904.392	17474
904.51	17512
904.627	17520
904.745	17604
904.863	17535
904.981	17322
905.098	17204
905.216	17220
905.334	17303
905.451	17246
905.569	17193
905.686	17307
905.803	17254
905.921	17140
906.038	17132
906.155	17060
906.272	16934
906.389	16934
906.506	16778
906.623	16702
906.74	16675
906.857	16645
906.974	16637
907.091	16820
907.208	16942
907.324	16801
907.441	16683
907.557	16451
907.674	16440
907.79	16402
907.907	16440
908.023	16417
908.139	16432
908.256	16462
908.372	16413
908.488	16455
908.604	16287
908.72	16173
908.836	16188
908.952	16124
909.068	16192
909.184	16291
909.3	16169
909.415	16219
909.531	16143
909.647	15934
909.762	15899
909.878	15949
909.993	15911
910.108	15884
910.224	15850
910.339	15812
910.454	15819
910.57	15793
910.685	15614
910.8	16029
910.915	15865
911.03	15778
911.145	15534
911.259	15462
911.374	15526
911.489	15488
911.604	15439
911.718	15310
911.833	15207
911.947	15108
912.062	14979
912.176	15195
912.291	15245
912.405	15272
912.519	15416
912.633	15344
912.748	15287
912.862	15329
912.976	15055
913.09	14963
913.204	15017
913.318	15123
913.431	15165
913.545	15165
913.659	15192
913.772	15077
913.886	14963
914	14853
914.113	14910
914.226	15005
914.34	14979
914.453	14773
914.566	15017
914.68	14857
914.793	14819
914.906	14587
915.019	14594
915.132	14499
915.245	14473
915.358	14545
915.47	14533
915.583	14549
915.696	14438
915.809	14678
915.921	14739
916.034	14450
916.146	14450
916.259	14396
916.371	14560
916.483	14488
916.595	14358
916.708	14355
916.82	14339
916.932	14271
917.044	14305
917.156	14256
917.268	14199
917.38	14214
917.491	14229
917.603	14267
917.715	14393
917.826	14263
917.938	14126
918.049	14020
918.161	14229
918.272	14328
918.384	14278
918.495	14161
918.606	14027
918.717	13959
918.828	13944
918.939	14035
919.05	13849
919.161	14054
919.272	13852
919.383	13928
919.494	14005
919.604	14218
919.715	13906
919.826	13822
919.936	13944
920.047	13982
920.157	13967
920.267	14058
920.378	13947
920.488	13993
920.598	14062
920.708	14180
920.818	14084
920.928	14180
921.038	14237
921.148	14256
921.258	13921
921.368	13750
921.477	13632
921.587	13632
921.697	13537
921.806	13651
921.916	13556
922.025	13422
922.134	13384
922.244	13213
922.353	13327
922.462	13190
922.571	13194
922.68	13034
922.789	12966
922.898	13053
923.007	12962
923.116	13004
923.224	13023
923.333	13038
923.442	12913
923.55	12745
923.659	12821
923.767	12920
923.876	12825
923.984	12958
924.092	12722
924.201	12863
924.309	12734
924.417	12825
924.525	12726
924.633	12696
924.741	13373
924.849	12506
924.956	12578
925.064	12441
925.172	12346
925.279	12422
925.387	12460
925.494	12464
925.602	12574
925.709	12471
925.816	12437
925.924	12372
926.031	12540
926.138	12418
926.245	12403
926.352	12365
926.459	12422
926.566	12437
926.673	12209
926.779	12273
926.886	12159
926.993	12091
927.099	12129
927.206	11942
927.312	11950
927.419	12110
927.525	11999
927.631	12057
927.737	11897
927.843	11897
927.95	11836
928.056	11832
928.162	11866
928.267	11954
928.373	12547
928.479	11958
928.585	11653
928.69	11912
928.796	11897
928.901	11699
929.007	11520
929.112	11737
929.218	11707
929.323	11589
929.428	11581
929.533	11710
929.638	11528
929.743	11558
929.848	11638
929.953	11585
930.058	11364
930.163	11288
930.267	11372
930.372	11391
930.477	11292
930.581	11436
930.685	11341
930.79	11208
930.894	11227
930.998	11140
931.103	11258
931.207	11037
931.311	10923
931.415	10797
931.519	10573
931.623	10516
