Data from test_V78500241_2917.txt Node
Date: Fri Mar 25 15:30:10 CST 2022
User: usil
Spectrometer: V785-0024
Trigger mode: 0
Integration Time (sec): 4.000000E-1
Scans to average: 1
Nonlinearity correction enabled: false
Boxcar width: 0
Storing dark spectrum: false
XAxis mode: Wavelengths
Number of Pixels in Spectrum: 1024
>>>>>Begin Spectral Data<<<<<
801.071	27264
801.214	27135
801.356	26956
801.499	26948
801.641	26796
801.783	26758
801.926	26834
802.068	26842
802.211	26853
802.353	26739
802.496	26655
802.638	26556
802.78	26511
802.923	26313
803.065	26278
803.208	26305
803.35	26522
803.492	26613
803.635	26594
803.777	26587
803.919	26549
804.061	26948
804.204	26590
804.346	26598
804.488	26552
804.63	26533
804.773	26636
804.915	26659
805.057	26629
805.199	26568
805.341	26739
805.483	26727
805.626	26503
805.768	26667
805.91	26697
806.052	26739
806.194	26815
806.336	26788
806.478	26724
806.62	26754
806.762	26750
806.904	26956
807.046	27043
807.188	27051
807.33	27150
807.472	27150
807.614	27085
807.756	27161
807.898	27020
808.04	27020
808.182	27001
808.324	27028
808.465	27043
808.607	27237
808.749	27192
808.891	27370
809.033	27485
809.174	27340
809.316	27329
809.458	27348
809.6	27325
809.741	27488
809.883	27485
810.025	27572
810.166	27462
810.308	27686
810.45	27526
810.591	27534
810.733	27420
810.875	27313
811.016	27176
811.158	27306
811.299	27427
811.441	27538
811.582	27671
811.724	27359
811.865	27317
812.007	27378
812.148	27405
812.29	27439
812.431	27500
812.573	27595
812.714	27648
812.855	27793
812.997	27949
813.138	28040
813.279	27964
813.421	27873
813.562	27732
813.703	27648
813.845	27348
813.986	27393
814.127	27028
814.268	27051
814.41	27104
814.551	26982
814.692	27116
814.833	27036
814.974	26918
815.115	26910
815.256	26864
815.397	26895
815.539	26796
815.68	26830
815.821	26693
815.962	26800
816.103	26674
816.244	26613
816.385	26621
816.526	26545
816.666	26446
816.807	26256
816.948	26332
817.089	26412
817.23	26229
817.371	26149
817.512	26252
817.653	26145
817.793	26096
817.934	26195
818.075	26351
818.216	26233
818.356	26183
818.497	26176
818.638	26005
818.778	26069
818.919	25883
819.06	26119
819.2	26115
819.341	26317
819.481	26176
819.622	26366
819.762	26560
819.903	26507
820.043	26374
820.184	26389
820.324	26267
820.465	26393
820.605	26393
820.746	26332
820.886	26161
821.026	26317
821.167	26244
821.307	26267
821.447	26294
821.588	26020
821.728	26050
821.868	25750
822.008	25647
822.149	25616
822.289	25738
822.429	25434
822.569	25312
822.709	25335
822.849	25221
822.99	25190
823.13	25244
823.27	25156
823.41	25095
823.55	24970
823.69	24943
823.83	25034
823.97	24951
824.11	24814
824.25	24745
824.389	24878
824.529	24909
824.669	24825
824.809	24875
824.949	24882
825.089	24947
825.228	24867
825.368	24837
825.508	24650
825.648	24639
825.787	24814
825.927	24753
826.067	24585
826.206	24631
826.346	24738
826.485	24627
826.625	24810
826.765	24787
826.904	24795
827.044	24502
827.183	24311
827.323	24372
827.462	24391
827.601	24361
827.741	24403
827.88	24479
828.02	24296
828.159	24395
828.298	24490
828.437	24361
828.577	24350
828.716	24437
828.855	24281
828.994	24190
829.134	24026
829.273	24273
829.412	24038
829.551	24091
829.69	24072
829.829	24083
829.968	24152
830.107	24159
830.246	24129
830.385	24045
830.524	23992
830.663	24007
830.802	23859
830.941	23661
831.08	23653
831.219	23779
831.357	23733
831.496	23923
831.635	23676
831.774	23608
831.913	23493
832.051	23566
832.19	23322
832.329	23425
832.467	23379
832.606	23273
832.744	23288
832.883	23402
833.022	23193
833.16	23239
833.299	23315
833.437	23353
833.576	23337
833.714	23433
833.852	23474
833.991	23455
834.129	23501
834.267	23501
834.406	23383
834.544	23337
834.682	23376
834.821	23471
834.959	23703
835.097	23421
835.235	23558
835.373	23315
835.511	23402
835.65	23322
835.788	23376
835.926	23113
836.064	23022
836.202	23102
836.34	23185
836.478	23379
836.615	23235
836.753	23303
836.891	23269
837.029	23242
837.167	23174
837.305	23052
837.443	22953
837.58	23143
837.718	23189
837.856	22965
837.993	23048
838.131	23086
838.269	22877
838.406	22949
838.544	23071
838.681	22691
838.819	22748
838.956	22489
839.094	22557
839.231	22580
839.369	22641
839.506	22968
839.643	22801
839.781	22470
839.918	22459
840.055	22550
840.193	22519
840.33	22493
840.467	22478
840.604	22542
840.742	22740
840.879	22417
841.016	22474
841.153	22474
841.29	22421
841.427	22402
841.564	22459
841.701	22527
841.838	22474
841.975	22455
842.112	22344
842.249	22322
842.385	22284
842.522	22557
842.659	22512
842.796	22287
842.933	22158
843.069	22158
843.206	22196
843.343	22242
843.479	22150
843.616	22284
843.752	21998
843.889	22002
844.025	22215
844.162	21968
844.298	22116
844.435	21907
844.571	21991
844.708	22093
844.844	22093
844.98	22200
845.117	22090
845.253	22048
845.389	21789
845.525	21979
845.661	21850
845.798	21861
845.934	21804
846.07	21701
846.206	21842
846.342	21797
846.478	21705
846.614	21610
846.75	21488
846.886	21538
847.022	21595
847.158	21515
847.294	21416
847.429	21580
847.565	21405
847.701	21709
847.837	21249
847.972	21146
848.108	21260
848.244	21211
848.379	21154
848.515	20990
848.65	20990
848.786	21093
848.921	21146
849.057	21226
849.192	21188
849.328	21070
849.463	21058
849.598	21058
849.734	20937
849.869	20842
850.004	20727
850.14	20815
850.275	20914
850.41	20746
850.545	20842
850.68	20864
850.815	20823
850.95	20838
851.085	21119
851.22	20948
851.355	20849
851.49	20845
851.625	20861
851.76	20773
851.895	20853
852.03	20804
852.165	20811
852.299	20990
852.434	20925
852.569	20845
852.703	20914
852.838	20853
852.973	20819
853.107	20960
853.242	20750
853.376	20750
853.511	20625
853.645	20655
853.78	20819
853.914	20682
854.048	20712
854.183	20644
854.317	20754
854.451	20895
854.585	20754
854.72	20579
854.854	20727
854.988	20602
855.122	20689
855.256	20438
855.39	20678
855.524	20727
855.658	20636
855.792	20708
855.926	20823
856.06	20693
856.194	20914
856.327	20613
856.461	20689
856.595	20697
856.729	20655
856.862	20830
856.996	20712
857.13	20762
857.263	20781
857.397	20769
857.53	20617
857.664	20765
857.797	20716
857.931	20773
858.064	20705
858.197	20754
858.331	20739
858.464	20667
858.597	20530
858.731	20701
858.864	20617
858.997	20659
859.13	20644
859.263	20659
859.396	20800
859.529	20598
859.662	20560
859.795	20667
859.928	20716
860.061	20735
860.194	20849
860.327	20739
860.46	20765
860.592	20724
860.725	20826
860.858	20960
860.99	20724
861.123	20571
861.256	20552
861.388	20613
861.521	21093
861.653	20457
861.786	20503
861.918	20552
862.05	20457
862.183	20670
862.315	20560
862.447	20613
862.58	20571
862.712	20374
862.844	20339
862.976	20484
863.108	20374
863.24	20849
863.372	20385
863.504	20461
863.636	20396
863.768	20396
863.9	20385
864.032	20267
864.164	20305
864.296	20434
864.428	20552
864.559	20450
864.691	20412
864.823	20366
864.954	20294
865.086	20408
865.217	20202
865.349	20294
865.48	20164
865.612	20172
865.743	20419
865.875	20294
866.006	20317
866.137	20358
866.269	20244
866.4	20157
866.531	20225
866.662	20180
866.793	20278
866.924	20358
867.055	20301
867.186	20256
867.317	20305
867.448	20142
867.579	20210
867.71	20050
867.841	20202
867.972	20298
868.103	20256
868.233	20180
868.364	20244
868.495	20301
868.625	20427
868.756	20583
868.886	20473
869.017	20549
869.147	20625
869.278	20568
869.408	20522
869.539	20488
869.669	20564
869.799	20571
869.929	20587
870.06	20625
870.19	20682
870.32	20834
870.45	20910
870.58	20754
870.71	20845
870.84	21047
870.97	20849
871.1	20834
871.23	21055
871.36	21005
871.489	20990
871.619	20887
871.749	20918
871.879	21093
872.008	21138
872.138	21093
872.267	21085
872.397	20948
872.526	20845
872.656	20883
872.785	20891
872.915	20986
873.044	21188
873.173	21173
873.303	21058
873.432	21214
873.561	21047
873.69	21157
873.819	21104
873.948	21214
874.077	21066
874.206	20914
874.335	21108
874.464	21291
874.593	21359
874.722	21272
874.851	21389
874.979	21389
875.108	21389
875.237	21287
875.365	21154
875.494	21291
875.623	21336
875.751	21230
875.88	21431
876.008	21538
876.136	21561
876.265	21747
876.393	21968
876.521	21934
876.65	21884
876.778	21743
876.906	21656
877.034	21675
877.162	21713
877.29	21667
877.418	21667
877.546	21568
877.674	21766
877.802	21755
877.93	21644
878.058	21557
878.185	21507
878.313	21511
878.441	21671
878.568	21568
878.696	21633
878.824	21732
878.951	21827
879.079	21816
879.206	21861
879.333	21827
879.461	21854
879.588	21808
879.715	21892
879.842	21953
879.97	21804
880.097	21545
880.224	21595
880.351	21599
880.478	21534
880.605	21447
880.732	21469
880.859	21724
880.986	21492
881.112	21568
881.239	21431
881.366	21150
881.493	21096
881.619	21028
881.746	21051
881.872	21123
881.999	21180
882.125	21055
882.252	21001
882.378	21119
882.505	21150
882.631	20845
882.757	20842
882.883	20990
883.01	20743
883.136	20777
883.262	20636
883.388	20739
883.514	20876
883.64	20826
883.766	20625
883.892	20526
884.018	20632
884.143	20731
884.269	20857
884.395	20461
884.52	20446
884.646	20454
884.772	20294
884.897	20294
885.023	20336
885.148	20488
885.274	20571
885.399	20522
885.524	20488
885.65	20530
885.775	20476
885.9	20454
886.025	20556
886.15	20541
886.275	20389
886.4	20286
886.525	20393
886.65	20362
886.775	20343
886.9	20583
887.025	20522
887.149	20385
887.274	20237
887.399	20153
887.523	20252
887.648	20119
887.773	20043
887.897	20290
888.021	20199
888.146	20176
888.27	20210
888.395	20339
888.519	20134
888.643	20195
888.767	20237
888.891	20107
889.015	20077
889.139	20126
889.263	19951
889.387	20005
889.511	20305
889.635	20134
889.759	20065
889.883	20077
890.006	19993
890.13	20012
890.254	19940
890.377	19864
890.501	19791
890.624	19624
890.748	19822
890.871	19685
890.995	19590
891.118	19518
891.241	19525
891.364	19632
891.488	19658
891.611	19757
891.734	19540
891.857	19605
891.98	19616
892.103	19658
892.226	19594
892.349	19521
892.471	19362
892.594	19578
892.717	19563
892.839	19468
892.962	19548
893.085	19571
893.207	19597
893.33	19407
893.452	19495
893.575	19594
893.697	19514
893.819	19643
893.941	19708
894.064	19609
894.186	19468
894.308	19468
894.43	19552
894.552	19632
894.674	19674
894.796	19457
894.918	19460
895.04	19377
895.161	19514
895.283	19605
895.405	19563
895.526	19449
895.648	19502
895.769	19537
895.891	19571
896.012	19655
896.134	19518
896.255	19525
896.376	19495
896.498	19521
896.619	19563
896.74	19567
896.861	19693
896.982	19906
897.103	20035
897.224	19807
897.345	19761
897.466	19635
897.587	19753
897.708	19875
897.828	19746
897.949	19723
898.07	19613
898.19	19731
898.311	19860
898.431	19666
898.552	19818
898.672	19734
898.792	19902
898.913	19651
899.033	19658
899.153	19582
899.273	19464
899.393	19537
899.513	19670
899.633	19559
899.753	19487
899.873	19369
899.993	19575
900.113	19533
900.232	19502
900.352	19430
900.472	19445
900.591	19285
900.711	19346
900.83	19308
900.95	19400
901.069	19362
901.189	19304
901.308	18878
901.427	18939
901.546	18844
901.665	18932
901.784	18954
901.904	18810
902.023	18715
902.141	18593
902.26	18380
902.379	18551
902.498	18525
902.617	18456
902.735	18422
902.854	18384
902.973	18323
903.091	18167
903.21	18087
903.328	18072
903.446	17958
903.565	17977
903.683	17885
903.801	17729
903.919	17843
904.038	17882
904.156	17687
904.274	17722
904.392	17684
904.51	17684
904.627	17623
904.745	17824
904.863	17707
904.981	17493
905.098	17322
905.216	17497
905.334	17387
905.451	17383
905.569	17235
905.686	17322
905.803	17311
905.921	17189
906.038	17273
906.155	17143
906.272	16961
906.389	16999
906.506	16908
906.623	16934
906.74	16793
906.857	16736
906.974	16809
907.091	16972
907.208	17014
907.324	16908
907.441	16965
907.557	16698
907.674	16698
907.79	16618
907.907	16656
908.023	16653
908.139	16569
908.256	16645
908.372	16443
908.488	16424
908.604	16390
908.72	16375
908.836	16405
908.952	16192
909.068	16356
909.184	16440
909.3	16265
909.415	16371
909.531	16242
909.647	16082
909.762	15972
909.878	16021
909.993	15998
910.108	16124
910.224	16006
910.339	16036
910.454	15953
910.57	15892
910.685	15827
910.8	16101
910.915	15979
911.03	15755
911.145	15759
911.259	15698
911.374	15675
911.489	15580
911.604	15587
911.718	15374
911.833	15458
911.947	15332
912.062	15367
912.176	15458
912.291	15553
912.405	15412
912.519	15576
912.633	15523
912.748	15443
912.862	15374
912.976	15218
913.09	15176
913.204	15264
913.318	15298
913.431	15279
913.545	15340
913.659	15192
913.772	15256
913.886	14979
914	15005
914.113	15089
914.226	15180
914.34	15123
914.453	14895
914.566	15176
914.68	14948
914.793	14891
914.906	14712
915.019	14514
915.132	14648
915.245	14720
915.358	14686
915.47	14686
915.583	14568
915.696	14686
915.809	14693
915.921	14754
916.034	14530
916.146	14492
916.259	14457
916.371	14731
916.483	14564
916.595	14530
916.708	14518
916.82	14552
916.932	14385
917.044	14499
917.156	14492
917.268	14298
917.38	14393
917.491	14218
917.603	14423
917.715	14339
917.826	14415
917.938	14275
918.049	14119
918.161	14309
918.272	14339
918.384	14469
918.495	14286
918.606	14134
918.717	14008
918.828	14065
918.939	14103
919.05	14012
919.161	13940
919.272	13811
919.383	13921
919.494	14149
919.604	14180
919.715	14111
919.826	13989
919.936	14035
920.047	14164
920.157	14077
920.267	14210
920.378	14046
920.488	14008
920.598	14115
920.708	14358
920.818	14229
920.928	14103
921.038	14351
921.148	14324
921.258	13970
921.368	13986
921.477	13814
921.587	13715
921.697	13666
921.806	13894
921.916	13674
922.025	13605
922.134	13476
922.244	13373
922.353	13548
922.462	13396
922.571	13308
922.68	13187
922.789	13076
922.898	13088
923.007	13034
923.116	13171
923.224	13076
923.333	13114
923.442	13015
923.55	12951
923.659	12954
923.767	12981
923.876	12954
923.984	12970
924.092	12817
924.201	12890
924.309	12867
924.417	12875
924.525	12821
924.633	12871
924.741	13708
924.849	12570
924.956	12715
925.064	12555
925.172	12483
925.279	12525
925.387	12555
925.494	12589
925.602	12650
925.709	12578
925.816	12418
925.924	12555
926.031	12566
926.138	12486
926.245	12536
926.352	12353
926.459	12517
926.566	12631
926.673	12441
926.779	12315
926.886	12327
926.993	12186
927.099	12171
927.206	12152
927.312	12091
927.419	12133
927.525	12175
927.631	12152
927.737	12045
927.843	11973
927.95	11798
928.056	11931
928.162	11973
928.267	12007
928.373	12604
928.479	12117
928.585	11783
928.69	11939
928.796	11950
928.901	11748
929.007	11718
929.112	11916
929.218	11752
929.323	11737
929.428	11707
929.533	11771
929.638	11661
929.743	11649
929.848	11710
929.953	11676
930.058	11509
930.163	11402
930.267	11414
930.372	11505
930.477	11387
930.581	11558
930.685	11486
930.79	11254
930.894	11284
930.998	11330
931.103	11326
931.207	11075
931.311	11022
931.415	10831
931.519	10679
931.623	10717
