Data from test_V78500241_3016.txt Node
Date: Fri Mar 25 15:30:51 CST 2022
User: usil
Spectrometer: V785-0024
Trigger mode: 0
Integration Time (sec): 4.000000E-1
Scans to average: 1
Nonlinearity correction enabled: false
Boxcar width: 0
Storing dark spectrum: false
XAxis mode: Wavelengths
Number of Pixels in Spectrum: 1024
>>>>>Begin Spectral Data<<<<<
801.071	27252
801.214	27329
801.356	27074
801.499	27036
801.641	26891
801.783	26800
801.926	26921
802.068	26861
802.211	26667
802.353	26731
802.496	26518
802.638	26587
802.78	26492
802.923	26396
803.065	26309
803.208	26480
803.35	26507
803.492	26617
803.635	26629
803.777	26526
803.919	26625
804.061	26952
804.204	26575
804.346	26537
804.488	26537
804.63	26560
804.773	26347
804.915	26606
805.057	26663
805.199	26609
805.341	26686
805.483	26872
805.626	26720
805.768	26716
805.91	26689
806.052	26731
806.194	26621
806.336	26807
806.478	26697
806.62	26697
806.762	26899
806.904	27043
807.046	27237
807.188	27146
807.33	27112
807.472	27195
807.614	27020
807.756	27036
807.898	27055
808.04	26963
808.182	26887
808.324	27036
808.465	27020
808.607	27150
808.749	27214
808.891	27439
809.033	27435
809.174	27382
809.316	27313
809.458	27195
809.6	27321
809.741	27424
809.883	27515
810.025	27633
810.166	27595
810.308	27587
810.45	27599
810.591	27603
810.733	27355
810.875	27275
811.016	27287
811.158	27275
811.299	27420
811.441	27595
811.582	27587
811.724	27374
811.865	27306
812.007	27283
812.148	27344
812.29	27264
812.431	27447
812.573	27648
812.714	27686
812.855	27797
812.997	27892
813.138	28067
813.279	28006
813.421	27945
813.562	27709
813.703	27549
813.845	27637
813.986	27180
814.127	26914
814.268	26944
814.41	27005
814.551	27005
814.692	26891
814.833	26842
814.974	26823
815.115	27058
815.256	26918
815.397	26815
815.539	26785
815.68	26754
815.821	26617
815.962	26819
816.103	26678
816.244	26651
816.385	26503
816.526	26492
816.666	26377
816.807	26282
816.948	26320
817.089	26317
817.23	26351
817.371	26168
817.512	26324
817.653	26107
817.793	26176
817.934	26111
818.075	26343
818.216	26145
818.356	26214
818.497	26039
818.638	25894
818.778	26035
818.919	26122
819.06	26145
819.2	26092
819.341	26275
819.481	26168
819.622	26377
819.762	26556
819.903	26377
820.043	26385
820.184	26415
820.324	26431
820.465	26423
820.605	26415
820.746	26259
820.886	26237
821.026	26237
821.167	26259
821.307	26370
821.447	26240
821.588	26168
821.728	26043
821.868	25849
822.008	25708
822.149	25814
822.289	25681
822.429	25483
822.569	25384
822.709	25472
822.849	25297
822.99	25266
823.13	25206
823.27	25202
823.41	25046
823.55	25034
823.69	24989
823.83	25038
823.97	24871
824.11	24745
824.25	24776
824.389	24852
824.529	24878
824.669	24962
824.809	24913
824.949	24970
825.089	24920
825.228	24878
825.368	24719
825.508	24612
825.648	24837
825.787	24741
825.927	24661
826.067	24715
826.206	24620
826.346	24658
826.485	24681
826.625	24654
826.765	24795
826.904	24700
827.044	24452
827.183	24471
827.323	24498
827.462	24380
827.601	24308
827.741	24342
827.88	24346
828.02	24289
828.159	24429
828.298	24441
828.437	24464
828.577	24304
828.716	24418
828.855	24342
828.994	23939
829.134	24133
829.273	24076
829.412	24045
829.551	24171
829.69	24076
829.829	24232
829.968	24182
830.107	24171
830.246	24201
830.385	23965
830.524	23927
830.663	23920
830.802	23851
830.941	23748
831.08	23817
831.219	23874
831.357	23779
831.496	23939
831.635	23649
831.774	23726
831.913	23596
832.051	23474
832.19	23471
832.329	23436
832.467	23467
832.606	23280
832.744	23280
832.883	23379
833.022	23360
833.16	23296
833.299	23376
833.437	23433
833.576	23463
833.714	23398
833.852	23562
833.991	23531
834.129	23509
834.267	23406
834.406	23471
834.544	23474
834.682	23528
834.821	23452
834.959	23600
835.097	23444
835.235	23463
835.373	23410
835.511	23322
835.65	23261
835.788	23383
835.926	23117
836.064	23235
836.202	23056
836.34	23299
836.478	23410
836.615	23360
836.753	23265
836.891	23315
837.029	23364
837.167	23155
837.305	23212
837.443	23060
837.58	23117
837.718	23174
837.856	23162
837.993	23010
838.131	23231
838.269	23067
838.406	23037
838.544	22900
838.681	22831
838.819	22786
838.956	22752
839.094	22592
839.231	22691
839.369	22721
839.506	22987
839.643	22858
839.781	22691
839.918	22394
840.055	22504
840.193	22554
840.33	22508
840.467	22550
840.604	22694
840.742	22809
840.879	22371
841.016	22382
841.153	22424
841.29	22721
841.427	22470
841.564	22523
841.701	22592
841.838	22523
841.975	22481
842.112	22386
842.249	22371
842.385	22325
842.522	22550
842.659	22497
842.796	22367
842.933	22196
843.069	22169
843.206	22223
843.343	22325
843.479	22185
843.616	22299
843.752	22090
843.889	22135
844.025	22291
844.162	21975
844.298	22211
844.435	22101
844.571	22002
844.708	22029
844.844	22352
844.98	22105
845.117	22207
845.253	22044
845.389	21953
845.525	22063
845.661	21842
845.798	21827
845.934	21785
846.07	21831
846.206	21808
846.342	21895
846.478	21701
846.614	21553
846.75	21485
846.886	21526
847.022	21667
847.158	21629
847.294	21538
847.429	21580
847.565	21568
847.701	21827
847.837	21279
847.972	21116
848.108	21260
848.244	21473
848.379	21165
848.515	21230
848.65	21039
848.786	21188
848.921	21108
849.057	21104
849.192	21154
849.328	21116
849.463	21039
849.598	21074
849.734	20918
849.869	21036
850.004	20941
850.14	20769
850.275	20899
850.41	20769
850.545	20868
850.68	20918
850.815	20853
850.95	20861
851.085	20948
851.22	20963
851.355	20921
851.49	20914
851.625	20819
851.76	20834
851.895	20826
852.03	20838
852.165	20853
852.299	20895
852.434	20891
852.569	20800
852.703	20857
852.838	20998
852.973	20986
853.107	20982
853.242	20834
853.376	20746
853.511	20556
853.645	20625
853.78	20845
853.914	20716
854.048	20659
854.183	20746
854.317	20785
854.451	20861
854.585	20606
854.72	20644
854.854	20765
854.988	20583
855.122	20762
855.256	20670
855.39	20651
855.524	20834
855.658	20735
855.792	20667
855.926	20583
856.06	20648
856.194	20758
856.327	20602
856.461	20583
856.595	20727
856.729	20507
856.862	20743
856.996	20708
857.13	20758
857.263	20823
857.397	20762
857.53	20629
857.664	20712
857.797	20678
857.931	20834
858.064	20598
858.197	20842
858.331	20686
858.464	20727
858.597	20583
858.731	20724
858.864	20651
858.997	20678
859.13	20743
859.263	20746
859.396	20792
859.529	20773
859.662	20712
859.795	20670
859.928	20777
860.061	20864
860.194	20823
860.327	20807
860.46	20636
860.592	20811
860.725	20800
860.858	20826
860.99	20720
861.123	20727
861.256	20556
861.388	20682
861.521	21287
861.653	20583
861.786	20514
861.918	20461
862.05	20629
862.183	20609
862.315	20636
862.447	20575
862.58	20629
862.712	20503
862.844	20434
862.976	20613
863.108	20507
863.24	20811
863.372	20400
863.504	20465
863.636	20351
863.768	20446
863.9	20454
864.032	20446
864.164	20339
864.296	20427
864.428	20526
864.559	20537
864.691	20530
864.823	20351
864.954	20415
865.086	20351
865.217	20263
865.349	20221
865.48	20271
865.612	20355
865.743	20419
865.875	20298
866.006	20294
866.137	20176
866.269	20252
866.4	20252
866.531	20366
866.662	20145
866.793	20168
866.924	20256
867.055	20282
867.186	20107
867.317	20290
867.448	20282
867.579	20221
867.71	20119
867.841	20153
867.972	20343
868.103	20221
868.233	20259
868.364	20263
868.495	20351
868.625	20522
868.756	20594
868.886	20530
869.017	20617
869.147	20431
869.278	20621
869.408	20537
869.539	20526
869.669	20492
869.799	20648
869.929	20655
870.06	20678
870.19	20845
870.32	20743
870.45	20811
870.58	21032
870.71	21051
870.84	20956
870.97	20868
871.1	20906
871.23	21089
871.36	21013
871.489	21077
871.619	21066
871.749	21036
871.879	21173
872.008	21249
872.138	21070
872.267	21085
872.397	21024
872.526	20849
872.656	20899
872.785	20979
872.915	21081
873.044	21218
873.173	21192
873.303	21062
873.432	21104
873.561	21180
873.69	21150
873.819	21081
873.948	21268
874.077	21089
874.206	21081
874.335	21142
874.464	21100
874.593	21382
874.722	21367
874.851	21359
874.979	21462
875.108	21496
875.237	21355
875.365	21268
875.494	21348
875.623	21481
875.751	21363
875.88	21367
876.008	21504
876.136	21561
876.265	21781
876.393	21854
876.521	21835
876.65	21766
876.778	21842
876.906	21622
877.034	21686
877.162	21873
877.29	21679
877.418	21739
877.546	21679
877.674	21679
877.802	21603
877.93	21663
878.058	21690
878.185	21633
878.313	21679
878.441	21705
878.568	21500
878.696	21660
878.824	21641
878.951	21838
879.079	21979
879.206	21968
879.333	21838
879.461	21736
879.588	21953
879.715	21816
879.842	21892
879.97	21857
880.097	21485
880.224	21515
880.351	21553
880.478	21530
880.605	21511
880.732	21572
880.859	21785
880.986	21618
881.112	21625
881.239	21336
881.366	21260
881.493	21222
881.619	21180
881.746	21176
881.872	21104
881.999	21089
882.125	21028
882.252	21081
882.378	21214
882.505	21127
882.631	20910
882.757	20948
882.883	20960
883.01	20792
883.136	20762
883.262	20724
883.388	20670
883.514	20800
883.64	20861
883.766	20705
883.892	20511
884.018	20606
884.143	20598
884.269	20868
884.395	20568
884.52	20495
884.646	20537
884.772	20518
884.897	20396
885.023	20419
885.148	20507
885.274	20625
885.399	20537
885.524	20454
885.65	20446
885.775	20511
885.9	20427
886.025	20560
886.15	20590
886.275	20294
886.4	20461
886.525	20408
886.65	20488
886.775	20313
886.9	20602
887.025	20625
887.149	20461
887.274	20290
887.399	20290
887.523	20187
887.648	20183
887.773	20084
887.897	20351
888.021	20347
888.146	20248
888.27	20351
888.395	20271
888.519	20301
888.643	20298
888.767	20347
888.891	20138
889.015	20062
889.139	20065
889.263	20077
889.387	20214
889.511	20332
889.635	20256
889.759	20016
889.883	20039
890.006	20081
890.13	20084
890.254	19974
890.377	19997
890.501	19814
890.624	19715
890.748	19902
890.871	19609
890.995	19674
891.118	19537
891.241	19655
891.364	19662
891.488	19799
891.611	19548
891.734	19693
891.857	19860
891.98	19655
892.103	19761
892.226	19662
892.349	19597
892.471	19491
892.594	19544
892.717	19674
892.839	19453
892.962	19597
893.085	19681
893.207	19525
893.33	19335
893.452	19438
893.575	19563
893.697	19521
893.819	19731
893.941	19738
894.064	19696
894.186	19472
894.308	19491
894.43	19594
894.552	19731
894.674	19639
894.796	19571
894.918	19434
895.04	19487
895.161	19616
895.283	19723
895.405	19426
895.526	19582
895.648	19582
895.769	19609
895.891	19674
896.012	19567
896.134	19616
896.255	19601
896.376	19506
896.498	19643
896.619	19616
896.74	19544
896.861	19601
896.982	19921
897.103	19947
897.224	19776
897.345	19761
897.466	19704
897.587	19811
897.708	19898
897.828	19826
897.949	19719
898.07	19696
898.19	19708
898.311	19940
898.431	19731
898.552	19818
898.672	19852
898.792	19849
898.913	19826
899.033	19643
899.153	19586
899.273	19453
899.393	19715
899.513	19590
899.633	19480
899.753	19635
899.873	19529
899.993	19521
900.113	19506
900.232	19472
900.352	19556
900.472	19396
900.591	19301
900.711	19415
900.83	19301
900.95	19422
901.069	19407
901.189	19190
901.308	19053
901.427	18939
901.546	18989
901.665	18996
901.784	18932
901.904	18867
902.023	18783
902.141	18521
902.26	18403
902.379	18452
902.498	18486
902.617	18388
902.735	18418
902.854	18410
902.973	18350
903.091	18117
903.21	18167
903.328	18140
903.446	18057
903.565	17946
903.683	17973
903.801	17874
903.919	17961
904.038	17920
904.156	17737
904.274	17657
904.392	17722
904.51	17661
904.627	17653
904.745	17710
904.863	17809
904.981	17520
905.098	17398
905.216	17417
905.334	17463
905.451	17421
905.569	17353
905.686	17425
905.803	17368
905.921	17227
906.038	17311
906.155	17102
906.272	17090
906.389	17090
906.506	17003
906.623	16908
906.74	16957
906.857	16797
906.974	16820
907.091	16938
907.208	17014
907.324	16953
907.441	16915
907.557	16653
907.674	16702
907.79	16554
907.907	16592
908.023	16634
908.139	16596
908.256	16565
908.372	16596
908.488	16527
908.604	16432
908.72	16402
908.836	16421
908.952	16367
909.068	16314
909.184	16428
909.3	16284
909.415	16341
909.531	16409
909.647	16162
909.762	16101
909.878	16025
909.993	16025
910.108	15979
910.224	16090
910.339	15994
910.454	15930
910.57	15915
910.685	15854
910.8	16101
910.915	15979
911.03	15838
911.145	15720
911.259	15698
911.374	15637
911.489	15515
911.604	15542
911.718	15424
911.833	15466
911.947	15401
912.062	15211
912.176	15481
912.291	15496
912.405	15542
912.519	15675
912.633	15599
912.748	15431
912.862	15393
912.976	15332
913.09	15199
913.204	15188
913.318	15237
913.431	15298
913.545	15203
913.659	15389
913.772	15131
913.886	15085
914	15043
914.113	15199
914.226	15081
914.34	15100
914.453	15009
914.566	15116
914.68	14918
914.793	14895
914.906	14773
915.019	14625
915.132	14663
915.245	14648
915.358	14724
915.47	14705
915.583	14629
915.696	14693
915.809	14807
915.921	14754
916.034	14708
916.146	14560
916.259	14560
916.371	14598
916.483	14473
916.595	14571
916.708	14602
916.82	14625
916.932	14537
917.044	14522
917.156	14465
917.268	14328
917.38	14381
917.491	14248
917.603	14347
917.715	14419
917.826	14461
917.938	14225
918.049	14164
918.161	14290
918.272	14511
918.384	14431
918.495	14290
918.606	14191
918.717	14096
918.828	14119
918.939	14077
919.05	14005
919.161	14035
919.272	13883
919.383	14054
919.494	14187
919.604	14256
919.715	14084
919.826	14008
919.936	14027
920.047	14180
920.157	14046
920.267	14248
920.378	14024
920.488	14111
920.598	14275
920.708	14328
920.818	14161
920.928	14278
921.038	14351
921.148	14317
921.258	13986
921.368	13890
921.477	13887
921.587	13799
921.697	13693
921.806	13894
921.916	13578
922.025	13468
922.134	13571
922.244	13381
922.353	13594
922.462	13381
922.571	13384
922.68	13175
922.789	13091
922.898	13042
923.007	13057
923.116	13141
923.224	13129
923.333	13129
923.442	13004
923.55	12935
923.659	12981
923.767	13065
923.876	12947
923.984	12924
924.092	12875
924.201	12875
924.309	12916
924.417	12814
924.525	12768
924.633	12856
924.741	13506
924.849	12494
924.956	12768
925.064	12646
925.172	12467
925.279	12597
925.387	12627
925.494	12551
925.602	12612
925.709	12593
925.816	12422
925.924	12525
926.031	12593
926.138	12490
926.245	12585
926.352	12460
926.459	12486
926.566	12578
926.673	12414
926.779	12376
926.886	12232
926.993	12251
927.099	12190
927.206	12060
927.312	12110
927.419	12136
927.525	12106
927.631	12258
927.737	12117
927.843	11984
927.95	11870
928.056	11984
928.162	12034
928.267	12038
928.373	12646
928.479	12083
928.585	11699
928.69	11901
928.796	11927
928.901	11821
929.007	11703
929.112	11786
929.218	11798
929.323	11741
929.428	11672
929.533	11836
929.638	11623
929.743	11703
929.848	11695
929.953	11722
930.058	11596
930.163	11326
930.267	11410
930.372	11562
930.477	11322
930.581	11573
930.685	11455
930.79	11280
930.894	11356
930.998	11307
931.103	11433
931.207	11071
931.311	11018
931.415	10965
931.519	10675
931.623	10714
