Data from test_V78500241_1105.txt Node
Date: Fri Mar 25 15:17:33 CST 2022
User: usil
Spectrometer: V785-0024
Trigger mode: 0
Integration Time (sec): 4.000000E-1
Scans to average: 1
Nonlinearity correction enabled: false
Boxcar width: 0
Storing dark spectrum: false
XAxis mode: Wavelengths
Number of Pixels in Spectrum: 1024
>>>>>Begin Spectral Data<<<<<
801.071	28295
801.214	28059
801.356	27861
801.499	27816
801.641	27720
801.783	27694
801.926	27797
802.068	27686
802.211	27717
802.353	27488
802.496	27454
802.638	27355
802.78	27416
802.923	27405
803.065	27317
803.208	27378
803.35	27374
803.492	27473
803.635	27507
803.777	27545
803.919	27736
804.061	27873
804.204	27690
804.346	27580
804.488	27656
804.63	27637
804.773	27564
804.915	27572
805.057	27720
805.199	27496
805.341	27698
805.483	27778
805.626	27690
805.768	27515
805.91	27713
806.052	27762
806.194	27717
806.336	27960
806.478	27770
806.62	27888
806.762	27850
806.904	28082
807.046	28215
807.188	28230
807.33	28048
807.472	28265
807.614	28078
807.756	28143
807.898	28207
808.04	27979
808.182	27964
808.324	28051
808.465	28143
808.607	28344
808.749	28421
808.891	28417
809.033	28603
809.174	28455
809.316	28341
809.458	28413
809.6	28325
809.741	28596
809.883	28577
810.025	28816
810.166	28561
810.308	28687
810.45	28622
810.591	28588
810.733	28280
810.875	28405
811.016	28436
811.158	28363
811.299	28428
811.441	28481
811.582	28557
811.724	28382
811.865	28516
812.007	28329
812.148	28432
812.29	28409
812.431	28573
812.573	28816
812.714	28858
812.855	29006
812.997	28999
813.138	29250
813.279	29113
813.421	29041
813.562	28949
813.703	28820
813.845	28797
813.986	28459
814.127	28310
814.268	28185
814.41	28253
814.551	28120
814.692	28249
814.833	28116
814.974	28128
815.115	28025
815.256	28013
815.397	28013
815.539	28116
815.68	28036
815.821	27865
815.962	27979
816.103	27941
816.244	27766
816.385	27835
816.526	27759
816.666	27523
816.807	27530
816.948	27443
817.089	27431
817.23	27424
817.371	27515
817.512	27469
817.653	27420
817.793	27389
817.934	27564
818.075	27427
818.216	27450
818.356	27420
818.497	27203
818.638	27100
818.778	27043
818.919	27256
819.06	27287
819.2	27329
819.341	27412
819.481	27397
819.622	27618
819.762	27778
819.903	27755
820.043	27739
820.184	27580
820.324	27583
820.465	27557
820.605	27545
820.746	27652
820.886	27450
821.026	27759
821.167	27542
821.307	27572
821.447	27469
821.588	27359
821.728	27268
821.868	27058
822.008	27024
822.149	27123
822.289	26861
822.429	26800
822.569	26629
822.709	26526
822.849	26351
822.99	26473
823.13	26419
823.27	26385
823.41	26374
823.55	26221
823.69	26317
823.83	26377
823.97	26191
824.11	25986
824.25	26012
824.389	26077
824.529	26161
824.669	26058
824.809	26256
824.949	26119
825.089	26157
825.228	26240
825.368	25986
825.508	25951
825.648	25978
825.787	26001
825.927	25982
826.067	25868
826.206	25963
826.346	26069
826.485	25932
826.625	25982
826.765	26157
826.904	25989
827.044	25772
827.183	25689
827.323	25594
827.462	25761
827.601	25765
827.741	25677
827.88	25864
828.02	25514
828.159	25727
828.298	25723
828.437	25757
828.577	25643
828.716	25780
828.855	25594
828.994	25510
829.134	25453
829.273	25472
829.412	25297
829.551	25339
829.69	25282
829.829	25365
829.968	25460
830.107	25449
830.246	25403
830.385	25339
830.524	25358
830.663	25377
830.802	25255
830.941	25114
831.08	24916
831.219	25141
831.357	25137
831.496	25301
831.635	25057
831.774	24935
831.913	24897
832.051	24798
832.19	24776
832.329	24821
832.467	24753
832.606	24608
832.744	24673
832.883	24764
833.022	24681
833.16	24806
833.299	24681
833.437	24787
833.576	24844
833.714	24776
833.852	24916
833.991	24844
834.129	24958
834.267	24787
834.406	24749
834.544	24806
834.682	24707
834.821	24722
834.959	24848
835.097	24715
835.235	24810
835.373	24703
835.511	24692
835.65	24620
835.788	24734
835.926	24612
836.064	24384
836.202	24456
836.34	24696
836.478	24700
836.615	24631
836.753	24696
836.891	24570
837.029	24612
837.167	24528
837.305	24517
837.443	24429
837.58	24479
837.718	24513
837.856	24502
837.993	24407
838.131	24471
838.269	24361
838.406	24346
838.544	24296
838.681	24060
838.819	23999
838.956	23824
839.094	23912
839.231	24114
839.369	24072
839.506	24262
839.643	24114
839.781	23939
839.918	23843
840.055	23832
840.193	23984
840.33	23843
840.467	23847
840.604	23965
840.742	24060
840.879	23760
841.016	23794
841.153	23813
841.29	23969
841.427	23771
841.564	23805
841.701	23798
841.838	23859
841.975	23630
842.112	23695
842.249	23646
842.385	23646
842.522	23821
842.659	23615
842.796	23535
842.933	23558
843.069	23478
843.206	23520
843.343	23547
843.479	23707
843.616	23634
843.752	23391
843.889	23284
844.025	23539
844.162	23292
844.298	23539
844.435	23303
844.571	23315
844.708	23379
844.844	23570
844.98	23448
845.117	23543
845.253	23410
845.389	23330
845.525	23216
845.661	23189
845.798	23086
845.934	23060
846.07	23083
846.206	23079
846.342	23079
846.478	23166
846.614	22866
846.75	22767
846.886	22755
847.022	22843
847.158	22881
847.294	22812
847.429	22934
847.565	22862
847.701	23083
847.837	22500
847.972	22424
848.108	22694
848.244	22569
848.379	22599
848.515	22470
848.65	22303
848.786	22462
848.921	22432
849.057	22409
849.192	22649
849.328	22535
849.463	22424
849.598	22470
849.734	22329
849.869	22333
850.004	22280
850.14	22226
850.275	22128
850.41	22147
850.545	22162
850.68	22162
850.815	22238
850.95	22348
851.085	22367
851.22	22230
851.355	22067
851.49	22192
851.625	22272
851.76	22116
851.895	22051
852.03	22078
852.165	22242
852.299	22207
852.434	22314
852.569	22246
852.703	22112
852.838	22303
852.973	22147
853.107	22204
853.242	22048
853.376	21983
853.511	21972
853.645	21991
853.78	22128
853.914	22143
854.048	21960
854.183	22074
854.317	22051
854.451	22226
854.585	22063
854.72	22017
854.854	22078
854.988	21918
855.122	22006
855.256	21812
855.39	21964
855.524	22147
855.658	21888
855.792	22006
855.926	22101
856.06	22048
856.194	22135
856.327	21873
856.461	21915
856.595	21907
856.729	21945
856.862	22002
856.996	21991
857.13	22128
857.263	22177
857.397	21968
857.53	22002
857.664	22158
857.797	22063
857.931	22101
858.064	22109
858.197	22207
858.331	22006
858.464	21998
858.597	21838
858.731	21945
858.864	21964
858.997	21895
859.13	21972
859.263	22078
859.396	22147
859.529	21991
859.662	21899
859.795	22013
859.928	22036
860.061	22185
860.194	22207
860.327	21945
860.46	22017
860.592	22226
860.725	22204
860.858	22192
860.99	21922
861.123	21854
861.256	21854
861.388	21983
861.521	22755
861.653	21880
861.786	21755
861.918	21819
862.05	21816
862.183	21869
862.315	21907
862.447	21979
862.58	21865
862.712	21622
862.844	21652
862.976	21823
863.108	21781
863.24	22257
863.372	21755
863.504	21759
863.636	21717
863.768	21869
863.9	21724
864.032	21747
864.164	21709
864.296	21781
864.428	21755
864.559	21804
864.691	21667
864.823	21656
864.954	21736
865.086	21599
865.217	21682
865.349	21500
865.48	21644
865.612	21656
865.743	21736
865.875	21583
866.006	21603
866.137	21564
866.269	21622
866.4	21614
866.531	21599
866.662	21580
866.793	21542
866.924	21614
867.055	21603
867.186	21526
867.317	21507
867.448	21538
867.579	21466
867.71	21393
867.841	21408
867.972	21374
868.103	21549
868.233	21530
868.364	21519
868.495	21622
868.625	21785
868.756	21960
868.886	21717
869.017	21686
869.147	21800
869.278	21842
869.408	21857
869.539	21762
869.669	21812
869.799	21823
869.929	21823
870.06	21797
870.19	22063
870.32	22074
870.45	22185
870.58	22086
870.71	22139
870.84	22276
870.97	22124
871.1	22177
871.23	22268
871.36	22291
871.489	22204
871.619	22276
871.749	22310
871.879	22523
872.008	22367
872.138	22295
872.267	22390
872.397	22287
872.526	22223
872.656	22242
872.785	22154
872.915	22341
873.044	22523
873.173	22341
873.303	22481
873.432	22405
873.561	22478
873.69	22390
873.819	22344
873.948	22428
874.077	22344
874.206	22246
874.335	22417
874.464	22451
874.593	22649
874.722	22554
874.851	22607
874.979	22615
875.108	22592
875.237	22557
875.365	22580
875.494	22596
875.623	22630
875.751	22531
875.88	22599
876.008	22771
876.136	22812
876.265	22972
876.393	23109
876.521	22953
876.65	23048
876.778	22911
876.906	22972
877.034	22854
877.162	22854
877.29	22812
877.418	22869
877.546	22961
877.674	23056
877.802	23018
877.93	22900
878.058	22900
878.185	22790
878.313	23006
878.441	22927
878.568	22782
878.696	22927
878.824	22984
878.951	22938
879.079	23102
879.206	23189
879.333	23162
879.461	23010
879.588	23083
879.715	23132
879.842	23117
879.97	22987
880.097	22847
880.224	22664
880.351	22835
880.478	22812
880.605	22782
880.732	22771
880.859	23014
880.986	22828
881.112	22721
881.239	22565
881.366	22459
881.493	22424
881.619	22375
881.746	22253
881.872	22443
881.999	22268
882.125	22299
882.252	22303
882.378	22265
882.505	22504
882.631	22086
882.757	21964
882.883	22101
883.01	22082
883.136	22002
883.262	21789
883.388	21869
883.514	21994
883.64	21972
883.766	21994
883.892	21816
884.018	21835
884.143	21998
884.269	22116
884.395	21759
884.52	21583
884.646	21686
884.772	21599
884.897	21542
885.023	21625
885.148	21618
885.274	21705
885.399	21797
885.524	21656
885.65	21576
885.775	21667
885.9	21549
886.025	21720
886.15	21800
886.275	21587
886.4	21595
886.525	21606
886.65	21625
886.775	21568
886.9	21728
887.025	21953
887.149	21652
887.274	21431
887.399	21317
887.523	21382
887.648	21408
887.773	21154
887.897	21515
888.021	21450
888.146	21233
888.27	21454
888.395	21431
888.519	21511
888.643	21450
888.767	21435
888.891	21241
889.015	21226
889.139	21302
889.263	21233
889.387	21233
889.511	21317
889.635	21401
889.759	21154
889.883	21161
890.006	21123
890.13	21142
890.254	21131
890.377	21218
890.501	20960
890.624	20979
890.748	21020
890.871	20678
890.995	20773
891.118	20727
891.241	20754
891.364	20826
891.488	20895
891.611	20735
891.734	20765
891.857	20842
891.98	20659
892.103	20796
892.226	20724
892.349	20750
892.471	20469
892.594	20781
892.717	20823
892.839	20602
892.962	20552
893.085	20708
893.207	20625
893.33	20530
893.452	20514
893.575	20724
893.697	20659
893.819	20697
893.941	20838
894.064	20899
894.186	20621
894.308	20503
894.43	20689
894.552	20727
894.674	20781
894.796	20503
894.918	20537
895.04	20564
895.161	20727
895.283	20785
895.405	20495
895.526	20644
895.648	20556
895.769	20705
895.891	20556
896.012	20625
896.134	20788
896.255	20583
896.376	20568
896.498	20720
896.619	20659
896.74	20640
896.861	20659
896.982	20948
897.103	20914
897.224	20880
897.345	20823
897.466	20788
897.587	20883
897.708	20967
897.828	20876
897.949	20834
898.07	20678
898.19	20819
898.311	20967
898.431	20746
898.552	20853
898.672	20891
898.792	20876
898.913	20807
899.033	20796
899.153	20674
899.273	20556
899.393	20526
899.513	20583
899.633	20575
899.753	20625
899.873	20431
899.993	20609
900.113	20473
900.232	20556
900.352	20556
900.472	20381
900.591	20263
900.711	20427
900.83	20290
900.95	20480
901.069	20423
901.189	20164
901.308	19959
901.427	19852
901.546	19947
901.665	19940
901.784	19906
901.904	19620
902.023	19693
902.141	19544
902.26	19533
902.379	19533
902.498	19407
902.617	19377
902.735	19472
902.854	19407
902.973	19304
903.091	19145
903.21	19187
903.328	19019
903.446	19053
903.565	18916
903.683	18882
903.801	18768
903.919	18890
904.038	18867
904.156	18639
904.274	18817
904.392	18604
904.51	18608
904.627	18665
904.745	18738
904.863	18642
904.981	18525
905.098	18361
905.216	18334
905.334	18445
905.451	18346
905.569	18327
905.686	18372
905.803	18350
905.921	18174
906.038	18201
906.155	18178
906.272	18140
906.389	18106
906.506	17836
906.623	17939
906.74	17824
906.857	17817
906.974	17714
907.091	17908
907.208	18030
907.324	17878
907.441	17813
907.557	17665
907.674	17661
907.79	17433
907.907	17661
908.023	17649
908.139	17577
908.256	17532
908.372	17501
908.488	17410
908.604	17493
908.72	17200
908.836	17265
908.952	17181
909.068	17280
909.184	17379
909.3	17280
909.415	17376
909.531	17204
909.647	17064
909.762	17094
909.878	17010
909.993	17075
910.108	16987
910.224	16923
910.339	16904
910.454	16965
910.57	16850
910.685	16733
910.8	17067
910.915	17033
911.03	16919
911.145	16596
911.259	16649
911.374	16706
911.489	16565
911.604	16500
911.718	16325
911.833	16284
911.947	16246
912.062	16211
912.176	16295
912.291	16341
912.405	16181
912.519	16470
912.633	16550
912.748	16280
912.862	16314
912.976	16230
913.09	16177
913.204	16173
913.318	16219
913.431	16268
913.545	16333
913.659	16261
913.772	16063
913.886	15991
914	15994
914.113	16051
914.226	15994
914.34	15979
914.453	15918
914.566	15956
914.68	15895
914.793	15755
914.906	15637
915.019	15492
915.132	15439
915.245	15553
915.358	15713
915.47	15523
915.583	15568
915.696	15584
915.809	15641
915.921	15720
916.034	15500
916.146	15557
916.259	15408
916.371	15549
916.483	15523
916.595	15416
916.708	15317
916.82	15416
916.932	15382
917.044	15313
917.156	15230
917.268	15195
917.38	15222
917.491	15112
917.603	15233
917.715	15313
917.826	15203
917.938	15104
918.049	15146
918.161	15081
918.272	15188
918.384	15310
918.495	15062
918.606	14979
918.717	14929
918.828	14994
918.939	14910
919.05	14864
919.161	14868
919.272	14758
919.383	14750
919.494	14952
919.604	15028
919.715	14925
919.826	14834
919.936	14807
920.047	14929
920.157	14887
920.267	15017
920.378	14952
920.488	14872
920.598	14994
920.708	15169
920.818	15005
920.928	15032
921.038	15287
921.148	15058
921.258	14830
921.368	14720
921.477	14705
921.587	14571
921.697	14473
921.806	14549
921.916	14518
922.025	14309
922.134	14271
922.244	14187
922.353	14324
922.462	14073
922.571	14077
922.68	13940
922.789	13849
922.898	13887
923.007	13928
923.116	13917
923.224	13989
923.333	13890
923.442	13712
923.55	13571
923.659	13731
923.767	13860
923.876	13708
923.984	13757
924.092	13727
924.201	13719
924.309	13571
924.417	13556
924.525	13586
924.633	13499
924.741	14507
924.849	13373
924.956	13460
925.064	13388
925.172	13266
925.279	13324
925.387	13293
925.494	13308
925.602	13434
925.709	13324
925.816	13164
925.924	13168
926.031	13251
926.138	13228
926.245	13228
926.352	13122
926.459	13282
926.566	13251
926.673	13080
926.779	13080
926.886	13084
926.993	12863
927.099	12886
927.206	12863
927.312	12825
927.419	12829
927.525	12821
927.631	12852
927.737	12745
927.843	12673
927.95	12593
928.056	12604
928.162	12631
928.267	12662
928.373	13339
928.479	12753
928.585	12509
928.69	12665
928.796	12715
928.901	12494
929.007	12426
929.112	12429
929.218	12448
929.323	12426
929.428	12441
929.533	12479
929.638	12334
929.743	12220
929.848	12361
929.953	12224
930.058	12175
930.163	12064
930.267	12178
930.372	12136
930.477	11988
930.581	12247
930.685	12057
930.79	11870
930.894	11973
930.998	11878
931.103	12038
931.207	11748
931.311	11604
931.415	11532
931.519	11391
931.623	11273
