Data from test_V78500241_3607.txt Node
Date: Fri Mar 25 15:34:58 CST 2022
User: usil
Spectrometer: V785-0024
Trigger mode: 0
Integration Time (sec): 4.000000E-1
Scans to average: 1
Nonlinearity correction enabled: false
Boxcar width: 0
Storing dark spectrum: false
XAxis mode: Wavelengths
Number of Pixels in Spectrum: 1024
>>>>>Begin Spectral Data<<<<<
801.071	27389
801.214	27348
801.356	27062
801.499	27104
801.641	26826
801.783	26819
801.926	26887
802.068	26804
802.211	26902
802.353	26701
802.496	26408
802.638	26499
802.78	26629
802.923	26450
803.065	26374
803.208	26286
803.35	26461
803.492	26549
803.635	26636
803.777	26564
803.919	26651
804.061	26933
804.204	26667
804.346	26598
804.488	26727
804.63	26648
804.773	26526
804.915	26655
805.057	26815
805.199	26663
805.341	26830
805.483	26705
805.626	26807
805.768	26720
805.91	26868
806.052	26716
806.194	26750
806.336	26986
806.478	26765
806.62	26785
806.762	26906
806.904	27074
807.046	27298
807.188	27157
807.33	27108
807.472	27195
807.614	27001
807.756	27188
807.898	26925
808.04	26982
808.182	27066
808.324	27055
808.465	26902
808.607	27173
808.749	27298
808.891	27587
809.033	27603
809.174	27408
809.316	27393
809.458	27291
809.6	27329
809.741	27492
809.883	27481
810.025	27675
810.166	27622
810.308	27599
810.45	27667
810.591	27614
810.733	27424
810.875	27367
811.016	27340
811.158	27359
811.299	27420
811.441	27610
811.582	27458
811.724	27393
811.865	27386
812.007	27416
812.148	27435
812.29	27424
812.431	27618
812.573	27690
812.714	27800
812.855	27873
812.997	27903
813.138	28017
813.279	28093
813.421	27953
813.562	27823
813.703	27663
813.845	27466
813.986	27294
814.127	27028
814.268	27055
814.41	27085
814.551	26994
814.692	27093
814.833	26967
814.974	26868
815.115	27032
815.256	26872
815.397	26838
815.539	27058
815.68	26948
815.821	26667
815.962	26765
816.103	26800
816.244	26739
816.385	26549
816.526	26564
816.666	26389
816.807	26263
816.948	26309
817.089	26438
817.23	26332
817.371	26168
817.512	26161
817.653	26298
817.793	26161
817.934	26339
818.075	26313
818.216	26256
818.356	26145
818.497	26111
818.638	25997
818.778	26092
818.919	26069
819.06	26096
819.2	26142
819.341	26225
819.481	26248
819.622	26347
819.762	26602
819.903	26499
820.043	26396
820.184	26412
820.324	26442
820.465	26499
820.605	26343
820.746	26480
820.886	26142
821.026	26351
821.167	26339
821.307	26446
821.447	26305
821.588	26164
821.728	26115
821.868	26035
822.008	25852
822.149	25757
822.289	25712
822.429	25514
822.569	25472
822.709	25544
822.849	25304
822.99	25293
823.13	25259
823.27	25213
823.41	25137
823.55	25076
823.69	25103
823.83	25202
823.97	24996
824.11	24886
824.25	24863
824.389	24935
824.529	24882
824.669	24863
824.809	25000
824.949	25015
825.089	24970
825.228	25050
825.368	24734
825.508	24646
825.648	24764
825.787	24897
825.927	24760
826.067	24844
826.206	24779
826.346	24840
826.485	24703
826.625	24913
826.765	24939
826.904	24642
827.044	24509
827.183	24494
827.323	24445
827.462	24604
827.601	24467
827.741	24376
827.88	24452
828.02	24437
828.159	24422
828.298	24521
828.437	24502
828.577	24471
828.716	24540
828.855	24429
828.994	24133
829.134	24296
829.273	24338
829.412	24133
829.551	24174
829.69	24068
829.829	24194
829.968	24239
830.107	24281
830.246	24220
830.385	24190
830.524	24167
830.663	23946
830.802	23912
830.941	23802
831.08	23752
831.219	23798
831.357	23969
831.496	24057
831.635	23790
831.774	23638
831.913	23745
832.051	23668
832.19	23459
832.329	23581
832.467	23463
832.606	23471
832.744	23402
832.883	23452
833.022	23356
833.16	23535
833.299	23528
833.437	23520
833.576	23695
833.714	23539
833.852	23695
833.991	23539
834.129	23615
834.267	23619
834.406	23611
834.544	23573
834.682	23551
834.821	23665
834.959	23741
835.097	23535
835.235	23535
835.373	23634
835.511	23547
835.65	23414
835.788	23391
835.926	23315
836.064	23204
836.202	23155
836.34	23326
836.478	23448
836.615	23379
836.753	23509
836.891	23463
837.029	23452
837.167	23303
837.305	23356
837.443	23239
837.58	23220
837.718	23296
837.856	23162
837.993	23254
838.131	23254
838.269	23128
838.406	23132
838.544	23109
838.681	22900
838.819	22843
838.956	22679
839.094	22793
839.231	22805
839.369	22858
839.506	23143
839.643	22885
839.781	22721
839.918	22599
840.055	22774
840.193	22698
840.33	22618
840.467	22710
840.604	22713
840.742	22850
840.879	22554
841.016	22721
841.153	22512
841.29	22713
841.427	22611
841.564	22599
841.701	22736
841.838	22634
841.975	22512
842.112	22573
842.249	22527
842.385	22546
842.522	22691
842.659	22554
842.796	22382
842.933	22428
843.069	22341
843.206	22398
843.343	22466
843.479	22519
843.616	22402
843.752	22261
843.889	22238
844.025	22344
844.162	22169
844.298	22272
844.435	22154
844.571	22097
844.708	22204
844.844	22314
844.98	22405
845.117	22169
845.253	22166
845.389	22154
845.525	22116
845.661	21949
845.798	21998
845.934	22013
846.07	21865
846.206	21987
846.342	22063
846.478	21964
846.614	21732
846.75	21736
846.886	21561
847.022	21724
847.158	21705
847.294	21667
847.429	21682
847.565	21679
847.701	21953
847.837	21370
847.972	21473
848.108	21473
848.244	21405
848.379	21306
848.515	21260
848.65	21252
848.786	21279
848.921	21329
849.057	21325
849.192	21420
849.328	21363
849.463	21298
849.598	21199
849.734	21150
849.869	21135
850.004	21154
850.14	21199
850.275	21116
850.41	20895
850.545	20906
850.68	20952
850.815	21127
850.95	21028
851.085	21100
851.22	21135
851.355	21032
851.49	20895
851.625	20994
851.76	20994
851.895	20921
852.03	20899
852.165	21108
852.299	21066
852.434	21062
852.569	21024
852.703	21089
852.838	21112
852.973	21119
853.107	21157
853.242	21005
853.376	20845
853.511	20674
853.645	20800
853.78	20891
853.914	20906
854.048	20838
854.183	20990
854.317	20902
854.451	21169
854.585	20838
854.72	21036
854.854	20826
854.988	20804
855.122	20849
855.256	20625
855.39	20792
855.524	20899
855.658	20933
855.792	20918
855.926	20861
856.06	20853
856.194	20864
856.327	20750
856.461	20773
856.595	20887
856.729	20788
856.862	20979
856.996	20849
857.13	20979
857.263	20933
857.397	20895
857.53	20804
857.664	20777
857.797	20979
857.931	20952
858.064	20918
858.197	20948
858.331	20834
858.464	20785
858.597	20769
858.731	20788
858.864	20781
858.997	20811
859.13	20842
859.263	20906
859.396	20929
859.529	20906
859.662	20811
859.795	20796
859.928	20902
860.061	21089
860.194	21116
860.327	20967
860.46	20887
860.592	21024
860.725	20921
860.858	20994
860.99	20796
861.123	20743
861.256	20788
861.388	20883
861.521	21641
861.653	20724
861.786	20602
861.918	20739
862.05	20720
862.183	20857
862.315	20918
862.447	20979
862.58	20823
862.712	20587
862.844	20655
862.976	20579
863.108	20617
863.24	20944
863.372	20514
863.504	20541
863.636	20659
863.768	20583
863.9	20587
864.032	20556
864.164	20606
864.296	20670
864.428	20754
864.559	20590
864.691	20537
864.823	20594
864.954	20583
865.086	20503
865.217	20446
865.349	20381
865.48	20389
865.612	20564
865.743	20590
865.875	20450
866.006	20400
866.137	20473
866.269	20484
866.4	20476
866.531	20404
866.662	20347
866.793	20465
866.924	20492
867.055	20488
867.186	20434
867.317	20381
867.448	20301
867.579	20454
867.71	20275
867.841	20256
867.972	20450
868.103	20370
868.233	20267
868.364	20484
868.495	20533
868.625	20575
868.756	20781
868.886	20667
869.017	20674
869.147	20651
869.278	20758
869.408	20769
869.539	20648
869.669	20724
869.799	20701
869.929	20773
870.06	20781
870.19	20895
870.32	21001
870.45	21024
870.58	21085
870.71	21070
870.84	21184
870.97	21176
871.1	21074
871.23	21138
871.36	21176
871.489	21131
871.619	21291
871.749	21374
871.879	21256
872.008	21473
872.138	21233
872.267	21272
872.397	21116
872.526	21104
872.656	21093
872.785	21100
872.915	21283
873.044	21389
873.173	21325
873.303	21374
873.432	21378
873.561	21348
873.69	21382
873.819	21374
873.948	21473
874.077	21313
874.206	21241
874.335	21165
874.464	21492
874.593	21469
874.722	21416
874.851	21564
874.979	21511
875.108	21576
875.237	21538
875.365	21412
875.494	21412
875.623	21641
875.751	21515
875.88	21500
876.008	21770
876.136	21679
876.265	22029
876.393	22002
876.521	22051
876.65	22017
876.778	21972
876.906	22063
877.034	21755
877.162	21892
877.29	21816
877.418	21831
877.546	21953
877.674	21835
877.802	21861
877.93	21861
878.058	21823
878.185	21701
878.313	21831
878.441	21880
878.568	21644
878.696	21827
878.824	21949
878.951	21903
879.079	21918
879.206	22082
879.333	22139
879.461	21903
879.588	22139
879.715	22070
879.842	22223
879.97	21991
880.097	21736
880.224	21842
880.351	21774
880.478	21865
880.605	21755
880.732	21675
880.859	21892
880.986	21781
881.112	21641
881.239	21538
881.366	21481
881.493	21397
881.619	21260
881.746	21329
881.872	21302
881.999	21218
882.125	21245
882.252	21287
882.378	21264
882.505	21344
882.631	21214
882.757	21039
882.883	20979
883.01	20861
883.136	20910
883.262	20918
883.388	20864
883.514	20952
883.64	21135
883.766	20925
883.892	20712
884.018	20708
884.143	20933
884.269	21036
884.395	20697
884.52	20613
884.646	20689
884.772	20488
884.897	20556
885.023	20667
885.148	20697
885.274	20823
885.399	20708
885.524	20583
885.65	20731
885.775	20686
885.9	20590
886.025	20636
886.15	20701
886.275	20613
886.4	20594
886.525	20712
886.65	20484
886.775	20526
886.9	20750
887.025	20921
887.149	20625
887.274	20480
887.399	20434
887.523	20419
887.648	20377
887.773	20286
887.897	20499
888.021	20503
888.146	20473
888.27	20480
888.395	20575
888.519	20473
888.643	20377
888.767	20438
888.891	20305
889.015	20286
889.139	20248
889.263	20225
889.387	20244
889.511	20454
889.635	20358
889.759	20187
889.883	20214
890.006	20419
890.13	20457
890.254	20244
890.377	20145
890.501	19997
890.624	19921
890.748	20020
890.871	19875
890.995	19727
891.118	19666
891.241	19772
891.364	19917
891.488	19936
891.611	19811
891.734	19772
891.857	19757
891.98	19757
892.103	19769
892.226	19814
892.349	19845
892.471	19537
892.594	19731
892.717	19772
892.839	19738
892.962	19742
893.085	19864
893.207	19696
893.33	19552
893.452	19772
893.575	19643
893.697	19677
893.819	19852
893.941	19955
894.064	19826
894.186	19704
894.308	19734
894.43	19658
894.552	19860
894.674	19887
894.796	19537
894.918	19666
895.04	19643
895.161	19769
895.283	19746
895.405	19586
895.526	19651
895.648	19514
895.769	19753
895.891	19719
896.012	19890
896.134	19681
896.255	19700
896.376	19666
896.498	19807
896.619	19738
896.74	19734
896.861	19841
896.982	19978
897.103	20229
897.224	19982
897.345	19852
897.466	19970
897.587	19947
897.708	19963
897.828	20001
897.949	19925
898.07	19811
898.19	19864
898.311	20008
898.431	19951
898.552	19932
898.672	19986
898.792	20088
898.913	19970
899.033	19814
899.153	19677
899.273	19643
899.393	19620
899.513	19769
899.633	19662
899.753	19723
899.873	19597
899.993	19677
900.113	19651
900.232	19670
900.352	19582
900.472	19525
900.591	19460
900.711	19434
900.83	19400
900.95	19605
901.069	19712
901.189	19263
901.308	19209
901.427	18928
901.546	19206
901.665	19183
901.784	18989
901.904	18916
902.023	18817
902.141	18669
902.26	18555
902.379	18639
902.498	18661
902.617	18532
902.735	18646
902.854	18574
902.973	18555
903.091	18220
903.21	18422
903.328	18319
903.446	18106
903.565	18125
903.683	18152
903.801	17996
903.919	17870
904.038	17999
904.156	17733
904.274	17794
904.392	17904
904.51	17802
904.627	17779
904.745	17912
904.863	17832
904.981	17668
905.098	17558
905.216	17532
905.334	17524
905.451	17562
905.569	17459
905.686	17638
905.803	17459
905.921	17212
906.038	17406
906.155	17258
906.272	17197
906.389	17197
906.506	16930
906.623	17128
906.74	17075
906.857	16968
906.974	16946
907.091	17159
907.208	17045
907.324	17197
907.441	16938
907.557	16847
907.674	16828
907.79	16767
907.907	16752
908.023	16755
908.139	16816
908.256	16793
908.372	16736
908.488	16542
908.604	16565
908.72	16394
908.836	16538
908.952	16417
909.068	16508
909.184	16493
909.3	16500
909.415	16523
909.531	16462
909.647	16162
909.762	16128
909.878	16150
909.993	16188
910.108	16128
910.224	16147
910.339	16128
910.454	16006
910.57	16055
910.685	15960
910.8	16211
910.915	16154
911.03	16017
911.145	15861
911.259	15857
911.374	15846
911.489	15648
911.604	15671
911.718	15568
911.833	15538
911.947	15504
912.062	15458
912.176	15488
912.291	15603
912.405	15564
912.519	15793
912.633	15682
912.748	15595
912.862	15473
912.976	15389
913.09	15211
913.204	15431
913.318	15336
913.431	15450
913.545	15389
913.659	15420
913.772	15310
913.886	15173
914	15154
914.113	15313
914.226	15218
914.34	15249
914.453	15085
914.566	15268
914.68	15066
914.793	15089
914.906	14876
915.019	14788
915.132	14754
915.245	14727
915.358	14777
915.47	14864
915.583	14811
915.696	14769
915.809	14807
915.921	14975
916.034	14674
916.146	14678
916.259	14651
916.371	14743
916.483	14724
916.595	14594
916.708	14575
916.82	14606
916.932	14636
917.044	14613
917.156	14518
917.268	14507
917.38	14522
917.491	14377
917.603	14465
917.715	14556
917.826	14530
917.938	14438
918.049	14339
918.161	14347
918.272	14530
918.384	14476
918.495	14465
918.606	14309
918.717	14134
918.828	14214
918.939	14290
919.05	14115
919.161	14202
919.272	14027
919.383	14088
919.494	14290
919.604	14393
919.715	14294
919.826	14191
919.936	14240
920.047	14202
920.157	14183
920.267	14431
920.378	14191
920.488	14096
920.598	14290
920.708	14495
920.818	14248
920.928	14309
921.038	14465
921.148	14419
921.258	14153
921.368	14046
921.477	14024
921.587	13890
921.697	13837
921.806	13909
921.916	13723
922.025	13662
922.134	13620
922.244	13597
922.353	13647
922.462	13392
922.571	13396
922.68	13209
922.789	13156
922.898	13198
923.007	13137
923.116	13282
923.224	13194
923.333	13175
923.442	13015
923.55	13133
923.659	13091
923.767	13145
923.876	12973
923.984	13099
924.092	12954
924.201	13042
924.309	13069
924.417	12932
924.525	12928
924.633	12977
924.741	13833
924.849	12711
924.956	12852
925.064	12688
925.172	12582
925.279	12677
925.387	12738
925.494	12696
925.602	12764
925.709	12783
925.816	12623
925.924	12597
926.031	12658
926.138	12631
926.245	12620
926.352	12532
926.459	12616
926.566	12608
926.673	12566
926.779	12437
926.886	12403
926.993	12327
927.099	12277
927.206	12190
927.312	12194
927.419	12323
927.525	12266
927.631	12285
927.737	12175
927.843	12053
927.95	11996
928.056	12083
928.162	12060
928.267	12114
928.373	12582
928.479	12125
928.585	11912
928.69	12079
928.796	12098
928.901	11908
929.007	11836
929.112	11946
929.218	11855
929.323	11870
929.428	11756
929.533	11897
929.638	11665
929.743	11737
929.848	11760
929.953	11737
930.058	11691
930.163	11551
930.267	11497
930.372	11649
930.477	11444
930.581	11668
930.685	11528
930.79	11341
930.894	11391
930.998	11349
931.103	11482
931.207	11162
931.311	11086
931.415	11006
931.519	10755
931.623	10744
