Data from test_V78500241_668.txt Node
Date: Fri Mar 25 15:14:30 CST 2022
User: usil
Spectrometer: V785-0024
Trigger mode: 0
Integration Time (sec): 4.000000E-1
Scans to average: 1
Nonlinearity correction enabled: false
Boxcar width: 0
Storing dark spectrum: false
XAxis mode: Wavelengths
Number of Pixels in Spectrum: 1024
>>>>>Begin Spectral Data<<<<<
801.071	27857
801.214	27823
801.356	27591
801.499	27739
801.641	27439
801.783	27507
801.926	27682
802.068	27454
802.211	27363
802.353	27313
802.496	27199
802.638	27233
802.78	27203
802.923	27176
803.065	27074
803.208	27077
803.35	27207
803.492	27218
803.635	27348
803.777	27218
803.919	27252
804.061	27595
804.204	27439
804.346	27291
804.488	27184
804.63	27405
804.773	27173
804.915	27378
805.057	27530
805.199	27291
805.341	27462
805.483	27485
805.626	27462
805.768	27443
805.91	27405
806.052	27443
806.194	27473
806.336	27766
806.478	27629
806.62	27485
806.762	27778
806.904	27728
807.046	28074
807.188	27835
807.33	27865
807.472	28006
807.614	27911
807.756	27827
807.898	27724
808.04	27667
808.182	27709
808.324	27679
808.465	27660
808.607	27979
808.749	27998
808.891	28242
809.033	28299
809.174	28169
809.316	28158
809.458	28158
809.6	28150
809.741	28382
809.883	28124
810.025	28382
810.166	28459
810.308	28493
810.45	28329
810.591	28371
810.733	28401
810.875	28246
811.016	28070
811.158	27953
811.299	28135
811.441	28291
811.582	28322
811.724	28109
811.865	28150
812.007	28135
812.148	28109
812.29	28299
812.431	28360
812.573	28478
812.714	28672
812.855	28660
812.997	28675
813.138	29044
813.279	28896
813.421	28801
813.562	28656
813.703	28622
813.845	28546
813.986	28265
814.127	28112
814.268	27781
814.41	27926
814.551	27778
814.692	27861
814.833	27800
814.974	27690
815.115	27854
815.256	27641
815.397	27720
815.539	27789
815.68	27663
815.821	27553
815.962	27713
816.103	27660
816.244	27553
816.385	27466
816.526	27473
816.666	27180
816.807	27203
816.948	27184
817.089	27367
817.23	27070
817.371	27169
817.512	27188
817.653	27230
817.793	27176
817.934	27264
818.075	26994
818.216	27142
818.356	27146
818.497	27055
818.638	26925
818.778	26887
818.919	26899
819.06	27001
819.2	27028
819.341	27116
819.481	27203
819.622	27176
819.762	27466
819.903	27256
820.043	27382
820.184	27245
820.324	27321
820.465	27252
820.605	27294
820.746	27199
820.886	27252
821.026	27222
821.167	27188
821.307	27142
821.447	27241
821.588	27116
821.728	26842
821.868	26712
822.008	26575
822.149	26571
822.289	26575
822.429	26347
822.569	26256
822.709	26248
822.849	26180
822.99	26111
823.13	26138
823.27	25993
823.41	25864
823.55	25677
823.69	25750
823.83	25955
823.97	25978
824.11	25674
824.25	25807
824.389	25761
824.529	25788
824.669	25788
824.809	25902
824.949	25871
825.089	25879
825.228	25685
825.368	25662
825.508	25628
825.648	25708
825.787	25632
825.927	25788
826.067	25586
826.206	25635
826.346	25723
826.485	25795
826.625	25620
826.765	25761
826.904	25693
827.044	25479
827.183	25445
827.323	25263
827.462	25324
827.601	25464
827.741	25438
827.88	25335
828.02	25145
828.159	25198
828.298	25384
828.437	25468
828.577	25362
828.716	25491
828.855	25285
828.994	25076
829.134	25213
829.273	25053
829.412	25171
829.551	24920
829.69	24970
829.829	25190
829.968	25126
830.107	25183
830.246	25050
830.385	25160
830.524	24954
830.663	24897
830.802	24821
830.941	24593
831.08	24661
831.219	24726
831.357	24700
831.496	24776
831.635	24734
831.774	24559
831.913	24494
832.051	24494
832.19	24395
832.329	24346
832.467	24479
832.606	24330
832.744	24197
832.883	24296
833.022	24258
833.16	24311
833.299	24369
833.437	24498
833.576	24460
833.714	24407
833.852	24372
833.991	24403
834.129	24361
834.267	24467
834.406	24460
834.544	24460
834.682	24448
834.821	24323
834.959	24631
835.097	24273
835.235	24369
835.373	24380
835.511	24327
835.65	24323
835.788	24228
835.926	24190
836.064	24018
836.202	24163
836.34	24361
836.478	24289
836.615	24114
836.753	24281
836.891	24422
837.029	24148
837.167	24174
837.305	24159
837.443	24114
837.58	24091
837.718	24041
837.856	24072
837.993	23984
838.131	24053
838.269	23840
838.406	24026
838.544	23980
838.681	23885
838.819	23729
838.956	23577
839.094	23417
839.231	23646
839.369	23703
839.506	23973
839.643	23695
839.781	23623
839.918	23543
840.055	23585
840.193	23589
840.33	23490
840.467	23501
840.604	23516
840.742	23634
840.879	23189
841.016	23455
841.153	23376
841.29	23608
841.427	23360
841.564	23455
841.701	23349
841.838	23509
841.975	23326
842.112	23425
842.249	23239
842.385	23189
842.522	23383
842.659	23284
842.796	23223
842.933	23208
843.069	23212
843.206	23174
843.343	23258
843.479	23140
843.616	23086
843.752	22999
843.889	22968
844.025	22995
844.162	23025
844.298	22991
844.435	22911
844.571	22976
844.708	23083
844.844	23083
844.98	23231
845.117	23204
845.253	23018
845.389	22923
845.525	22915
845.661	22900
845.798	22596
845.934	22687
846.07	22710
846.206	22805
846.342	22721
846.478	22630
846.614	22424
846.75	22318
846.886	22474
847.022	22455
847.158	22557
847.294	22462
847.429	22527
847.565	22455
847.701	22546
847.837	22230
847.972	22200
848.108	22348
848.244	22333
848.379	22029
848.515	22029
848.65	22048
848.786	22059
848.921	21983
849.057	22219
849.192	22063
849.328	22044
849.463	22082
849.598	21949
849.734	21915
849.869	21945
850.004	21800
850.14	21888
850.275	21892
850.41	21625
850.545	21789
850.68	21751
850.815	21800
850.95	21808
851.085	21918
851.22	22006
851.355	21804
851.49	21880
851.625	21762
851.76	21701
851.895	21755
852.03	21713
852.165	21778
852.299	21816
852.434	21861
852.569	21869
852.703	21869
852.838	21949
852.973	22059
853.107	21869
853.242	21838
853.376	21724
853.511	21530
853.645	21644
853.78	21679
853.914	21675
854.048	21629
854.183	21694
854.317	21648
854.451	21861
854.585	21587
854.72	21534
854.854	21720
854.988	21526
855.122	21591
855.256	21485
855.39	21507
855.524	21690
855.658	21660
855.792	21648
855.926	21736
856.06	21641
856.194	21663
856.327	21622
856.461	21549
856.595	21610
856.729	21553
856.862	21739
856.996	21648
857.13	21591
857.263	21713
857.397	21679
857.53	21629
857.664	21736
857.797	21622
857.931	21831
858.064	21717
858.197	21713
858.331	21576
858.464	21511
858.597	21511
858.731	21572
858.864	21542
858.997	21743
859.13	21614
859.263	21705
859.396	21675
859.529	21614
859.662	21637
859.795	21667
859.928	21576
860.061	21739
860.194	21812
860.327	21770
860.46	21614
860.592	21709
860.725	21785
860.858	21755
860.99	21557
861.123	21614
861.256	21515
861.388	21641
861.521	22299
861.653	21469
861.786	21462
861.918	21519
862.05	21462
862.183	21538
862.315	21549
862.447	21515
862.58	21561
862.712	21370
862.844	21233
862.976	21359
863.108	21340
863.24	21785
863.372	21226
863.504	21435
863.636	21256
863.768	21355
863.9	21260
864.032	21344
864.164	21294
864.296	21401
864.428	21496
864.559	21351
864.691	21367
864.823	21252
864.954	21344
865.086	21218
865.217	21272
865.349	21146
865.48	21256
865.612	21207
865.743	21367
865.875	21329
866.006	21192
866.137	21272
866.269	21218
866.4	21260
866.531	20994
866.662	21096
866.793	21146
866.924	21165
867.055	21332
867.186	21154
867.317	21104
867.448	20952
867.579	21119
867.71	21184
867.841	21119
867.972	21104
868.103	20956
868.233	21100
868.364	21142
868.495	21272
868.625	21416
868.756	21401
868.886	21329
869.017	21485
869.147	21500
869.278	21500
869.408	21428
869.539	21367
869.669	21447
869.799	21405
869.929	21496
870.06	21526
870.19	21705
870.32	21671
870.45	21720
870.58	21835
870.71	21907
870.84	21876
870.97	21694
871.1	21720
871.23	21876
871.36	22070
871.489	21998
871.619	21918
871.749	21941
871.879	22029
872.008	22093
872.138	21934
872.267	21998
872.397	21812
872.526	21804
872.656	21903
872.785	21850
872.915	21945
873.044	21975
873.173	21975
873.303	22162
873.432	22006
873.561	22032
873.69	22067
873.819	21975
873.948	22112
874.077	22040
874.206	22025
874.335	22116
874.464	22032
874.593	22291
874.722	22207
874.851	22341
874.979	22105
875.108	22306
875.237	22101
875.365	22040
875.494	22048
875.623	22325
875.751	22215
875.88	22303
876.008	22352
876.136	22390
876.265	22577
876.393	22786
876.521	22580
876.65	22580
876.778	22542
876.906	22584
877.034	22584
877.162	22519
877.29	22512
877.418	22523
877.546	22542
877.674	22615
877.802	22618
877.93	22546
878.058	22607
878.185	22447
878.313	22500
878.441	22523
878.568	22329
878.696	22413
878.824	22497
878.951	22615
879.079	22630
879.206	22847
879.333	22641
879.461	22542
879.588	22740
879.715	22675
879.842	22831
879.97	22653
880.097	22440
880.224	22352
880.351	22523
880.478	22314
880.605	22268
880.732	22310
880.859	22580
880.986	22478
881.112	22447
881.239	22147
881.366	22120
881.493	22048
881.619	21956
881.746	21911
881.872	21945
881.999	21941
882.125	21945
882.252	22006
882.378	21975
882.505	22040
882.631	21827
882.757	21675
882.883	21682
883.01	21610
883.136	21591
883.262	21496
883.388	21534
883.514	21633
883.64	21587
883.766	21595
883.892	21443
884.018	21435
884.143	21576
884.269	21656
884.395	21321
884.52	21291
884.646	21272
884.772	21249
884.897	21298
885.023	21325
885.148	21420
885.274	21367
885.399	21329
885.524	21279
885.65	21214
885.775	21317
885.9	21211
886.025	21359
886.15	21302
886.275	21249
886.4	21195
886.525	21321
886.65	21214
886.775	21287
886.9	21298
887.025	21469
887.149	21195
887.274	21096
887.399	21154
887.523	21108
887.648	20921
887.773	21013
887.897	21119
888.021	20998
888.146	20994
888.27	21085
888.395	21150
888.519	20914
888.643	20994
888.767	21001
888.891	20815
889.015	20826
889.139	20876
889.263	20872
889.387	20933
889.511	21081
889.635	20857
889.759	20872
889.883	20705
890.006	20906
890.13	20864
890.254	20804
890.377	20750
890.501	20613
890.624	20609
890.748	20735
890.871	20518
890.995	20476
891.118	20427
891.241	20454
891.364	20541
891.488	20545
891.611	20336
891.734	20465
891.857	20419
891.98	20366
892.103	20457
892.226	20480
892.349	20347
892.471	20233
892.594	20446
892.717	20438
892.839	20385
892.962	20275
893.085	20400
893.207	20240
893.33	20259
893.452	20180
893.575	20473
893.697	20324
893.819	20530
893.941	20408
894.064	20400
894.186	20252
894.308	20248
894.43	20389
894.552	20609
894.674	20442
894.796	20237
894.918	20256
895.04	20267
895.161	20389
895.283	20385
895.405	20259
895.526	20328
895.648	20343
895.769	20404
895.891	20370
896.012	20423
896.134	20347
896.255	20385
896.376	20313
896.498	20408
896.619	20442
896.74	20294
896.861	20381
896.982	20575
897.103	20800
897.224	20594
897.345	20556
897.466	20560
897.587	20533
897.708	20663
897.828	20617
897.949	20617
898.07	20396
898.19	20476
898.311	20746
898.431	20434
898.552	20476
898.672	20636
898.792	20625
898.913	20503
899.033	20446
899.153	20309
899.273	20240
899.393	20278
899.513	20282
899.633	20366
899.753	20408
899.873	20294
899.993	20381
900.113	20168
900.232	20233
900.352	20180
900.472	20244
900.591	20005
900.711	20157
900.83	20134
900.95	20199
901.069	20248
901.189	19978
901.308	19757
901.427	19689
901.546	19601
901.665	19685
901.784	19616
901.904	19556
902.023	19506
902.141	19164
902.26	19255
902.379	19403
902.498	19209
902.617	19164
902.735	19148
902.854	19061
902.973	19031
903.091	18973
903.21	18890
903.328	18833
903.446	18707
903.565	18593
903.683	18753
903.801	18528
903.919	18399
904.038	18528
904.156	18528
904.274	18601
904.392	18441
904.51	18403
904.627	18433
904.745	18448
904.863	18395
904.981	18235
905.098	18117
905.216	17988
905.334	18144
905.451	18095
905.569	18163
905.686	18095
905.803	18026
905.921	17897
906.038	17999
906.155	17897
906.272	17798
906.389	17722
906.506	17657
906.623	17665
906.74	17592
906.857	17459
906.974	17520
907.091	17707
907.208	17741
907.324	17714
907.441	17539
907.557	17391
907.674	17337
907.79	17368
907.907	17273
908.023	17372
908.139	17402
908.256	17296
908.372	17265
908.488	17140
908.604	17060
908.72	17052
908.836	17170
908.952	16999
909.068	17064
909.184	17102
909.3	17147
909.415	17056
909.531	16957
909.647	16748
909.762	16782
909.878	16691
909.993	16831
910.108	16801
910.224	16729
910.339	16710
910.454	16565
910.57	16550
910.685	16470
910.8	16763
910.915	16683
911.03	16512
911.145	16409
911.259	16402
911.374	16246
911.489	16261
911.604	16257
911.718	16116
911.833	15998
911.947	15911
912.062	15899
912.176	16101
912.291	16067
912.405	16116
912.519	16219
912.633	16226
912.748	16162
912.862	16067
912.976	15930
913.09	15819
913.204	15880
913.318	15804
913.431	15972
913.545	15972
913.659	16025
913.772	15770
913.886	15644
914	15633
914.113	15785
914.226	15861
914.34	15591
914.453	15656
914.566	15663
914.68	15644
914.793	15545
914.906	15412
915.019	15351
915.132	15237
915.245	15291
915.358	15256
915.47	15260
915.583	15321
915.696	15287
915.809	15393
915.921	15488
916.034	15302
916.146	15214
916.259	15264
916.371	15192
916.483	15256
916.595	15135
916.708	15226
916.82	15127
916.932	15066
917.044	15146
917.156	15108
917.268	14941
917.38	15020
917.491	15017
917.603	14982
917.715	15066
917.826	15039
917.938	14864
918.049	14861
918.161	14948
918.272	14971
918.384	15066
918.495	14868
918.606	14800
918.717	14720
918.828	14765
918.939	14765
919.05	14659
919.161	14644
919.272	14492
919.383	14537
919.494	14724
919.604	14800
919.715	14613
919.826	14655
919.936	14636
920.047	14689
920.157	14701
920.267	14857
920.378	14731
920.488	14682
920.598	14811
920.708	14906
920.818	14804
920.928	14678
921.038	14864
921.148	14811
921.258	14667
921.368	14617
921.477	14427
921.587	14431
921.697	14313
921.806	14328
921.916	14309
922.025	14123
922.134	14123
922.244	14012
922.353	14081
922.462	13807
922.571	13799
922.68	13727
922.789	13674
922.898	13677
923.007	13594
923.116	13655
923.224	13582
923.333	13594
923.442	13537
923.55	13438
923.659	13578
923.767	13552
923.876	13472
923.984	13556
924.092	13346
924.201	13480
924.309	13358
924.417	13453
924.525	13293
924.633	13324
924.741	14123
924.849	13171
924.956	13213
925.064	13149
925.172	13110
925.279	13149
925.387	13103
925.494	13107
925.602	13114
925.709	13126
925.816	13034
925.924	13190
926.031	13099
926.138	13099
926.245	13095
926.352	12882
926.459	13034
926.566	13084
926.673	12935
926.779	12890
926.886	12817
926.993	12604
927.099	12764
927.206	12650
927.312	12555
927.419	12741
927.525	12684
927.631	12627
927.737	12566
927.843	12490
927.95	12350
928.056	12391
928.162	12304
928.267	12547
928.373	13137
928.479	12528
928.585	12281
928.69	12357
928.796	12380
928.901	12338
929.007	12167
929.112	12399
929.218	12205
929.323	12144
929.428	12167
929.533	12327
929.638	12167
929.743	12213
929.848	12144
929.953	12091
930.058	12041
930.163	11912
930.267	11961
930.372	12053
930.477	11904
930.581	12125
930.685	11912
930.79	11798
930.894	11703
930.998	11722
931.103	11824
931.207	11433
931.311	11410
931.415	11391
931.519	11166
931.623	11064
