Data from test_V78500241_1962.txt Node
Date: Fri Mar 25 15:23:31 CST 2022
User: usil
Spectrometer: V785-0024
Trigger mode: 0
Integration Time (sec): 4.000000E-1
Scans to average: 1
Nonlinearity correction enabled: false
Boxcar width: 0
Storing dark spectrum: false
XAxis mode: Wavelengths
Number of Pixels in Spectrum: 1024
>>>>>Begin Spectral Data<<<<<
801.071	27876
801.214	27648
801.356	27351
801.499	27439
801.641	27302
801.783	27199
801.926	27298
802.068	27329
802.211	27165
802.353	27154
802.496	26960
802.638	26952
802.78	26967
802.923	26967
803.065	26815
803.208	26689
803.35	26956
803.492	26979
803.635	27047
803.777	26940
803.919	26960
804.061	27511
804.204	27294
804.346	27009
804.488	26960
804.63	27024
804.773	27180
804.915	27176
805.057	27310
805.199	27104
805.341	27131
805.483	27287
805.626	27169
805.768	27028
805.91	27264
806.052	27313
806.194	27077
806.336	27332
806.478	27211
806.62	27214
806.762	27397
806.904	27629
807.046	27736
807.188	27591
807.33	27686
807.472	27679
807.614	27641
807.756	27610
807.898	27519
808.04	27500
808.182	27481
808.324	27447
808.465	27606
808.607	27789
808.749	27816
808.891	28036
809.033	28059
809.174	27895
809.316	27774
809.458	27766
809.6	27835
809.741	27994
809.883	28013
810.025	28166
810.166	28181
810.308	28082
810.45	28097
810.591	27987
810.733	27941
810.875	27907
811.016	27751
811.158	27694
811.299	27895
811.441	28006
811.582	27941
811.724	27770
811.865	27918
812.007	27838
812.148	27922
812.29	27991
812.431	27945
812.573	28207
812.714	28356
812.855	28314
812.997	28299
813.138	28634
813.279	28531
813.421	28409
813.562	28268
813.703	28200
813.845	28029
813.986	27956
814.127	27648
814.268	27523
814.41	27553
814.551	27416
814.692	27652
814.833	27504
814.974	27420
815.115	27530
815.256	27374
815.397	27397
815.539	27332
815.68	27272
815.821	27184
815.962	27435
816.103	27272
816.244	27154
816.385	27203
816.526	27085
816.666	26876
816.807	26826
816.948	26872
817.089	26982
817.23	26716
817.371	26830
817.512	26895
817.653	26861
817.793	26727
817.934	26823
818.075	26670
818.216	26800
818.356	26796
818.497	26659
818.638	26537
818.778	26636
818.919	26556
819.06	26686
819.2	26758
819.341	26762
819.481	26834
819.622	27024
819.762	27096
819.903	27116
820.043	27074
820.184	26902
820.324	26940
820.465	26933
820.605	26929
820.746	26963
820.886	26773
821.026	26891
821.167	26887
821.307	27009
821.447	26823
821.588	26743
821.728	26659
821.868	26389
822.008	26396
822.149	26313
822.289	26290
822.429	26096
822.569	26035
822.709	25917
822.849	25875
822.99	25772
823.13	25883
823.27	25674
823.41	25757
823.55	25590
823.69	25552
823.83	25639
823.97	25590
824.11	25331
824.25	25343
824.389	25457
824.529	25582
824.669	25643
824.809	25674
824.949	25540
825.089	25578
825.228	25632
825.368	25304
825.508	25278
825.648	25430
825.787	25327
825.927	25343
826.067	25274
826.206	25297
826.346	25358
826.485	25346
826.625	25411
826.765	25415
826.904	25445
827.044	25110
827.183	25183
827.323	24985
827.462	25080
827.601	25080
827.741	24996
827.88	25057
828.02	24985
828.159	25004
828.298	25088
828.437	25244
828.577	24890
828.716	25118
828.855	25034
828.994	24837
829.134	24817
829.273	24837
829.412	24806
829.551	24764
829.69	24810
829.829	24791
829.968	24757
830.107	24871
830.246	24589
830.385	24654
830.524	24635
830.663	24681
830.802	24505
830.941	24597
831.08	24357
831.219	24528
831.357	24486
831.496	24677
831.635	24388
831.774	24262
831.913	24262
832.051	24216
832.19	24140
832.329	24171
832.467	24018
832.606	23988
832.744	23939
832.883	24068
833.022	24026
833.16	24049
833.299	24174
833.437	23965
833.576	24110
833.714	24079
833.852	24057
833.991	24205
834.129	24178
834.267	24182
834.406	24140
834.544	24258
834.682	24110
834.821	24167
834.959	24270
835.097	23996
835.235	24171
835.373	23931
835.511	24083
835.65	24136
835.788	23920
835.926	23733
836.064	23752
836.202	23756
836.34	24038
836.478	24034
836.615	23931
836.753	24087
836.891	23992
837.029	24026
837.167	23980
837.305	23798
837.443	23908
837.58	23863
837.718	23889
837.856	23813
837.993	23828
838.131	23813
838.269	23737
838.406	23741
838.544	23589
838.681	23509
838.819	23277
838.956	23326
839.094	23151
839.231	23372
839.369	23368
839.506	23771
839.643	23478
839.781	23277
839.918	23299
840.055	23208
840.193	23193
840.33	23258
840.467	23208
840.604	23143
840.742	23524
840.879	23006
841.016	23060
841.153	23109
841.29	23258
841.427	23170
841.564	23189
841.701	23204
841.838	23185
841.975	23075
842.112	23029
842.249	22946
842.385	22869
842.522	23140
842.659	22999
842.796	22892
842.933	22889
843.069	22946
843.206	22972
843.343	23006
843.479	22911
843.616	22984
843.752	22748
843.889	22675
844.025	22831
844.162	22721
844.298	22725
844.435	22626
844.571	22683
844.708	22835
844.844	22873
844.98	22812
845.117	22725
845.253	22538
845.389	22417
845.525	22611
845.661	22561
845.798	22584
845.934	22519
846.07	22390
846.206	22569
846.342	22618
846.478	22382
846.614	22257
846.75	22021
846.886	22215
847.022	22287
847.158	22306
847.294	22169
847.429	22249
847.565	22128
847.701	22413
847.837	21915
847.972	21857
848.108	22074
848.244	21934
848.379	21930
848.515	21686
848.65	21739
848.786	21778
848.921	21861
849.057	21857
849.192	21895
849.328	21781
849.463	21724
849.598	21679
849.734	21614
849.869	21633
850.004	21526
850.14	21530
850.275	21530
850.41	21367
850.545	21481
850.68	21576
850.815	21603
850.95	21511
851.085	21599
851.22	21500
851.355	21530
851.49	21466
851.625	21576
851.76	21545
851.895	21500
852.03	21507
852.165	21660
852.299	21587
852.434	21519
852.569	21523
852.703	21458
852.838	21454
852.973	21538
853.107	21606
853.242	21469
853.376	21374
853.511	21150
853.645	21393
853.78	21450
853.914	21386
854.048	21291
854.183	21291
854.317	21351
854.451	21557
854.585	21348
854.72	21298
854.854	21481
854.988	21336
855.122	21374
855.256	21195
855.39	21348
855.524	21469
855.658	21310
855.792	21321
855.926	21386
856.06	21401
856.194	21488
856.327	21386
856.461	21207
856.595	21313
856.729	21336
856.862	21325
856.996	21454
857.13	21420
857.263	21477
857.397	21439
857.53	21252
857.664	21492
857.797	21481
857.931	21450
858.064	21359
858.197	21370
858.331	21488
858.464	21252
858.597	21157
858.731	21340
858.864	21420
858.997	21218
859.13	21283
859.263	21313
859.396	21431
859.529	21462
859.662	21325
859.795	21214
859.928	21272
860.061	21447
860.194	21424
860.327	21401
860.46	21344
860.592	21519
860.725	21492
860.858	21408
860.99	21306
861.123	21233
861.256	21298
861.388	21428
861.521	21922
861.653	21192
861.786	21001
861.918	21138
862.05	21138
862.183	21306
862.315	21363
862.447	21351
862.58	21180
862.712	21001
862.844	21013
862.976	21017
863.108	21093
863.24	21542
863.372	20967
863.504	21043
863.636	20937
863.768	21157
863.9	21020
864.032	21001
864.164	21062
864.296	21119
864.428	21165
864.559	21108
864.691	21055
864.823	21077
864.954	21066
865.086	20975
865.217	20868
865.349	20910
865.48	20819
865.612	20941
865.743	21043
865.875	20986
866.006	20956
866.137	20963
866.269	20971
866.4	20861
866.531	20868
866.662	20804
866.793	20883
866.924	20910
867.055	20861
867.186	20838
867.317	20845
867.448	20758
867.579	20880
867.71	20743
867.841	20689
867.972	20788
868.103	20986
868.233	20876
868.364	20842
868.495	21028
868.625	21150
868.756	21256
868.886	21070
869.017	21154
869.147	21116
869.278	21214
869.408	21169
869.539	21123
869.669	21260
869.799	21169
869.929	21287
870.06	21138
870.19	21363
870.32	21397
870.45	21477
870.58	21549
870.71	21686
870.84	21652
870.97	21492
871.1	21538
871.23	21770
871.36	21694
871.489	21713
871.619	21599
871.749	21728
871.879	21854
872.008	21823
872.138	21808
872.267	21789
872.397	21679
872.526	21511
872.656	21587
872.785	21564
872.915	21694
873.044	21797
873.173	21793
873.303	21751
873.432	21743
873.561	21717
873.69	21751
873.819	21698
873.948	21762
874.077	21705
874.206	21686
874.335	21671
874.464	21831
874.593	21895
874.722	22017
874.851	21911
874.979	21895
875.108	22044
875.237	21884
875.365	21823
875.494	21991
875.623	21960
875.751	21903
875.88	22025
876.008	22120
876.136	22116
876.265	22485
876.393	22421
876.521	22432
876.65	22470
876.778	22417
876.906	22268
877.034	22303
877.162	22371
877.29	22386
877.418	22265
877.546	22246
877.674	22291
877.802	22325
877.93	22443
878.058	22173
878.185	22200
878.313	22295
878.441	22131
878.568	22261
878.696	22325
878.824	22318
878.951	22348
879.079	22443
879.206	22546
879.333	22371
879.461	22371
879.588	22443
879.715	22462
879.842	22565
879.97	22333
880.097	22139
880.224	22116
880.351	22131
880.478	22154
880.605	22177
880.732	22147
880.859	22432
880.986	22158
881.112	22101
881.239	21926
881.366	21819
881.493	21812
881.619	21762
881.746	21739
881.872	21618
881.999	21694
882.125	21599
882.252	21717
882.378	21629
882.505	21682
882.631	21606
882.757	21382
882.883	21504
883.01	21485
883.136	21302
883.262	21268
883.388	21218
883.514	21389
883.64	21435
883.766	21348
883.892	21127
884.018	21096
884.143	21283
884.269	21462
884.395	21043
884.52	21093
884.646	21039
884.772	20960
884.897	21013
885.023	20994
885.148	21207
885.274	21108
885.399	21180
885.524	21074
885.65	21066
885.775	21077
885.9	21070
886.025	21176
886.15	21066
886.275	21119
886.4	20990
886.525	21024
886.65	20994
886.775	21077
886.9	21188
887.025	21329
887.149	20998
887.274	20883
887.399	20876
887.523	20864
887.648	20773
887.773	20769
887.897	20796
888.021	20807
888.146	20712
888.27	20902
888.395	20933
888.519	20815
888.643	20895
888.767	20910
888.891	20705
889.015	20575
889.139	20689
889.263	20571
889.387	20708
889.511	20804
889.635	20735
889.759	20606
889.883	20541
890.006	20674
890.13	20659
890.254	20530
890.377	20556
890.501	20400
890.624	20313
890.748	20347
890.871	20256
890.995	20115
891.118	20096
891.241	20214
891.364	20191
891.488	20206
891.611	20191
891.734	20183
891.857	20259
891.98	20183
892.103	20267
892.226	20183
892.349	20149
892.471	20058
892.594	20062
892.717	20134
892.839	20065
892.962	20024
893.085	20081
893.207	20100
893.33	20058
893.452	20016
893.575	20157
893.697	20088
893.819	20138
893.941	20199
894.064	20164
894.186	20054
894.308	20027
894.43	20153
894.552	20271
894.674	20191
894.796	19947
894.918	20092
895.04	20027
895.161	20130
895.283	20122
895.405	19967
895.526	20008
895.648	20016
895.769	20050
895.891	20130
896.012	20191
896.134	20024
896.255	19978
896.376	20100
896.498	20100
896.619	20084
896.74	20210
896.861	20069
896.982	20370
897.103	20393
897.224	20461
897.345	20259
897.466	20145
897.587	20267
897.708	20423
897.828	20275
897.949	20244
898.07	20069
898.19	20214
898.311	20324
898.431	20214
898.552	20157
898.672	20370
898.792	20290
898.913	20275
899.033	20199
899.153	20202
899.273	20035
899.393	20065
899.513	20161
899.633	20001
899.753	19989
899.873	20058
899.993	20031
900.113	20008
900.232	20046
900.352	19993
900.472	19871
900.591	19841
900.711	19944
900.83	19738
900.95	19875
901.069	19932
901.189	19685
901.308	19529
901.427	19441
901.546	19434
901.665	19472
901.784	19324
901.904	19278
902.023	19152
902.141	19023
902.26	18939
902.379	19069
902.498	18958
902.617	18890
902.735	18840
902.854	18878
902.973	18882
903.091	18570
903.21	18528
903.328	18513
903.446	18464
903.565	18350
903.683	18403
903.801	18140
903.919	18285
904.038	18289
904.156	18186
904.274	18266
904.392	18045
904.51	18117
904.627	18148
904.745	18209
904.863	18296
904.981	17878
905.098	17809
905.216	17813
905.334	17870
905.451	17843
905.569	17752
905.686	17882
905.803	17870
905.921	17589
906.038	17695
906.155	17672
906.272	17509
906.389	17532
906.506	17425
906.623	17345
906.74	17280
906.857	17242
906.974	17307
907.091	17315
907.208	17425
907.324	17436
907.441	17258
907.557	17094
907.674	17155
907.79	16984
907.907	17102
908.023	17155
908.139	17010
908.256	16972
908.372	17045
908.488	17033
908.604	16717
908.72	16820
908.836	16824
908.952	16733
909.068	16812
909.184	16949
909.3	16816
909.415	16908
909.531	16713
909.647	16512
909.762	16538
909.878	16538
909.993	16508
910.108	16573
910.224	16462
910.339	16451
910.454	16371
910.57	16322
910.685	16223
910.8	16443
910.915	16459
911.03	16280
911.145	16082
911.259	16093
911.374	16154
911.489	16044
911.604	16013
911.718	15934
911.833	15861
911.947	15751
912.062	15774
912.176	15819
912.291	15861
912.405	15812
912.519	15964
912.633	16109
912.748	15895
912.862	15823
912.976	15751
913.09	15561
913.204	15595
913.318	15698
913.431	15770
913.545	15686
913.659	15652
913.772	15595
913.886	15557
914	15526
914.113	15492
914.226	15530
914.34	15538
914.453	15397
914.566	15500
914.68	15344
914.793	15306
914.906	15150
915.019	15142
915.132	15028
915.245	15036
915.358	15161
915.47	15089
915.583	15131
915.696	15116
915.809	15192
915.921	15237
916.034	15097
916.146	15036
916.259	14960
916.371	15104
916.483	14933
916.595	14921
916.708	14899
916.82	14967
916.932	14880
917.044	14819
917.156	14788
917.268	14701
917.38	14811
917.491	14697
917.603	14746
917.715	14727
917.826	14823
917.938	14731
918.049	14590
918.161	14663
918.272	14785
918.384	14758
918.495	14625
918.606	14469
918.717	14480
918.828	14613
918.939	14488
919.05	14328
919.161	14480
919.272	14244
919.383	14389
919.494	14568
919.604	14655
919.715	14457
919.826	14381
919.936	14495
920.047	14518
920.157	14396
920.267	14594
920.378	14415
920.488	14400
920.598	14526
920.708	14773
920.818	14644
920.928	14549
921.038	14853
921.148	14697
921.258	14480
921.368	14366
921.477	14176
921.587	14164
921.697	14039
921.806	14202
921.916	14031
922.025	13830
922.134	13871
922.244	13780
922.353	13833
922.462	13658
922.571	13677
922.68	13563
922.789	13502
922.898	13464
923.007	13392
923.116	13483
923.224	13388
923.333	13415
923.442	13358
923.55	13312
923.659	13358
923.767	13255
923.876	13308
923.984	13304
924.092	13194
924.201	13236
924.309	13225
924.417	13263
924.525	13107
924.633	13149
924.741	13970
924.849	13004
924.956	13114
925.064	12886
925.172	12795
925.279	12844
925.387	12954
925.494	12875
925.602	13008
925.709	12977
925.816	12779
925.924	12806
926.031	12795
926.138	12856
926.245	12829
926.352	12738
926.459	12875
926.566	12939
926.673	12749
926.779	12525
926.886	12631
926.993	12445
927.099	12479
927.206	12407
927.312	12490
927.419	12445
927.525	12460
927.631	12494
927.737	12361
927.843	12311
927.95	12186
928.056	12251
928.162	12289
928.267	12304
928.373	12837
928.479	12270
928.585	12144
928.69	12205
928.796	12239
928.901	12129
929.007	12034
929.112	12087
929.218	12087
929.323	12045
929.428	11988
929.533	12159
929.638	11874
929.743	11992
929.848	12007
929.953	11958
930.058	11885
930.163	11752
930.267	11745
930.372	11870
930.477	11745
930.581	11870
930.685	11733
930.79	11570
930.894	11554
930.998	11501
931.103	11680
931.207	11402
931.311	11201
931.415	11208
931.519	10987
931.623	10885
