Data from test_V78500241_1118.txt Node
Date: Fri Mar 25 15:17:38 CST 2022
User: usil
Spectrometer: V785-0024
Trigger mode: 0
Integration Time (sec): 4.000000E-1
Scans to average: 1
Nonlinearity correction enabled: false
Boxcar width: 0
Storing dark spectrum: false
XAxis mode: Wavelengths
Number of Pixels in Spectrum: 1024
>>>>>Begin Spectral Data<<<<<
801.071	28207
801.214	27994
801.356	27876
801.499	27770
801.641	27797
801.783	27823
801.926	27785
802.068	27690
802.211	27625
802.353	27492
802.496	27500
802.638	27454
802.78	27294
802.923	27351
803.065	27268
803.208	27408
803.35	27321
803.492	27450
803.635	27557
803.777	27485
803.919	27614
804.061	27922
804.204	27595
804.346	27485
804.488	27462
804.63	27405
804.773	27473
804.915	27648
805.057	27671
805.199	27545
805.341	27629
805.483	27816
805.626	27622
805.768	27469
805.91	27663
806.052	27759
806.194	27701
806.336	27743
806.478	27804
806.62	27827
806.762	27934
806.904	28040
807.046	28207
807.188	28169
807.33	28150
807.472	28226
807.614	28002
807.756	28078
807.898	28048
808.04	27880
808.182	27941
808.324	27960
808.465	28067
808.607	28120
808.749	28139
808.891	28645
809.033	28489
809.174	28394
809.316	28405
809.458	28265
809.6	28341
809.741	28436
809.883	28550
810.025	28736
810.166	28771
810.308	28622
810.45	28630
810.591	28447
810.733	28466
810.875	28371
811.016	28329
811.158	28230
811.299	28363
811.441	28493
811.582	28462
811.724	28409
811.865	28386
812.007	28276
812.148	28390
812.29	28516
812.431	28573
812.573	28801
812.714	28759
812.855	28881
812.997	29048
813.138	29151
813.279	29006
813.421	28896
813.562	28930
813.703	28607
813.845	28691
813.986	28249
814.127	28219
814.268	28032
814.41	28211
814.551	27994
814.692	28215
814.833	28051
814.974	28055
815.115	27994
815.256	27960
815.397	27979
815.539	27953
815.68	27838
815.821	27960
815.962	27941
816.103	27850
816.244	27865
816.385	27618
816.526	27610
816.666	27469
816.807	27348
816.948	27416
817.089	27572
817.23	27435
817.371	27393
817.512	27389
817.653	27329
817.793	27214
817.934	27389
818.075	27591
818.216	27370
818.356	27378
818.497	27325
818.638	27108
818.778	27123
818.919	27245
819.06	27363
819.2	27424
819.341	27481
819.481	27504
819.622	27526
819.762	27743
819.903	27603
820.043	27583
820.184	27526
820.324	27447
820.465	27739
820.605	27367
820.746	27374
820.886	27321
821.026	27564
821.167	27523
821.307	27450
821.447	27477
821.588	27294
821.728	27093
821.868	26971
822.008	26872
822.149	26887
822.289	26887
822.429	26609
822.569	26575
822.709	26587
822.849	26351
822.99	26400
823.13	26514
823.27	26309
823.41	26263
823.55	26256
823.69	26202
823.83	26278
823.97	26183
824.11	25989
824.25	26012
824.389	25921
824.529	26115
824.669	26084
824.809	26122
824.949	26172
825.089	26172
825.228	26119
825.368	25879
825.508	26012
825.648	25970
825.787	26172
825.927	26092
826.067	25959
826.206	26024
826.346	26062
826.485	26199
826.625	25951
826.765	26107
826.904	25940
827.044	25788
827.183	25704
827.323	25628
827.462	25753
827.601	25704
827.741	25708
827.88	25708
828.02	25639
828.159	25502
828.298	25700
828.437	25590
828.577	25571
828.716	25635
828.855	25681
828.994	25388
829.134	25396
829.273	25358
829.412	25426
829.551	25430
829.69	25365
829.829	25324
829.968	25476
830.107	25502
830.246	25285
830.385	25240
830.524	25293
830.663	25198
830.802	25004
830.941	24943
831.08	24939
831.219	25160
831.357	25084
831.496	25346
831.635	25050
831.774	24867
831.913	24833
832.051	24772
832.19	24753
832.329	24837
832.467	24658
832.606	24456
832.744	24608
832.883	24734
833.022	24635
833.16	24642
833.299	24642
833.437	24844
833.576	24692
833.714	24700
833.852	24669
833.991	24700
834.129	24829
834.267	24810
834.406	24673
834.544	24738
834.682	24749
834.821	24715
834.959	24875
835.097	24635
835.235	24783
835.373	24703
835.511	24703
835.65	24540
835.788	24475
835.926	24433
836.064	24369
836.202	24509
836.34	24597
836.478	24631
836.615	24570
836.753	24544
836.891	24703
837.029	24509
837.167	24509
837.305	24490
837.443	24380
837.58	24308
837.718	24544
837.856	24441
837.993	24369
838.131	24395
838.269	24243
838.406	24224
838.544	24182
838.681	24155
838.819	24076
838.956	23920
839.094	23817
839.231	23961
839.369	24057
839.506	24243
839.643	24277
839.781	23897
839.918	23718
840.055	23893
840.193	23901
840.33	23764
840.467	23870
840.604	23809
840.742	23996
840.879	23539
841.016	23676
841.153	23775
841.29	23950
841.427	23832
841.564	23756
841.701	23870
841.838	23691
841.975	23817
842.112	23661
842.249	23642
842.385	23543
842.522	23847
842.659	23638
842.796	23482
842.933	23448
843.069	23615
843.206	23501
843.343	23611
843.479	23543
843.616	23516
843.752	23349
843.889	23288
844.025	23349
844.162	23326
844.298	23452
844.435	23303
844.571	23337
844.708	23345
844.844	23417
844.98	23425
845.117	23292
845.253	23250
845.389	23102
845.525	23227
845.661	23220
845.798	23025
845.934	23140
846.07	22999
846.206	23075
846.342	23322
846.478	23083
846.614	22839
846.75	22839
846.886	22774
847.022	22968
847.158	22782
847.294	22721
847.429	22965
847.565	22721
847.701	23113
847.837	22569
847.972	22447
848.108	22557
848.244	22561
848.379	22443
848.515	22318
848.65	22386
848.786	22390
848.921	22367
849.057	22550
849.192	22554
849.328	22470
849.463	22428
849.598	22226
849.734	22333
849.869	22238
850.004	22154
850.14	22226
850.275	22070
850.41	22040
850.545	22044
850.68	22162
850.815	22101
850.95	22147
851.085	22348
851.22	22261
851.355	22318
851.49	22143
851.625	22124
851.76	22086
851.895	22120
852.03	22082
852.165	22219
852.299	22021
852.434	22215
852.569	22166
852.703	22067
852.838	22097
852.973	22360
853.107	22192
853.242	22109
853.376	22025
853.511	21812
853.645	21975
853.78	22093
853.914	22021
854.048	21876
854.183	21956
854.317	22029
854.451	22162
854.585	22013
854.72	21759
854.854	22044
854.988	22025
855.122	22013
855.256	21956
855.39	21854
855.524	22013
855.658	21994
855.792	21945
855.926	22013
856.06	22112
856.194	22116
856.327	22040
856.461	21998
856.595	21831
856.729	21960
856.862	22082
856.996	22025
857.13	21972
857.263	22055
857.397	22055
857.53	21850
857.664	21926
857.797	21949
857.931	22006
858.064	21941
858.197	22105
858.331	21949
858.464	21922
858.597	21800
858.731	21930
858.864	21854
858.997	21827
859.13	21953
859.263	22048
859.396	22067
859.529	21937
859.662	21941
859.795	21972
859.928	21892
860.061	22238
860.194	22082
860.327	22051
860.46	21941
860.592	22093
860.725	22124
860.858	22150
860.99	21945
861.123	21937
861.256	21823
861.388	21812
861.521	22660
861.653	21953
861.786	21778
861.918	21770
862.05	21835
862.183	21911
862.315	21800
862.447	22040
862.58	21869
862.712	21717
862.844	21656
862.976	21762
863.108	21698
863.24	22200
863.372	21622
863.504	21701
863.636	21675
863.768	21755
863.9	21671
864.032	21561
864.164	21610
864.296	21545
864.428	21736
864.559	21739
864.691	21770
864.823	21595
864.954	21663
865.086	21682
865.217	21568
865.349	21447
865.48	21572
865.612	21576
865.743	21667
865.875	21633
866.006	21351
866.137	21572
866.269	21507
866.4	21500
866.531	21283
866.662	21355
866.793	21428
866.924	21439
867.055	21458
867.186	21454
867.317	21351
867.448	21439
867.579	21488
867.71	21348
867.841	21511
867.972	21542
868.103	21428
868.233	21435
868.364	21397
868.495	21606
868.625	21812
868.756	21861
868.886	21614
869.017	21633
869.147	21774
869.278	21907
869.408	21701
869.539	21709
869.669	21835
869.799	21835
869.929	21854
870.06	21781
870.19	22101
870.32	21911
870.45	22048
870.58	22135
870.71	22158
870.84	22211
870.97	22067
871.1	22139
871.23	22337
871.36	22287
871.489	22265
871.619	22272
871.749	22246
871.879	22299
872.008	22341
872.138	22379
872.267	22318
872.397	22192
872.526	22120
872.656	22223
872.785	22093
872.915	22303
873.044	22341
873.173	22421
873.303	22306
873.432	22455
873.561	22337
873.69	22402
873.819	22299
873.948	22363
874.077	22363
874.206	22325
874.335	22230
874.464	22394
874.593	22554
874.722	22459
874.851	22481
874.979	22565
875.108	22542
875.237	22504
875.365	22440
875.494	22531
875.623	22580
875.751	22481
875.88	22455
876.008	22752
876.136	22729
876.265	22972
876.393	23025
876.521	22968
876.65	22961
876.778	22949
876.906	22942
877.034	22869
877.162	22896
877.29	22866
877.418	22873
877.546	22927
877.674	22854
877.802	22881
877.93	22847
878.058	22797
878.185	22656
878.313	22961
878.441	22972
878.568	22755
878.696	22820
878.824	22843
878.951	22835
879.079	23029
879.206	23174
879.333	23124
879.461	22866
879.588	23041
879.715	23071
879.842	23033
879.97	22927
880.097	22706
880.224	22767
880.351	22717
880.478	22729
880.605	22535
880.732	22713
880.859	22942
880.986	22698
881.112	22683
881.239	22599
881.366	22516
881.493	22459
881.619	22284
881.746	22322
881.872	22303
881.999	22177
882.125	22333
882.252	22276
882.378	22325
882.505	22333
882.631	22257
882.757	22044
882.883	22109
883.01	21861
883.136	21975
883.262	21918
883.388	21755
883.514	21968
883.64	21838
883.766	21895
883.892	21751
884.018	21701
884.143	21903
884.269	21949
884.395	21637
884.52	21583
884.646	21603
884.772	21496
884.897	21549
885.023	21599
885.148	21785
885.274	21827
885.399	21622
885.524	21633
885.65	21682
885.775	21709
885.9	21606
886.025	21705
886.15	21751
886.275	21466
886.4	21515
886.525	21591
886.65	21507
886.775	21561
886.9	21610
887.025	21797
887.149	21622
887.274	21378
887.399	21443
887.523	21382
887.648	21340
887.773	21435
887.897	21443
888.021	21405
888.146	21310
888.27	21420
888.395	21382
888.519	21359
888.643	21370
888.767	21397
888.891	21321
889.015	21245
889.139	21264
889.263	21142
889.387	21260
889.511	21363
889.635	21195
889.759	21062
889.883	21055
890.006	21222
890.13	21116
890.254	21058
890.377	21081
890.501	20975
890.624	20872
890.748	20933
890.871	20769
890.995	20758
891.118	20606
891.241	20724
891.364	20743
891.488	20708
891.611	20724
891.734	20705
891.857	20769
891.98	20830
892.103	20880
892.226	20762
892.349	20769
892.471	20526
892.594	20655
892.717	20564
892.839	20735
892.962	20655
893.085	20568
893.207	20526
893.33	20495
893.452	20495
893.575	20602
893.697	20564
893.819	20693
893.941	20712
894.064	20857
894.186	20598
894.308	20537
894.43	20735
894.552	20705
894.674	20682
894.796	20526
894.918	20587
895.04	20655
895.161	20609
895.283	20621
895.405	20545
895.526	20625
895.648	20621
895.769	20560
895.891	20644
896.012	20735
896.134	20781
896.255	20571
896.376	20629
896.498	20545
896.619	20686
896.74	20659
896.861	20598
896.982	20918
897.103	20914
897.224	20705
897.345	20891
897.466	20792
897.587	20876
897.708	20918
897.828	20792
897.949	20804
898.07	20670
898.19	20746
898.311	20853
898.431	20800
898.552	20750
898.672	20906
898.792	20830
898.913	20815
899.033	20750
899.153	20518
899.273	20590
899.393	20571
899.513	20556
899.633	20571
899.753	20640
899.873	20427
899.993	20560
900.113	20442
900.232	20454
900.352	20503
900.472	20396
900.591	20275
900.711	20404
900.83	20218
900.95	20278
901.069	20427
901.189	20168
901.308	19982
901.427	19795
901.546	19833
901.665	19928
901.784	19811
901.904	19776
902.023	19719
902.141	19506
902.26	19533
902.379	19525
902.498	19346
902.617	19430
902.735	19460
902.854	19316
902.973	19297
903.091	19099
903.21	19107
903.328	18962
903.446	18958
903.565	18958
903.683	18829
903.801	18776
903.919	18833
904.038	18760
904.156	18707
904.274	18681
904.392	18639
904.51	18570
904.627	18540
904.745	18570
904.863	18768
904.981	18448
905.098	18334
905.216	18254
905.334	18254
905.451	18372
905.569	18258
905.686	18308
905.803	18270
905.921	18095
906.038	18148
906.155	18136
906.272	18011
906.389	18003
906.506	17821
906.623	17882
906.74	17882
906.857	17608
906.974	17767
907.091	17824
907.208	17859
907.324	17866
907.441	17760
907.557	17657
907.674	17547
907.79	17391
907.907	17528
908.023	17558
908.139	17619
908.256	17364
908.372	17429
908.488	17436
908.604	17330
908.72	17181
908.836	17254
908.952	17227
909.068	17246
909.184	17334
909.3	17284
909.415	17258
909.531	17345
909.647	16961
909.762	17014
909.878	16911
909.993	16995
910.108	16908
910.224	16961
910.339	16999
910.454	16763
910.57	16812
910.685	16691
910.8	16923
910.915	16885
911.03	16767
911.145	16592
911.259	16626
911.374	16558
911.489	16455
911.604	16371
911.718	16299
911.833	16272
911.947	16238
912.062	16131
912.176	16234
912.291	16276
912.405	16162
912.519	16409
912.633	16481
912.748	16337
912.862	16143
912.976	16093
913.09	15941
913.204	16147
913.318	16074
913.431	16177
913.545	16116
913.659	16147
913.772	15873
913.886	15964
914	15861
914.113	16029
914.226	15956
914.34	16021
914.453	15766
914.566	15945
914.68	15732
914.793	15812
914.906	15606
915.019	15595
915.132	15488
915.245	15538
915.358	15481
915.47	15534
915.583	15481
915.696	15519
915.809	15652
915.921	15633
916.034	15500
916.146	15374
916.259	15435
916.371	15515
916.483	15359
916.595	15302
916.708	15321
916.82	15272
916.932	15245
917.044	15367
917.156	15116
917.268	15150
917.38	15119
917.491	15127
917.603	15127
917.715	15245
917.826	15222
917.938	15074
918.049	15028
918.161	15089
918.272	15161
918.384	15104
918.495	15074
918.606	14899
918.717	14727
918.828	14948
918.939	14960
919.05	14743
919.161	14891
919.272	14636
919.383	14716
919.494	14853
919.604	15112
919.715	14785
919.826	14727
919.936	14834
920.047	14872
920.157	14944
920.267	15047
920.378	14800
920.488	14762
920.598	14986
920.708	15192
920.818	14971
920.928	14899
921.038	15169
921.148	15131
921.258	14735
921.368	14773
921.477	14644
921.587	14457
921.697	14412
921.806	14545
921.916	14419
922.025	14298
922.134	14199
922.244	14180
922.353	14191
922.462	14024
922.571	14024
922.68	13967
922.789	13788
922.898	13890
923.007	13818
923.116	13852
923.224	13811
923.333	13833
923.442	13719
923.55	13620
923.659	13597
923.767	13727
923.876	13544
923.984	13594
924.092	13567
924.201	13586
924.309	13658
924.417	13655
924.525	13453
924.633	13384
924.741	14423
924.849	13278
924.956	13419
925.064	13392
925.172	13282
925.279	13308
925.387	13266
925.494	13247
925.602	13388
925.709	13312
925.816	13076
925.924	13183
926.031	13320
926.138	13114
926.245	13225
926.352	13091
926.459	13175
926.566	13221
926.673	13095
926.779	13114
926.886	13061
926.993	12840
927.099	12757
927.206	12711
927.312	12760
927.419	12783
927.525	12749
927.631	12734
927.737	12620
927.843	12745
927.95	12502
928.056	12555
928.162	12532
928.267	12635
928.373	13179
928.479	12646
928.585	12372
928.69	12471
928.796	12681
928.901	12513
929.007	12334
929.112	12525
929.218	12479
929.323	12300
929.428	12216
929.533	12456
929.638	12235
929.743	12311
929.848	12388
929.953	12262
930.058	12095
930.163	12068
930.267	11996
930.372	12159
930.477	11912
930.581	12205
930.685	12068
930.79	11927
930.894	11912
930.998	11847
931.103	12038
931.207	11642
931.311	11501
931.415	11471
931.519	11242
931.623	11322
