Data from test_V78500241_521.txt Node
Date: Fri Mar 25 15:13:29 CST 2022
User: usil
Spectrometer: V785-0024
Trigger mode: 0
Integration Time (sec): 4.000000E-1
Scans to average: 1
Nonlinearity correction enabled: false
Boxcar width: 0
Storing dark spectrum: false
XAxis mode: Wavelengths
Number of Pixels in Spectrum: 1024
>>>>>Begin Spectral Data<<<<<
801.071	27614
801.214	27572
801.356	27211
801.499	27184
801.641	27070
801.783	27180
801.926	27203
802.068	26986
802.211	26948
802.353	26895
802.496	26743
802.638	26689
802.78	26735
802.923	26670
803.065	26701
803.208	26712
803.35	26781
803.492	26861
803.635	26861
803.777	26762
803.919	26708
804.061	27142
804.204	26899
804.346	26849
804.488	26804
804.63	26963
804.773	26746
804.915	26876
805.057	26963
805.199	26948
805.341	26849
805.483	26914
805.626	26948
805.768	26781
805.91	26880
806.052	26952
806.194	26864
806.336	27180
806.478	26986
806.62	26914
806.762	27157
806.904	27207
807.046	27473
807.188	27420
807.33	27389
807.472	27443
807.614	27519
807.756	27306
807.898	27256
808.04	27245
808.182	27207
808.324	27298
808.465	27127
808.607	27272
808.749	27705
808.891	27675
809.033	27808
809.174	27743
809.316	27622
809.458	27656
809.6	27401
809.741	27766
809.883	27637
810.025	27808
810.166	27865
810.308	27998
810.45	27987
810.591	27876
810.733	27660
810.875	27675
811.016	27591
811.158	27618
811.299	27606
811.441	27736
811.582	27812
811.724	27523
811.865	27572
812.007	27603
812.148	27439
812.29	27545
812.431	27709
812.573	27930
812.714	28116
812.855	27994
812.997	28303
813.138	28421
813.279	28341
813.421	28166
813.562	28116
813.703	28051
813.845	27846
813.986	27587
814.127	27370
814.268	27416
814.41	27367
814.551	27222
814.692	27340
814.833	27275
814.974	27203
815.115	27348
815.256	27131
815.397	27146
815.539	27165
815.68	27104
815.821	27093
815.962	27062
816.103	27055
816.244	26868
816.385	26834
816.526	26910
816.666	26636
816.807	26579
816.948	26651
817.089	26689
817.23	26777
817.371	26568
817.512	26564
817.653	26514
817.793	26453
817.934	26393
818.075	26663
818.216	26636
818.356	26495
818.497	26419
818.638	26267
818.778	26240
818.919	26309
819.06	26385
819.2	26453
819.341	26427
819.481	26442
819.622	26701
819.762	26796
819.903	26804
820.043	26773
820.184	26663
820.324	26716
820.465	26762
820.605	26613
820.746	26792
820.886	26522
821.026	26648
821.167	26632
821.307	26777
821.447	26583
821.588	26385
821.728	26442
821.868	26103
822.008	25963
822.149	26077
822.289	25982
822.429	25807
822.569	25757
822.709	25750
822.849	25594
822.99	25643
823.13	25472
823.27	25609
823.41	25301
823.55	25266
823.69	25422
823.83	25369
823.97	25171
824.11	25091
824.25	25183
824.389	25240
824.529	25339
824.669	25190
824.809	25324
824.949	25312
825.089	25263
825.228	25213
825.368	25103
825.508	25065
825.648	24996
825.787	25141
825.927	25152
826.067	25053
826.206	25137
826.346	25042
826.485	25053
826.625	25061
826.765	25228
826.904	25160
827.044	24897
827.183	24833
827.323	24745
827.462	24935
827.601	24821
827.741	24825
827.88	24833
828.02	24661
828.159	24787
828.298	24745
828.437	24760
828.577	24837
828.716	24852
828.855	24749
828.994	24502
829.134	24578
829.273	24551
829.412	24532
829.551	24418
829.69	24578
829.829	24494
829.968	24582
830.107	24620
830.246	24464
830.385	24403
830.524	24346
830.663	24414
830.802	24129
830.941	24186
831.08	24136
831.219	24235
831.357	24174
831.496	24194
831.635	24106
831.774	24053
831.913	24015
832.051	23893
832.19	23847
832.329	23836
832.467	23901
832.606	23828
832.744	23866
832.883	23866
833.022	23786
833.16	23843
833.299	23752
833.437	23836
833.576	23950
833.714	23817
833.852	23874
833.991	23980
834.129	23935
834.267	23889
834.406	23783
834.544	23935
834.682	23802
834.821	23726
834.959	24098
835.097	23813
835.235	23851
835.373	23874
835.511	23805
835.65	23684
835.788	23748
835.926	23661
836.064	23501
836.202	23608
836.34	23672
836.478	23676
836.615	23642
836.753	23767
836.891	23707
837.029	23585
837.167	23634
837.305	23577
837.443	23630
837.58	23638
837.718	23680
837.856	23592
837.993	23448
838.131	23425
838.269	23497
838.406	23398
838.544	23395
838.681	23337
838.819	23174
838.956	23071
839.094	23094
839.231	23075
839.369	23273
839.506	23467
839.643	23136
839.781	23090
839.918	22904
840.055	23064
840.193	22930
840.33	22961
840.467	23014
840.604	22839
840.742	23227
840.879	22820
841.016	22904
841.153	22934
841.29	23090
841.427	23006
841.564	22995
841.701	22934
841.838	22927
841.975	22820
842.112	22713
842.249	22774
842.385	22755
842.522	22847
842.659	22675
842.796	22706
842.933	22702
843.069	22653
843.206	22607
843.343	22850
843.479	22675
843.616	22755
843.752	22432
843.889	22504
844.025	22630
844.162	22546
844.298	22554
844.435	22466
844.571	22531
844.708	22493
844.844	22694
844.98	22626
845.117	22618
845.253	22447
845.389	22367
845.525	22367
845.661	22440
845.798	22166
845.934	22322
846.07	22200
846.206	22173
846.342	22310
846.478	22162
846.614	22010
846.75	21926
846.886	21850
847.022	21911
847.158	21800
847.294	21926
847.429	21903
847.565	21949
847.701	22223
847.837	21751
847.972	21633
848.108	21793
848.244	21831
848.379	21545
848.515	21530
848.65	21488
848.786	21595
848.921	21561
849.057	21739
849.192	21599
849.328	21633
849.463	21572
849.598	21435
849.734	21412
849.869	21450
850.004	21348
850.14	21279
850.275	21275
850.41	21351
850.545	21226
850.68	21256
850.815	21431
850.95	21317
851.085	21610
851.22	21435
851.355	21393
851.49	21252
851.625	21317
851.76	21272
851.895	21260
852.03	21104
852.165	21199
852.299	21310
852.434	21374
852.569	21272
852.703	21275
852.838	21336
852.973	21386
853.107	21515
853.242	21218
853.376	21135
853.511	21039
853.645	21146
853.78	21180
853.914	21112
854.048	21074
854.183	21127
854.317	21184
854.451	21218
854.585	21081
854.72	21074
854.854	21192
854.988	21112
855.122	21089
855.256	21062
855.39	21195
855.524	21294
855.658	21066
855.792	21241
855.926	21135
856.06	21241
856.194	21214
856.327	21203
856.461	21089
856.595	21089
856.729	21180
856.862	21298
856.996	21138
857.13	21173
857.263	21367
857.397	21207
857.53	21188
857.664	21176
857.797	21173
857.931	21154
858.064	21161
858.197	21249
858.331	21108
858.464	21180
858.597	21085
858.731	21138
858.864	21085
858.997	21119
859.13	21313
859.263	21032
859.396	21207
859.529	21138
859.662	21157
859.795	21070
859.928	21146
860.061	21294
860.194	21336
860.327	21096
860.46	21169
860.592	21195
860.725	21344
860.858	21302
860.99	21180
861.123	21039
861.256	21150
861.388	21260
861.521	21778
861.653	21085
861.786	20960
861.918	21028
862.05	21009
862.183	21043
862.315	21218
862.447	21207
862.58	21074
862.712	20762
862.844	20781
862.976	20952
863.108	20990
863.24	21081
863.372	20868
863.504	20838
863.636	20731
863.768	20788
863.9	20883
864.032	20910
864.164	20891
864.296	20735
864.428	20868
864.559	20929
864.691	20845
864.823	20883
864.954	20800
865.086	20785
865.217	20823
865.349	20644
865.48	20708
865.612	20689
865.743	20956
865.875	20697
866.006	20800
866.137	20925
866.269	20583
866.4	20785
866.531	20663
866.662	20648
866.793	20754
866.924	20655
867.055	20644
867.186	20693
867.317	20712
867.448	20552
867.579	20571
867.71	20640
867.841	20689
867.972	20659
868.103	20621
868.233	20705
868.364	20606
868.495	20765
868.625	20861
868.756	20948
868.886	20819
869.017	20929
869.147	20975
869.278	21047
869.408	20956
869.539	20842
869.669	20933
869.799	20933
869.929	21032
870.06	21036
870.19	21199
870.32	21135
870.45	21313
870.58	21424
870.71	21397
870.84	21424
870.97	21317
871.1	21397
871.23	21488
871.36	21534
871.489	21462
871.619	21500
871.749	21363
871.879	21523
872.008	21656
872.138	21466
872.267	21561
872.397	21367
872.526	21298
872.656	21374
872.785	21302
872.915	21473
873.044	21553
873.173	21500
873.303	21652
873.432	21534
873.561	21751
873.69	21561
873.819	21557
873.948	21648
874.077	21686
874.206	21374
874.335	21580
874.464	21728
874.593	21850
874.722	21663
874.851	21861
874.979	21759
875.108	21789
875.237	21660
875.365	21553
875.494	21800
875.623	21804
875.751	21736
875.88	21899
876.008	21861
876.136	21968
876.265	22162
876.393	22226
876.521	22390
876.65	22280
876.778	22131
876.906	22074
877.034	22112
877.162	22109
877.29	22032
877.418	22124
877.546	22101
877.674	22147
877.802	22032
877.93	22101
878.058	22070
878.185	22013
878.313	22044
878.441	22177
878.568	22006
878.696	22086
878.824	22154
878.951	22105
879.079	22314
879.206	22466
879.333	22173
879.461	22097
879.588	22261
879.715	22337
879.842	22379
879.97	22223
880.097	22032
880.224	21876
880.351	22021
880.478	21998
880.605	21797
880.732	21975
880.859	22097
880.986	21915
881.112	22067
881.239	21770
881.366	21671
881.493	21606
881.619	21519
881.746	21507
881.872	21557
881.999	21443
882.125	21439
882.252	21549
882.378	21466
882.505	21496
882.631	21397
882.757	21317
882.883	21279
883.01	21287
883.136	21119
883.262	21051
883.388	21093
883.514	21245
883.64	21256
883.766	21176
883.892	21062
884.018	21116
884.143	21173
884.269	21218
884.395	20994
884.52	20777
884.646	20842
884.772	20754
884.897	20883
885.023	20868
885.148	20921
885.274	20975
885.399	20960
885.524	20834
885.65	20773
885.775	20895
885.9	20823
886.025	21039
886.15	20937
886.275	20880
886.4	20667
886.525	20792
886.65	20849
886.775	20686
886.9	21032
887.025	20979
887.149	20785
887.274	20644
887.399	20526
887.523	20484
887.648	20473
887.773	20552
887.897	20712
888.021	20762
888.146	20560
888.27	20746
888.395	20735
888.519	20693
888.643	20667
888.767	20667
888.891	20522
889.015	20537
889.139	20492
889.263	20514
889.387	20541
889.511	20651
889.635	20568
889.759	20412
889.883	20290
890.006	20446
890.13	20492
890.254	20248
890.377	20233
890.501	20214
890.624	20062
890.748	20218
890.871	20100
890.995	19959
891.118	19913
891.241	20031
891.364	19940
891.488	20008
891.611	19921
891.734	20001
891.857	20073
891.98	20001
892.103	20119
892.226	19951
892.349	20016
892.471	19875
892.594	19932
892.717	19909
892.839	19936
892.962	19890
893.085	19951
893.207	19898
893.33	19704
893.452	19887
893.575	19974
893.697	19856
893.819	20073
893.941	20084
894.064	20180
894.186	19868
894.308	19822
894.43	19978
894.552	19951
894.674	20054
894.796	19677
894.918	19993
895.04	19909
895.161	19936
895.283	19959
895.405	19772
895.526	19909
895.648	19860
895.769	19845
895.891	19871
896.012	19906
896.134	19978
896.255	19799
896.376	20008
896.498	19830
896.619	19986
896.74	19879
896.861	19944
896.982	20180
897.103	20320
897.224	20149
897.345	20122
897.466	19967
897.587	20081
897.708	20183
897.828	20202
897.949	20054
898.07	19841
898.19	19936
898.311	20122
898.431	20096
898.552	20012
898.672	20035
898.792	20180
898.913	20187
899.033	20092
899.153	20046
899.273	19822
899.393	19925
899.513	19989
899.633	19883
899.753	19875
899.873	19856
899.993	19913
900.113	19913
900.232	19864
900.352	19784
900.472	19700
900.591	19601
900.711	19715
900.83	19556
900.95	19681
901.069	19791
901.189	19552
901.308	19316
901.427	19335
901.546	19232
901.665	19293
901.784	19183
901.904	19080
902.023	18913
902.141	18806
902.26	18779
902.379	18829
902.498	18738
902.617	18711
902.735	18665
902.854	18757
902.973	18627
903.091	18532
903.21	18494
903.328	18403
903.446	18330
903.565	18213
903.683	18213
903.801	18049
903.919	18091
904.038	18091
904.156	18007
904.274	18049
904.392	17980
904.51	17946
904.627	17984
904.745	18034
904.863	18117
904.981	17840
905.098	17737
905.216	17676
905.334	17634
905.451	17668
905.569	17680
905.686	17665
905.803	17748
905.921	17444
906.038	17577
906.155	17600
906.272	17326
906.389	17360
906.506	17231
906.623	17280
906.74	17178
906.857	17041
906.974	17048
907.091	17364
907.208	17444
907.324	17208
907.441	17147
907.557	16965
907.674	16953
907.79	16850
907.907	16816
908.023	16949
908.139	16968
908.256	16919
908.372	16816
908.488	16828
908.604	16752
908.72	16672
908.836	16733
908.952	16645
909.068	16778
909.184	16816
909.3	16645
909.415	16683
909.531	16649
909.647	16352
909.762	16402
909.878	16367
909.993	16394
910.108	16352
910.224	16272
910.339	16337
910.454	16177
910.57	16131
910.685	16036
910.8	16432
910.915	16386
911.03	16082
911.145	16158
911.259	15937
911.374	15831
911.489	15895
911.604	15831
911.718	15690
911.833	15812
911.947	15644
912.062	15492
912.176	15641
912.291	15686
912.405	15751
912.519	15907
912.633	15953
912.748	15743
912.862	15644
912.976	15477
913.09	15473
913.204	15469
913.318	15549
913.431	15629
913.545	15644
913.659	15580
913.772	15519
913.886	15382
914	15344
914.113	15492
914.226	15416
914.34	15306
914.453	15199
914.566	15473
914.68	15188
914.793	15173
914.906	15020
915.019	14887
915.132	14868
915.245	14864
915.358	14868
915.47	15005
915.583	14937
915.696	15013
915.809	14960
915.921	15074
916.034	14914
916.146	14906
916.259	14754
916.371	14842
916.483	14895
916.595	14781
916.708	14762
916.82	14758
916.932	14796
917.044	14686
917.156	14667
917.268	14579
917.38	14686
917.491	14617
917.603	14632
917.715	14720
917.826	14716
917.938	14571
918.049	14377
918.161	14537
918.272	14720
918.384	14613
918.495	14503
918.606	14374
918.717	14286
918.828	14377
918.939	14362
919.05	14221
919.161	14313
919.272	14081
919.383	14282
919.494	14332
919.604	14571
919.715	14374
919.826	14221
919.936	14400
920.047	14427
920.157	14339
920.267	14545
920.378	14294
920.488	14313
920.598	14454
920.708	14621
920.818	14530
920.928	14446
921.038	14564
921.148	14560
921.258	14290
921.368	14214
921.477	14069
921.587	14103
921.697	13906
921.806	13989
921.916	13936
922.025	13868
922.134	13655
922.244	13757
922.353	13738
922.462	13514
922.571	13582
922.68	13464
922.789	13354
922.898	13354
923.007	13301
923.116	13388
923.224	13365
923.333	13377
923.442	13240
923.55	13145
923.659	13221
923.767	13301
923.876	13156
923.984	13232
924.092	13069
924.201	13160
924.309	13072
924.417	13129
924.525	13099
924.633	13179
924.741	13814
924.849	12749
924.956	12993
925.064	12768
925.172	12760
925.279	12738
925.387	12875
925.494	12829
925.602	12909
925.709	12783
925.816	12681
925.924	12726
926.031	12867
926.138	12665
926.245	12749
926.352	12639
926.459	12741
926.566	12787
926.673	12654
926.779	12566
926.886	12509
926.993	12407
927.099	12319
927.206	12289
927.312	12327
927.419	12369
927.525	12350
927.631	12414
927.737	12315
927.843	12182
927.95	12102
928.056	12133
928.162	12140
928.267	12197
928.373	12692
928.479	12258
928.585	11965
928.69	12175
928.796	12087
928.901	12091
929.007	11897
929.112	12068
929.218	11946
929.323	11912
929.428	11939
929.533	11961
929.638	11824
929.743	11889
929.848	11885
929.953	11912
930.058	11703
930.163	11619
930.267	11604
930.372	11752
930.477	11596
930.581	11764
930.685	11649
930.79	11490
930.894	11558
930.998	11505
931.103	11596
931.207	11231
931.311	11185
931.415	11060
931.519	10824
931.623	10854
