Data from test_V78500241_486.txt Node
Date: Fri Mar 25 15:13:14 CST 2022
User: usil
Spectrometer: V785-0024
Trigger mode: 0
Integration Time (sec): 4.000000E-1
Scans to average: 1
Nonlinearity correction enabled: false
Boxcar width: 0
Storing dark spectrum: false
XAxis mode: Wavelengths
Number of Pixels in Spectrum: 1024
>>>>>Begin Spectral Data<<<<<
801.071	27378
801.214	27427
801.356	27260
801.499	27138
801.641	26948
801.783	27058
801.926	27074
802.068	26925
802.211	26826
802.353	26906
802.496	26781
802.638	26609
802.78	26663
802.923	26537
803.065	26495
803.208	26617
803.35	26568
803.492	26724
803.635	26823
803.777	26788
803.919	26670
804.061	27017
804.204	26849
804.346	26773
804.488	26708
804.63	26796
804.773	26667
804.915	26857
805.057	26876
805.199	26868
805.341	26868
805.483	26975
805.626	26998
805.768	26861
805.91	26963
806.052	26876
806.194	26842
806.336	27108
806.478	26986
806.62	26750
806.762	27096
806.904	27260
807.046	27344
807.188	27431
807.33	27401
807.472	27348
807.614	27424
807.756	27233
807.898	27131
808.04	27214
808.182	27218
808.324	27123
808.465	27249
808.607	27310
808.749	27545
808.891	27675
809.033	27770
809.174	27523
809.316	27580
809.458	27679
809.6	27443
809.741	27485
809.883	27610
810.025	27827
810.166	27876
810.308	27648
810.45	27876
810.591	27800
810.733	27679
810.875	27599
811.016	27412
811.158	27466
811.299	27564
811.441	27751
811.582	27701
811.724	27549
811.865	27557
812.007	27553
812.148	27504
812.29	27466
812.431	27717
812.573	27793
812.714	27766
812.855	27975
812.997	28200
813.138	28284
813.279	28238
813.421	28070
813.562	27998
813.703	27911
813.845	27812
813.986	27382
814.127	27424
814.268	27165
814.41	27233
814.551	27203
814.692	27169
814.833	27214
814.974	27207
815.115	27245
815.256	27108
815.397	27066
815.539	27230
815.68	27001
815.821	26998
815.962	26979
816.103	26979
816.244	26811
816.385	26811
816.526	26724
816.666	26686
816.807	26526
816.948	26507
817.089	26571
817.23	26541
817.371	26621
817.512	26530
817.653	26522
817.793	26396
817.934	26484
818.075	26476
818.216	26400
818.356	26358
818.497	26495
818.638	26347
818.778	26317
818.919	26290
819.06	26358
819.2	26450
819.341	26484
819.481	26473
819.622	26750
819.762	27001
819.903	26826
820.043	26712
820.184	26499
820.324	26670
820.465	26526
820.605	26705
820.746	26667
820.886	26396
821.026	26629
821.167	26560
821.307	26533
821.447	26492
821.588	26484
821.728	26358
821.868	26153
822.008	25982
822.149	26111
822.289	25890
822.429	25655
822.569	25521
822.709	25666
822.849	25381
822.99	25411
823.13	25377
823.27	25441
823.41	25285
823.55	25194
823.69	25148
823.83	25263
823.97	25206
824.11	25046
824.25	25164
824.389	25004
824.529	25160
824.669	25168
824.809	25168
824.949	25057
825.089	25187
825.228	25072
825.368	25046
825.508	24935
825.648	24882
825.787	25080
825.927	25065
826.067	25107
826.206	24905
826.346	25057
826.485	25107
826.625	24840
826.765	25110
826.904	25069
827.044	24757
827.183	24764
827.323	24517
827.462	24711
827.601	24658
827.741	24616
827.88	24772
828.02	24448
828.159	24604
828.298	24688
828.437	24707
828.577	24688
828.716	24867
828.855	24722
828.994	24448
829.134	24319
829.273	24452
829.412	24380
829.551	24270
829.69	24426
829.829	24475
829.968	24540
830.107	24486
830.246	24346
830.385	24399
830.524	24361
830.663	24213
830.802	24102
830.941	24110
831.08	23851
831.219	24041
831.357	23950
831.496	24251
831.635	24098
831.774	24018
831.913	23999
832.051	23741
832.19	23794
832.329	23786
832.467	23707
832.606	23642
832.744	23630
832.883	23710
833.022	23779
833.16	23676
833.299	23832
833.437	23570
833.576	23786
833.714	23809
833.852	23874
833.991	23794
834.129	23863
834.267	23798
834.406	23687
834.544	23752
834.682	23897
834.821	23676
834.959	23916
835.097	23764
835.235	23665
835.373	23691
835.511	23600
835.65	23589
835.788	23573
835.926	23516
836.064	23440
836.202	23425
836.34	23543
836.478	23821
836.615	23646
836.753	23581
836.891	23726
837.029	23558
837.167	23661
837.305	23452
837.443	23554
837.58	23512
837.718	23551
837.856	23474
837.993	23455
838.131	23516
838.269	23341
838.406	23398
838.544	23220
838.681	23178
838.819	23071
838.956	22915
839.094	23033
839.231	23048
839.369	23117
839.506	23379
839.643	23181
839.781	23064
839.918	22980
840.055	22771
840.193	22934
840.33	22850
840.467	22812
840.604	23044
840.742	23136
840.879	22683
841.016	22892
841.153	22835
841.29	22968
841.427	22957
841.564	22873
841.701	22892
841.838	22786
841.975	22782
842.112	22809
842.249	22740
842.385	22649
842.522	22847
842.659	22618
842.796	22611
842.933	22527
843.069	22573
843.206	22675
843.343	22656
843.479	22683
843.616	22641
843.752	22462
843.889	22462
844.025	22649
844.162	22455
844.298	22508
844.435	22386
844.571	22352
844.708	22386
844.844	22508
844.98	22577
845.117	22603
845.253	22280
845.389	22230
845.525	22314
845.661	22215
845.798	22238
845.934	22131
846.07	22120
846.206	22150
846.342	22207
846.478	22265
846.614	21903
846.75	21865
846.886	21937
847.022	22059
847.158	21922
847.294	21926
847.429	21812
847.565	21751
847.701	22128
847.837	21591
847.972	21625
848.108	21804
848.244	21580
848.379	21450
848.515	21549
848.65	21473
848.786	21397
848.921	21462
849.057	21618
849.192	21618
849.328	21523
849.463	21401
849.598	21458
849.734	21374
849.869	21310
850.004	21291
850.14	21348
850.275	21249
850.41	21306
850.545	21173
850.68	21058
850.815	21317
850.95	21264
851.085	21325
851.22	21359
851.355	21211
851.49	21321
851.625	21283
851.76	21146
851.895	21192
852.03	21108
852.165	21310
852.299	21275
852.434	21473
852.569	21226
852.703	21283
852.838	21340
852.973	21348
853.107	21359
853.242	21222
853.376	21100
853.511	20842
853.645	21020
853.78	21245
853.914	20914
854.048	21119
854.183	21043
854.317	21135
854.451	21203
854.585	21058
854.72	21024
854.854	21096
854.988	21051
855.122	20921
855.256	20906
855.39	21032
855.524	21108
855.658	21116
855.792	21131
855.926	21001
856.06	21154
856.194	21001
856.327	21055
856.461	20937
856.595	21032
856.729	20971
856.862	21093
856.996	21127
857.13	21157
857.263	21142
857.397	21154
857.53	21089
857.664	21089
857.797	21085
857.931	21150
858.064	21047
858.197	21272
858.331	21005
858.464	21036
858.597	21005
858.731	21112
858.864	20979
858.997	21058
859.13	21062
859.263	21096
859.396	21116
859.529	21055
859.662	21028
859.795	20982
859.928	21039
860.061	21195
860.194	21268
860.327	21123
860.46	21104
860.592	21199
860.725	21226
860.858	21032
860.99	21028
861.123	20952
861.256	21028
861.388	20937
861.521	21785
861.653	20921
861.786	20963
861.918	20845
862.05	20960
862.183	20975
862.315	21036
862.447	21173
862.58	21051
862.712	20724
862.844	20708
862.976	20872
863.108	20819
863.24	21093
863.372	20746
863.504	20727
863.636	20727
863.768	20823
863.9	20788
864.032	20686
864.164	20762
864.296	20842
864.428	20792
864.559	20765
864.691	20830
864.823	20773
864.954	20735
865.086	20845
865.217	20754
865.349	20594
865.48	20609
865.612	20720
865.743	20777
865.875	20758
866.006	20583
866.137	20727
866.269	20625
866.4	20632
866.531	20613
866.662	20518
866.793	20590
866.924	20708
867.055	20606
867.186	20571
867.317	20625
867.448	20587
867.579	20514
867.71	20446
867.841	20541
867.972	20705
868.103	20659
868.233	20682
868.364	20598
868.495	20689
868.625	20785
868.756	20891
868.886	20891
869.017	20895
869.147	20906
869.278	20979
869.408	20857
869.539	20857
869.669	20937
869.799	20880
869.929	21028
870.06	20921
870.19	21138
870.32	21188
870.45	21351
870.58	21146
870.71	21310
870.84	21420
870.97	21294
871.1	21275
871.23	21530
871.36	21420
871.489	21302
871.619	21473
871.749	21435
871.879	21500
872.008	21576
872.138	21412
872.267	21481
872.397	21279
872.526	21317
872.656	21237
872.785	21412
872.915	21580
873.044	21625
873.173	21519
873.303	21523
873.432	21496
873.561	21595
873.69	21580
873.819	21477
873.948	21633
874.077	21370
874.206	21477
874.335	21572
874.464	21507
874.593	21701
874.722	21652
874.851	21690
874.979	21629
875.108	21800
875.237	21732
875.365	21652
875.494	21610
875.623	21812
875.751	21606
875.88	21819
876.008	21755
876.136	21823
876.265	22139
876.393	22185
876.521	22074
876.65	22116
876.778	22162
876.906	22044
877.034	21956
877.162	21964
877.29	22006
877.418	22093
877.546	22109
877.674	22021
877.802	22124
877.93	21960
878.058	21979
878.185	21930
878.313	22002
878.441	22074
878.568	21846
878.696	21991
878.824	22257
878.951	22177
879.079	22181
879.206	22459
879.333	22234
879.461	22154
879.588	22051
879.715	22215
879.842	22303
879.97	21934
880.097	21884
880.224	21975
880.351	21911
880.478	21869
880.605	21800
880.732	21854
880.859	22188
880.986	21895
881.112	21895
881.239	21808
881.366	21671
881.493	21587
881.619	21378
881.746	21485
881.872	21511
881.999	21450
882.125	21378
882.252	21580
882.378	21458
882.505	21591
882.631	21272
882.757	21150
882.883	21203
883.01	21169
883.136	21093
883.262	21070
883.388	20937
883.514	21192
883.64	21199
883.766	21074
883.892	20853
884.018	20944
884.143	21138
884.269	21199
884.395	20842
884.52	20758
884.646	20788
884.772	20777
884.897	20705
885.023	20781
885.148	20849
885.274	20979
885.399	20910
885.524	20708
885.65	20777
885.775	20777
885.9	20819
886.025	20868
886.15	20826
886.275	20693
886.4	20720
886.525	20682
886.65	20552
886.775	20727
886.9	20857
887.025	20853
887.149	20727
887.274	20674
887.399	20602
887.523	20636
887.648	20625
887.773	20514
887.897	20590
888.021	20587
888.146	20545
888.27	20701
888.395	20594
888.519	20655
888.643	20575
888.767	20651
888.891	20454
889.015	20309
889.139	20465
889.263	20366
889.387	20533
889.511	20518
889.635	20560
889.759	20396
889.883	20381
890.006	20381
890.13	20465
890.254	20252
890.377	20343
890.501	20088
890.624	20092
890.748	20134
890.871	20058
890.995	19864
891.118	19818
891.241	20046
891.364	19951
891.488	20073
891.611	19898
891.734	20031
891.857	20020
891.98	19989
892.103	19986
892.226	19947
892.349	19955
892.471	19734
892.594	19822
892.717	19902
892.839	19936
892.962	19879
893.085	19913
893.207	19845
893.33	19803
893.452	19750
893.575	19917
893.697	19875
893.819	20005
893.941	19936
894.064	20001
894.186	19776
894.308	19841
894.43	19986
894.552	20077
894.674	19879
894.796	19761
894.918	19822
895.04	19868
895.161	19921
895.283	19921
895.405	19757
895.526	19871
895.648	19906
895.769	19925
895.891	19856
896.012	19993
896.134	19856
896.255	19784
896.376	19746
896.498	19951
896.619	20088
896.74	19978
896.861	20024
896.982	20103
897.103	20374
897.224	20218
897.345	20134
897.466	20050
897.587	20157
897.708	20206
897.828	20100
897.949	19944
898.07	19974
898.19	20020
898.311	20187
898.431	20073
898.552	20065
898.672	19982
898.792	20183
898.913	20016
899.033	19944
899.153	19909
899.273	19677
899.393	19731
899.513	19879
899.633	19883
899.753	19795
899.873	19807
899.993	19788
900.113	19761
900.232	19750
900.352	19658
900.472	19685
900.591	19567
900.711	19472
900.83	19647
900.95	19647
901.069	19601
901.189	19331
901.308	19266
901.427	19046
901.546	19259
901.665	19247
901.784	19126
901.904	19126
902.023	18989
902.141	18806
902.26	18772
902.379	18894
902.498	18772
902.617	18547
902.735	18696
902.854	18795
902.973	18669
903.091	18498
903.21	18304
903.328	18315
903.446	18327
903.565	18228
903.683	18247
903.801	18087
903.919	18136
904.038	18072
904.156	17935
904.274	18079
904.392	17958
904.51	17908
904.627	17946
904.745	18060
904.863	17942
904.981	17718
905.098	17600
905.216	17779
905.334	17566
905.451	17657
905.569	17699
905.686	17661
905.803	17627
905.921	17482
906.038	17463
906.155	17482
906.272	17337
906.389	17292
906.506	17143
906.623	17105
906.74	17231
906.857	17086
906.974	17098
907.091	17246
907.208	17200
907.324	17132
907.441	17098
907.557	16934
907.674	16915
907.79	16854
907.907	16866
908.023	16915
908.139	16869
908.256	16847
908.372	16835
908.488	16809
908.604	16630
908.72	16618
908.836	16599
908.952	16603
909.068	16596
909.184	16740
909.3	16664
909.415	16554
909.531	16489
909.647	16451
909.762	16356
909.878	16242
909.993	16402
910.108	16341
910.224	16181
910.339	16287
910.454	16246
910.57	16253
910.685	15941
910.8	16325
910.915	16261
911.03	16086
911.145	16090
911.259	16082
911.374	15941
911.489	15869
911.604	15781
911.718	15675
911.833	15606
911.947	15667
912.062	15454
912.176	15698
912.291	15709
912.405	15591
912.519	15770
912.633	15968
912.748	15652
912.862	15660
912.976	15519
913.09	15321
913.204	15382
913.318	15450
913.431	15591
913.545	15542
913.659	15534
913.772	15428
913.886	15405
914	15313
914.113	15329
914.226	15450
914.34	15378
914.453	15157
914.566	15321
914.68	15173
914.793	15142
914.906	15013
915.019	15024
915.132	14880
915.245	14830
915.358	14902
915.47	14880
915.583	14758
915.696	14830
915.809	14986
915.921	15013
916.034	14777
916.146	14716
916.259	14758
916.371	14887
916.483	14842
916.595	14701
916.708	14663
916.82	14701
916.932	14708
917.044	14716
917.156	14708
917.268	14495
917.38	14511
917.491	14564
917.603	14571
917.715	14651
917.826	14629
917.938	14511
918.049	14370
918.161	14469
918.272	14598
918.384	14644
918.495	14518
918.606	14374
918.717	14237
918.828	14431
918.939	14385
919.05	14157
919.161	14320
919.272	14206
919.383	14225
919.494	14362
919.604	14564
919.715	14324
919.826	14267
919.936	14237
920.047	14355
920.157	14248
920.267	14575
920.378	14343
920.488	14252
920.598	14328
920.708	14579
920.818	14404
920.928	14473
921.038	14663
921.148	14514
921.258	14259
921.368	14240
921.477	14107
921.587	13989
921.697	13959
921.806	13997
921.916	13875
922.025	13753
922.134	13666
922.244	13613
922.353	13674
922.462	13613
922.571	13514
922.68	13381
922.789	13350
922.898	13297
923.007	13278
923.116	13331
923.224	13301
923.333	13297
923.442	13228
923.55	13183
923.659	13289
923.767	13145
923.876	13095
923.984	13236
924.092	12993
924.201	13110
924.309	13015
924.417	13034
924.525	12973
924.633	12993
924.741	13909
924.849	12745
924.956	12993
925.064	12867
925.172	12707
925.279	12730
925.387	12734
925.494	12719
925.602	12829
925.709	12795
925.816	12635
925.924	12677
926.031	12764
926.138	12757
926.245	12650
926.352	12608
926.459	12768
926.566	12726
926.673	12635
926.779	12555
926.886	12460
926.993	12384
927.099	12342
927.206	12281
927.312	12273
927.419	12319
927.525	12388
927.631	12372
927.737	12300
927.843	12220
927.95	12095
928.056	12175
928.162	12194
928.267	12216
928.373	12745
928.479	12232
928.585	12011
928.69	12098
928.796	12163
928.901	12079
929.007	11870
929.112	11980
929.218	12015
929.323	11916
929.428	11893
929.533	12007
929.638	11764
929.743	11885
929.848	11882
929.953	11847
930.058	11775
930.163	11573
930.267	11600
930.372	11726
930.477	11554
930.581	11752
930.685	11585
930.79	11433
930.894	11535
930.998	11455
931.103	11570
931.207	11250
931.311	11079
931.415	10953
931.519	10854
931.623	10896
