Data from test_V78500241_1092.txt Node
Date: Fri Mar 25 15:17:27 CST 2022
User: usil
Spectrometer: V785-0024
Trigger mode: 0
Integration Time (sec): 4.000000E-1
Scans to average: 1
Nonlinearity correction enabled: false
Boxcar width: 0
Storing dark spectrum: false
XAxis mode: Wavelengths
Number of Pixels in Spectrum: 1024
>>>>>Begin Spectral Data<<<<<
801.071	28379
801.214	28234
801.356	28116
801.499	28021
801.641	27911
801.783	27941
801.926	27888
802.068	27892
802.211	27865
802.353	27880
802.496	27762
802.638	27720
802.78	27576
802.923	27583
803.065	27629
803.208	27591
803.35	27564
803.492	27728
803.635	27743
803.777	27652
803.919	27876
804.061	28070
804.204	27899
804.346	27690
804.488	27679
804.63	27698
804.773	27743
804.915	27838
805.057	28074
805.199	27774
805.341	27895
805.483	27949
805.626	27983
805.768	27751
805.91	27979
806.052	27983
806.194	27736
806.336	28310
806.478	27998
806.62	27983
806.762	28128
806.904	28188
807.046	28371
807.188	28409
807.33	28428
807.472	28390
807.614	28363
807.756	28253
807.898	28375
808.04	28154
808.182	28352
808.324	28401
808.465	28436
808.607	28497
808.749	28687
808.891	28763
809.033	28702
809.174	28698
809.316	28634
809.458	28702
809.6	28641
809.741	28710
809.883	28653
810.025	28961
810.166	28717
810.308	28900
810.45	28782
810.591	28869
810.733	28630
810.875	28645
811.016	28550
811.158	28569
811.299	28698
811.441	28869
811.582	28843
811.724	28599
811.865	28603
812.007	28721
812.148	28691
812.29	28672
812.431	28713
812.573	29094
812.714	28957
812.855	29094
812.997	29337
813.138	29337
813.279	29334
813.421	29174
813.562	29162
813.703	28953
813.845	28930
813.986	28687
814.127	28561
814.268	28360
814.41	28257
814.551	28363
814.692	28363
814.833	28314
814.974	28257
815.115	28348
815.256	28246
815.397	28223
815.539	28337
815.68	28147
815.821	28135
815.962	27968
816.103	28204
816.244	28158
816.385	27972
816.526	27998
816.666	27743
816.807	27656
816.948	27713
817.089	27762
817.23	27861
817.371	27713
817.512	27549
817.653	27610
817.793	27686
817.934	27641
818.075	27705
818.216	27690
818.356	27766
818.497	27542
818.638	27363
818.778	27530
818.919	27492
819.06	27595
819.2	27511
819.341	27671
819.481	27698
819.622	27774
819.762	27983
819.903	27994
820.043	27827
820.184	27914
820.324	27774
820.465	27987
820.605	27850
820.746	27831
820.886	27690
821.026	27751
821.167	27816
821.307	27762
821.447	27709
821.588	27557
821.728	27591
821.868	27363
822.008	27241
822.149	27058
822.289	27173
822.429	26933
822.569	26785
822.709	26849
822.849	26545
822.99	26758
823.13	26754
823.27	26503
823.41	26503
823.55	26412
823.69	26545
823.83	26469
823.97	26404
824.11	26400
824.25	26191
824.389	26317
824.529	26412
824.669	26351
824.809	26549
824.949	26453
825.089	26393
825.228	26419
825.368	26195
825.508	26221
825.648	26305
825.787	26309
825.927	26259
826.067	26225
826.206	26191
826.346	26339
826.485	26286
826.625	26229
826.765	26301
826.904	26396
827.044	25986
827.183	25989
827.323	25871
827.462	26039
827.601	25940
827.741	26005
827.88	25986
828.02	25890
828.159	25826
828.298	25978
828.437	26096
828.577	25856
828.716	26069
828.855	25860
828.994	25674
829.134	25635
829.273	25696
829.412	25499
829.551	25605
829.69	25586
829.829	25628
829.968	25814
830.107	25746
830.246	25643
830.385	25571
830.524	25479
830.663	25518
830.802	25331
830.941	25369
831.08	25247
831.219	25354
831.357	25343
831.496	25449
831.635	25358
831.774	25206
831.913	25164
832.051	25034
832.19	25015
832.329	25099
832.467	24856
832.606	24890
832.744	24951
832.883	25004
833.022	24901
833.16	25000
833.299	24989
833.437	24932
833.576	24977
833.714	25107
833.852	25057
833.991	25217
834.129	25118
834.267	25088
834.406	25145
834.544	25084
834.682	25137
834.821	25061
834.959	25148
835.097	24943
835.235	25110
835.373	24909
835.511	25027
835.65	24894
835.788	24939
835.926	24749
836.064	24681
836.202	24760
836.34	24871
836.478	24958
836.615	24878
836.753	25004
836.891	24947
837.029	24928
837.167	24795
837.305	24741
837.443	24741
837.58	24532
837.718	24749
837.856	24696
837.993	24654
838.131	24563
838.269	24505
838.406	24555
838.544	24536
838.681	24281
838.819	24323
838.956	24216
839.094	24125
839.231	24247
839.369	24388
839.506	24612
839.643	24418
839.781	24106
839.918	24167
840.055	24171
840.193	24068
840.33	24076
840.467	24098
840.604	24121
840.742	24315
840.879	23912
841.016	24053
841.153	24034
841.29	24243
841.427	24018
841.564	24235
841.701	24022
841.838	24003
841.975	24060
842.112	23996
842.249	23893
842.385	23855
842.522	23999
842.659	23927
842.796	23882
842.933	23847
843.069	23695
843.206	23794
843.343	23863
843.479	23969
843.616	23901
843.752	23668
843.889	23665
844.025	23726
844.162	23623
844.298	23756
844.435	23585
844.571	23649
844.708	23695
844.844	23604
844.98	23764
845.117	23665
845.253	23493
845.389	23421
845.525	23501
845.661	23349
845.798	23364
845.934	23364
846.07	23242
846.206	23307
846.342	23516
846.478	23337
846.614	23170
846.75	22968
846.886	23037
847.022	23079
847.158	23067
847.294	23048
847.429	23071
847.565	23003
847.701	23178
847.837	22790
847.972	22812
848.108	22831
848.244	22866
848.379	22809
848.515	22702
848.65	22531
848.786	22672
848.921	22683
849.057	22744
849.192	22755
849.328	22691
849.463	22778
849.598	22656
849.734	22550
849.869	22580
850.004	22474
850.14	22299
850.275	22337
850.41	22379
850.545	22386
850.68	22356
850.815	22481
850.95	22481
851.085	22615
851.22	22580
851.355	22580
851.49	22481
851.625	22455
851.76	22394
851.895	22200
852.03	22325
852.165	22398
852.299	22390
852.434	22455
852.569	22455
852.703	22360
852.838	22580
852.973	22580
853.107	22527
853.242	22466
853.376	22303
853.511	22112
853.645	22226
853.78	22341
853.914	22390
854.048	22207
854.183	22204
854.317	22322
854.451	22394
854.585	22303
854.72	22196
854.854	22207
854.988	22124
855.122	22219
855.256	22166
855.39	22265
855.524	22322
855.658	22352
855.792	22249
855.926	22329
856.06	22249
856.194	22314
856.327	22276
856.461	22078
856.595	22090
856.729	22246
856.862	22333
856.996	22135
857.13	22299
857.263	22333
857.397	22386
857.53	22226
857.664	22341
857.797	22325
857.931	22287
858.064	22303
858.197	22249
858.331	22211
858.464	22246
858.597	22139
858.731	22249
858.864	22234
858.997	22086
859.13	22204
859.263	22147
859.396	22318
859.529	22211
859.662	22287
859.795	22143
859.928	22196
860.061	22287
860.194	22512
860.327	22234
860.46	22284
860.592	22375
860.725	22379
860.858	22402
860.99	22234
861.123	22211
861.256	22086
861.388	22226
861.521	22847
861.653	22055
861.786	22017
861.918	22036
862.05	22051
862.183	22204
862.315	22192
862.447	22329
862.58	22188
862.712	21876
862.844	21918
862.976	21956
863.108	21968
863.24	22386
863.372	21922
863.504	21880
863.636	22006
863.768	21987
863.9	21972
864.032	21873
864.164	21972
864.296	21956
864.428	22105
864.559	22002
864.691	21979
864.823	21987
864.954	21960
865.086	21842
865.217	21884
865.349	21762
865.48	21884
865.612	21918
865.743	21892
865.875	21838
866.006	21842
866.137	21918
866.269	21884
866.4	21800
866.531	21743
866.662	21682
866.793	21759
866.924	21743
867.055	21732
867.186	21873
867.317	21778
867.448	21671
867.579	21724
867.71	21701
867.841	21587
867.972	21835
868.103	21804
868.233	21804
868.364	21823
868.495	21838
868.625	21987
868.756	22074
868.886	22002
869.017	21907
869.147	22013
869.278	22139
869.408	21994
869.539	21915
869.669	22086
869.799	22032
869.929	22029
870.06	22074
870.19	22268
870.32	22322
870.45	22276
870.58	22303
870.71	22497
870.84	22546
870.97	22512
871.1	22379
871.23	22512
871.36	22554
871.489	22474
871.619	22523
871.749	22512
871.879	22508
872.008	22603
872.138	22630
872.267	22725
872.397	22489
872.526	22466
872.656	22344
872.785	22398
872.915	22668
873.044	22596
873.173	22523
873.303	22607
873.432	22691
873.561	22733
873.69	22683
873.819	22531
873.948	22790
874.077	22634
874.206	22592
874.335	22615
874.464	22729
874.593	22869
874.722	22752
874.851	22858
874.979	22763
875.108	22839
875.237	22797
875.365	22755
875.494	22786
875.623	22911
875.751	22786
875.88	22858
876.008	22934
876.136	22965
876.265	23083
876.393	23379
876.521	23254
876.65	23231
876.778	23181
876.906	23155
877.034	23044
877.162	23193
877.29	22968
877.418	23204
877.546	23200
877.674	23220
877.802	23181
877.93	23136
878.058	23181
878.185	23048
878.313	23136
878.441	23067
878.568	22911
878.696	23079
878.824	23162
878.951	23155
879.079	23318
879.206	23505
879.333	23330
879.461	23220
879.588	23330
879.715	23322
879.842	23528
879.97	23197
880.097	22881
880.224	22858
880.351	23006
880.478	23022
880.605	22965
880.732	23022
880.859	23239
880.986	22854
881.112	22934
881.239	22820
881.366	22713
881.493	22672
881.619	22656
881.746	22626
881.872	22542
881.999	22493
882.125	22440
882.252	22557
882.378	22535
882.505	22637
882.631	22382
882.757	22348
882.883	22432
883.01	22265
883.136	22105
883.262	22074
883.388	22055
883.514	22246
883.64	22143
883.766	22185
883.892	21975
884.018	22067
884.143	22082
884.269	22158
884.395	21968
884.52	21827
884.646	21960
884.772	21831
884.897	21736
885.023	21892
885.148	21907
885.274	21960
885.399	21880
885.524	21918
885.65	21736
885.775	21934
885.9	21831
886.025	21979
886.15	21915
886.275	21857
886.4	21751
886.525	21770
886.65	21842
886.775	21838
886.9	21911
887.025	22055
887.149	21739
887.274	21720
887.399	21591
887.523	21755
887.648	21561
887.773	21504
887.897	21701
888.021	21618
888.146	21534
888.27	21625
888.395	21610
888.519	21701
888.643	21633
888.767	21720
888.891	21526
889.015	21405
889.139	21386
889.263	21462
889.387	21568
889.511	21663
889.635	21477
889.759	21420
889.883	21332
890.006	21450
890.13	21397
890.254	21329
890.377	21332
890.501	21131
890.624	21176
890.748	21131
890.871	20982
890.995	21001
891.118	20971
891.241	20982
891.364	20994
891.488	21165
891.611	20906
891.734	21081
891.857	21009
891.98	20971
892.103	20902
892.226	20830
892.349	20830
892.471	20762
892.594	20765
892.717	20910
892.839	20857
892.962	20807
893.085	20876
893.207	20777
893.33	20743
893.452	20804
893.575	20906
893.697	20921
893.819	20975
893.941	20960
894.064	20887
894.186	20743
894.308	20743
894.43	20883
894.552	20902
894.674	21081
894.796	20712
894.918	20876
895.04	20762
895.161	20868
895.283	20815
895.405	20739
895.526	20910
895.648	20849
895.769	20830
895.891	20857
896.012	20857
896.134	20785
896.255	20838
896.376	20807
896.498	20815
896.619	20838
896.74	20762
896.861	20815
896.982	21161
897.103	21332
897.224	21077
897.345	21058
897.466	20891
897.587	20918
897.708	21165
897.828	21001
897.949	20948
898.07	20754
898.19	20921
898.311	21055
898.431	21066
898.552	21009
898.672	21104
898.792	21081
898.913	21123
899.033	20826
899.153	20944
899.273	20663
899.393	20731
899.513	20739
899.633	20853
899.753	20785
899.873	20739
899.993	20705
900.113	20541
900.232	20689
900.352	20594
900.472	20560
900.591	20518
900.711	20514
900.83	20370
900.95	20552
901.069	20476
901.189	20454
901.308	20168
901.427	20096
901.546	20039
901.665	20164
901.784	20073
901.904	20024
902.023	19959
902.141	19719
902.26	19609
902.379	19723
902.498	19693
902.617	19502
902.735	19632
902.854	19597
902.973	19468
903.091	19236
903.21	19240
903.328	19255
903.446	19278
903.565	18996
903.683	19095
903.801	19027
903.919	18951
904.038	19034
904.156	18787
904.274	18947
904.392	18825
904.51	18798
904.627	18863
904.745	18886
904.863	18814
904.981	18574
905.098	18506
905.216	18521
905.334	18490
905.451	18536
905.569	18498
905.686	18475
905.803	18502
905.921	18224
906.038	18384
906.155	18315
906.272	18186
906.389	18194
906.506	18114
906.623	17999
906.74	18102
906.857	17939
906.974	18003
907.091	17969
907.208	18049
907.324	18003
907.441	17950
907.557	17703
907.674	17646
907.79	17684
907.907	17657
908.023	17764
908.139	17722
908.256	17623
908.372	17634
908.488	17577
908.604	17505
908.72	17398
908.836	17562
908.952	17478
909.068	17471
909.184	17478
909.3	17452
909.415	17463
909.531	17421
909.647	17113
909.762	17132
909.878	17174
909.993	17197
910.108	17128
910.224	17136
910.339	17136
910.454	16980
910.57	16953
910.685	16930
910.8	17109
910.915	17067
911.03	16923
911.145	16866
911.259	16744
911.374	16615
911.489	16637
911.604	16664
911.718	16455
911.833	16466
911.947	16295
912.062	16314
912.176	16489
912.291	16455
912.405	16447
912.519	16668
912.633	16691
912.748	16504
912.862	16432
912.976	16360
913.09	16139
913.204	16257
913.318	16337
913.431	16478
913.545	16325
913.659	16443
913.772	16219
913.886	16169
914	16109
914.113	16139
914.226	16215
914.34	16166
914.453	16006
914.566	16082
914.68	15926
914.793	15854
914.906	15827
915.019	15717
915.132	15637
915.245	15545
915.358	15587
915.47	15701
915.583	15724
915.696	15819
915.809	15762
915.921	15800
916.034	15561
916.146	15587
916.259	15534
916.371	15732
916.483	15652
916.595	15454
916.708	15591
916.82	15477
916.932	15435
917.044	15447
917.156	15340
917.268	15294
917.38	15321
917.491	15283
917.603	15298
917.715	15481
917.826	15370
917.938	15336
918.049	15020
918.161	15268
918.272	15310
918.384	15374
918.495	15169
918.606	15085
918.717	14937
918.828	15119
918.939	15043
919.05	14921
919.161	15047
919.272	14731
919.383	14948
919.494	15028
919.604	15146
919.715	14998
919.826	14895
919.936	15055
920.047	15009
920.157	15028
920.267	15195
920.378	14944
920.488	15017
920.598	15157
920.708	15287
920.818	15123
920.928	15154
921.038	15313
921.148	15264
921.258	14944
921.368	14788
921.477	14720
921.587	14678
921.697	14549
921.806	14705
921.916	14648
922.025	14473
922.134	14298
922.244	14328
922.353	14347
922.462	14248
922.571	14138
922.68	14115
922.789	13974
922.898	13955
923.007	13932
923.116	13989
923.224	14016
923.333	13967
923.442	13947
923.55	13841
923.659	13780
923.767	13890
923.876	13704
923.984	13902
924.092	13704
924.201	13772
924.309	13704
924.417	13746
924.525	13685
924.633	13544
924.741	14549
924.849	13487
924.956	13609
925.064	13491
925.172	13419
925.279	13346
925.387	13441
925.494	13358
925.602	13449
925.709	13434
925.816	13266
925.924	13316
926.031	13449
926.138	13320
926.245	13304
926.352	13179
926.459	13346
926.566	13316
926.673	13183
926.779	13164
926.886	13156
926.993	12924
927.099	12924
927.206	12875
927.312	12875
927.419	13019
927.525	12871
927.631	12913
927.737	12871
927.843	12817
927.95	12620
928.056	12768
928.162	12734
928.267	12779
928.373	13350
928.479	12840
928.585	12673
928.69	12745
928.796	12798
928.901	12593
929.007	12471
929.112	12669
929.218	12536
929.323	12460
929.428	12445
929.533	12559
929.638	12361
929.743	12445
929.848	12475
929.953	12448
930.058	12194
930.163	12209
930.267	12178
930.372	12338
930.477	11996
930.581	12285
930.685	12121
930.79	12015
930.894	12117
930.998	11908
931.103	12072
931.207	11779
931.311	11615
931.415	11474
931.519	11383
931.623	11402
