Data from test_V78500241_2461.txt Node
Date: Fri Mar 25 15:26:59 CST 2022
User: usil
Spectrometer: V785-0024
Trigger mode: 0
Integration Time (sec): 4.000000E-1
Scans to average: 1
Nonlinearity correction enabled: false
Boxcar width: 0
Storing dark spectrum: false
XAxis mode: Wavelengths
Number of Pixels in Spectrum: 1024
>>>>>Begin Spectral Data<<<<<
801.071	26940
801.214	26986
801.356	26541
801.499	26727
801.641	26453
801.783	26438
801.926	26564
802.068	26442
802.211	26446
802.353	26294
802.496	26305
802.638	26237
802.78	26027
802.923	26119
803.065	26005
803.208	26065
803.35	26115
803.492	26126
803.635	26267
803.777	26103
803.919	26259
804.061	26667
804.204	26343
804.346	26172
804.488	26229
804.63	26275
804.773	26161
804.915	26225
805.057	26412
805.199	26195
805.341	26130
805.483	26377
805.626	26320
805.768	26294
805.91	26282
806.052	26442
806.194	26176
806.336	26473
806.478	26278
806.62	26225
806.762	26385
806.904	26594
807.046	26842
807.188	26849
807.33	26781
807.472	26781
807.614	26689
807.756	26667
807.898	26545
808.04	26476
808.182	26613
808.324	26602
808.465	26625
808.607	26800
808.749	26937
808.891	27039
809.033	27085
809.174	26899
809.316	26906
809.458	26925
809.6	26967
809.741	27135
809.883	27180
810.025	27173
810.166	27351
810.308	27123
810.45	27226
810.591	27074
810.733	26933
810.875	26998
811.016	26906
811.158	26956
811.299	27135
811.441	27188
811.582	27192
811.724	26998
811.865	27032
812.007	26830
812.148	26800
812.29	26910
812.431	27116
812.573	27214
812.714	27241
812.855	27344
812.997	27370
813.138	27610
813.279	27553
813.421	27397
813.562	27294
813.703	27192
813.845	27077
813.986	26838
814.127	26598
814.268	26556
814.41	26590
814.551	26503
814.692	26644
814.833	26568
814.974	26427
815.115	26617
815.256	26408
815.397	26419
815.539	26453
815.68	26259
815.821	26290
815.962	26389
816.103	26336
816.244	26275
816.385	26214
816.526	26130
816.666	25864
816.807	25746
816.948	25871
817.089	25986
817.23	25750
817.371	25799
817.512	25822
817.653	25761
817.793	25708
817.934	25871
818.075	25803
818.216	25712
818.356	25624
818.497	25723
818.638	25495
818.778	25571
818.919	25533
819.06	25609
819.2	25712
819.341	25814
819.481	25814
819.622	25955
819.762	26058
819.903	26092
820.043	25898
820.184	25982
820.324	25902
820.465	25860
820.605	25959
820.746	25909
820.886	25693
821.026	25799
821.167	25788
821.307	25799
821.447	25818
821.588	25742
821.728	25624
821.868	25460
822.008	25331
822.149	25266
822.289	25217
822.429	25122
822.569	24909
822.709	24916
822.849	24802
822.99	24795
823.13	24776
823.27	24772
823.41	24490
823.55	24509
823.69	24669
823.83	24593
823.97	24623
824.11	24353
824.25	24254
824.389	24494
824.529	24433
824.669	24445
824.809	24464
824.949	24509
825.089	24399
825.228	24445
825.368	24304
825.508	24129
825.648	24270
825.787	24232
825.927	24270
826.067	24220
826.206	24277
826.346	24266
826.485	24357
826.625	24281
826.765	24395
826.904	24239
827.044	24114
827.183	24038
827.323	23874
827.462	23733
827.601	23942
827.741	23904
827.88	23992
828.02	23851
828.159	23946
828.298	23942
828.437	23878
828.577	23942
828.716	24026
828.855	23885
828.994	23760
829.134	23699
829.273	23748
829.412	23592
829.551	23672
829.69	23668
829.829	23798
829.968	23870
830.107	23798
830.246	23748
830.385	23661
830.524	23604
830.663	23467
830.802	23280
830.941	23246
831.08	23277
831.219	23353
831.357	23414
831.496	23516
831.635	23231
831.774	23124
831.913	23029
832.051	23075
832.19	23124
832.329	23105
832.467	23075
832.606	22976
832.744	22919
832.883	22965
833.022	23048
833.16	23018
833.299	23044
833.437	23033
833.576	23067
833.714	22999
833.852	23143
833.991	22927
834.129	22953
834.267	23044
834.406	23197
834.544	23132
834.682	23102
834.821	22995
834.959	23208
835.097	22923
835.235	23098
835.373	23018
835.511	22942
835.65	22949
835.788	22896
835.926	22771
836.064	22664
836.202	22824
836.34	22904
836.478	22953
836.615	22847
836.753	22839
836.891	22972
837.029	22976
837.167	22889
837.305	22911
837.443	22782
837.58	22706
837.718	22759
837.856	22805
837.993	22611
838.131	22759
838.269	22660
838.406	22717
838.544	22592
838.681	22470
838.819	22268
838.956	22280
839.094	22295
839.231	22306
839.369	22360
839.506	22580
839.643	22405
839.781	22150
839.918	22238
840.055	22116
840.193	22238
840.33	22128
840.467	22299
840.604	22253
840.742	22459
840.879	22150
841.016	22074
841.153	22139
841.29	22196
841.427	22211
841.564	22204
841.701	22097
841.838	22093
841.975	22139
842.112	22185
842.249	22055
842.385	22139
842.522	22238
842.659	22044
842.796	21968
842.933	21956
843.069	21823
843.206	21956
843.343	22010
843.479	21918
843.616	21812
843.752	21713
843.889	21675
844.025	21838
844.162	21690
844.298	21759
844.435	21698
844.571	21686
844.708	21766
844.844	21835
844.98	21869
845.117	21759
845.253	21686
845.389	21671
845.525	21652
845.661	21462
845.798	21507
845.934	21545
846.07	21287
846.206	21534
846.342	21625
846.478	21428
846.614	21218
846.75	21104
846.886	21077
847.022	21275
847.158	21283
847.294	21180
847.429	21249
847.565	21058
847.701	21454
847.837	20944
847.972	20845
848.108	21135
848.244	20944
848.379	20792
848.515	20765
848.65	20872
848.786	20724
848.921	20785
849.057	20899
849.192	20857
849.328	20785
849.463	20720
849.598	20788
849.734	20724
849.869	20617
850.004	20590
850.14	20648
850.275	20480
850.41	20495
850.545	20560
850.68	20499
850.815	20606
850.95	20579
851.085	20670
851.22	20621
851.355	20545
851.49	20575
851.625	20530
851.76	20598
851.895	20522
852.03	20526
852.165	20545
852.299	20674
852.434	20674
852.569	20495
852.703	20549
852.838	20606
852.973	20674
853.107	20621
853.242	20488
853.376	20419
853.511	20298
853.645	20286
853.78	20438
853.914	20298
854.048	20339
854.183	20301
854.317	20507
854.451	20602
854.585	20438
854.72	20290
854.854	20511
854.988	20248
855.122	20332
855.256	20263
855.39	20362
855.524	20469
855.658	20366
855.792	20336
855.926	20339
856.06	20457
856.194	20511
856.327	20385
856.461	20355
856.595	20336
856.729	20328
856.862	20484
856.996	20278
857.13	20351
857.263	20488
857.397	20461
857.53	20355
857.664	20358
857.797	20423
857.931	20457
858.064	20480
858.197	20450
858.331	20339
858.464	20286
858.597	20244
858.731	20355
858.864	20362
858.997	20298
859.13	20343
859.263	20339
859.396	20457
859.529	20298
859.662	20377
859.795	20282
859.928	20454
860.061	20396
860.194	20575
860.327	20351
860.46	20351
860.592	20488
860.725	20473
860.858	20503
860.99	20301
861.123	20301
861.256	20324
861.388	20351
861.521	20777
861.653	20240
861.786	20149
861.918	20282
862.05	20191
862.183	20259
862.315	20324
862.447	20400
862.58	20199
862.712	20043
862.844	19951
862.976	20134
863.108	20115
863.24	20579
863.372	20046
863.504	20149
863.636	20111
863.768	20172
863.9	19955
864.032	20054
864.164	20046
864.296	20119
864.428	20130
864.559	20187
864.691	20191
864.823	20092
864.954	20142
865.086	19970
865.217	19963
865.349	19856
865.48	20084
865.612	20039
865.743	20145
865.875	20050
866.006	19967
866.137	20020
866.269	20084
866.4	20100
866.531	20005
866.662	19963
866.793	19906
866.924	19913
867.055	19967
867.186	19932
867.317	19852
867.448	19875
867.579	19963
867.71	19868
867.841	19898
867.972	19776
868.103	19921
868.233	19917
868.364	19875
868.495	20031
868.625	20191
868.756	20324
868.886	20092
869.017	20233
869.147	20218
869.278	20218
869.408	20164
869.539	20180
869.669	20263
869.799	20233
869.929	20355
870.06	20389
870.19	20469
870.32	20537
870.45	20579
870.58	20492
870.71	20644
870.84	20568
870.97	20693
871.1	20533
871.23	20720
871.36	20682
871.489	20701
871.619	20746
871.749	20659
871.879	20842
872.008	20960
872.138	20804
872.267	20750
872.397	20579
872.526	20560
872.656	20701
872.785	20545
872.915	20769
873.044	20899
873.173	20765
873.303	20876
873.432	20758
873.561	20918
873.69	20842
873.819	20819
873.948	20952
874.077	20842
874.206	20758
874.335	20758
874.464	20899
874.593	21142
874.722	20826
874.851	21081
874.979	20902
875.108	21062
875.237	21108
875.365	21013
875.494	21036
875.623	21039
875.751	21047
875.88	21001
876.008	21127
876.136	21321
876.265	21397
876.393	21660
876.521	21523
876.65	21424
876.778	21458
876.906	21382
877.034	21294
877.162	21321
877.29	21340
877.418	21306
877.546	21450
877.674	21473
877.802	21428
877.93	21401
878.058	21332
878.185	21317
878.313	21355
878.441	21336
878.568	21241
878.696	21344
878.824	21431
878.951	21549
879.079	21545
879.206	21732
879.333	21500
879.461	21466
879.588	21633
879.715	21542
879.842	21606
879.97	21534
880.097	21245
880.224	21272
880.351	21344
880.478	21195
880.605	21203
880.732	21283
880.859	21408
880.986	21150
881.112	21287
881.239	21100
881.366	20941
881.493	20967
881.619	20800
881.746	20804
881.872	20788
881.999	20746
882.125	20785
882.252	20868
882.378	20796
882.505	20861
882.631	20667
882.757	20499
882.883	20651
883.01	20522
883.136	20480
883.262	20389
883.388	20423
883.514	20583
883.64	20549
883.766	20457
883.892	20393
884.018	20393
884.143	20465
884.269	20617
884.395	20218
884.52	20263
884.646	20225
884.772	20161
884.897	20130
885.023	20195
885.148	20328
885.274	20438
885.399	20317
885.524	20183
885.65	20153
885.775	20218
885.9	20301
886.025	20332
886.15	20259
886.275	20180
886.4	20126
886.525	20142
886.65	20111
886.775	20103
886.9	20381
887.025	20377
887.149	20225
887.274	20126
887.399	20065
887.523	19944
887.648	19875
887.773	19936
887.897	20058
888.021	20138
888.146	19955
888.27	20130
888.395	20054
888.519	20058
888.643	19974
888.767	20065
888.891	19852
889.015	19734
889.139	19807
889.263	19799
889.387	19837
889.511	20043
889.635	19967
889.759	19925
889.883	19799
890.006	19917
890.13	19818
890.254	19776
890.377	19818
890.501	19578
890.624	19460
890.748	19620
890.871	19472
890.995	19331
891.118	19358
891.241	19392
891.364	19472
891.488	19445
891.611	19472
891.734	19240
891.857	19426
891.98	19407
892.103	19495
892.226	19343
892.349	19255
892.471	19194
892.594	19377
892.717	19343
892.839	19278
892.962	19343
893.085	19308
893.207	19293
893.33	19187
893.452	19206
893.575	19365
893.697	19240
893.819	19563
893.941	19445
894.064	19502
894.186	19320
894.308	19217
894.43	19354
894.552	19441
894.674	19365
894.796	19175
894.918	19213
895.04	19304
895.161	19445
895.283	19453
895.405	19183
895.526	19240
895.648	19236
895.769	19388
895.891	19255
896.012	19426
896.134	19308
896.255	19266
896.376	19236
896.498	19308
896.619	19320
896.74	19312
896.861	19327
896.982	19643
897.103	19807
897.224	19575
897.345	19510
897.466	19514
897.587	19544
897.708	19632
897.828	19666
897.949	19449
898.07	19396
898.19	19559
898.311	19594
898.431	19411
898.552	19491
898.672	19635
898.792	19586
898.913	19571
899.033	19430
899.153	19422
899.273	19324
899.393	19259
899.513	19438
899.633	19270
899.753	19434
899.873	19221
899.993	19350
900.113	19247
900.232	19324
900.352	19289
900.472	19137
900.591	19004
900.711	19088
900.83	19168
900.95	19133
901.069	19236
901.189	18875
901.308	18817
901.427	18772
901.546	18707
901.665	18661
901.784	18669
901.904	18498
902.023	18509
902.141	18251
902.26	18235
902.379	18372
902.498	18182
902.617	18140
902.735	18152
902.854	18262
902.973	18110
903.091	17965
903.21	17996
903.328	17923
903.446	17783
903.565	17729
903.683	17653
903.801	17653
903.919	17695
904.038	17687
904.156	17501
904.274	17509
904.392	17448
904.51	17501
904.627	17482
904.745	17505
904.863	17520
904.981	17223
905.098	17155
905.216	17117
905.334	17155
905.451	17227
905.569	17128
905.686	17117
905.803	17143
905.921	16908
906.038	17045
906.155	16984
906.272	16858
906.389	16877
906.506	16790
906.623	16668
906.74	16809
906.857	16535
906.974	16611
907.091	16752
907.208	16812
907.324	16679
907.441	16660
907.557	16542
907.674	16287
907.79	16443
907.907	16402
908.023	16489
908.139	16394
908.256	16398
908.372	16325
908.488	16367
908.604	16230
908.72	16128
908.836	16211
908.952	16063
909.068	16204
909.184	16207
909.3	16166
909.415	16200
909.531	16135
909.647	15937
909.762	15770
909.878	15835
909.993	15781
910.108	15774
910.224	15915
910.339	15850
910.454	15675
910.57	15606
910.685	15633
910.8	15884
910.915	15819
911.03	15637
911.145	15538
911.259	15553
911.374	15538
911.489	15443
911.604	15237
911.718	15237
911.833	15321
911.947	15154
912.062	15157
912.176	15351
912.291	15283
912.405	15416
912.519	15431
912.633	15420
912.748	15275
912.862	15272
912.976	15043
913.09	14948
913.204	14998
913.318	15154
913.431	15165
913.545	15112
913.659	15127
913.772	15017
913.886	14948
914	14883
914.113	14941
914.226	15005
914.34	14933
914.453	14819
914.566	14895
914.68	14792
914.793	14674
914.906	14575
915.019	14358
915.132	14362
915.245	14434
915.358	14632
915.47	14434
915.583	14530
915.696	14533
915.809	14583
915.921	14606
916.034	14450
916.146	14339
916.259	14381
916.371	14431
916.483	14381
916.595	14248
916.708	14389
916.82	14328
916.932	14282
917.044	14275
917.156	14218
917.268	14100
917.38	14191
917.491	14081
917.603	14248
917.715	14210
917.826	14332
917.938	14115
918.049	14031
918.161	14107
918.272	14244
918.384	14214
918.495	14206
918.606	14054
918.717	13845
918.828	13875
918.939	14035
919.05	13909
919.161	13883
919.272	13765
919.383	13723
919.494	14020
919.604	14168
919.715	13898
919.826	13856
919.936	13830
920.047	13959
920.157	14012
920.267	14050
920.378	13894
920.488	13803
920.598	14008
920.708	14164
920.818	13993
920.928	13993
921.038	14161
921.148	14126
921.258	13780
921.368	13799
921.477	13632
921.587	13647
921.697	13594
921.806	13715
921.916	13518
922.025	13362
922.134	13320
922.244	13293
922.353	13369
922.462	13206
922.571	13164
922.68	12939
922.789	12989
922.898	13019
923.007	12882
923.116	12924
923.224	13042
923.333	12920
923.442	12844
923.55	12856
923.659	12814
923.767	12821
923.876	12749
923.984	12821
924.092	12642
924.201	12760
924.309	12715
924.417	12700
924.525	12582
924.633	12563
924.741	13537
924.849	12471
924.956	12593
925.064	12418
925.172	12365
925.279	12437
925.387	12327
925.494	12369
925.602	12601
925.709	12502
925.816	12334
925.924	12330
926.031	12532
926.138	12350
926.245	12334
926.352	12216
926.459	12418
926.566	12452
926.673	12304
926.779	12197
926.886	12209
926.993	12015
927.099	12057
927.206	11961
927.312	11965
927.419	11969
927.525	11931
927.631	11996
927.737	11920
927.843	11893
927.95	11764
928.056	11897
928.162	11893
928.267	11783
928.373	12551
928.479	11912
928.585	11615
928.69	11840
928.796	11794
928.901	11668
929.007	11520
929.112	11661
929.218	11684
929.323	11558
929.428	11554
929.533	11630
929.638	11467
929.743	11539
929.848	11543
929.953	11516
930.058	11429
930.163	11292
930.267	11311
930.372	11417
930.477	11174
930.581	11455
930.685	11284
930.79	11174
930.894	11235
930.998	11151
931.103	11284
931.207	10919
931.311	10858
931.415	10725
931.519	10603
931.623	10584
