Data from test_V78500241_1322.txt Node
Date: Fri Mar 25 15:19:03 CST 2022
User: usil
Spectrometer: V785-0024
Trigger mode: 0
Integration Time (sec): 4.000000E-1
Scans to average: 1
Nonlinearity correction enabled: false
Boxcar width: 0
Storing dark spectrum: false
XAxis mode: Wavelengths
Number of Pixels in Spectrum: 1024
>>>>>Begin Spectral Data<<<<<
801.071	27892
801.214	27831
801.356	27534
801.499	27633
801.641	27492
801.783	27348
801.926	27485
802.068	27542
802.211	27466
802.353	27393
802.496	27184
802.638	27108
802.78	27135
802.923	27112
803.065	27123
803.208	26933
803.35	27154
803.492	27222
803.635	27260
803.777	27218
803.919	27473
804.061	27667
804.204	27447
804.346	27325
804.488	27317
804.63	27386
804.773	27321
804.915	27504
805.057	27416
805.199	27401
805.341	27427
805.483	27504
805.626	27473
805.768	27431
805.91	27473
806.052	27507
806.194	27344
806.336	27641
806.478	27614
806.62	27500
806.762	27717
806.904	27800
807.046	27930
807.188	28112
807.33	27865
807.472	27987
807.614	27880
807.756	27903
807.898	27816
808.04	27778
808.182	27728
808.324	27720
808.465	27743
808.607	27937
808.749	28105
808.891	28207
809.033	28204
809.174	28112
809.316	28158
809.458	28086
809.6	28169
809.741	28363
809.883	28295
810.025	28440
810.166	28356
810.308	28280
810.45	28386
810.591	28390
810.733	28185
810.875	27975
811.016	28135
811.158	28013
811.299	28181
811.441	28268
811.582	28226
811.724	28196
811.865	28299
812.007	28238
812.148	28029
812.29	28166
812.431	28242
812.573	28481
812.714	28481
812.855	28759
812.997	28755
813.138	28904
813.279	28843
813.421	28725
813.562	28729
813.703	28557
813.845	28284
813.986	27956
814.127	27941
814.268	27793
814.41	27625
814.551	27842
814.692	27903
814.833	27762
814.974	27968
815.115	27785
815.256	27800
815.397	27656
815.539	27701
815.68	27831
815.821	27618
815.962	27603
816.103	27587
816.244	27515
816.385	27386
816.526	27424
816.666	27252
816.807	27157
816.948	27207
817.089	27211
817.23	27051
817.371	27066
817.512	27138
817.653	27096
817.793	27214
817.934	27123
818.075	27032
818.216	27192
818.356	27062
818.497	26994
818.638	26739
818.778	26697
818.919	26864
819.06	26883
819.2	27074
819.341	27180
819.481	27127
819.622	27138
819.762	27405
819.903	27485
820.043	27287
820.184	27241
820.324	27294
820.465	27211
820.605	27287
820.746	27199
820.886	27161
821.026	27180
821.167	27241
821.307	27203
821.447	27070
821.588	27070
821.728	26853
821.868	26697
822.008	26579
822.149	26495
822.289	26625
822.429	26332
822.569	26290
822.709	26237
822.849	26126
822.99	26275
823.13	26016
823.27	26115
823.41	25940
823.55	25928
823.69	25830
823.83	25898
823.97	25917
824.11	25658
824.25	25647
824.389	25738
824.529	25753
824.669	25826
824.809	25814
824.949	25936
825.089	25742
825.228	25841
825.368	25693
825.508	25715
825.648	25632
825.787	25689
825.927	25601
826.067	25521
826.206	25734
826.346	25715
826.485	25746
826.625	25628
826.765	25693
826.904	25723
827.044	25373
827.183	25350
827.323	25152
827.462	25415
827.601	25282
827.741	25274
827.88	25236
828.02	25183
828.159	25251
828.298	25327
828.437	25308
828.577	25289
828.716	25365
828.855	25190
828.994	25114
829.134	24966
829.273	25088
829.412	25156
829.551	24996
829.69	25000
829.829	25095
829.968	25247
830.107	25069
830.246	25122
830.385	25012
830.524	24894
830.663	24859
830.802	24738
830.941	24639
831.08	24574
831.219	24776
831.357	24661
831.496	24852
831.635	24608
831.774	24460
831.913	24502
832.051	24517
832.19	24547
832.329	24475
832.467	24323
832.606	24243
832.744	24357
832.883	24330
833.022	24380
833.16	24369
833.299	24380
833.437	24342
833.576	24407
833.714	24338
833.852	24376
833.991	24467
834.129	24486
834.267	24559
834.406	24502
834.544	24448
834.682	24353
834.821	24429
834.959	24532
835.097	24311
835.235	24547
835.373	24251
835.511	24300
835.65	24213
835.788	24251
835.926	24102
836.064	24167
836.202	24064
836.34	24281
836.478	24342
836.615	24296
836.753	24258
836.891	24171
837.029	24186
837.167	24072
837.305	24038
837.443	23984
837.58	24057
837.718	24076
837.856	24125
837.993	24034
838.131	23996
838.269	23950
838.406	23817
838.544	23935
838.681	23661
838.819	23745
838.956	23440
839.094	23531
839.231	23505
839.369	23653
839.506	23935
839.643	23665
839.781	23581
839.918	23372
840.055	23566
840.193	23406
840.33	23402
840.467	23414
840.604	23452
840.742	23566
840.879	23288
841.016	23337
841.153	23349
841.29	23490
841.427	23398
841.564	23516
841.701	23360
841.838	23140
841.975	23265
842.112	23242
842.249	23284
842.385	23117
842.522	23379
842.659	23189
842.796	23216
842.933	23197
843.069	23143
843.206	23037
843.343	23318
843.479	23128
843.616	23250
843.752	22923
843.889	22961
844.025	23086
844.162	23079
844.298	23094
844.435	22908
844.571	22889
844.708	23124
844.844	23029
844.98	23079
845.117	23117
845.253	22896
845.389	22839
845.525	22805
845.661	22809
845.798	22706
845.934	22786
846.07	22599
846.206	22748
846.342	22847
846.478	22672
846.614	22577
846.75	22291
846.886	22390
847.022	22508
847.158	22428
847.294	22504
847.429	22360
847.565	22462
847.701	22615
847.837	22154
847.972	22090
848.108	22200
848.244	22158
848.379	22013
848.515	22025
848.65	21926
848.786	21960
848.921	22090
849.057	22048
849.192	22158
849.328	22032
849.463	22040
849.598	21888
849.734	21766
849.869	21846
850.004	21656
850.14	21884
850.275	21728
850.41	21747
850.545	21762
850.68	21789
850.815	21694
850.95	21945
851.085	21937
851.22	21835
851.355	21793
851.49	21800
851.625	21679
851.76	21766
851.895	21774
852.03	21709
852.165	21842
852.299	21838
852.434	21800
852.569	21747
852.703	21816
852.838	21675
852.973	22002
853.107	21880
853.242	21644
853.376	21625
853.511	21504
853.645	21542
853.78	21675
853.914	21705
854.048	21622
854.183	21450
854.317	21504
854.451	21869
854.585	21572
854.72	21538
854.854	21755
854.988	21549
855.122	21644
855.256	21564
855.39	21629
855.524	21713
855.658	21637
855.792	21637
855.926	21625
856.06	21637
856.194	21755
856.327	21580
856.461	21644
856.595	21561
856.729	21618
856.862	21755
856.996	21606
857.13	21519
857.263	21732
857.397	21705
857.53	21473
857.664	21671
857.797	21656
857.931	21644
858.064	21595
858.197	21682
858.331	21591
858.464	21488
858.597	21644
858.731	21614
858.864	21599
858.997	21424
859.13	21622
859.263	21519
859.396	21606
859.529	21439
859.662	21583
859.795	21454
859.928	21652
860.061	21835
860.194	21785
860.327	21675
860.46	21595
860.592	21717
860.725	21705
860.858	21686
860.99	21557
861.123	21466
861.256	21469
861.388	21580
861.521	22276
861.653	21686
861.786	21405
861.918	21420
862.05	21348
862.183	21397
862.315	21553
862.447	21561
862.58	21462
862.712	21332
862.844	21264
862.976	21310
863.108	21363
863.24	21614
863.372	21283
863.504	21298
863.636	21256
863.768	21313
863.9	21233
864.032	21275
864.164	21302
864.296	21332
864.428	21287
864.559	21313
864.691	21363
864.823	21199
864.954	21203
865.086	21287
865.217	21226
865.349	21131
865.48	21237
865.612	21214
865.743	21336
865.875	21123
866.006	21169
866.137	21176
866.269	21104
866.4	21169
866.531	21142
866.662	21119
866.793	21093
866.924	21058
867.055	21199
867.186	21093
867.317	21203
867.448	20975
867.579	21085
867.71	21104
867.841	21077
867.972	21135
868.103	21093
868.233	21036
868.364	21150
868.495	21195
868.625	21321
868.756	21511
868.886	21272
869.017	21317
869.147	21481
869.278	21416
869.408	21256
869.539	21325
869.669	21454
869.799	21397
869.929	21466
870.06	21405
870.19	21667
870.32	21679
870.45	21797
870.58	21793
870.71	21816
870.84	21880
870.97	21747
871.1	21869
871.23	21838
871.36	21876
871.489	21800
871.619	21934
871.749	22139
871.879	22013
872.008	22093
872.138	22013
872.267	21972
872.397	21797
872.526	21789
872.656	21724
872.785	21812
872.915	21991
873.044	22090
873.173	22067
873.303	22021
873.432	22143
873.561	22040
873.69	21979
873.819	21922
873.948	22097
874.077	21907
874.206	21934
874.335	21941
874.464	22082
874.593	22223
874.722	22135
874.851	22207
874.979	22207
875.108	22204
875.237	22207
875.365	22048
875.494	22070
875.623	22276
875.751	22086
875.88	22287
876.008	22272
876.136	22451
876.265	22538
876.393	22672
876.521	22656
876.65	22618
876.778	22565
876.906	22474
877.034	22428
877.162	22588
877.29	22481
877.418	22622
877.546	22542
877.674	22557
877.802	22577
877.93	22577
878.058	22508
878.185	22394
878.313	22424
878.441	22402
878.568	22310
878.696	22580
878.824	22557
878.951	22755
879.079	22687
879.206	22809
879.333	22599
879.461	22523
879.588	22554
879.715	22839
879.842	22847
879.97	22577
880.097	22337
880.224	22348
880.351	22390
880.478	22371
880.605	22242
880.732	22143
880.859	22588
880.986	22436
881.112	22379
881.239	22337
881.366	22025
881.493	21975
881.619	21911
881.746	22044
881.872	22032
881.999	21895
882.125	21895
882.252	21865
882.378	21888
882.505	21937
882.631	21823
882.757	21633
882.883	21694
883.01	21698
883.136	21564
883.262	21538
883.388	21412
883.514	21564
883.64	21728
883.766	21568
883.892	21275
884.018	21466
884.143	21530
884.269	21599
884.395	21439
884.52	21245
884.646	21237
884.772	21233
884.897	21165
885.023	21367
885.148	21211
885.274	21401
885.399	21275
885.524	21218
885.65	21192
885.775	21279
885.9	21230
886.025	21241
886.15	21363
886.275	21169
886.4	21283
886.525	21173
886.65	21291
886.775	21169
886.9	21367
887.025	21397
887.149	21256
887.274	21100
887.399	20986
887.523	21032
887.648	20857
887.773	20887
887.897	21188
888.021	21005
888.146	20944
888.27	21100
888.395	21036
888.519	21127
888.643	20937
888.767	21051
888.891	20937
889.015	20743
889.139	20910
889.263	20788
889.387	21013
889.511	20948
889.635	20876
889.759	20891
889.883	20781
890.006	20739
890.13	20864
890.254	20727
890.377	20769
890.501	20526
890.624	20571
890.748	20659
890.871	20495
890.995	20339
891.118	20450
891.241	20465
891.364	20385
891.488	20473
891.611	20423
891.734	20514
891.857	20415
891.98	20465
892.103	20465
892.226	20336
892.349	20218
892.471	20221
892.594	20233
892.717	20252
892.839	20183
892.962	20286
893.085	20324
893.207	20431
893.33	20229
893.452	20187
893.575	20191
893.697	20252
893.819	20248
893.941	20454
894.064	20400
894.186	20149
894.308	20252
894.43	20377
894.552	20294
894.674	20358
894.796	20210
894.918	20225
895.04	20282
895.161	20358
895.283	20400
895.405	20183
895.526	20199
895.648	20317
895.769	20278
895.891	20419
896.012	20286
896.134	20324
896.255	20263
896.376	20244
896.498	20305
896.619	20347
896.74	20358
896.861	20358
896.982	20434
897.103	20716
897.224	20431
897.345	20609
897.466	20415
897.587	20461
897.708	20674
897.828	20518
897.949	20404
898.07	20446
898.19	20408
898.311	20549
898.431	20355
898.552	20511
898.672	20438
898.792	20583
898.913	20480
899.033	20317
899.153	20161
899.273	20195
899.393	20271
899.513	20305
899.633	20218
899.753	20183
899.873	20218
899.993	20301
900.113	20233
900.232	20313
900.352	20187
900.472	20046
900.591	19978
900.711	20035
900.83	20031
900.95	20122
901.069	20100
901.189	19932
901.308	19689
901.427	19700
901.546	19480
901.665	19525
901.784	19704
901.904	19407
902.023	19335
902.141	19225
902.26	19042
902.379	19179
902.498	19232
902.617	19107
902.735	19072
902.854	18977
902.973	18973
903.091	18894
903.21	18745
903.328	18791
903.446	18650
903.565	18601
903.683	18585
903.801	18471
903.919	18551
904.038	18620
904.156	18334
904.274	18376
904.392	18262
904.51	18357
904.627	18391
904.745	18334
904.863	18334
904.981	18148
905.098	18064
905.216	17984
905.334	18034
905.451	18057
905.569	17988
905.686	18011
905.803	17954
905.921	17855
906.038	17916
906.155	17912
906.272	17722
906.389	17760
906.506	17581
906.623	17672
906.74	17516
906.857	17501
906.974	17524
907.091	17589
907.208	17733
907.324	17589
907.441	17414
907.557	17318
907.674	17269
907.79	17200
907.907	17170
908.023	17246
908.139	17246
908.256	17193
908.372	17048
908.488	17075
908.604	17060
908.72	16927
908.836	16949
908.952	16949
909.068	16987
909.184	17083
909.3	16999
909.415	17022
909.531	16927
909.647	16797
909.762	16634
909.878	16630
909.993	16683
910.108	16679
910.224	16580
910.339	16729
910.454	16474
910.57	16504
910.685	16337
910.8	16653
910.915	16611
911.03	16455
911.145	16341
911.259	16276
911.374	16360
911.489	16181
911.604	16162
911.718	16048
911.833	16048
911.947	15968
912.062	15766
912.176	16036
912.291	15991
912.405	15972
912.519	16204
912.633	16131
912.748	15949
912.862	15934
912.976	15827
913.09	15797
913.204	15892
913.318	15922
913.431	15941
913.545	15823
913.659	15903
913.772	15747
913.886	15679
914	15671
914.113	15682
914.226	15724
914.34	15652
914.453	15561
914.566	15671
914.68	15545
914.793	15534
914.906	15313
915.019	15249
915.132	15222
915.245	15268
915.358	15233
915.47	15203
915.583	15165
915.696	15325
915.809	15340
915.921	15363
916.034	15195
916.146	15062
916.259	15066
916.371	15256
916.483	15226
916.595	15070
916.708	15009
916.82	15146
916.932	14998
917.044	15001
917.156	15058
917.268	14849
917.38	14929
917.491	14834
917.603	14861
917.715	14960
917.826	15013
917.938	14868
918.049	14727
918.161	14785
918.272	15009
918.384	14921
918.495	14811
918.606	14651
918.717	14674
918.828	14594
918.939	14697
919.05	14560
919.161	14579
919.272	14408
919.383	14507
919.494	14678
919.604	14807
919.715	14568
919.826	14530
919.936	14541
920.047	14560
920.157	14549
920.267	14781
920.378	14598
920.488	14667
920.598	14697
920.708	14887
920.818	14773
920.928	14785
921.038	14864
921.148	14769
921.258	14526
921.368	14503
921.477	14347
921.587	14240
921.697	14275
921.806	14244
921.916	14248
922.025	14088
922.134	13982
922.244	14008
922.353	13959
922.462	13784
922.571	13746
922.68	13613
922.789	13708
922.898	13616
923.007	13506
923.116	13636
923.224	13670
923.333	13620
923.442	13548
923.55	13449
923.659	13487
923.767	13453
923.876	13430
923.984	13460
924.092	13293
924.201	13487
924.309	13293
924.417	13384
924.525	13266
924.633	13282
924.741	14195
924.849	13168
924.956	13308
925.064	13099
925.172	12993
925.279	13061
925.387	13015
925.494	13008
925.602	13274
925.709	13034
925.816	12966
925.924	12966
926.031	13046
926.138	12981
926.245	12913
926.352	12852
926.459	12970
926.566	13053
926.673	12920
926.779	12760
926.886	12833
926.993	12696
927.099	12547
927.206	12589
927.312	12517
927.419	12536
927.525	12669
927.631	12593
927.737	12467
927.843	12418
927.95	12350
928.056	12361
928.162	12441
928.267	12464
928.373	13057
928.479	12422
928.585	12201
928.69	12369
928.796	12380
928.901	12220
929.007	12148
929.112	12201
929.218	12197
929.323	12190
929.428	12152
929.533	12289
929.638	12003
929.743	12068
929.848	12106
929.953	12091
930.058	11958
930.163	11779
930.267	11802
930.372	11923
930.477	11794
930.581	11996
930.685	11851
930.79	11726
930.894	11672
930.998	11585
931.103	11771
931.207	11547
931.311	11288
931.415	11326
931.519	11208
931.623	11033
