Data from test_V78500241_928.txt Node
Date: Fri Mar 25 15:16:19 CST 2022
User: usil
Spectrometer: V785-0024
Trigger mode: 0
Integration Time (sec): 4.000000E-1
Scans to average: 1
Nonlinearity correction enabled: false
Boxcar width: 0
Storing dark spectrum: false
XAxis mode: Wavelengths
Number of Pixels in Spectrum: 1024
>>>>>Begin Spectral Data<<<<<
801.071	28010
801.214	27937
801.356	27766
801.499	27690
801.641	27542
801.783	27511
801.926	27507
802.068	27618
802.211	27367
802.353	27264
802.496	27108
802.638	27252
802.78	27195
802.923	27218
803.065	26971
803.208	27173
803.35	27036
803.492	27230
803.635	27230
803.777	27146
803.919	27252
804.061	27637
804.204	27469
804.346	27298
804.488	27180
804.63	27408
804.773	27310
804.915	27416
805.057	27583
805.199	27386
805.341	27340
805.483	27504
805.626	27355
805.768	27329
805.91	27488
806.052	27469
806.194	27370
806.336	27580
806.478	27439
806.62	27580
806.762	27530
806.904	27781
807.046	28021
807.188	27937
807.33	27846
807.472	27884
807.614	27911
807.756	27846
807.898	27709
808.04	27614
808.182	27720
808.324	27717
808.465	27804
808.607	27899
808.749	28185
808.891	28253
809.033	28329
809.174	28234
809.316	28238
809.458	28112
809.6	27972
809.741	28215
809.883	28166
810.025	28382
810.166	28474
810.308	28519
810.45	28371
810.591	28398
810.733	28059
810.875	28128
811.016	27987
811.158	28017
811.299	28234
811.441	28253
811.582	28204
811.724	28192
811.865	28067
812.007	28147
812.148	28097
812.29	28200
812.431	28314
812.573	28523
812.714	28538
812.855	28721
812.997	28869
813.138	28812
813.279	28736
813.421	28683
813.562	28557
813.703	28569
813.845	28432
813.986	28074
814.127	27994
814.268	27732
814.41	27850
814.551	27724
814.692	27991
814.833	27880
814.974	27838
815.115	27930
815.256	27599
815.397	27709
815.539	27701
815.68	27652
815.821	27526
815.962	27622
816.103	27717
816.244	27507
816.385	27367
816.526	27321
816.666	27279
816.807	27028
816.948	27192
817.089	27313
817.23	27169
817.371	27226
817.512	27218
817.653	27157
817.793	27123
817.934	27173
818.075	27218
818.216	27104
818.356	27127
818.497	26986
818.638	26918
818.778	26830
818.919	26948
819.06	27036
819.2	27066
819.341	27218
819.481	27173
819.622	27294
819.762	27603
819.903	27370
820.043	27412
820.184	27241
820.324	27165
820.465	27226
820.605	27252
820.746	27287
820.886	27131
821.026	27245
821.167	27389
821.307	27329
821.447	27207
821.588	27131
821.728	26895
821.868	26899
822.008	26670
822.149	26522
822.289	26590
822.429	26240
822.569	26427
822.709	26305
822.849	26111
822.99	26107
823.13	26202
823.27	26077
823.41	26058
823.55	25776
823.69	26031
823.83	25986
823.97	25864
824.11	25662
824.25	25738
824.389	25765
824.529	25921
824.669	25841
824.809	25989
824.949	25982
825.089	25864
825.228	25791
825.368	25677
825.508	25666
825.648	25734
825.787	25742
825.927	25742
826.067	25708
826.206	25590
826.346	25674
826.485	25586
826.625	25609
826.765	25921
826.904	25666
827.044	25445
827.183	25392
827.323	25274
827.462	25506
827.601	25400
827.741	25327
827.88	25411
828.02	25335
828.159	25403
828.298	25491
828.437	25400
828.577	25350
828.716	25384
828.855	25232
828.994	25179
829.134	25156
829.273	25160
829.412	25118
829.551	25019
829.69	25152
829.829	25148
829.968	25198
830.107	25160
830.246	25145
830.385	25103
830.524	24932
830.663	24981
830.802	24920
830.941	24840
831.08	24669
831.219	24719
831.357	24810
831.496	24787
831.635	24764
831.774	24570
831.913	24601
832.051	24445
832.19	24498
832.329	24585
832.467	24380
832.606	24376
832.744	24201
832.883	24414
833.022	24372
833.16	24342
833.299	24464
833.437	24505
833.576	24384
833.714	24426
833.852	24597
833.991	24483
834.129	24407
834.267	24551
834.406	24502
834.544	24673
834.682	24350
834.821	24407
834.959	24456
835.097	24403
835.235	24441
835.373	24517
835.511	24456
835.65	24258
835.788	24228
835.926	24072
836.064	24171
836.202	24133
836.34	24399
836.478	24361
836.615	24311
836.753	24308
836.891	24308
837.029	24399
837.167	24277
837.305	24091
837.443	24106
837.58	24114
837.718	24224
837.856	24110
837.993	24026
838.131	24110
838.269	24034
838.406	23961
838.544	23893
838.681	23771
838.819	23657
838.956	23634
839.094	23505
839.231	23687
839.369	23794
839.506	24053
839.643	23764
839.781	23482
839.918	23497
840.055	23566
840.193	23577
840.33	23486
840.467	23448
840.604	23668
840.742	23764
840.879	23410
841.016	23334
841.153	23334
841.29	23520
841.427	23398
841.564	23547
841.701	23486
841.838	23501
841.975	23364
842.112	23459
842.249	23200
842.385	23102
842.522	23471
842.659	23330
842.796	23235
842.933	23292
843.069	23231
843.206	23094
843.343	23376
843.479	23220
843.616	23303
843.752	23029
843.889	23090
844.025	23235
844.162	23143
844.298	23056
844.435	23109
844.571	22942
844.708	23060
844.844	23181
844.98	23223
845.117	23204
845.253	22995
845.389	22968
845.525	22881
845.661	22900
845.798	22763
845.934	22831
846.07	22736
846.206	22831
846.342	22877
846.478	22820
846.614	22634
846.75	22535
846.886	22394
847.022	22577
847.158	22580
847.294	22557
847.429	22519
847.565	22440
847.701	22622
847.837	22246
847.972	22188
848.108	22360
848.244	22344
848.379	22078
848.515	22059
848.65	22051
848.786	22158
848.921	22070
849.057	22287
849.192	22226
849.328	22158
849.463	22253
849.598	22101
849.734	21960
849.869	21835
850.004	21793
850.14	21876
850.275	21918
850.41	21827
850.545	21884
850.68	21804
850.815	21915
850.95	21949
851.085	21968
851.22	21922
851.355	21915
851.49	21892
851.625	21926
851.76	21793
851.895	21789
852.03	21755
852.165	21892
852.299	21895
852.434	21876
852.569	21884
852.703	21895
852.838	21934
852.973	22036
853.107	21968
853.242	21983
853.376	21762
853.511	21599
853.645	21618
853.78	21762
853.914	21804
854.048	21709
854.183	21675
854.317	21720
854.451	21941
854.585	21739
854.72	21770
854.854	21850
854.988	21705
855.122	21720
855.256	21656
855.39	21625
855.524	21724
855.658	21755
855.792	21644
855.926	21747
856.06	21739
856.194	21755
856.327	21766
856.461	21587
856.595	21591
856.729	21663
856.862	21751
856.996	21743
857.13	21759
857.263	21972
857.397	21823
857.53	21694
857.664	21812
857.797	21793
857.931	21888
858.064	21686
858.197	21797
858.331	21698
858.464	21576
858.597	21637
858.731	21812
858.864	21743
858.997	21724
859.13	21652
859.263	21842
859.396	21816
859.529	21694
859.662	21675
859.795	21618
859.928	21720
860.061	21770
860.194	21911
860.327	21652
860.46	21690
860.592	21873
860.725	21873
860.858	21857
860.99	21747
861.123	21656
861.256	21507
861.388	21591
861.521	22394
861.653	21572
861.786	21473
861.918	21534
862.05	21637
862.183	21599
862.315	21618
862.447	21454
862.58	21549
862.712	21389
862.844	21412
862.976	21538
863.108	21519
863.24	21926
863.372	21397
863.504	21416
863.636	21447
863.768	21408
863.9	21416
864.032	21317
864.164	21370
864.296	21336
864.428	21564
864.559	21450
864.691	21488
864.823	21408
864.954	21462
865.086	21348
865.217	21420
865.349	21199
865.48	21416
865.612	21287
865.743	21439
865.875	21386
866.006	21188
866.137	21222
866.269	21249
866.4	21355
866.531	21138
866.662	21154
866.793	21199
866.924	21241
867.055	21249
867.186	21329
867.317	21112
867.448	21268
867.579	21268
867.71	21001
867.841	21237
867.972	21203
868.103	21249
868.233	21256
868.364	21180
868.495	21348
868.625	21549
868.756	21553
868.886	21405
869.017	21462
869.147	21526
869.278	21557
869.408	21557
869.539	21504
869.669	21580
869.799	21603
869.929	21633
870.06	21496
870.19	21728
870.32	21728
870.45	21751
870.58	21823
870.71	21922
870.84	21903
870.97	21770
871.1	21682
871.23	21991
871.36	22017
871.489	21994
871.619	22025
871.749	21991
871.879	22166
872.008	22181
872.138	22078
872.267	22029
872.397	21960
872.526	21964
872.656	21915
872.785	21838
872.915	22029
873.044	22097
873.173	22109
873.303	21998
873.432	22105
873.561	22090
873.69	22070
873.819	22207
873.948	22147
874.077	22101
874.206	22078
874.335	22116
874.464	22154
874.593	22295
874.722	22272
874.851	22310
874.979	22382
875.108	22360
875.237	22303
875.365	22314
875.494	22325
875.623	22310
875.751	22306
875.88	22295
876.008	22489
876.136	22474
876.265	22691
876.393	22839
876.521	22706
876.65	22713
876.778	22649
876.906	22630
877.034	22656
877.162	22660
877.29	22664
877.418	22557
877.546	22702
877.674	22535
877.802	22774
877.93	22668
878.058	22664
878.185	22417
878.313	22603
878.441	22584
878.568	22485
878.696	22565
878.824	22622
878.951	22725
879.079	22805
879.206	22949
879.333	22805
879.461	22599
879.588	22653
879.715	22805
879.842	23052
879.97	22641
880.097	22489
880.224	22455
880.351	22557
880.478	22523
880.605	22451
880.732	22322
880.859	22752
880.986	22596
881.112	22394
881.239	22287
881.366	22150
881.493	22116
881.619	22063
881.746	22124
881.872	22002
881.999	22021
882.125	21979
882.252	22025
882.378	22032
882.505	22059
882.631	21838
882.757	21774
882.883	21819
883.01	21690
883.136	21663
883.262	21675
883.388	21641
883.514	21930
883.64	21789
883.766	21568
883.892	21568
884.018	21526
884.143	21641
884.269	21842
884.395	21458
884.52	21279
884.646	21405
884.772	21332
884.897	21351
885.023	21359
885.148	21561
885.274	21450
885.399	21477
885.524	21382
885.65	21420
885.775	21374
885.9	21435
886.025	21367
886.15	21428
886.275	21355
886.4	21249
886.525	21412
886.65	21313
886.775	21176
886.9	21515
887.025	21500
887.149	21260
887.274	21195
887.399	21165
887.523	21207
887.648	21066
887.773	21024
887.897	21317
888.021	21070
888.146	21062
888.27	21188
888.395	21176
888.519	21272
888.643	21108
888.767	21237
888.891	20998
889.015	20952
889.139	20937
889.263	20952
889.387	21009
889.511	21112
889.635	20944
889.759	20804
889.883	20914
890.006	20902
890.13	20952
890.254	20834
890.377	20880
890.501	20617
890.624	20648
890.748	20663
890.871	20564
890.995	20385
891.118	20427
891.241	20598
891.364	20507
891.488	20632
891.611	20507
891.734	20590
891.857	20560
891.98	20507
892.103	20507
892.226	20503
892.349	20415
892.471	20351
892.594	20446
892.717	20404
892.839	20404
892.962	20381
893.085	20484
893.207	20446
893.33	20355
893.452	20313
893.575	20522
893.697	20374
893.819	20533
893.941	20564
894.064	20625
894.186	20366
894.308	20320
894.43	20473
894.552	20545
894.674	20339
894.796	20362
894.918	20480
895.04	20366
895.161	20419
895.283	20351
895.405	20389
895.526	20488
895.648	20419
895.769	20461
895.891	20404
896.012	20537
896.134	20317
896.255	20484
896.376	20370
896.498	20278
896.619	20385
896.74	20412
896.861	20507
896.982	20731
897.103	20796
897.224	20754
897.345	20434
897.466	20484
897.587	20545
897.708	20617
897.828	20621
897.949	20446
898.07	20362
898.19	20587
898.311	20663
898.431	20583
898.552	20492
898.672	20689
898.792	20659
898.913	20644
899.033	20568
899.153	20298
899.273	20237
899.393	20221
899.513	20290
899.633	20320
899.753	20396
899.873	20240
899.993	20332
900.113	20275
900.232	20244
900.352	20199
900.472	20286
900.591	20035
900.711	20081
900.83	20039
900.95	20187
901.069	20153
901.189	20050
901.308	19731
901.427	19666
901.546	19647
901.665	19685
901.784	19635
901.904	19628
902.023	19400
902.141	19247
902.26	19209
902.379	19228
902.498	19209
902.617	19141
902.735	19251
902.854	19122
902.973	19023
903.091	18886
903.21	18962
903.328	18787
903.446	18825
903.565	18688
903.683	18639
903.801	18490
903.919	18597
904.038	18582
904.156	18509
904.274	18521
904.392	18376
904.51	18330
904.627	18464
904.745	18525
904.863	18540
904.981	18334
905.098	18087
905.216	18083
905.334	18133
905.451	18235
905.569	18148
905.686	18129
905.803	18057
905.921	17946
906.038	18011
906.155	18007
906.272	17775
906.389	17885
906.506	17630
906.623	17722
906.74	17710
906.857	17505
906.974	17589
907.091	17672
907.208	17775
907.324	17665
907.441	17471
907.557	17220
907.674	17288
907.79	17345
907.907	17288
908.023	17383
908.139	17349
908.256	17376
908.372	17170
908.488	17204
908.604	17090
908.72	17052
908.836	17018
908.952	16923
909.068	17094
909.184	17094
909.3	16991
909.415	17056
909.531	16999
909.647	16733
909.762	16752
909.878	16767
909.993	16713
910.108	16675
910.224	16580
910.339	16691
910.454	16634
910.57	16618
910.685	16618
910.8	16809
910.915	16778
911.03	16626
911.145	16329
911.259	16413
911.374	16394
911.489	16329
911.604	16253
911.718	16147
911.833	16131
911.947	15960
912.062	15922
912.176	16101
912.291	16044
912.405	16074
912.519	16215
912.633	16249
912.748	16116
912.862	16010
912.976	15903
913.09	15778
913.204	15926
913.318	15835
913.431	16086
913.545	15968
913.659	16025
913.772	15892
913.886	15736
914	15789
914.113	15823
914.226	15690
914.34	15800
914.453	15682
914.566	15728
914.68	15553
914.793	15500
914.906	15443
915.019	15317
915.132	15329
915.245	15294
915.358	15275
915.47	15351
915.583	15389
915.696	15233
915.809	15355
915.921	15568
916.034	15268
916.146	15230
916.259	15180
916.371	15233
916.483	15214
916.595	15188
916.708	15112
916.82	15226
916.932	15100
917.044	15074
917.156	15066
917.268	15017
917.38	14944
917.491	14956
917.603	15028
917.715	14998
917.826	15100
917.938	15028
918.049	14785
918.161	14880
918.272	15062
918.384	15066
918.495	14918
918.606	14765
918.717	14621
918.828	14701
918.939	14842
919.05	14613
919.161	14697
919.272	14526
919.383	14594
919.494	14811
919.604	14994
919.715	14693
919.826	14621
919.936	14697
920.047	14788
920.157	14663
920.267	14941
920.378	14769
920.488	14678
920.598	14796
920.708	15005
920.818	14948
920.928	14868
921.038	14971
921.148	14963
921.258	14705
921.368	14575
921.477	14533
921.587	14412
921.697	14290
921.806	14427
921.916	14206
922.025	14176
922.134	14081
922.244	14050
922.353	14111
922.462	14001
922.571	13921
922.68	13746
922.789	13712
922.898	13704
923.007	13677
923.116	13655
923.224	13685
923.333	13666
923.442	13567
923.55	13597
923.659	13552
923.767	13670
923.876	13518
923.984	13575
924.092	13434
924.201	13441
924.309	13472
924.417	13445
924.525	13426
924.633	13422
924.741	14259
924.849	13225
924.956	13324
925.064	13149
925.172	13072
925.279	13084
925.387	13206
925.494	13209
925.602	13274
925.709	13187
925.816	13088
925.924	13095
926.031	13095
926.138	13175
926.245	13171
926.352	12985
926.459	13095
926.566	13057
926.673	12951
926.779	12871
926.886	12897
926.993	12741
927.099	12764
927.206	12597
927.312	12669
927.419	12817
927.525	12604
927.631	12719
927.737	12601
927.843	12544
927.95	12353
928.056	12513
928.162	12566
928.267	12601
928.373	13164
928.479	12620
928.585	12296
928.69	12536
928.796	12544
928.901	12350
929.007	12308
929.112	12342
929.218	12311
929.323	12209
929.428	12285
929.533	12399
929.638	12182
929.743	12182
929.848	12239
929.953	12171
930.058	12060
930.163	11840
930.267	11912
930.372	12114
930.477	11912
930.581	12045
930.685	11958
930.79	11813
930.894	11840
930.998	11733
931.103	11901
931.207	11642
931.311	11535
931.415	11429
931.519	11242
931.623	11178
