Data from test_V78500241_987.txt Node
Date: Fri Mar 25 15:16:43 CST 2022
User: usil
Spectrometer: V785-0024
Trigger mode: 0
Integration Time (sec): 4.000000E-1
Scans to average: 1
Nonlinearity correction enabled: false
Boxcar width: 0
Storing dark spectrum: false
XAxis mode: Wavelengths
Number of Pixels in Spectrum: 1024
>>>>>Begin Spectral Data<<<<<
801.071	28341
801.214	28371
801.356	28013
801.499	27911
801.641	27823
801.783	27755
801.926	27994
802.068	27926
802.211	27907
802.353	27816
802.496	27553
802.638	27374
802.78	27538
802.923	27469
803.065	27507
803.208	27557
803.35	27538
803.492	27511
803.635	27739
803.777	27519
803.919	27682
804.061	28021
804.204	27747
804.346	27698
804.488	27648
804.63	27641
804.773	27485
804.915	27755
805.057	27819
805.199	27816
805.341	27842
805.483	27819
805.626	27949
805.768	27622
805.91	27797
806.052	27914
806.194	27861
806.336	28101
806.478	27918
806.62	28017
806.762	28131
806.904	28219
807.046	28371
807.188	28215
807.33	28291
807.472	28207
807.614	28238
807.756	28272
807.898	28192
808.04	28105
808.182	28196
808.324	28253
808.465	28242
808.607	28322
808.749	28459
808.891	28653
809.033	28622
809.174	28493
809.316	28447
809.458	28512
809.6	28531
809.741	28660
809.883	28584
810.025	28763
810.166	28892
810.308	28809
810.45	28835
810.591	28733
810.733	28698
810.875	28603
811.016	28474
811.158	28394
811.299	28588
811.441	28721
811.582	28713
811.724	28538
811.865	28523
812.007	28554
812.148	28588
812.29	28508
812.431	28630
812.573	28896
812.714	28984
812.855	29064
812.997	29189
813.138	29284
813.279	29242
813.421	29098
813.562	29060
813.703	28854
813.845	28793
813.986	28424
814.127	28360
814.268	28310
814.41	28284
814.551	28230
814.692	28257
814.833	28230
814.974	28173
815.115	28265
815.256	28147
815.397	28139
815.539	28238
815.68	28128
815.821	28021
815.962	28059
816.103	28101
816.244	27907
816.385	27895
816.526	27842
816.666	27587
816.807	27504
816.948	27656
817.089	27694
817.23	27500
817.371	27530
817.512	27610
817.653	27507
817.793	27637
817.934	27549
818.075	27633
818.216	27603
818.356	27564
818.497	27405
818.638	27306
818.778	27340
818.919	27344
819.06	27462
819.2	27492
819.341	27530
819.481	27553
819.622	27561
819.762	28006
819.903	27835
820.043	27732
820.184	27652
820.324	27751
820.465	27751
820.605	27648
820.746	27679
820.886	27519
821.026	27663
821.167	27694
821.307	27663
821.447	27603
821.588	27408
821.728	27378
821.868	27260
822.008	27066
822.149	27058
822.289	26960
822.429	26815
822.569	26659
822.709	26762
822.849	26556
822.99	26659
823.13	26659
823.27	26533
823.41	26248
823.55	26301
823.69	26351
823.83	26336
823.97	26263
824.11	26164
824.25	26206
824.389	26172
824.529	26320
824.669	26103
824.809	26248
824.949	26377
825.089	26305
825.228	26237
825.368	26134
825.508	26199
825.648	26020
825.787	26145
825.927	26058
826.067	26077
826.206	26043
826.346	26119
826.485	26115
826.625	26145
826.765	26210
826.904	26122
827.044	25894
827.183	25799
827.323	25791
827.462	25822
827.601	25803
827.741	25902
827.88	25871
828.02	25628
828.159	25845
828.298	25803
828.437	25955
828.577	25689
828.716	25890
828.855	25662
828.994	25624
829.134	25624
829.273	25590
829.412	25518
829.551	25662
829.69	25559
829.829	25655
829.968	25658
830.107	25540
830.246	25499
830.385	25472
830.524	25426
830.663	25411
830.802	25202
830.941	25190
831.08	25114
831.219	25221
831.357	25232
831.496	25491
831.635	25118
831.774	24962
831.913	25042
832.051	24981
832.19	24920
832.329	25034
832.467	24833
832.606	24783
832.744	24730
832.883	24897
833.022	24764
833.16	24833
833.299	24787
833.437	24837
833.576	24863
833.714	24932
833.852	24996
833.991	24783
834.129	24833
834.267	24992
834.406	24981
834.544	24783
834.682	24928
834.821	24954
834.959	25225
835.097	24867
835.235	24932
835.373	24913
835.511	24837
835.65	24867
835.788	24730
835.926	24612
836.064	24475
836.202	24498
836.34	24802
836.478	24760
836.615	24642
836.753	24764
836.891	24753
837.029	24703
837.167	24749
837.305	24490
837.443	24692
837.58	24452
837.718	24574
837.856	24513
837.993	24532
838.131	24471
838.269	24475
838.406	24612
838.544	24334
838.681	24083
838.819	24220
838.956	24045
839.094	24057
839.231	24083
839.369	24186
839.506	24376
839.643	24327
839.781	24049
839.918	23889
840.055	23999
840.193	23901
840.33	23836
840.467	23965
840.604	23931
840.742	24095
840.879	23756
841.016	23813
841.153	23893
841.29	23999
841.427	23855
841.564	23977
841.701	23843
841.838	23935
841.975	23809
842.112	23745
842.249	23733
842.385	23729
842.522	23805
842.659	23726
842.796	23691
842.933	23786
843.069	23684
843.206	23608
843.343	23668
843.479	23691
843.616	23733
843.752	23391
843.889	23459
844.025	23497
844.162	23452
844.298	23646
844.435	23497
844.571	23478
844.708	23570
844.844	23562
844.98	23570
845.117	23535
845.253	23444
845.389	23258
845.525	23311
845.661	23372
845.798	23273
845.934	23269
846.07	23197
846.206	23231
846.342	23299
846.478	23220
846.614	22873
846.75	22866
846.886	22873
847.022	22934
847.158	22942
847.294	22816
847.429	22915
847.565	22908
847.701	23117
847.837	22679
847.972	22691
848.108	22637
848.244	22759
848.379	22554
848.515	22580
848.65	22379
848.786	22516
848.921	22512
849.057	22660
849.192	22755
849.328	22630
849.463	22489
849.598	22481
849.734	22428
849.869	22356
850.004	22348
850.14	22344
850.275	22226
850.41	22177
850.545	22169
850.68	22196
850.815	22226
850.95	22310
851.085	22432
851.22	22470
851.355	22390
851.49	22295
851.625	22177
851.76	22246
851.895	22097
852.03	22234
852.165	22265
852.299	22280
852.434	22344
852.569	22261
852.703	22234
852.838	22379
852.973	22466
853.107	22341
853.242	22181
853.376	22067
853.511	21865
853.645	22112
853.78	22200
853.914	22116
854.048	21998
854.183	21956
854.317	22116
854.451	22310
854.585	22120
854.72	22120
854.854	22181
854.988	22006
855.122	22112
855.256	21934
855.39	21979
855.524	22211
855.658	22086
855.792	22036
855.926	22166
856.06	22196
856.194	22112
856.327	22032
856.461	21998
856.595	21972
856.729	22166
856.862	22093
856.996	22147
857.13	22135
857.263	22158
857.397	22177
857.53	22036
857.664	22200
857.797	22135
857.931	22238
858.064	22177
858.197	22204
858.331	22067
858.464	22067
858.597	22017
858.731	22120
858.864	21994
858.997	22158
859.13	22055
859.263	22135
859.396	22158
859.529	22090
859.662	22074
859.795	22067
859.928	22097
860.061	22196
860.194	22249
860.327	22223
860.46	22169
860.592	22188
860.725	22276
860.858	22196
860.99	22192
861.123	22078
861.256	21880
861.388	22044
861.521	22892
861.653	22032
861.786	21857
861.918	21759
862.05	21945
862.183	21994
862.315	22036
862.447	22097
862.58	22013
862.712	21873
862.844	21819
862.976	21880
863.108	21857
863.24	22234
863.372	21694
863.504	21857
863.636	21804
863.768	21789
863.9	21831
864.032	21812
864.164	21827
864.296	21785
864.428	21983
864.559	22013
864.691	21899
864.823	21808
864.954	21766
865.086	21808
865.217	21804
865.349	21648
865.48	21835
865.612	21606
865.743	21778
865.875	21762
866.006	21660
866.137	21690
866.269	21652
866.4	21717
866.531	21545
866.662	21545
866.793	21610
866.924	21599
867.055	21648
867.186	21599
867.317	21614
867.448	21572
867.579	21679
867.71	21580
867.841	21637
867.972	21629
868.103	21488
868.233	21701
868.364	21534
868.495	21618
868.625	21694
868.756	21926
868.886	21743
869.017	21759
869.147	21884
869.278	21949
869.408	21880
869.539	21819
869.669	21934
869.799	21869
869.929	21884
870.06	21987
870.19	22181
870.32	22135
870.45	22196
870.58	22147
870.71	22360
870.84	22356
870.97	22192
871.1	22272
871.23	22398
871.36	22421
871.489	22325
871.619	22455
871.749	22470
871.879	22535
872.008	22580
872.138	22485
872.267	22436
872.397	22265
872.526	22303
872.656	22402
872.785	22284
872.915	22432
873.044	22557
873.173	22592
873.303	22424
873.432	22478
873.561	22626
873.69	22443
873.819	22500
873.948	22645
874.077	22443
874.206	22500
874.335	22557
874.464	22611
874.593	22675
874.722	22645
874.851	22691
874.979	22801
875.108	22763
875.237	22618
875.365	22565
875.494	22634
875.623	22706
875.751	22607
875.88	22683
876.008	22831
876.136	22816
876.265	23128
876.393	23090
876.521	23014
876.65	23250
876.778	23029
876.906	22999
877.034	22942
877.162	22991
877.29	22847
877.418	23022
877.546	23056
877.674	22938
877.802	22957
877.93	23010
878.058	22995
878.185	22881
878.313	22911
878.441	22919
878.568	22839
878.696	22900
878.824	22972
878.951	23128
879.079	23181
879.206	23383
879.333	23277
879.461	22949
879.588	22995
879.715	23136
879.842	23292
879.97	23113
880.097	22896
880.224	22831
880.351	22797
880.478	22862
880.605	22717
880.732	22713
880.859	22953
880.986	22831
881.112	22843
881.239	22790
881.366	22649
881.493	22531
881.619	22478
881.746	22382
881.872	22371
881.999	22356
882.125	22322
882.252	22341
882.378	22287
882.505	22596
882.631	22272
882.757	22207
882.883	22219
883.01	22169
883.136	22074
883.262	21918
883.388	21895
883.514	22070
883.64	22078
883.766	22078
883.892	21838
884.018	21797
884.143	22006
884.269	22131
884.395	21819
884.52	21751
884.646	21819
884.772	21564
884.897	21599
885.023	21709
885.148	21785
885.274	21888
885.399	21911
885.524	21789
885.65	21774
885.775	21816
885.9	21701
886.025	21846
886.15	21804
886.275	21732
886.4	21686
886.525	21663
886.65	21675
886.775	21587
886.9	21709
887.025	21869
887.149	21709
887.274	21534
887.399	21481
887.523	21469
887.648	21443
887.773	21393
887.897	21606
888.021	21557
888.146	21477
888.27	21583
888.395	21671
888.519	21553
888.643	21557
888.767	21496
888.891	21428
889.015	21256
889.139	21329
889.263	21249
889.387	21332
889.511	21435
889.635	21428
889.759	21165
889.883	21226
890.006	21207
890.13	21382
890.254	21184
890.377	21306
890.501	21165
890.624	21100
890.748	21009
890.871	20906
890.995	20902
891.118	20838
891.241	20796
891.364	20823
891.488	20937
891.611	20838
891.734	20796
891.857	20864
891.98	20773
892.103	20986
892.226	20727
892.349	20792
892.471	20667
892.594	20853
892.717	20655
892.839	20765
892.962	20735
893.085	20823
893.207	20701
893.33	20545
893.452	20693
893.575	20777
893.697	20739
893.819	20963
893.941	20994
894.064	20819
894.186	20640
894.308	20811
894.43	20826
894.552	20880
894.674	20724
894.796	20545
894.918	20609
895.04	20739
895.161	20663
895.283	20811
895.405	20697
895.526	20693
895.648	20632
895.769	20792
895.891	20560
896.012	20762
896.134	20735
896.255	20769
896.376	20689
896.498	20644
896.619	20735
896.74	20648
896.861	20826
896.982	21096
897.103	21096
897.224	20925
897.345	20853
897.466	20910
897.587	20891
897.708	20925
897.828	20918
897.949	20933
898.07	20659
898.19	20838
898.311	21009
898.431	20857
898.552	21020
898.672	20804
898.792	20937
898.913	20819
899.033	20678
899.153	20720
899.273	20590
899.393	20705
899.513	20746
899.633	20705
899.753	20678
899.873	20587
899.993	20552
900.113	20507
900.232	20518
900.352	20659
900.472	20488
900.591	20389
900.711	20606
900.83	20290
900.95	20442
901.069	20404
901.189	20351
901.308	20115
901.427	19887
901.546	19909
901.665	19986
901.784	19936
901.904	19852
902.023	19708
902.141	19616
902.26	19499
902.379	19529
902.498	19468
902.617	19384
902.735	19548
902.854	19514
902.973	19403
903.091	19141
903.21	19202
903.328	19221
903.446	19145
903.565	18966
903.683	18958
903.801	18882
903.919	18833
904.038	18901
904.156	18741
904.274	18768
904.392	18810
904.51	18738
904.627	18688
904.745	18856
904.863	18703
904.981	18532
905.098	18399
905.216	18277
905.334	18426
905.451	18391
905.569	18369
905.686	18388
905.803	18357
905.921	18095
906.038	18235
906.155	18281
906.272	18083
906.389	18171
906.506	18003
906.623	18053
906.74	17912
906.857	17851
906.974	17779
907.091	18015
907.208	18095
907.324	17954
907.441	17889
907.557	17767
907.674	17528
907.79	17573
907.907	17562
908.023	17680
908.139	17741
908.256	17520
908.372	17551
908.488	17535
908.604	17376
908.72	17193
908.836	17410
908.952	17299
909.068	17391
909.184	17387
909.3	17353
909.415	17433
909.531	17417
909.647	17117
909.762	17079
909.878	16957
909.993	17147
910.108	17037
910.224	17052
910.339	17022
910.454	16843
910.57	16850
910.685	16858
910.8	17029
910.915	17056
911.03	16828
911.145	16683
911.259	16698
911.374	16588
911.489	16523
911.604	16538
911.718	16287
911.833	16424
911.947	16249
912.062	16196
912.176	16314
912.291	16402
912.405	16413
912.519	16618
912.633	16542
912.748	16417
912.862	16219
912.976	16154
913.09	16048
913.204	16154
913.318	16215
913.431	16249
913.545	16246
913.659	16341
913.772	16063
913.886	16006
914	15972
914.113	16055
914.226	16048
914.34	16086
914.453	15899
914.566	15975
914.68	15915
914.793	15804
914.906	15717
915.019	15648
915.132	15587
915.245	15591
915.358	15660
915.47	15625
915.583	15526
915.696	15622
915.809	15709
915.921	15751
916.034	15526
916.146	15534
916.259	15447
916.371	15523
916.483	15526
916.595	15336
916.708	15473
916.82	15405
916.932	15355
917.044	15336
917.156	15291
917.268	15340
917.38	15222
917.491	15287
917.603	15180
917.715	15237
917.826	15348
917.938	15180
918.049	14994
918.161	15081
918.272	15325
918.384	15188
918.495	15154
918.606	15036
918.717	14864
918.828	14933
918.939	15024
919.05	14971
919.161	14944
919.272	14632
919.383	14632
919.494	15036
919.604	15047
919.715	14910
919.826	14826
919.936	14876
920.047	14952
920.157	14925
920.267	15047
920.378	14948
920.488	14857
920.598	14975
920.708	15119
920.818	14979
920.928	14971
921.038	15192
921.148	15150
921.258	14834
921.368	14842
921.477	14674
921.587	14651
921.697	14450
921.806	14701
921.916	14480
922.025	14332
922.134	14301
922.244	14305
922.353	14339
922.462	14130
922.571	14027
922.68	13928
922.789	13784
922.898	13921
923.007	13871
923.116	13883
923.224	13860
923.333	13830
923.442	13822
923.55	13719
923.659	13704
923.767	13772
923.876	13685
923.984	13875
924.092	13521
924.201	13628
924.309	13609
924.417	13613
924.525	13483
924.633	13563
924.741	14446
924.849	13354
924.956	13480
925.064	13388
925.172	13304
925.279	13331
925.387	13396
925.494	13354
925.602	13426
925.709	13369
925.816	13232
925.924	13259
926.031	13293
926.138	13236
926.245	13278
926.352	13114
926.459	13289
926.566	13308
926.673	13232
926.779	13088
926.886	13057
926.993	12916
927.099	12859
927.206	12829
927.312	12817
927.419	12867
927.525	12814
927.631	12810
927.737	12798
927.843	12738
927.95	12506
928.056	12623
928.162	12776
928.267	12703
928.373	13209
928.479	12726
928.585	12551
928.69	12616
928.796	12639
928.901	12479
929.007	12467
929.112	12528
929.218	12479
929.323	12464
929.428	12452
929.533	12563
929.638	12391
929.743	12384
929.848	12429
929.953	12338
930.058	12224
930.163	12003
930.267	12144
930.372	12235
930.477	12079
930.581	12178
930.685	12057
930.79	11984
930.894	11958
930.998	11961
931.103	12098
931.207	11638
931.311	11630
931.415	11551
931.519	11284
931.623	11299
