Data from test_V78500241_2319.txt Node
Date: Fri Mar 25 15:26:00 CST 2022
User: usil
Spectrometer: V785-0024
Trigger mode: 0
Integration Time (sec): 4.000000E-1
Scans to average: 1
Nonlinearity correction enabled: false
Boxcar width: 0
Storing dark spectrum: false
XAxis mode: Wavelengths
Number of Pixels in Spectrum: 1024
>>>>>Begin Spectral Data<<<<<
801.071	27481
801.214	27218
801.356	27089
801.499	27142
801.641	26887
801.783	26845
801.926	27001
802.068	26819
802.211	26842
802.353	26868
802.496	26590
802.638	26625
802.78	26514
802.923	26594
803.065	26446
803.208	26473
803.35	26484
803.492	26735
803.635	26735
803.777	26720
803.919	26606
804.061	26967
804.204	26796
804.346	26705
804.488	26644
804.63	26686
804.773	26632
804.915	26678
805.057	26735
805.199	26720
805.341	26785
805.483	26746
805.626	26960
805.768	26777
805.91	26910
806.052	26769
806.194	26849
806.336	26937
806.478	26872
806.62	26785
806.762	27096
806.904	27142
807.046	27283
807.188	27230
807.33	27283
807.472	27370
807.614	27195
807.756	27336
807.898	27123
808.04	27150
808.182	27070
808.324	27184
808.465	27154
808.607	27264
808.749	27435
808.891	27549
809.033	27622
809.174	27397
809.316	27344
809.458	27443
809.6	27416
809.741	27469
809.883	27492
810.025	27690
810.166	27625
810.308	27591
810.45	27660
810.591	27530
810.733	27260
810.875	27370
811.016	27329
811.158	27275
811.299	27420
811.441	27492
811.582	27595
811.724	27401
811.865	27408
812.007	27294
812.148	27435
812.29	27420
812.431	27686
812.573	27854
812.714	27846
812.855	28002
812.997	28188
813.138	28261
813.279	28131
813.421	27972
813.562	27892
813.703	27854
813.845	27622
813.986	27378
814.127	27313
814.268	27028
814.41	27135
814.551	27142
814.692	27154
814.833	27142
814.974	27066
815.115	27275
815.256	27005
815.397	26864
815.539	26925
815.68	26864
815.821	26727
815.962	26948
816.103	26815
816.244	26629
816.385	26720
816.526	26636
816.666	26507
816.807	26347
816.948	26419
817.089	26556
817.23	26320
817.371	26412
817.512	26374
817.653	26332
817.793	26533
817.934	26381
818.075	26450
818.216	26317
818.356	26374
818.497	26282
818.638	25993
818.778	25993
818.919	26278
819.06	26248
819.2	26218
819.341	26343
819.481	26275
819.622	26476
819.762	26678
819.903	26583
820.043	26640
820.184	26434
820.324	26503
820.465	26583
820.605	26431
820.746	26431
820.886	26320
821.026	26438
821.167	26476
821.307	26404
821.447	26358
821.588	26298
821.728	26001
821.868	26119
822.008	25852
822.149	25845
822.289	25822
822.429	25514
822.569	25540
822.709	25476
822.849	25377
822.99	25289
823.13	25255
823.27	25354
823.41	25137
823.55	25053
823.69	25126
823.83	25065
823.97	25168
824.11	24943
824.25	24973
824.389	24920
824.529	25019
824.669	24916
824.809	25050
824.949	24875
825.089	24954
825.228	25004
825.368	24715
825.508	24802
825.648	24772
825.787	24992
825.927	24856
826.067	24806
826.206	24863
826.346	24810
826.485	24935
826.625	24810
826.765	24840
826.904	24844
827.044	24563
827.183	24646
827.323	24460
827.462	24738
827.601	24494
827.741	24547
827.88	24410
828.02	24327
828.159	24395
828.298	24521
828.437	24570
828.577	24414
828.716	24612
828.855	24456
828.994	24338
829.134	24254
829.273	24155
829.412	24197
829.551	24114
829.69	24155
829.829	24262
829.968	24334
830.107	24391
830.246	24186
830.385	24220
830.524	24060
830.663	24003
830.802	23999
830.941	23726
831.08	23939
831.219	23836
831.357	23942
831.496	24034
831.635	23958
831.774	23843
831.913	23714
832.051	23615
832.19	23646
832.329	23646
832.467	23471
832.606	23433
832.744	23547
832.883	23592
833.022	23459
833.16	23577
833.299	23471
833.437	23524
833.576	23520
833.714	23756
833.852	23604
833.991	23558
834.129	23733
834.267	23501
834.406	23551
834.544	23512
834.682	23608
834.821	23577
834.959	23699
835.097	23535
835.235	23661
835.373	23520
835.511	23482
835.65	23459
835.788	23444
835.926	23254
836.064	23083
836.202	23113
836.34	23410
836.478	23478
836.615	23307
836.753	23459
836.891	23509
837.029	23414
837.167	23311
837.305	23284
837.443	23231
837.58	23197
837.718	23223
837.856	23356
837.993	23147
838.131	23254
838.269	23200
838.406	23349
838.544	23067
838.681	23006
838.819	22904
838.956	22710
839.094	22763
839.231	22771
839.369	22862
839.506	23025
839.643	22949
839.781	22744
839.918	22637
840.055	22790
840.193	22717
840.33	22611
840.467	22546
840.604	22740
840.742	22866
840.879	22485
841.016	22626
841.153	22512
841.29	22763
841.427	22645
841.564	22736
841.701	22763
841.838	22637
841.975	22459
842.112	22580
842.249	22398
842.385	22409
842.522	22721
842.659	22523
842.796	22363
842.933	22325
843.069	22421
843.206	22356
843.343	22577
843.479	22611
843.616	22462
843.752	22238
843.889	22211
844.025	22333
844.162	22063
844.298	22242
844.435	22154
844.571	22287
844.708	22272
844.844	22348
844.98	22177
845.117	22299
845.253	22173
845.389	22025
845.525	22093
845.661	22158
845.798	21876
845.934	21949
846.07	21949
846.206	21953
846.342	22013
846.478	21720
846.614	21785
846.75	21587
846.886	21622
847.022	21793
847.158	21759
847.294	21648
847.429	21610
847.565	21641
847.701	21915
847.837	21378
847.972	21348
848.108	21591
848.244	21416
848.379	21218
848.515	21268
848.65	21218
848.786	21119
848.921	21268
849.057	21408
849.192	21382
849.328	21237
849.463	21363
849.598	21207
849.734	20944
849.869	21066
850.004	21013
850.14	21024
850.275	20990
850.41	20937
850.545	21013
850.68	20960
850.815	21032
850.95	21074
851.085	21195
851.22	21192
851.355	21096
851.49	20994
851.625	21028
851.76	20880
851.895	20864
852.03	20887
852.165	20906
852.299	21020
852.434	21104
852.569	21051
852.703	21001
852.838	21138
852.973	21116
853.107	21001
853.242	20956
853.376	20796
853.511	20762
853.645	20765
853.78	20906
853.914	20792
854.048	20754
854.183	20944
854.317	20914
854.451	20921
854.585	20849
854.72	20876
854.854	20975
854.988	20708
855.122	20823
855.256	20682
855.39	20842
855.524	20883
855.658	20902
855.792	20727
855.926	20845
856.06	20914
856.194	20960
856.327	20800
856.461	20727
856.595	20834
856.729	20792
856.862	21032
856.996	20804
857.13	20941
857.263	20872
857.397	20796
857.53	20796
857.664	20921
857.797	20910
857.931	20921
858.064	20944
858.197	20990
858.331	20811
858.464	20644
858.597	20758
858.731	20659
858.864	20823
858.997	20750
859.13	20944
859.263	20823
859.396	20933
859.529	20781
859.662	20796
859.795	20731
859.928	20834
860.061	20921
860.194	21104
860.327	20994
860.46	20788
860.592	20963
860.725	20967
860.858	20921
860.99	20861
861.123	20746
861.256	20754
861.388	20933
861.521	21618
861.653	20678
861.786	20693
861.918	20663
862.05	20758
862.183	20785
862.315	20788
862.447	20811
862.58	20796
862.712	20667
862.844	20461
862.976	20678
863.108	20564
863.24	20998
863.372	20530
863.504	20579
863.636	20579
863.768	20575
863.9	20488
864.032	20461
864.164	20629
864.296	20526
864.428	20640
864.559	20541
864.691	20541
864.823	20571
864.954	20545
865.086	20522
865.217	20499
865.349	20389
865.48	20355
865.612	20427
865.743	20602
865.875	20575
866.006	20419
866.137	20393
866.269	20396
866.4	20400
866.531	20473
866.662	20328
866.793	20355
866.924	20389
867.055	20461
867.186	20415
867.317	20256
867.448	20149
867.579	20355
867.71	20336
867.841	20301
867.972	20454
868.103	20400
868.233	20252
868.364	20461
868.495	20465
868.625	20564
868.756	20800
868.886	20617
869.017	20606
869.147	20746
869.278	20758
869.408	20575
869.539	20663
869.669	20682
869.799	20579
869.929	20689
870.06	20807
870.19	20921
870.32	20883
870.45	20895
870.58	21070
870.71	21028
870.84	21108
870.97	20925
871.1	20979
871.23	21089
871.36	21291
871.489	21146
871.619	21233
871.749	21260
871.879	21233
872.008	21245
872.138	21142
872.267	21188
872.397	21058
872.526	21192
872.656	21104
872.785	21024
872.915	21283
873.044	21294
873.173	21207
873.303	21412
873.432	21306
873.561	21310
873.69	21275
873.819	21211
873.948	21351
874.077	21355
874.206	21146
874.335	21192
874.464	21340
874.593	21549
874.722	21389
874.851	21587
874.979	21504
875.108	21458
875.237	21374
875.365	21382
875.494	21431
875.623	21610
875.751	21401
875.88	21561
876.008	21656
876.136	21663
876.265	21850
876.393	22029
876.521	22040
876.65	21937
876.778	21869
876.906	21937
877.034	21895
877.162	21888
877.29	21751
877.418	21850
877.546	21880
877.674	21873
877.802	21865
877.93	21789
878.058	21793
878.185	21724
878.313	21835
878.441	21797
878.568	21728
878.696	21804
878.824	21842
878.951	21956
879.079	22074
879.206	21979
879.333	22051
879.461	21854
879.588	21907
879.715	21975
879.842	22181
879.97	21884
880.097	21633
880.224	21732
880.351	21781
880.478	21686
880.605	21648
880.732	21717
880.859	21945
880.986	21713
881.112	21629
881.239	21553
881.366	21348
881.493	21199
881.619	21306
881.746	21241
881.872	21226
881.999	21131
882.125	21260
882.252	21211
882.378	21154
882.505	21382
882.631	21077
882.757	20994
882.883	21001
883.01	20960
883.136	21009
883.262	20781
883.388	20800
883.514	21028
883.64	21013
883.766	20883
883.892	20739
884.018	20796
884.143	20944
884.269	20941
884.395	20754
884.52	20514
884.646	20560
884.772	20503
884.897	20381
885.023	20606
885.148	20583
885.274	20777
885.399	20724
885.524	20602
885.65	20552
885.775	20632
885.9	20644
886.025	20689
886.15	20739
886.275	20522
886.4	20583
886.525	20533
886.65	20450
886.775	20545
886.9	20629
887.025	20765
887.149	20575
887.274	20431
887.399	20195
887.523	20282
887.648	20271
887.773	20267
887.897	20431
888.021	20408
888.146	20259
888.27	20423
888.395	20366
888.519	20434
888.643	20438
888.767	20412
888.891	20298
889.015	20199
889.139	20324
889.263	20126
889.387	20237
889.511	20374
889.635	20290
889.759	20122
889.883	20275
890.006	20233
890.13	20210
890.254	20225
890.377	20138
890.501	19947
890.624	20050
890.748	20020
890.871	19849
890.995	19750
891.118	19708
891.241	19864
891.364	19822
891.488	19879
891.611	19738
891.734	19727
891.857	19814
891.98	19818
892.103	19970
892.226	19704
892.349	19662
892.471	19601
892.594	19613
892.717	19734
892.839	19609
892.962	19567
893.085	19533
893.207	19651
893.33	19525
893.452	19670
893.575	19708
893.697	19639
893.819	19875
893.941	19849
894.064	19845
894.186	19601
894.308	19590
894.43	19685
894.552	19799
894.674	19662
894.796	19476
894.918	19753
895.04	19578
895.161	19704
895.283	19719
895.405	19480
895.526	19723
895.648	19514
895.769	19727
895.891	19731
896.012	19753
896.134	19826
896.255	19674
896.376	19670
896.498	19651
896.619	19635
896.74	19723
896.861	19689
896.982	19978
897.103	20210
897.224	19913
897.345	19909
897.466	19791
897.587	19811
897.708	19894
897.828	19887
897.949	19734
898.07	19776
898.19	19799
898.311	20039
898.431	19788
898.552	19906
898.672	19951
898.792	19978
898.913	19940
899.033	19826
899.153	19757
899.273	19624
899.393	19594
899.513	19734
899.633	19681
899.753	19700
899.873	19647
899.993	19674
900.113	19700
900.232	19693
900.352	19529
900.472	19525
900.591	19320
900.711	19449
900.83	19381
900.95	19419
901.069	19605
901.189	19217
901.308	19129
901.427	19160
901.546	19050
901.665	19038
901.784	19084
901.904	18951
902.023	18802
902.141	18665
902.26	18639
902.379	18551
902.498	18597
902.617	18509
902.735	18544
902.854	18506
902.973	18426
903.091	18243
903.21	18213
903.328	18239
903.446	18114
903.565	18030
903.683	18068
903.801	18022
903.919	18019
904.038	17904
904.156	17760
904.274	17809
904.392	17813
904.51	17779
904.627	17737
904.745	17794
904.863	17722
904.981	17573
905.098	17425
905.216	17387
905.334	17516
905.451	17433
905.569	17292
905.686	17535
905.803	17429
905.921	17208
906.038	17376
906.155	17265
906.272	17060
906.389	17193
906.506	17170
906.623	17071
906.74	17010
906.857	16938
906.974	17010
907.091	17014
907.208	17060
907.324	17117
907.441	16763
907.557	16713
907.674	16713
907.79	16752
907.907	16675
908.023	16778
908.139	16713
908.256	16729
908.372	16653
908.488	16603
908.604	16523
908.72	16413
908.836	16459
908.952	16413
909.068	16443
909.184	16478
909.3	16322
909.415	16341
909.531	16371
909.647	16177
909.762	16211
909.878	16188
909.993	16162
910.108	16071
910.224	16131
910.339	16055
910.454	16093
910.57	15991
910.685	15994
910.8	16185
910.915	16169
911.03	15972
911.145	15732
911.259	15770
911.374	15759
911.489	15682
911.604	15736
911.718	15534
911.833	15485
911.947	15397
912.062	15317
912.176	15507
912.291	15545
912.405	15458
912.519	15648
912.633	15667
912.748	15572
912.862	15454
912.976	15348
913.09	15184
913.204	15363
913.318	15370
913.431	15416
913.545	15344
913.659	15370
913.772	15310
913.886	15131
914	15104
914.113	15252
914.226	15275
914.34	15294
914.453	15055
914.566	15165
914.68	14979
914.793	14956
914.906	14853
915.019	14792
915.132	14777
915.245	14697
915.358	14762
915.47	14788
915.583	14682
915.696	14785
915.809	14876
915.921	14815
916.034	14670
916.146	14712
916.259	14602
916.371	14712
916.483	14750
916.595	14568
916.708	14598
916.82	14629
916.932	14602
917.044	14434
917.156	14499
917.268	14454
917.38	14427
917.491	14408
917.603	14484
917.715	14507
917.826	14431
917.938	14461
918.049	14313
918.161	14450
918.272	14457
918.384	14537
918.495	14328
918.606	14206
918.717	14172
918.828	14199
918.939	14263
919.05	14134
919.161	14221
919.272	14031
919.383	14088
919.494	14225
919.604	14256
919.715	14168
919.826	14039
919.936	14130
920.047	14195
920.157	14069
920.267	14339
920.378	14161
920.488	14157
920.598	14271
920.708	14385
920.818	14355
920.928	14290
921.038	14446
921.148	14393
921.258	14043
921.368	14039
921.477	13970
921.587	13837
921.697	13818
921.806	13898
921.916	13784
922.025	13578
922.134	13563
922.244	13495
922.353	13586
922.462	13411
922.571	13335
922.68	13168
922.789	13187
922.898	13175
923.007	13114
923.116	13236
923.224	13221
923.333	13050
923.442	13072
923.55	13107
923.659	13019
923.767	13053
923.876	12962
923.984	13206
924.092	12817
924.201	12951
924.309	12943
924.417	12973
924.525	12863
924.633	13027
924.741	13776
924.849	12795
924.956	12802
925.064	12654
925.172	12620
925.279	12589
925.387	12540
925.494	12635
925.602	12802
925.709	12665
925.816	12631
925.924	12627
926.031	12646
926.138	12597
926.245	12623
926.352	12467
926.459	12623
926.566	12623
926.673	12490
926.779	12334
926.886	12399
926.993	12262
927.099	12167
927.206	12136
927.312	12117
927.419	12285
927.525	12171
927.631	12273
927.737	12205
927.843	12038
927.95	12011
928.056	12068
928.162	11973
928.267	12095
928.373	12662
928.479	12095
928.585	11859
928.69	12026
928.796	12026
928.901	11874
929.007	11760
929.112	11927
929.218	11824
929.323	11882
929.428	11794
929.533	11954
929.638	11691
929.743	11809
929.848	11855
929.953	11741
930.058	11638
930.163	11463
930.267	11471
930.372	11600
930.477	11383
930.581	11748
930.685	11535
930.79	11421
930.894	11280
930.998	11216
931.103	11459
931.207	11105
931.311	10991
931.415	11006
931.519	10733
931.623	10748
