Data from test_V78500241_1043.txt Node
Date: Fri Mar 25 15:17:07 CST 2022
User: usil
Spectrometer: V785-0024
Trigger mode: 0
Integration Time (sec): 4.000000E-1
Scans to average: 1
Nonlinearity correction enabled: false
Boxcar width: 0
Storing dark spectrum: false
XAxis mode: Wavelengths
Number of Pixels in Spectrum: 1024
>>>>>Begin Spectral Data<<<<<
801.071	28318
801.214	28226
801.356	28078
801.499	28070
801.641	27937
801.783	27945
801.926	27998
802.068	27998
802.211	27743
802.353	27762
802.496	27580
802.638	27553
802.78	27648
802.923	27648
803.065	27473
803.208	27492
803.35	27576
803.492	27675
803.635	27629
803.777	27747
803.919	27732
804.061	28200
804.204	27842
804.346	27812
804.488	27694
804.63	27713
804.773	27728
804.915	27892
805.057	27812
805.199	27804
805.341	27960
805.483	27994
805.626	27899
805.768	27812
805.91	27869
806.052	27949
806.194	27914
806.336	28169
806.478	27979
806.62	27953
806.762	28196
806.904	28177
807.046	28512
807.188	28474
807.33	28352
807.472	28394
807.614	28291
807.756	28295
807.898	28386
808.04	28200
808.182	28162
808.324	28230
808.465	28280
808.607	28379
808.749	28634
808.891	28763
809.033	28729
809.174	28641
809.316	28599
809.458	28687
809.6	28615
809.741	28763
809.883	28740
810.025	28869
810.166	28873
810.308	28904
810.45	28888
810.591	28908
810.733	28702
810.875	28668
811.016	28523
811.158	28493
811.299	28744
811.441	28672
811.582	28812
811.724	28721
811.865	28599
812.007	28599
812.148	28656
812.29	28740
812.431	28839
812.573	28987
812.714	29052
812.855	29067
812.997	29239
813.138	29387
813.279	29288
813.421	29170
813.562	29132
813.703	29064
813.845	28839
813.986	28592
814.127	28474
814.268	28257
814.41	28306
814.551	28230
814.692	28466
814.833	28352
814.974	28234
815.115	28341
815.256	28196
815.397	28116
815.539	28284
815.68	28131
815.821	28029
815.962	28169
816.103	28112
816.244	28036
816.385	28044
816.526	27972
816.666	27842
816.807	27686
816.948	27785
817.089	27743
817.23	27606
817.371	27603
817.512	27618
817.653	27625
817.793	27641
817.934	27690
818.075	27641
818.216	27595
818.356	27705
818.497	27629
818.638	27382
818.778	27351
818.919	27332
819.06	27439
819.2	27526
819.341	27443
819.481	27686
819.622	27789
819.762	27934
819.903	27934
820.043	27766
820.184	27709
820.324	27888
820.465	27766
820.605	27873
820.746	27865
820.886	27679
821.026	27857
821.167	27679
821.307	27895
821.447	27660
821.588	27690
821.728	27283
821.868	27214
822.008	27142
822.149	26994
822.289	27116
822.429	26834
822.569	26921
822.709	26735
822.849	26663
822.99	26705
823.13	26415
823.27	26499
823.41	26511
823.55	26446
823.69	26495
823.83	26495
823.97	26415
824.11	26351
824.25	26259
824.389	26248
824.529	26263
824.669	26229
824.809	26453
824.949	26423
825.089	26438
825.228	26351
825.368	26164
825.508	26081
825.648	26256
825.787	26278
825.927	26237
826.067	26126
826.206	26191
826.346	26172
826.485	26309
826.625	26202
826.765	26362
826.904	26218
827.044	25989
827.183	26012
827.323	25784
827.462	25864
827.601	25811
827.741	25791
827.88	25887
828.02	25803
828.159	25852
828.298	25890
828.437	25925
828.577	25830
828.716	26058
828.855	25757
828.994	25552
829.134	25643
829.273	25700
829.412	25582
829.551	25533
829.69	25643
829.829	25518
829.968	25666
830.107	25689
830.246	25689
830.385	25476
830.524	25510
830.663	25460
830.802	25392
830.941	25198
831.08	25156
831.219	25244
831.357	25304
831.496	25552
831.635	25240
831.774	25152
831.913	25148
832.051	25027
832.19	24901
832.329	24992
832.467	24890
832.606	24977
832.744	24924
832.883	24882
833.022	24760
833.16	25038
833.299	24878
833.437	24985
833.576	25004
833.714	24924
833.852	24996
833.991	25046
834.129	25076
834.267	24985
834.406	25027
834.544	25012
834.682	24996
834.821	25038
834.959	25175
835.097	24802
835.235	25122
835.373	25027
835.511	24886
835.65	24783
835.788	24867
835.926	24703
836.064	24494
836.202	24684
836.34	24840
836.478	24905
836.615	24837
836.753	24859
836.891	24875
837.029	24795
837.167	24821
837.305	24795
837.443	24764
837.58	24574
837.718	24768
837.856	24593
837.993	24551
838.131	24681
838.269	24593
838.406	24578
838.544	24441
838.681	24213
838.819	24243
838.956	24098
839.094	24015
839.231	24201
839.369	24186
839.506	24456
839.643	24365
839.781	24197
839.918	24114
840.055	24178
840.193	24110
840.33	24095
840.467	23988
840.604	24076
840.742	24258
840.879	23821
841.016	23958
841.153	23885
841.29	24106
841.427	24011
841.564	23965
841.701	23950
841.838	23935
841.975	23843
842.112	23923
842.249	23752
842.385	23828
842.522	23882
842.659	23832
842.796	23851
842.933	23752
843.069	23726
843.206	23748
843.343	23771
843.479	23756
843.616	23775
843.752	23581
843.889	23653
844.025	23615
844.162	23676
844.298	23729
844.435	23589
844.571	23429
844.708	23547
844.844	23824
844.98	23710
845.117	23634
845.253	23414
845.389	23414
845.525	23459
845.661	23387
845.798	23231
845.934	23345
846.07	23220
846.206	23216
846.342	23467
846.478	23254
846.614	22938
846.75	22938
846.886	23006
847.022	23056
847.158	23155
847.294	23136
847.429	23166
847.565	22934
847.701	23330
847.837	22793
847.972	22702
848.108	22805
848.244	22831
848.379	22755
848.515	22641
848.65	22557
848.786	22584
848.921	22668
849.057	22786
849.192	22786
849.328	22721
849.463	22588
849.598	22618
849.734	22432
849.869	22535
850.004	22554
850.14	22314
850.275	22451
850.41	22265
850.545	22257
850.68	22333
850.815	22363
850.95	22363
851.085	22519
851.22	22489
851.355	22417
851.49	22470
851.625	22325
851.76	22360
851.895	22287
852.03	22192
852.165	22341
852.299	22344
852.434	22379
852.569	22344
852.703	22303
852.838	22428
852.973	22390
853.107	22451
853.242	22268
853.376	22204
853.511	22067
853.645	22257
853.78	22299
853.914	22230
854.048	22185
854.183	22173
854.317	22032
854.451	22382
854.585	22306
854.72	22128
854.854	22322
854.988	22109
855.122	22223
855.256	21983
855.39	22162
855.524	22188
855.658	22188
855.792	22166
855.926	22211
856.06	22226
856.194	22238
856.327	22109
856.461	22196
856.595	22166
856.729	22181
856.862	22299
856.996	22086
857.13	22402
857.263	22337
857.397	22367
857.53	22131
857.664	22192
857.797	22249
857.931	22325
858.064	22303
858.197	22272
858.331	22196
858.464	22177
858.597	22059
858.731	22249
858.864	22105
858.997	22200
859.13	22147
859.263	22211
859.396	22268
859.529	22200
859.662	22150
859.795	22188
859.928	22226
860.061	22360
860.194	22363
860.327	22230
860.46	22150
860.592	22348
860.725	22348
860.858	22333
860.99	22192
861.123	22070
861.256	22063
861.388	22158
861.521	22831
861.653	21945
861.786	21911
861.918	21922
862.05	22112
862.183	22177
862.315	22116
862.447	22196
862.58	22192
862.712	21960
862.844	21937
862.976	22010
863.108	21895
863.24	22341
863.372	21770
863.504	21991
863.636	21869
863.768	21960
863.9	21823
864.032	21755
864.164	21804
864.296	21922
864.428	21888
864.559	21895
864.691	21991
864.823	21789
864.954	21831
865.086	21778
865.217	21831
865.349	21701
865.48	21819
865.612	21812
865.743	21827
865.875	21842
866.006	21728
866.137	21663
866.269	21732
866.4	21747
866.531	21739
866.662	21717
866.793	21637
866.924	21625
867.055	21667
867.186	21720
867.317	21629
867.448	21591
867.579	21679
867.71	21625
867.841	21572
867.972	21789
868.103	21762
868.233	21682
868.364	21686
868.495	21732
868.625	21907
868.756	22086
868.886	21827
869.017	22017
869.147	22101
869.278	22017
869.408	21915
869.539	21941
869.669	21926
869.799	22044
869.929	22063
870.06	22029
870.19	22242
870.32	22185
870.45	22257
870.58	22352
870.71	22405
870.84	22299
870.97	22424
871.1	22375
871.23	22527
871.36	22459
871.489	22291
871.619	22504
871.749	22478
871.879	22645
872.008	22649
872.138	22504
872.267	22557
872.397	22333
872.526	22386
872.656	22325
872.785	22284
872.915	22550
873.044	22573
873.173	22565
873.303	22592
873.432	22607
873.561	22599
873.69	22523
873.819	22554
873.948	22607
874.077	22500
874.206	22637
874.335	22561
874.464	22755
874.593	22847
874.722	22679
874.851	22809
874.979	22835
875.108	22759
875.237	22672
875.365	22729
875.494	22721
875.623	22694
875.751	22687
875.88	22706
876.008	22858
876.136	22957
876.265	23083
876.393	23242
876.521	23216
876.65	23140
876.778	23151
876.906	23197
877.034	23231
877.162	23010
877.29	22999
877.418	23147
877.546	23204
877.674	22976
877.802	23003
877.93	23185
878.058	22953
878.185	23140
878.313	23090
878.441	23014
878.568	22923
878.696	23048
878.824	23094
878.951	23227
879.079	23284
879.206	23322
879.333	23140
879.461	23124
879.588	23235
879.715	23208
879.842	23417
879.97	23060
880.097	22923
880.224	22915
880.351	23014
880.478	22930
880.605	22915
880.732	22942
880.859	23181
880.986	22900
881.112	22942
881.239	22847
881.366	22687
881.493	22508
881.619	22542
881.746	22538
881.872	22451
881.999	22413
882.125	22367
882.252	22554
882.378	22451
882.505	22538
882.631	22291
882.757	22143
882.883	22204
883.01	22116
883.136	22086
883.262	22105
883.388	21983
883.514	22109
883.64	22154
883.766	22192
883.892	21907
884.018	21968
884.143	22116
884.269	22181
884.395	21865
884.52	21701
884.646	21781
884.772	21717
884.897	21663
885.023	21846
885.148	21850
885.274	21994
885.399	21964
885.524	21736
885.65	21789
885.775	21698
885.9	21793
886.025	21884
886.15	21926
886.275	21800
886.4	21762
886.525	21713
886.65	21747
886.775	21778
886.9	21903
887.025	22063
887.149	21747
887.274	21637
887.399	21583
887.523	21500
887.648	21481
887.773	21473
887.897	21606
888.021	21679
888.146	21473
888.27	21629
888.395	21690
888.519	21629
888.643	21538
888.767	21705
888.891	21534
889.015	21450
889.139	21252
889.263	21302
889.387	21443
889.511	21466
889.635	21359
889.759	21454
889.883	21382
890.006	21317
890.13	21431
890.254	21195
890.377	21272
890.501	21070
890.624	21119
890.748	21150
890.871	20929
890.995	20921
891.118	20811
891.241	20921
891.364	20910
891.488	21051
891.611	20933
891.734	20880
891.857	21089
891.98	20842
892.103	21074
892.226	20891
892.349	20823
892.471	20655
892.594	20765
892.717	20807
892.839	20811
892.962	20792
893.085	20712
893.207	20815
893.33	20724
893.452	20777
893.575	20864
893.697	20765
893.819	20906
893.941	20910
894.064	20883
894.186	20739
894.308	20686
894.43	20788
894.552	20781
894.674	20845
894.796	20716
894.918	20838
895.04	20682
895.161	20796
895.283	20906
895.405	20682
895.526	20830
895.648	20651
895.769	20868
895.891	20804
896.012	20956
896.134	20823
896.255	20720
896.376	20804
896.498	20746
896.619	20933
896.74	20720
896.861	20777
896.982	20998
897.103	21252
897.224	20998
897.345	20944
897.466	20895
897.587	21058
897.708	21146
897.828	20914
897.949	20918
898.07	20788
898.19	20838
898.311	20971
898.431	20899
898.552	20948
898.672	20971
898.792	20956
898.913	20925
899.033	20792
899.153	20796
899.273	20575
899.393	20640
899.513	20705
899.633	20727
899.753	20701
899.873	20613
899.993	20682
900.113	20644
900.232	20667
900.352	20621
900.472	20583
900.591	20492
900.711	20522
900.83	20404
900.95	20514
901.069	20606
901.189	20377
901.308	20107
901.427	20050
901.546	20012
901.665	20107
901.784	20050
901.904	19921
902.023	19807
902.141	19590
902.26	19586
902.379	19578
902.498	19712
902.617	19445
902.735	19548
902.854	19521
902.973	19480
903.091	19339
903.21	19190
903.328	19126
903.446	19156
903.565	19187
903.683	19027
903.801	18882
903.919	18996
904.038	18920
904.156	18768
904.274	18897
904.392	18867
904.51	18658
904.627	18726
904.745	18779
904.863	18817
904.981	18589
905.098	18521
905.216	18467
905.334	18525
905.451	18460
905.569	18418
905.686	18483
905.803	18475
905.921	18228
906.038	18365
906.155	18273
906.272	18057
906.389	18155
906.506	18041
906.623	17965
906.74	17939
906.857	17950
906.974	17737
907.091	17939
907.208	18091
907.324	18136
907.441	17916
907.557	17760
907.674	17737
907.79	17611
907.907	17627
908.023	17764
908.139	17566
908.256	17722
908.372	17657
908.488	17539
908.604	17459
908.72	17402
908.836	17349
908.952	17391
909.068	17501
909.184	17455
909.3	17421
909.415	17455
909.531	17414
909.647	17166
909.762	17162
909.878	17090
909.993	17064
910.108	17136
910.224	16976
910.339	17128
910.454	16938
910.57	16984
910.685	16854
910.8	17041
910.915	17090
911.03	16885
911.145	16755
911.259	16691
911.374	16767
911.489	16664
911.604	16531
911.718	16447
911.833	16580
911.947	16455
912.062	16291
912.176	16493
912.291	16352
912.405	16360
912.519	16588
912.633	16542
912.748	16466
912.862	16371
912.976	16265
913.09	16078
913.204	16211
913.318	16257
913.431	16344
913.545	16322
913.659	16310
913.772	16261
913.886	16150
914	16059
914.113	16204
914.226	16124
914.34	16006
914.453	15911
914.566	15968
914.68	15945
914.793	15800
914.906	15713
915.019	15629
915.132	15618
915.245	15656
915.358	15690
915.47	15648
915.583	15633
915.696	15633
915.809	15732
915.921	15717
916.034	15599
916.146	15538
916.259	15545
916.371	15618
916.483	15545
916.595	15408
916.708	15458
916.82	15401
916.932	15310
917.044	15481
917.156	15420
917.268	15252
917.38	15275
917.491	15252
917.603	15370
917.715	15359
917.826	15340
917.938	15256
918.049	15131
918.161	15169
918.272	15344
918.384	15249
918.495	15169
918.606	15039
918.717	15028
918.828	15013
918.939	15131
919.05	14899
919.161	14994
919.272	14750
919.383	14811
919.494	15055
919.604	15218
919.715	14899
919.826	15009
919.936	14944
920.047	15043
920.157	14982
920.267	15146
920.378	15017
920.488	14880
920.598	15161
920.708	15131
920.818	15138
920.928	15077
921.038	15245
921.148	15150
921.258	15001
921.368	14796
921.477	14731
921.587	14701
921.697	14678
921.806	14777
921.916	14568
922.025	14381
922.134	14332
922.244	14290
922.353	14374
922.462	14214
922.571	14077
922.68	14024
922.789	13944
922.898	13864
923.007	13898
923.116	13963
923.224	13955
923.333	13932
923.442	13860
923.55	13807
923.659	13795
923.767	13750
923.876	13696
923.984	13826
924.092	13753
924.201	13769
924.309	13681
924.417	13689
924.525	13662
924.633	13651
924.741	14564
924.849	13457
924.956	13559
925.064	13335
925.172	13365
925.279	13343
925.387	13441
925.494	13381
925.602	13544
925.709	13362
925.816	13190
925.924	13278
926.031	13400
926.138	13187
926.245	13346
926.352	13133
926.459	13324
926.566	13270
926.673	13240
926.779	13164
926.886	13091
926.993	12905
927.099	12909
927.206	12848
927.312	12894
927.419	12871
927.525	12928
927.631	12939
927.737	12726
927.843	12772
927.95	12616
928.056	12711
928.162	12734
928.267	12692
928.373	13206
928.479	12791
928.585	12502
928.69	12665
928.796	12669
928.901	12551
929.007	12448
929.112	12517
929.218	12601
929.323	12464
929.428	12395
929.533	12635
929.638	12216
929.743	12403
929.848	12532
929.953	12414
930.058	12251
930.163	12110
930.267	12144
930.372	12182
930.477	12087
930.581	12292
930.685	12155
930.79	12030
930.894	11984
930.998	11885
931.103	12079
931.207	11802
931.311	11688
931.415	11497
931.519	11337
931.623	11406
