Data from test_V78500241_1374.txt Node
Date: Fri Mar 25 15:19:25 CST 2022
User: usil
Spectrometer: V785-0024
Trigger mode: 0
Integration Time (sec): 4.000000E-1
Scans to average: 1
Nonlinearity correction enabled: false
Boxcar width: 0
Storing dark spectrum: false
XAxis mode: Wavelengths
Number of Pixels in Spectrum: 1024
>>>>>Begin Spectral Data<<<<<
801.071	28226
801.214	28128
801.356	27743
801.499	27781
801.641	27633
801.783	27732
801.926	27614
802.068	27690
802.211	27751
802.353	27538
802.496	27184
802.638	27382
802.78	27218
802.923	27412
803.065	27169
803.208	27222
803.35	27256
803.492	27458
803.635	27443
803.777	27500
803.919	27644
804.061	27679
804.204	27633
804.346	27507
804.488	27374
804.63	27557
804.773	27351
804.915	27629
805.057	27564
805.199	27564
805.341	27705
805.483	27732
805.626	27686
805.768	27564
805.91	27572
806.052	27663
806.194	27610
806.336	27892
806.478	27603
806.62	27705
806.762	27789
806.904	27876
807.046	28101
807.188	28150
807.33	28128
807.472	28143
807.614	28124
807.756	27930
807.898	27949
808.04	27914
808.182	27998
808.324	28029
808.465	28002
808.607	28173
808.749	28295
808.891	28512
809.033	28519
809.174	28352
809.316	28322
809.458	28276
809.6	28280
809.741	28341
809.883	28455
810.025	28653
810.166	28561
810.308	28660
810.45	28508
810.591	28504
810.733	28390
810.875	28413
811.016	28204
811.158	28158
811.299	28337
811.441	28459
811.582	28485
811.724	28310
811.865	28268
812.007	28287
812.148	28310
812.29	28485
812.431	28516
812.573	28603
812.714	28687
812.855	28869
812.997	28953
813.138	29041
813.279	29239
813.421	28888
813.562	28854
813.703	28729
813.845	28447
813.986	28272
814.127	28162
814.268	27926
814.41	28063
814.551	27930
814.692	28051
814.833	27968
814.974	28013
815.115	28006
815.256	27945
815.397	27914
815.539	27728
815.68	27808
815.821	27789
815.962	27873
816.103	27705
816.244	27614
816.385	27553
816.526	27504
816.666	27348
816.807	27298
816.948	27329
817.089	27477
817.23	27427
817.371	27283
817.512	27317
817.653	27241
817.793	27283
817.934	27161
818.075	27420
818.216	27241
818.356	27355
818.497	27272
818.638	26948
818.778	27142
818.919	27070
819.06	27165
819.2	27184
819.341	27382
819.481	27306
819.622	27420
819.762	27705
819.903	27591
820.043	27507
820.184	27393
820.324	27363
820.465	27564
820.605	27553
820.746	27351
820.886	27325
821.026	27386
821.167	27367
821.307	27408
821.447	27306
821.588	27222
821.728	27142
821.868	27081
822.008	26712
822.149	26887
822.289	26682
822.429	26552
822.569	26514
822.709	26488
822.849	26377
822.99	26343
823.13	26278
823.27	26282
823.41	26176
823.55	26008
823.69	26119
823.83	26100
823.97	26115
824.11	25902
824.25	25959
824.389	25906
824.529	25963
824.669	25959
824.809	26115
824.949	26035
825.089	26054
825.228	25966
825.368	25807
825.508	25776
825.648	25791
825.787	25818
825.927	25932
826.067	25784
826.206	25833
826.346	25860
826.485	25913
826.625	25791
826.765	25852
826.904	25868
827.044	25609
827.183	25548
827.323	25651
827.462	25662
827.601	25559
827.741	25597
827.88	25525
828.02	25411
828.159	25479
828.298	25544
828.437	25552
828.577	25506
828.716	25624
828.855	25510
828.994	25358
829.134	25175
829.273	25400
829.412	25289
829.551	25194
829.69	25232
829.829	25251
829.968	25343
830.107	25179
830.246	25308
830.385	25183
830.524	25114
830.663	25118
830.802	24916
830.941	24905
831.08	24867
831.219	24905
831.357	24920
831.496	25148
831.635	24802
831.774	24791
831.913	24772
832.051	24635
832.19	24661
832.329	24749
832.467	24521
832.606	24563
832.744	24479
832.883	24559
833.022	24456
833.16	24551
833.299	24551
833.437	24631
833.576	24616
833.714	24525
833.852	24719
833.991	24631
834.129	24665
834.267	24696
834.406	24593
834.544	24726
834.682	24719
834.821	24525
834.959	24802
835.097	24635
835.235	24589
835.373	24589
835.511	24574
835.65	24414
835.788	24517
835.926	24281
836.064	24323
836.202	24262
836.34	24384
836.478	24490
836.615	24395
836.753	24528
836.891	24551
837.029	24452
837.167	24319
837.305	24384
837.443	24433
837.58	24357
837.718	24380
837.856	24159
837.993	24194
838.131	24315
838.269	24034
838.406	24220
838.544	24197
838.681	24003
838.819	23843
838.956	23760
839.094	23646
839.231	23722
839.369	23977
839.506	24220
839.643	23893
839.781	23748
839.918	23684
840.055	23737
840.193	23718
840.33	23687
840.467	23638
840.604	23684
840.742	23840
840.879	23566
841.016	23611
841.153	23482
841.29	23756
841.427	23596
841.564	23748
841.701	23585
841.838	23668
841.975	23455
842.112	23608
842.249	23455
842.385	23322
842.522	23596
842.659	23452
842.796	23337
842.933	23490
843.069	23444
843.206	23315
843.343	23463
843.479	23478
843.616	23387
843.752	23261
843.889	23220
844.025	23307
844.162	23071
844.298	23197
844.435	23258
844.571	23212
844.708	23178
844.844	23208
844.98	23216
845.117	23322
845.253	23189
845.389	22995
845.525	22972
845.661	23098
845.798	22877
845.934	22831
846.07	22889
846.206	22968
846.342	22987
846.478	22923
846.614	22786
846.75	22626
846.886	22634
847.022	22713
847.158	22664
847.294	22580
847.429	22653
847.565	22637
847.701	22904
847.837	22447
847.972	22341
848.108	22386
848.244	22242
848.379	22371
848.515	22219
848.65	22268
848.786	22188
848.921	22162
849.057	22306
849.192	22322
849.328	22257
849.463	22158
849.598	22154
849.734	22078
849.869	22082
850.004	22036
850.14	21998
850.275	22013
850.41	21892
850.545	21892
850.68	21907
850.815	22036
850.95	22029
851.085	22173
851.22	22048
851.355	21975
851.49	21975
851.625	21972
851.76	21918
851.895	21865
852.03	21956
852.165	22040
852.299	21903
852.434	22059
852.569	22063
852.703	21918
852.838	21956
852.973	22105
853.107	21915
853.242	21888
853.376	21884
853.511	21766
853.645	21861
853.78	21812
853.914	21854
854.048	21785
854.183	21823
854.317	21922
854.451	21998
854.585	21682
854.72	21873
854.854	21854
854.988	21709
855.122	21774
855.256	21618
855.39	21781
855.524	21819
855.658	21880
855.792	21724
855.926	21755
856.06	21880
856.194	21937
856.327	21728
856.461	21663
856.595	21728
856.729	21789
856.862	21850
856.996	21884
857.13	21884
857.263	21838
857.397	21816
857.53	21747
857.664	21789
857.797	21956
857.931	21907
858.064	21945
858.197	21937
858.331	21816
858.464	21694
858.597	21766
858.731	21690
858.864	21717
858.997	21644
859.13	21705
859.263	21747
859.396	21934
859.529	21755
859.662	21644
859.795	21808
859.928	21747
860.061	21835
860.194	22074
860.327	21846
860.46	21831
860.592	21953
860.725	21949
860.858	21895
860.99	21816
861.123	21686
861.256	21576
861.388	21831
861.521	22382
861.653	21591
861.786	21549
861.918	21591
862.05	21675
862.183	21686
862.315	21808
862.447	21819
862.58	21587
862.712	21477
862.844	21462
862.976	21599
863.108	21606
863.24	21895
863.372	21424
863.504	21466
863.636	21469
863.768	21496
863.9	21481
864.032	21321
864.164	21344
864.296	21591
864.428	21625
864.559	21526
864.691	21511
864.823	21507
864.954	21477
865.086	21561
865.217	21351
865.349	21355
865.48	21329
865.612	21393
865.743	21428
865.875	21359
866.006	21408
866.137	21439
866.269	21454
866.4	21374
866.531	21313
866.662	21241
866.793	21382
866.924	21176
867.055	21412
867.186	21256
867.317	21199
867.448	21298
867.579	21428
867.71	21173
867.841	21268
867.972	21363
868.103	21192
868.233	21389
868.364	21169
868.495	21450
868.625	21488
868.756	21675
868.886	21530
869.017	21618
869.147	21686
869.278	21576
869.408	21625
869.539	21511
869.669	21660
869.799	21568
869.929	21641
870.06	21625
870.19	21854
870.32	21903
870.45	21808
870.58	22032
870.71	22032
870.84	22048
870.97	21953
871.1	21983
871.23	22067
871.36	22143
871.489	22139
871.619	22162
871.749	22188
871.879	22226
872.008	22272
872.138	22078
872.267	22131
872.397	22013
872.526	21930
872.656	21998
872.785	21903
872.915	22207
873.044	22257
873.173	22215
873.303	22272
873.432	22306
873.561	22158
873.69	22150
873.819	22059
873.948	22150
874.077	22200
874.206	22090
874.335	22070
874.464	22234
874.593	22394
874.722	22226
874.851	22379
874.979	22280
875.108	22352
875.237	22371
875.365	22249
875.494	22306
875.623	22394
875.751	22310
875.88	22322
876.008	22478
876.136	22554
876.265	22809
876.393	22831
876.521	22763
876.65	22839
876.778	22812
876.906	22660
877.034	22755
877.162	22713
877.29	22755
877.418	22713
877.546	22797
877.674	22641
877.802	22736
877.93	22782
878.058	22706
878.185	22660
878.313	22816
878.441	22755
878.568	22417
878.696	22675
878.824	22641
878.951	22812
879.079	22843
879.206	23090
879.333	22862
879.461	22816
879.588	22862
879.715	22824
879.842	22896
879.97	22748
880.097	22512
880.224	22565
880.351	22637
880.478	22512
880.605	22474
880.732	22500
880.859	22812
880.986	22546
881.112	22599
881.239	22421
881.366	22219
881.493	22196
881.619	22135
881.746	22177
881.872	22192
881.999	22051
882.125	22135
882.252	22147
882.378	21964
882.505	22116
882.631	21869
882.757	21789
882.883	21949
883.01	21804
883.136	21892
883.262	21583
883.388	21747
883.514	21781
883.64	21789
883.766	21698
883.892	21507
884.018	21637
884.143	21781
884.269	21785
884.395	21507
884.52	21500
884.646	21393
884.772	21317
884.897	21367
885.023	21447
885.148	21500
885.274	21637
885.399	21599
885.524	21526
885.65	21344
885.775	21507
885.9	21412
886.025	21572
886.15	21443
886.275	21283
886.4	21363
886.525	21511
886.65	21294
886.775	21287
886.9	21530
887.025	21568
887.149	21424
887.274	21241
887.399	21058
887.523	21218
887.648	21195
887.773	21112
887.897	21283
888.021	21176
888.146	21070
888.27	21161
888.395	21332
888.519	21199
888.643	21283
888.767	21218
888.891	21173
889.015	21089
889.139	20979
889.263	20963
889.387	21123
889.511	21233
889.635	21036
889.759	20963
889.883	20952
890.006	20937
890.13	21089
890.254	20906
890.377	20963
890.501	20746
890.624	20716
890.748	20792
890.871	20579
890.995	20625
891.118	20434
891.241	20545
891.364	20644
891.488	20606
891.611	20522
891.734	20606
891.857	20644
891.98	20640
892.103	20625
892.226	20587
892.349	20476
892.471	20377
892.594	20400
892.717	20499
892.839	20488
892.962	20552
893.085	20621
893.207	20446
893.33	20408
893.452	20336
893.575	20579
893.697	20446
893.819	20476
893.941	20602
894.064	20526
894.186	20484
894.308	20309
894.43	20545
894.552	20533
894.674	20613
894.796	20370
894.918	20465
895.04	20377
895.161	20522
895.283	20476
895.405	20457
895.526	20377
895.648	20358
895.769	20495
895.891	20480
896.012	20533
896.134	20568
896.255	20393
896.376	20469
896.498	20476
896.619	20514
896.74	20423
896.861	20415
896.982	20670
897.103	20941
897.224	20667
897.345	20785
897.466	20651
897.587	20670
897.708	20868
897.828	20670
897.949	20644
898.07	20511
898.19	20492
898.311	20754
898.431	20663
898.552	20587
898.672	20689
898.792	20807
898.913	20746
899.033	20564
899.153	20454
899.273	20320
899.393	20423
899.513	20446
899.633	20442
899.753	20480
899.873	20457
899.993	20328
900.113	20389
900.232	20404
900.352	20313
900.472	20290
900.591	20252
900.711	20214
900.83	20119
900.95	20286
901.069	20218
901.189	20065
901.308	19883
901.427	19776
901.546	19715
901.665	19772
901.784	19700
901.904	19597
902.023	19590
902.141	19335
902.26	19324
902.379	19304
902.498	19331
902.617	19221
902.735	19282
902.854	19263
902.973	19148
903.091	18954
903.21	18993
903.328	18939
903.446	18897
903.565	18795
903.683	18753
903.801	18654
903.919	18635
904.038	18658
904.156	18551
904.274	18601
904.392	18380
904.51	18513
904.627	18597
904.745	18551
904.863	18582
904.981	18330
905.098	18213
905.216	18076
905.334	18216
905.451	18247
905.569	17999
905.686	18171
905.803	18102
905.921	17969
906.038	18083
906.155	17927
906.272	17863
906.389	17927
906.506	17813
906.623	17718
906.74	17619
906.857	17490
906.974	17596
907.091	17718
907.208	17798
907.324	17684
907.441	17478
907.557	17436
907.674	17364
907.79	17341
907.907	17296
908.023	17398
908.139	17448
908.256	17395
908.372	17280
908.488	17318
908.604	17117
908.72	16984
908.836	17181
908.952	17174
909.068	17185
909.184	17128
909.3	17124
909.415	17147
909.531	17075
909.647	16942
909.762	16858
909.878	16809
909.993	16828
910.108	16812
910.224	16767
910.339	16850
910.454	16713
910.57	16607
910.685	16546
910.8	16869
910.915	16828
911.03	16554
911.145	16462
911.259	16489
911.374	16382
911.489	16299
911.604	16306
911.718	16158
911.833	16013
911.947	15972
912.062	15960
912.176	16143
912.291	16059
912.405	16090
912.519	16276
912.633	16287
912.748	16192
912.862	16147
912.976	15991
913.09	15888
913.204	15922
913.318	15960
913.431	16067
913.545	15979
913.659	15987
913.772	15979
913.886	15747
914	15759
914.113	15747
914.226	15865
914.34	15816
914.453	15682
914.566	15747
914.68	15724
914.793	15515
914.906	15515
915.019	15374
915.132	15214
915.245	15329
915.358	15344
915.47	15367
915.583	15325
915.696	15401
915.809	15408
915.921	15481
916.034	15287
916.146	15241
916.259	15199
916.371	15306
916.483	15363
916.595	15116
916.708	15313
916.82	15180
916.932	15161
917.044	15214
917.156	15051
917.268	15005
917.38	14952
917.491	14971
917.603	15058
917.715	15066
917.826	15100
917.938	14925
918.049	14883
918.161	14986
918.272	15028
918.384	15009
918.495	14925
918.606	14750
918.717	14697
918.828	14811
918.939	14883
919.05	14621
919.161	14777
919.272	14461
919.383	14598
919.494	14765
919.604	14914
919.715	14720
919.826	14705
919.936	14720
920.047	14773
920.157	14731
920.267	14899
920.378	14610
920.488	14670
920.598	14826
920.708	15070
920.818	14826
920.928	14849
921.038	14971
921.148	15005
921.258	14701
921.368	14579
921.477	14438
921.587	14442
921.697	14351
921.806	14564
921.916	14278
922.025	14119
922.134	14126
922.244	14065
922.353	14134
922.462	13921
922.571	13917
922.68	13681
922.789	13746
922.898	13727
923.007	13620
923.116	13750
923.224	13761
923.333	13715
923.442	13540
923.55	13620
923.659	13620
923.767	13723
923.876	13491
923.984	13499
924.092	13381
924.201	13544
924.309	13457
924.417	13407
924.525	13377
924.633	13449
924.741	14111
924.849	13209
924.956	13350
925.064	13225
925.172	13137
925.279	13095
925.387	13133
925.494	13206
925.602	13206
925.709	13145
925.816	13053
925.924	13088
926.031	13076
926.138	13103
926.245	13175
926.352	12867
926.459	13194
926.566	13156
926.673	12977
926.779	12924
926.886	12844
926.993	12856
927.099	12612
927.206	12620
927.312	12616
927.419	12810
927.525	12791
927.631	12757
927.737	12494
927.843	12509
927.95	12422
928.056	12479
928.162	12509
928.267	12540
928.373	13118
928.479	12646
928.585	12308
928.69	12532
928.796	12540
928.901	12338
929.007	12311
929.112	12422
929.218	12315
929.323	12289
929.428	12224
929.533	12319
929.638	12106
929.743	12224
929.848	12125
929.953	12197
930.058	12064
930.163	11931
930.267	11889
930.372	12041
930.477	11843
930.581	12114
930.685	11996
930.79	11783
930.894	11824
930.998	11771
931.103	11824
931.207	11554
931.311	11429
931.415	11391
931.519	11201
931.623	11197
