Data from test_V78500241_1542.txt Node
Date: Fri Mar 25 15:20:35 CST 2022
User: usil
Spectrometer: V785-0024
Trigger mode: 0
Integration Time (sec): 4.000000E-1
Scans to average: 1
Nonlinearity correction enabled: false
Boxcar width: 0
Storing dark spectrum: false
XAxis mode: Wavelengths
Number of Pixels in Spectrum: 1024
>>>>>Begin Spectral Data<<<<<
801.071	28017
801.214	28013
801.356	27785
801.499	27629
801.641	27694
801.783	27622
801.926	27637
802.068	27766
802.211	27538
802.353	27572
802.496	27355
802.638	27359
802.78	27332
802.923	27211
803.065	27173
803.208	27222
803.35	27424
803.492	27462
803.635	27462
803.777	27374
803.919	27519
804.061	27964
804.204	27469
804.346	27412
804.488	27454
804.63	27412
804.773	27420
804.915	27595
805.057	27641
805.199	27321
805.341	27458
805.483	27778
805.626	27705
805.768	27473
805.91	27629
806.052	27614
806.194	27641
806.336	27873
806.478	27610
806.62	27778
806.762	27842
806.904	27789
807.046	28116
807.188	28181
807.33	28029
807.472	28147
807.614	28025
807.756	28059
807.898	28097
808.04	27934
808.182	27888
808.324	27888
808.465	27991
808.607	28147
808.749	28265
808.891	28341
809.033	28337
809.174	28394
809.316	28230
809.458	28253
809.6	28303
809.741	28455
809.883	28421
810.025	28611
810.166	28691
810.308	28626
810.45	28390
810.591	28615
810.733	28375
810.875	28344
811.016	28074
811.158	28124
811.299	28386
811.441	28440
811.582	28470
811.724	28253
811.865	28207
812.007	28291
812.148	28272
812.29	28261
812.431	28557
812.573	28744
812.714	28782
812.855	28881
812.997	28976
813.138	29056
813.279	28858
813.421	28694
813.562	28847
813.703	28706
813.845	28580
813.986	28325
814.127	28109
814.268	27888
814.41	27880
814.551	27998
814.692	28139
814.833	27899
814.974	28154
815.115	28112
815.256	27899
815.397	27907
815.539	27842
815.68	27922
815.821	27690
815.962	27739
816.103	27869
816.244	27606
816.385	27656
816.526	27488
816.666	27378
816.807	27252
816.948	27298
817.089	27511
817.23	27332
817.371	27131
817.512	27245
817.653	27173
817.793	27310
817.934	27218
818.075	27241
818.216	27256
818.356	27233
818.497	27089
818.638	26933
818.778	27005
818.919	27043
819.06	27077
819.2	27173
819.341	27252
819.481	27317
819.622	27359
819.762	27583
819.903	27431
820.043	27488
820.184	27526
820.324	27447
820.465	27382
820.605	27310
820.746	27363
820.886	27298
821.026	27351
821.167	27504
821.307	27443
821.447	27291
821.588	27169
821.728	27123
821.868	27112
822.008	26792
822.149	26765
822.289	26765
822.429	26396
822.569	26469
822.709	26362
822.849	26400
822.99	26301
823.13	26202
823.27	26073
823.41	26035
823.55	26016
823.69	26206
823.83	26027
823.97	26020
824.11	25932
824.25	25894
824.389	25928
824.529	25959
824.669	25868
824.809	26096
824.949	25963
825.089	26145
825.228	25963
825.368	25765
825.508	25731
825.648	25753
825.787	25776
825.927	25909
826.067	25791
826.206	25734
826.346	25890
826.485	25879
826.625	25780
826.765	25852
826.904	25928
827.044	25586
827.183	25537
827.323	25403
827.462	25510
827.601	25365
827.741	25460
827.88	25529
828.02	25282
828.159	25502
828.298	25400
828.437	25533
828.577	25362
828.716	25628
828.855	25510
828.994	25236
829.134	25114
829.273	25202
829.412	25202
829.551	25263
829.69	25206
829.829	25179
829.968	25209
830.107	25206
830.246	25308
830.385	25141
830.524	25133
830.663	25084
830.802	25031
830.941	24745
831.08	24783
831.219	24871
831.357	24890
831.496	25072
831.635	24837
831.774	24817
831.913	24642
832.051	24700
832.19	24559
832.329	24635
832.467	24544
832.606	24391
832.744	24505
832.883	24544
833.022	24464
833.16	24589
833.299	24536
833.437	24456
833.576	24585
833.714	24467
833.852	24646
833.991	24532
834.129	24741
834.267	24578
834.406	24597
834.544	24582
834.682	24601
834.821	24486
834.959	24715
835.097	24608
835.235	24642
835.373	24422
835.511	24467
835.65	24372
835.788	24296
835.926	24262
836.064	24239
836.202	24186
836.34	24300
836.478	24521
836.615	24266
836.753	24357
836.891	24388
837.029	24384
837.167	24243
837.305	24197
837.443	24216
837.58	24251
837.718	24296
837.856	24281
837.993	24194
838.131	24041
838.269	24079
838.406	24007
838.544	24022
838.681	23889
838.819	23916
838.956	23817
839.094	23680
839.231	23745
839.369	23840
839.506	24121
839.643	23828
839.781	23733
839.918	23520
840.055	23668
840.193	23676
840.33	23577
840.467	23668
840.604	23748
840.742	23714
840.879	23414
841.016	23512
841.153	23600
841.29	23577
841.427	23600
841.564	23722
841.701	23585
841.838	23387
841.975	23398
842.112	23452
842.249	23315
842.385	23166
842.522	23459
842.659	23383
842.796	23379
842.933	23311
843.069	23318
843.206	23299
843.343	23421
843.479	23372
843.616	23326
843.752	23117
843.889	23197
844.025	23280
844.162	23029
844.298	23181
844.435	23033
844.571	23113
844.708	23170
844.844	23227
844.98	23136
845.117	23162
845.253	23067
845.389	23014
845.525	23140
845.661	23003
845.798	22725
845.934	22923
846.07	22938
846.206	22889
846.342	22847
846.478	22759
846.614	22565
846.75	22474
846.886	22440
847.022	22744
847.158	22653
847.294	22569
847.429	22675
847.565	22538
847.701	22786
847.837	22177
847.972	22356
848.108	22421
848.244	22440
848.379	22150
848.515	22177
848.65	22109
848.786	22147
848.921	22120
849.057	22253
849.192	22219
849.328	22139
849.463	22169
849.598	22067
849.734	22021
849.869	21934
850.004	21785
850.14	21915
850.275	22002
850.41	21793
850.545	21865
850.68	21873
850.815	21903
850.95	21899
851.085	22120
851.22	22040
851.355	21968
851.49	21892
851.625	21895
851.76	21846
851.895	21808
852.03	21774
852.165	21854
852.299	21949
852.434	22029
852.569	21968
852.703	21861
852.838	21975
852.973	22032
853.107	21888
853.242	21865
853.376	21682
853.511	21629
853.645	21835
853.78	21827
853.914	21751
854.048	21682
854.183	21682
854.317	21804
854.451	21895
854.585	21675
854.72	21698
854.854	21903
854.988	21759
855.122	21759
855.256	21629
855.39	21720
855.524	21850
855.658	21728
855.792	21701
855.926	21713
856.06	21770
856.194	21846
856.327	21667
856.461	21663
856.595	21671
856.729	21747
856.862	21831
856.996	21774
857.13	21713
857.263	21720
857.397	21804
857.53	21789
857.664	21709
857.797	21785
857.931	21762
858.064	21739
858.197	21831
858.331	21587
858.464	21595
858.597	21583
858.731	21686
858.864	21652
858.997	21614
859.13	21778
859.263	21781
859.396	21709
859.529	21736
859.662	21690
859.795	21606
859.928	21724
860.061	21850
860.194	22025
860.327	21804
860.46	21720
860.592	21770
860.725	21865
860.858	21899
860.99	21800
861.123	21622
861.256	21671
861.388	21694
861.521	22451
861.653	21625
861.786	21500
861.918	21583
862.05	21622
862.183	21648
862.315	21720
862.447	21709
862.58	21553
862.712	21405
862.844	21397
862.976	21401
863.108	21496
863.24	21762
863.372	21336
863.504	21469
863.636	21363
863.768	21458
863.9	21393
864.032	21359
864.164	21405
864.296	21428
864.428	21663
864.559	21545
864.691	21504
864.823	21485
864.954	21412
865.086	21481
865.217	21336
865.349	21230
865.48	21329
865.612	21382
865.743	21485
865.875	21348
866.006	21176
866.137	21450
866.269	21329
866.4	21252
866.531	21302
866.662	21226
866.793	21279
866.924	21272
867.055	21374
867.186	21260
867.317	21138
867.448	21214
867.579	21245
867.71	21127
867.841	21146
867.972	21165
868.103	21241
868.233	21214
868.364	21241
868.495	21264
868.625	21496
868.756	21454
868.886	21469
869.017	21466
869.147	21564
869.278	21538
869.408	21492
869.539	21458
869.669	21519
869.799	21580
869.929	21549
870.06	21603
870.19	21778
870.32	21732
870.45	21865
870.58	21720
870.71	21960
870.84	22025
870.97	21941
871.1	21899
871.23	22078
871.36	22158
871.489	22006
871.619	21987
871.749	22055
871.879	22025
872.008	22112
872.138	22055
872.267	22029
872.397	21827
872.526	21937
872.656	22021
872.785	21850
872.915	22082
873.044	22112
873.173	21979
873.303	22128
873.432	22120
873.561	22204
873.69	22135
873.819	22135
873.948	22097
874.077	22036
874.206	22124
874.335	22082
874.464	22093
874.593	22261
874.722	22234
874.851	22360
874.979	22306
875.108	22432
875.237	22265
875.365	22181
875.494	22215
875.623	22443
875.751	22424
875.88	22238
876.008	22386
876.136	22485
876.265	22752
876.393	22805
876.521	22778
876.65	22801
876.778	22809
876.906	22710
877.034	22668
877.162	22691
877.29	22603
877.418	22668
877.546	22675
877.674	22626
877.802	22577
877.93	22588
878.058	22546
878.185	22535
878.313	22653
878.441	22683
878.568	22413
878.696	22611
878.824	22759
878.951	22790
879.079	22725
879.206	22938
879.333	22835
879.461	22755
879.588	22850
879.715	22923
879.842	22923
879.97	22664
880.097	22508
880.224	22565
880.351	22531
880.478	22424
880.605	22379
880.732	22493
880.859	22702
880.986	22432
881.112	22489
881.239	22276
881.366	22284
881.493	22162
881.619	22166
881.746	22147
881.872	21983
881.999	21953
882.125	21964
882.252	22154
882.378	22135
882.505	22101
882.631	21918
882.757	21652
882.883	21922
883.01	21789
883.136	21736
883.262	21698
883.388	21606
883.514	21671
883.64	21785
883.766	21660
883.892	21557
884.018	21572
884.143	21675
884.269	21789
884.395	21469
884.52	21401
884.646	21408
884.772	21226
884.897	21298
885.023	21424
885.148	21416
885.274	21553
885.399	21488
885.524	21378
885.65	21348
885.775	21454
885.9	21230
886.025	21534
886.15	21431
886.275	21317
886.4	21272
886.525	21302
886.65	21359
886.775	21291
886.9	21526
887.025	21618
887.149	21420
887.274	21214
887.399	21169
887.523	21108
887.648	21123
887.773	21036
887.897	21249
888.021	21161
888.146	21039
888.27	21241
888.395	21287
888.519	21214
888.643	21096
888.767	21146
888.891	21116
889.015	20880
889.139	21077
889.263	20910
889.387	21039
889.511	21142
889.635	21009
889.759	20883
889.883	20819
890.006	20910
890.13	21051
890.254	20902
890.377	20834
890.501	20644
890.624	20667
890.748	20796
890.871	20648
890.995	20450
891.118	20476
891.241	20454
891.364	20526
891.488	20568
891.611	20473
891.734	20431
891.857	20651
891.98	20507
892.103	20522
892.226	20560
892.349	20328
892.471	20324
892.594	20286
892.717	20415
892.839	20374
892.962	20389
893.085	20511
893.207	20389
893.33	20275
893.452	20275
893.575	20438
893.697	20336
893.819	20545
893.941	20564
894.064	20438
894.186	20332
894.308	20370
894.43	20404
894.552	20594
894.674	20446
894.796	20419
894.918	20309
895.04	20358
895.161	20457
895.283	20415
895.405	20328
895.526	20419
895.648	20351
895.769	20396
895.891	20465
896.012	20461
896.134	20404
896.255	20351
896.376	20381
896.498	20431
896.619	20457
896.74	20408
896.861	20442
896.982	20663
897.103	20868
897.224	20701
897.345	20575
897.466	20480
897.587	20587
897.708	20758
897.828	20602
897.949	20571
898.07	20526
898.19	20552
898.311	20701
898.431	20545
898.552	20625
898.672	20609
898.792	20727
898.913	20522
899.033	20522
899.153	20427
899.273	20229
899.393	20324
899.513	20431
899.633	20336
899.753	20343
899.873	20225
899.993	20355
900.113	20244
900.232	20244
900.352	20370
900.472	20142
900.591	20024
900.711	20149
900.83	20012
900.95	20259
901.069	20252
901.189	19959
901.308	19879
901.427	19605
901.546	19769
901.665	19746
901.784	19753
901.904	19438
902.023	19464
902.141	19236
902.26	19206
902.379	19388
902.498	19225
902.617	19126
902.735	19259
902.854	19091
902.973	19050
903.091	18875
903.21	18825
903.328	18916
903.446	18684
903.565	18764
903.683	18722
903.801	18582
903.919	18525
904.038	18741
904.156	18464
904.274	18506
904.392	18407
904.51	18467
904.627	18494
904.745	18429
904.863	18502
904.981	18342
905.098	18091
905.216	18114
905.334	18144
905.451	18136
905.569	18064
905.686	18038
905.803	18038
905.921	17935
906.038	18064
906.155	18038
906.272	17904
906.389	17866
906.506	17638
906.623	17775
906.74	17592
906.857	17532
906.974	17672
907.091	17680
907.208	17840
907.324	17657
907.441	17623
907.557	17395
907.674	17528
907.79	17273
907.907	17307
908.023	17398
908.139	17239
908.256	17265
908.372	17239
908.488	17315
908.604	16949
908.72	17056
908.836	17098
908.952	17067
909.068	17090
909.184	17117
909.3	16980
909.415	17117
909.531	16999
909.647	16828
909.762	16729
909.878	16812
909.993	16744
910.108	16729
910.224	16725
910.339	16805
910.454	16653
910.57	16622
910.685	16523
910.8	16744
910.915	16752
911.03	16531
911.145	16443
911.259	16382
911.374	16322
911.489	16272
911.604	16265
911.718	16097
911.833	16204
911.947	15964
912.062	15979
912.176	16135
912.291	16048
912.405	16166
912.519	16246
912.633	16234
912.748	16128
912.862	16093
912.976	15953
913.09	15873
913.204	15846
913.318	15937
913.431	15972
913.545	15983
913.659	16055
913.772	15861
913.886	15717
914	15819
914.113	15698
914.226	15846
914.34	15766
914.453	15595
914.566	15675
914.68	15614
914.793	15587
914.906	15355
915.019	15310
915.132	15302
915.245	15165
915.358	15260
915.47	15222
915.583	15321
915.696	15245
915.809	15496
915.921	15492
916.034	15226
916.146	15195
916.259	15138
916.371	15348
916.483	15222
916.595	15142
916.708	15074
916.82	15161
916.932	15161
917.044	15146
917.156	15036
917.268	15058
917.38	15005
917.491	14933
917.603	14967
917.715	15028
917.826	15028
917.938	14887
918.049	14834
918.161	14857
918.272	15055
918.384	14910
918.495	14868
918.606	14735
918.717	14655
918.828	14750
918.939	14693
919.05	14678
919.161	14705
919.272	14541
919.383	14590
919.494	14750
919.604	14895
919.715	14678
919.826	14594
919.936	14636
920.047	14727
920.157	14708
920.267	14918
920.378	14739
920.488	14708
920.598	14872
920.708	14994
920.818	14838
920.928	14758
921.038	15047
921.148	14849
921.258	14636
921.368	14556
921.477	14461
921.587	14351
921.697	14259
921.806	14446
921.916	14324
922.025	14123
922.134	14069
922.244	13986
922.353	14088
922.462	13898
922.571	13868
922.68	13788
922.789	13742
922.898	13674
923.007	13715
923.116	13696
923.224	13681
923.333	13746
923.442	13567
923.55	13476
923.659	13472
923.767	13518
923.876	13514
923.984	13514
924.092	13388
924.201	13396
924.309	13434
924.417	13430
924.525	13354
924.633	13320
924.741	14119
924.849	13187
924.956	13384
925.064	13137
925.172	13091
925.279	13137
925.387	13187
925.494	13122
925.602	13213
925.709	13088
925.816	12954
925.924	13053
926.031	13129
926.138	13084
926.245	13103
926.352	12913
926.459	13038
926.566	13080
926.673	13038
926.779	12932
926.886	12772
926.993	12700
927.099	12642
927.206	12566
927.312	12544
927.419	12642
927.525	12646
927.631	12692
927.737	12536
927.843	12528
927.95	12391
928.056	12448
928.162	12426
928.267	12525
928.373	13187
928.479	12612
928.585	12254
928.69	12437
928.796	12433
928.901	12372
929.007	12262
929.112	12327
929.218	12308
929.323	12216
929.428	12235
929.533	12277
929.638	12133
929.743	12220
929.848	12224
929.953	12209
930.058	12102
930.163	11912
930.267	11984
930.372	11980
930.477	11840
930.581	12117
930.685	11942
930.79	11760
930.894	11855
930.998	11764
931.103	11817
931.207	11535
931.311	11547
931.415	11391
931.519	11094
931.623	11140
