Data from test_V78500241_2795.txt Node
Date: Fri Mar 25 15:29:19 CST 2022
User: usil
Spectrometer: V785-0024
Trigger mode: 0
Integration Time (sec): 4.000000E-1
Scans to average: 1
Nonlinearity correction enabled: false
Boxcar width: 0
Storing dark spectrum: false
XAxis mode: Wavelengths
Number of Pixels in Spectrum: 1024
>>>>>Begin Spectral Data<<<<<
801.071	27157
801.214	27218
801.356	26918
801.499	26804
801.641	26632
801.783	26754
801.926	26606
802.068	26727
802.211	26598
802.353	26651
802.496	26507
802.638	26450
802.78	26294
802.923	26358
803.065	26210
803.208	26191
803.35	26267
803.492	26450
803.635	26469
803.777	26355
803.919	26621
804.061	26720
804.204	26571
804.346	26301
804.488	26389
804.63	26480
804.773	26503
804.915	26495
805.057	26659
805.199	26412
805.341	26621
805.483	26701
805.626	26640
805.768	26625
805.91	26549
806.052	26590
806.194	26518
806.336	26648
806.478	26507
806.62	26674
806.762	26758
806.904	26762
807.046	27218
807.188	27017
807.33	27032
807.472	27119
807.614	26944
807.756	26979
807.898	26811
808.04	26765
808.182	26849
808.324	26891
808.465	27070
808.607	27058
808.749	27199
808.891	27313
809.033	27336
809.174	27534
809.316	27157
809.458	26963
809.6	27294
809.741	27226
809.883	27241
810.025	27481
810.166	27496
810.308	27382
810.45	27462
810.591	27420
810.733	27298
810.875	27142
811.016	27001
811.158	27036
811.299	27252
811.441	27443
811.582	27370
811.724	27306
811.865	27116
812.007	27142
812.148	27249
812.29	27081
812.431	27184
812.573	27618
812.714	27633
812.855	27686
812.997	27656
813.138	27846
813.279	27911
813.421	27667
813.562	27591
813.703	27420
813.845	27389
813.986	27214
814.127	27104
814.268	26876
814.41	26948
814.551	26754
814.692	26914
814.833	26982
814.974	26785
815.115	26944
815.256	26785
815.397	26842
815.539	26777
815.68	26530
815.821	26659
815.962	26754
816.103	26613
816.244	26556
816.385	26450
816.526	26336
816.666	26164
816.807	26050
816.948	26195
817.089	26187
817.23	26172
817.371	26119
817.512	26119
817.653	26191
817.793	26054
817.934	26092
818.075	26062
818.216	26119
818.356	26081
818.497	25940
818.638	25822
818.778	25830
818.919	25852
819.06	25841
819.2	26145
819.341	26077
819.481	25932
819.622	26084
819.762	26434
819.903	26320
820.043	26298
820.184	26240
820.324	26256
820.465	26396
820.605	26336
820.746	26172
820.886	25944
821.026	26248
821.167	26096
821.307	26278
821.447	25997
821.588	25966
821.728	25944
821.868	25807
822.008	25590
822.149	25704
822.289	25548
822.429	25369
822.569	25343
822.709	25343
822.849	25038
822.99	25069
823.13	25110
823.27	25103
823.41	24909
823.55	24760
823.69	24817
823.83	24837
823.97	24719
824.11	24696
824.25	24665
824.389	24673
824.529	24821
824.669	24627
824.809	24783
824.949	24897
825.089	24776
825.228	24848
825.368	24521
825.508	24452
825.648	24502
825.787	24578
825.927	24528
826.067	24532
826.206	24597
826.346	24521
826.485	24574
826.625	24525
826.765	24734
826.904	24677
827.044	24357
827.183	24429
827.323	24266
827.462	24395
827.601	24216
827.741	24243
827.88	24334
828.02	23999
828.159	24159
828.298	24388
828.437	24281
828.577	24098
828.716	24323
828.855	24273
828.994	23920
829.134	24049
829.273	24041
829.412	23889
829.551	23916
829.69	24076
829.829	23954
829.968	24095
830.107	23984
830.246	24022
830.385	23874
830.524	23760
830.663	23824
830.802	23786
830.941	23630
831.08	23687
831.219	23764
831.357	23608
831.496	23786
831.635	23516
831.774	23436
831.913	23520
832.051	23258
832.19	23364
832.329	23303
832.467	23337
832.606	23113
832.744	23147
832.883	23140
833.022	23242
833.16	23326
833.299	23170
833.437	23273
833.576	23277
833.714	23220
833.852	23368
833.991	23303
834.129	23448
834.267	23417
834.406	23398
834.544	23315
834.682	23334
834.821	23322
834.959	23581
835.097	23372
835.235	23387
835.373	23391
835.511	23315
835.65	23208
835.788	23147
835.926	23143
836.064	23090
836.202	23083
836.34	23147
836.478	23307
836.615	23250
836.753	23212
836.891	23254
837.029	23151
837.167	22923
837.305	23102
837.443	23083
837.58	22919
837.718	23052
837.856	23044
837.993	22987
838.131	23075
838.269	22847
838.406	22980
838.544	22900
838.681	22637
838.819	22554
838.956	22421
839.094	22398
839.231	22459
839.369	22557
839.506	22843
839.643	22736
839.781	22615
839.918	22356
840.055	22417
840.193	22443
840.33	22447
840.467	22440
840.604	22424
840.742	22679
840.879	22291
841.016	22314
841.153	22367
841.29	22402
841.427	22341
841.564	22428
841.701	22474
841.838	22291
841.975	22124
842.112	22325
842.249	22177
842.385	22192
842.522	22462
842.659	22303
842.796	22135
842.933	22211
843.069	22135
843.206	22105
843.343	22112
843.479	22139
843.616	22223
843.752	21998
843.889	22036
844.025	22173
844.162	21861
844.298	22051
844.435	22006
844.571	21975
844.708	21918
844.844	22196
844.98	22131
845.117	22010
845.253	21892
845.389	21865
845.525	21823
845.661	21717
845.798	21618
845.934	21751
846.07	21534
846.206	21694
846.342	21759
846.478	21610
846.614	21397
846.75	21477
846.886	21439
847.022	21431
847.158	21382
847.294	21408
847.429	21564
847.565	21329
847.701	21762
847.837	21100
847.972	21074
848.108	21199
848.244	21199
848.379	21131
848.515	21058
848.65	21051
848.786	21028
848.921	21001
849.057	21119
849.192	21138
849.328	20902
849.463	20906
849.598	20933
849.734	20933
849.869	20807
850.004	20838
850.14	20834
850.275	20727
850.41	20648
850.545	20777
850.68	20785
850.815	20651
850.95	20769
851.085	20933
851.22	20872
851.355	20769
851.49	20758
851.625	20701
851.76	20769
851.895	20743
852.03	20720
852.165	20689
852.299	20804
852.434	20925
852.569	20785
852.703	20750
852.838	20834
852.973	20899
853.107	20906
853.242	20785
853.376	20609
853.511	20518
853.645	20640
853.78	20488
853.914	20667
854.048	20598
854.183	20476
854.317	20629
854.451	20864
854.585	20720
854.72	20533
854.854	20670
854.988	20583
855.122	20602
855.256	20484
855.39	20552
855.524	20579
855.658	20552
855.792	20492
855.926	20579
856.06	20754
856.194	20674
856.327	20484
856.461	20522
856.595	20484
856.729	20682
856.862	20686
856.996	20522
857.13	20678
857.263	20712
857.397	20697
857.53	20693
857.664	20655
857.797	20644
857.931	20697
858.064	20552
858.197	20686
858.331	20606
858.464	20480
858.597	20537
858.731	20522
858.864	20499
858.997	20537
859.13	20632
859.263	20530
859.396	20689
859.529	20446
859.662	20495
859.795	20518
859.928	20632
860.061	20663
860.194	20819
860.327	20754
860.46	20670
860.592	20746
860.725	20750
860.858	20750
860.99	20727
861.123	20450
861.256	20522
861.388	20583
861.521	21256
861.653	20419
861.786	20313
861.918	20339
862.05	20415
862.183	20579
862.315	20518
862.447	20571
862.58	20450
862.712	20256
862.844	20256
862.976	20442
863.108	20400
863.24	20781
863.372	20225
863.504	20275
863.636	20374
863.768	20370
863.9	20298
864.032	20161
864.164	20400
864.296	20377
864.428	20469
864.559	20400
864.691	20431
864.823	20187
864.954	20370
865.086	20233
865.217	20275
865.349	20164
865.48	20161
865.612	20256
865.743	20275
865.875	20172
866.006	20233
866.137	20210
866.269	20092
866.4	20199
866.531	20206
866.662	20111
866.793	20122
866.924	20244
867.055	20240
867.186	20298
867.317	20138
867.448	20138
867.579	20157
867.71	20043
867.841	20039
867.972	20278
868.103	20065
868.233	20168
868.364	20122
868.495	20320
868.625	20457
868.756	20374
868.886	20514
869.017	20461
869.147	20434
869.278	20488
869.408	20541
869.539	20419
869.669	20568
869.799	20434
869.929	20636
870.06	20465
870.19	20724
870.32	20686
870.45	20769
870.58	20838
870.71	20902
870.84	20925
870.97	20769
871.1	20853
871.23	21058
871.36	21116
871.489	20975
871.619	20994
871.749	20944
871.879	21108
872.008	21104
872.138	21066
872.267	20986
872.397	20785
872.526	20906
872.656	20929
872.785	20792
872.915	21100
873.044	21252
873.173	21039
873.303	21127
873.432	21176
873.561	21119
873.69	21081
873.819	21024
873.948	21169
874.077	21055
874.206	20971
874.335	21161
874.464	21233
874.593	21310
874.722	21207
874.851	21332
874.979	21260
875.108	21386
875.237	21298
875.365	21127
875.494	21306
875.623	21443
875.751	21173
875.88	21481
876.008	21332
876.136	21473
876.265	21587
876.393	21869
876.521	21808
876.65	21785
876.778	21663
876.906	21572
877.034	21690
877.162	21591
877.29	21610
877.418	21629
877.546	21629
877.674	21694
877.802	21614
877.93	21682
878.058	21492
878.185	21618
878.313	21576
878.441	21618
878.568	21545
878.696	21618
878.824	21667
878.951	21667
879.079	21983
879.206	22013
879.333	21911
879.461	21785
879.588	21888
879.715	21743
879.842	21979
879.97	21781
880.097	21511
880.224	21462
880.351	21492
880.478	21435
880.605	21443
880.732	21496
880.859	21675
880.986	21374
881.112	21477
881.239	21447
881.366	21233
881.493	21039
881.619	20998
881.746	21135
881.872	21165
881.999	21089
882.125	20925
882.252	21005
882.378	21032
882.505	21017
882.631	20918
882.757	20716
882.883	20861
883.01	20686
883.136	20705
883.262	20739
883.388	20621
883.514	20792
883.64	20781
883.766	20697
883.892	20629
884.018	20476
884.143	20788
884.269	20754
884.395	20503
884.52	20423
884.646	20526
884.772	20328
884.897	20324
885.023	20476
885.148	20533
885.274	20541
885.399	20366
885.524	20385
885.65	20294
885.775	20358
885.9	20332
886.025	20495
886.15	20530
886.275	20381
886.4	20252
886.525	20339
886.65	20290
886.775	20415
886.9	20442
887.025	20648
887.149	20347
887.274	20259
887.399	20244
887.523	20183
887.648	20092
887.773	20050
887.897	20275
888.021	20218
888.146	20126
888.27	20221
888.395	20332
888.519	20278
888.643	20119
888.767	20259
888.891	20084
889.015	20039
889.139	20065
889.263	19993
889.387	20065
889.511	20122
889.635	20164
889.759	19986
889.883	19974
890.006	20016
890.13	20161
890.254	19936
890.377	19898
890.501	19795
890.624	19639
890.748	19738
890.871	19704
890.995	19567
891.118	19540
891.241	19628
891.364	19613
891.488	19795
891.611	19510
891.734	19582
891.857	19559
891.98	19616
892.103	19529
892.226	19506
892.349	19510
892.471	19403
892.594	19495
892.717	19700
892.839	19441
892.962	19575
893.085	19666
893.207	19483
893.33	19396
893.452	19396
893.575	19502
893.697	19434
893.819	19620
893.941	19708
894.064	19677
894.186	19502
894.308	19320
894.43	19552
894.552	19677
894.674	19571
894.796	19419
894.918	19529
895.04	19480
895.161	19586
895.283	19514
895.405	19384
895.526	19464
895.648	19480
895.769	19632
895.891	19499
896.012	19696
896.134	19605
896.255	19544
896.376	19457
896.498	19514
896.619	19544
896.74	19521
896.861	19571
896.982	19887
897.103	20027
897.224	19750
897.345	19731
897.466	19670
897.587	19681
897.708	19814
897.828	19757
897.949	19674
898.07	19613
898.19	19613
898.311	19860
898.431	19609
898.552	19731
898.672	19784
898.792	19837
898.913	19780
899.033	19616
899.153	19575
899.273	19502
899.393	19308
899.513	19506
899.633	19460
899.753	19537
899.873	19419
899.993	19480
900.113	19438
900.232	19476
900.352	19377
900.472	19339
900.591	19198
900.711	19316
900.83	19240
900.95	19396
901.069	19373
901.189	19251
901.308	18981
901.427	18802
901.546	18837
901.665	18943
901.784	18829
901.904	18677
902.023	18627
902.141	18566
902.26	18410
902.379	18593
902.498	18433
902.617	18357
902.735	18441
902.854	18403
902.973	18327
903.091	18114
903.21	18003
903.328	17996
903.446	17958
903.565	17874
903.683	17927
903.801	17718
903.919	17756
904.038	17832
904.156	17726
904.274	17695
904.392	17676
904.51	17684
904.627	17653
904.745	17649
904.863	17653
904.981	17471
905.098	17360
905.216	17368
905.334	17383
905.451	17345
905.569	17208
905.686	17345
905.803	17383
905.921	17181
906.038	17231
906.155	17178
906.272	17025
906.389	17018
906.506	16889
906.623	16873
906.74	16858
906.857	16740
906.974	16759
907.091	16972
907.208	17018
907.324	16934
907.441	16771
907.557	16679
907.674	16558
907.79	16599
907.907	16561
908.023	16630
908.139	16664
908.256	16607
908.372	16466
908.488	16402
908.604	16386
908.72	16329
908.836	16394
908.952	16291
909.068	16249
909.184	16455
909.3	16303
909.415	16432
909.531	16257
909.647	16032
909.762	16078
909.878	16017
909.993	15880
910.108	15930
910.224	15979
910.339	15998
910.454	15960
910.57	15888
910.685	15713
910.8	16032
910.915	16006
911.03	15812
911.145	15728
911.259	15694
911.374	15580
911.489	15584
911.604	15561
911.718	15405
911.833	15378
911.947	15306
912.062	15336
912.176	15401
912.291	15439
912.405	15447
912.519	15500
912.633	15568
912.748	15378
912.862	15374
912.976	15287
913.09	15146
913.204	15116
913.318	15203
913.431	15237
913.545	15260
913.659	15256
913.772	15138
913.886	15116
914	15032
914.113	15074
914.226	15184
914.34	15123
914.453	14933
914.566	15009
914.68	14967
914.793	14929
914.906	14731
915.019	14693
915.132	14495
915.245	14636
915.358	14682
915.47	14762
915.583	14571
915.696	14663
915.809	14697
915.921	14648
916.034	14571
916.146	14522
916.259	14537
916.371	14762
916.483	14575
916.595	14590
916.708	14526
916.82	14465
916.932	14431
917.044	14480
917.156	14370
917.268	14324
917.38	14240
917.491	14161
917.603	14393
917.715	14358
917.826	14374
917.938	14256
918.049	14145
918.161	14168
918.272	14309
918.384	14278
918.495	14206
918.606	14016
918.717	13989
918.828	14149
918.939	14130
919.05	14001
919.161	14142
919.272	13955
919.383	13925
919.494	14035
919.604	14294
919.715	14008
919.826	13963
919.936	14062
920.047	14046
920.157	14126
920.267	14278
920.378	14054
920.488	13955
920.598	14138
920.708	14290
920.818	14221
920.928	14195
921.038	14286
921.148	14286
921.258	14031
921.368	13833
921.477	13871
921.587	13696
921.697	13655
921.806	13788
921.916	13639
922.025	13495
922.134	13472
922.244	13381
922.353	13514
922.462	13316
922.571	13324
922.68	13088
922.789	13046
922.898	13160
923.007	13004
923.116	13069
923.224	13110
923.333	13042
923.442	12985
923.55	12905
923.659	12932
923.767	12962
923.876	12882
923.984	12932
924.092	12776
924.201	12810
924.309	12951
924.417	12829
924.525	12806
924.633	12650
924.741	13525
924.849	12494
924.956	12738
925.064	12570
925.172	12433
925.279	12601
925.387	12509
925.494	12547
925.602	12673
925.709	12601
925.816	12422
925.924	12441
926.031	12494
926.138	12410
926.245	12547
926.352	12422
926.459	12563
926.566	12517
926.673	12445
926.779	12289
926.886	12338
926.993	12159
927.099	12076
927.206	12121
927.312	12098
927.419	12106
927.525	12201
927.631	12098
927.737	12022
927.843	11939
927.95	11836
928.056	11908
928.162	11988
928.267	11935
928.373	12635
928.479	12022
928.585	11866
928.69	11897
928.796	11904
928.901	11843
929.007	11657
929.112	11863
929.218	11779
929.323	11733
929.428	11680
929.533	11779
929.638	11547
929.743	11642
929.848	11764
929.953	11627
930.058	11505
930.163	11322
930.267	11341
930.372	11471
930.477	11242
930.581	11592
930.685	11414
930.79	11273
930.894	11258
930.998	11322
931.103	11417
931.207	11037
931.311	10942
931.415	10972
931.519	10725
931.623	10634
