Data from test_V78500241_2922.txt Node
Date: Fri Mar 25 15:30:12 CST 2022
User: usil
Spectrometer: V785-0024
Trigger mode: 0
Integration Time (sec): 4.000000E-1
Scans to average: 1
Nonlinearity correction enabled: false
Boxcar width: 0
Storing dark spectrum: false
XAxis mode: Wavelengths
Number of Pixels in Spectrum: 1024
>>>>>Begin Spectral Data<<<<<
801.071	27256
801.214	27116
801.356	26830
801.499	26940
801.641	26750
801.783	26834
801.926	26929
802.068	26731
802.211	26864
802.353	26640
802.496	26492
802.638	26495
802.78	26469
802.923	26278
803.065	26400
803.208	26317
803.35	26450
803.492	26526
803.635	26651
803.777	26366
803.919	26484
804.061	26929
804.204	26617
804.346	26541
804.488	26495
804.63	26587
804.773	26423
804.915	26594
805.057	26609
805.199	26545
805.341	26697
805.483	26815
805.626	26720
805.768	26659
805.91	26678
806.052	26739
806.194	26625
806.336	26807
806.478	26716
806.62	26762
806.762	26796
806.904	26944
807.046	27131
807.188	27043
807.33	27142
807.472	27127
807.614	27112
807.756	27066
807.898	26785
808.04	26906
808.182	26819
808.324	26880
808.465	27180
808.607	27104
808.749	27439
808.891	27363
809.033	27488
809.174	27329
809.316	27500
809.458	27161
809.6	27218
809.741	27500
809.883	27287
810.025	27515
810.166	27671
810.308	27504
810.45	27462
810.591	27549
810.733	27420
810.875	27325
811.016	27230
811.158	27321
811.299	27298
811.441	27538
811.582	27405
811.724	27287
811.865	27173
812.007	27302
812.148	27363
812.29	27378
812.431	27450
812.573	27568
812.714	27614
812.855	27747
812.997	27819
813.138	27892
813.279	27914
813.421	27816
813.562	27679
813.703	27629
813.845	27355
813.986	27264
814.127	27051
814.268	26872
814.41	26872
814.551	26906
814.692	27047
814.833	26815
814.974	27089
815.115	26937
815.256	26956
815.397	26727
815.539	26800
815.68	26762
815.821	26739
815.962	26796
816.103	26678
816.244	26632
816.385	26499
816.526	26476
816.666	26286
816.807	26221
816.948	26233
817.089	26259
817.23	26183
817.371	26214
817.512	26111
817.653	26229
817.793	26244
817.934	26271
818.075	26206
818.216	26130
818.356	26138
818.497	26115
818.638	25902
818.778	25917
818.919	25966
819.06	26012
819.2	26081
819.341	26206
819.481	26202
819.622	26366
819.762	26480
819.903	26545
820.043	26442
820.184	26336
820.324	26252
820.465	26305
820.605	26324
820.746	26210
820.886	26115
821.026	26237
821.167	26142
821.307	26282
821.447	26199
821.588	26100
821.728	25845
821.868	25769
822.008	25746
822.149	25734
822.289	25647
822.429	25419
822.569	25388
822.709	25392
822.849	25194
822.99	25289
823.13	25141
823.27	25122
823.41	24996
823.55	24848
823.69	24947
823.83	24928
823.97	24970
824.11	24814
824.25	24852
824.389	24837
824.529	24867
824.669	24825
824.809	24966
824.949	24856
825.089	24837
825.228	24734
825.368	24540
825.508	24616
825.648	24650
825.787	24642
825.927	24654
826.067	24563
826.206	24616
826.346	24700
826.485	24681
826.625	24684
826.765	24734
826.904	24639
827.044	24517
827.183	24426
827.323	24270
827.462	24456
827.601	24376
827.741	24350
827.88	24502
828.02	24209
828.159	24311
828.298	24311
828.437	24319
828.577	24376
828.716	24384
828.855	24197
828.994	24121
829.134	23942
829.273	24079
829.412	24091
829.551	23958
829.69	24117
829.829	23946
829.968	24178
830.107	24186
830.246	23961
830.385	23939
830.524	24034
830.663	23889
830.802	23771
830.941	23623
831.08	23707
831.219	23687
831.357	23828
831.496	23809
831.635	23760
831.774	23467
831.913	23482
832.051	23452
832.19	23482
832.329	23471
832.467	23383
832.606	23269
832.744	23235
832.883	23261
833.022	23292
833.16	23189
833.299	23452
833.437	23337
833.576	23436
833.714	23349
833.852	23318
833.991	23471
834.129	23376
834.267	23471
834.406	23364
834.544	23414
834.682	23455
834.821	23455
834.959	23585
835.097	23391
835.235	23433
835.373	23463
835.511	23452
835.65	23269
835.788	23318
835.926	23216
836.064	23136
836.202	23079
836.34	23326
836.478	23303
836.615	23105
836.753	23231
836.891	23296
837.029	23288
837.167	23246
837.305	23102
837.443	23033
837.58	23037
837.718	23083
837.856	23239
837.993	22991
838.131	23166
838.269	22938
838.406	22995
838.544	22793
838.681	22694
838.819	22733
838.956	22653
839.094	22645
839.231	22508
839.369	22831
839.506	22942
839.643	22877
839.781	22618
839.918	22493
840.055	22481
840.193	22440
840.33	22459
840.467	22459
840.604	22462
840.742	22733
840.879	22382
841.016	22367
841.153	22371
841.29	22637
841.427	22459
841.564	22478
841.701	22402
841.838	22447
841.975	22489
842.112	22409
842.249	22314
842.385	22246
842.522	22390
842.659	22371
842.796	22367
842.933	22303
843.069	22196
843.206	22223
843.343	22261
843.479	22086
843.616	22299
843.752	21956
843.889	22135
844.025	22029
844.162	21983
844.298	22021
844.435	22078
844.571	22006
844.708	22013
844.844	22078
844.98	22070
845.117	22226
845.253	22017
845.389	21884
845.525	21945
845.661	21876
845.798	21739
845.934	21698
846.07	21736
846.206	21751
846.342	21907
846.478	21705
846.614	21553
846.75	21447
846.886	21507
847.022	21568
847.158	21428
847.294	21523
847.429	21614
847.565	21431
847.701	21709
847.837	21252
847.972	21180
848.108	21279
848.244	21157
848.379	21123
848.515	21058
848.65	21096
848.786	21176
848.921	21074
849.057	21169
849.192	21176
849.328	21043
849.463	21020
849.598	20956
849.734	20941
849.869	20944
850.004	20777
850.14	20819
850.275	20845
850.41	20838
850.545	20705
850.68	20746
850.815	20864
850.95	20861
851.085	21009
851.22	20883
851.355	20853
851.49	20838
851.625	20944
851.76	20861
851.895	20788
852.03	20754
852.165	20861
852.299	20902
852.434	20891
852.569	20895
852.703	20792
852.838	20883
852.973	20952
853.107	20868
853.242	20785
853.376	20636
853.511	20530
853.645	20621
853.78	20689
853.914	20648
854.048	20705
854.183	20609
854.317	20689
854.451	20895
854.585	20777
854.72	20678
854.854	20720
854.988	20609
855.122	20686
855.256	20560
855.39	20678
855.524	20769
855.658	20724
855.792	20682
855.926	20583
856.06	20632
856.194	20697
856.327	20632
856.461	20613
856.595	20686
856.729	20541
856.862	20834
856.996	20716
857.13	20594
857.263	20788
857.397	20777
857.53	20659
857.664	20689
857.797	20815
857.931	20712
858.064	20716
858.197	20765
858.331	20678
858.464	20629
858.597	20415
858.731	20636
858.864	20549
858.997	20598
859.13	20598
859.263	20644
859.396	20785
859.529	20617
859.662	20556
859.795	20617
859.928	20788
860.061	20849
860.194	20868
860.327	20708
860.46	20705
860.592	20682
860.725	20899
860.858	20842
860.99	20640
861.123	20545
861.256	20689
861.388	20648
861.521	21112
861.653	20617
861.786	20469
861.918	20488
862.05	20602
862.183	20571
862.315	20598
862.447	20590
862.58	20533
862.712	20499
862.844	20278
862.976	20408
863.108	20389
863.24	20956
863.372	20351
863.504	20431
863.636	20400
863.768	20446
863.9	20457
864.032	20301
864.164	20256
864.296	20434
864.428	20415
864.559	20400
864.691	20450
864.823	20328
864.954	20427
865.086	20290
865.217	20282
865.349	20263
865.48	20317
865.612	20157
865.743	20446
865.875	20271
866.006	20278
866.137	20259
866.269	20161
866.4	20191
866.531	20244
866.662	20202
866.793	20142
866.924	20301
867.055	20259
867.186	20221
867.317	20138
867.448	20100
867.579	20199
867.71	20111
867.841	20142
867.972	20237
868.103	20298
868.233	20282
868.364	20385
868.495	20355
868.625	20374
868.756	20587
868.886	20351
869.017	20560
869.147	20579
869.278	20674
869.408	20358
869.539	20336
869.669	20492
869.799	20503
869.929	20674
870.06	20640
870.19	20773
870.32	20883
870.45	20762
870.58	20941
870.71	20998
870.84	20944
870.97	20727
871.1	20914
871.23	20948
871.36	21123
871.489	20868
871.619	20918
871.749	20933
871.879	21020
872.008	21222
872.138	21135
872.267	21051
872.397	20937
872.526	20948
872.656	20815
872.785	20952
872.915	21135
873.044	21081
873.173	21036
873.303	21131
873.432	21058
873.561	21150
873.69	21013
873.819	21085
873.948	21184
874.077	21116
874.206	21005
874.335	21058
874.464	21237
874.593	21329
874.722	21230
874.851	21329
874.979	21226
875.108	21481
875.237	21336
875.365	21283
875.494	21283
875.623	21275
875.751	21294
875.88	21317
876.008	21443
876.136	21462
876.265	21732
876.393	21842
876.521	21747
876.65	21774
876.778	21823
876.906	21633
877.034	21675
877.162	21671
877.29	21625
877.418	21637
877.546	21606
877.674	21671
877.802	21622
877.93	21633
878.058	21686
878.185	21610
878.313	21663
878.441	21652
878.568	21618
878.696	21648
878.824	21789
878.951	21762
879.079	21842
879.206	21915
879.333	21903
879.461	21701
879.588	21618
879.715	21812
879.842	21869
879.97	21625
880.097	21488
880.224	21462
880.351	21572
880.478	21504
880.605	21332
880.732	21348
880.859	21705
880.986	21507
881.112	21507
881.239	21344
881.366	21169
881.493	21176
881.619	21081
881.746	21119
881.872	21001
881.999	21020
882.125	20944
882.252	21074
882.378	21020
882.505	21195
882.631	21051
882.757	20819
882.883	20724
883.01	20781
883.136	20830
883.262	20716
883.388	20705
883.514	20792
883.64	20796
883.766	20781
883.892	20560
884.018	20549
884.143	20735
884.269	20842
884.395	20503
884.52	20434
884.646	20454
884.772	20358
884.897	20355
885.023	20473
885.148	20514
885.274	20648
885.399	20609
885.524	20457
885.65	20457
885.775	20400
885.9	20431
886.025	20537
886.15	20526
886.275	20419
886.4	20332
886.525	20499
886.65	20298
886.775	20278
886.9	20590
887.025	20629
887.149	20259
887.274	20214
887.399	20233
887.523	20237
887.648	20069
887.773	20271
887.897	20324
888.021	20336
888.146	20290
888.27	20271
888.395	20404
888.519	20195
888.643	20172
888.767	20278
888.891	20145
889.015	20062
889.139	20122
889.263	20012
889.387	20130
889.511	20199
889.635	20157
889.759	20005
889.883	19970
890.006	20039
890.13	20103
890.254	19928
890.377	19967
890.501	19708
890.624	19803
890.748	19814
890.871	19746
890.995	19544
891.118	19556
891.241	19533
891.364	19700
891.488	19677
891.611	19670
891.734	19582
891.857	19696
891.98	19651
892.103	19605
892.226	19624
892.349	19597
892.471	19426
892.594	19502
892.717	19495
892.839	19472
892.962	19548
893.085	19616
893.207	19563
893.33	19449
893.452	19445
893.575	19514
893.697	19487
893.819	19791
893.941	19776
894.064	19704
894.186	19457
894.308	19335
894.43	19571
894.552	19727
894.674	19674
894.796	19514
894.918	19453
895.04	19434
895.161	19590
895.283	19548
895.405	19468
895.526	19449
895.648	19438
895.769	19639
895.891	19578
896.012	19712
896.134	19502
896.255	19400
896.376	19464
896.498	19556
896.619	19476
896.74	19464
896.861	19704
896.982	19868
897.103	20008
897.224	19795
897.345	19784
897.466	19685
897.587	19643
897.708	19799
897.828	19807
897.949	19772
898.07	19575
898.19	19753
898.311	19776
898.431	19708
898.552	19704
898.672	19738
898.792	19849
898.913	19708
899.033	19635
899.153	19620
899.273	19502
899.393	19559
899.513	19563
899.633	19563
899.753	19487
899.873	19415
899.993	19518
900.113	19476
900.232	19533
900.352	19415
900.472	19316
900.591	19335
900.711	19335
900.83	19350
900.95	19411
901.069	19396
901.189	19240
901.308	19015
901.427	18920
901.546	18863
901.665	18993
901.784	18882
901.904	18791
902.023	18642
902.141	18601
902.26	18414
902.379	18429
902.498	18372
902.617	18437
902.735	18494
902.854	18414
902.973	18346
903.091	18163
903.21	18030
903.328	17992
903.446	17939
903.565	17840
903.683	17821
903.801	17764
903.919	17999
904.038	17802
904.156	17752
904.274	17767
904.392	17703
904.51	17714
904.627	17627
904.745	17813
904.863	17729
904.981	17490
905.098	17345
905.216	17303
905.334	17425
905.451	17417
905.569	17345
905.686	17376
905.803	17360
905.921	17113
906.038	17258
906.155	17124
906.272	17018
906.389	17056
906.506	16961
906.623	16934
906.74	16866
906.857	16824
906.974	16687
907.091	16866
907.208	16896
907.324	16930
907.441	16835
907.557	16634
907.674	16649
907.79	16599
907.907	16584
908.023	16736
908.139	16592
908.256	16519
908.372	16481
908.488	16481
908.604	16276
908.72	16382
908.836	16424
908.952	16306
909.068	16306
909.184	16561
909.3	16306
909.415	16333
909.531	16360
909.647	16013
909.762	15972
909.878	15926
909.993	16010
910.108	16002
910.224	16032
910.339	16051
910.454	15918
910.57	15895
910.685	15865
910.8	16055
910.915	15915
911.03	15838
911.145	15644
911.259	15606
911.374	15564
911.489	15564
911.604	15435
911.718	15416
911.833	15431
911.947	15344
912.062	15386
912.176	15408
912.291	15439
912.405	15424
912.519	15564
912.633	15652
912.748	15370
912.862	15367
912.976	15211
913.09	15036
913.204	15157
913.318	15249
913.431	15317
913.545	15279
913.659	15207
913.772	15176
913.886	15112
914	15047
914.113	15020
914.226	15192
914.34	15081
914.453	14929
914.566	15028
914.68	14933
914.793	14910
914.906	14754
915.019	14640
915.132	14625
915.245	14689
915.358	14655
915.47	14587
915.583	14727
915.696	14686
915.809	14686
915.921	14708
916.034	14507
916.146	14484
916.259	14587
916.371	14545
916.483	14530
916.595	14511
916.708	14469
916.82	14476
916.932	14438
917.044	14454
917.156	14301
917.268	14362
917.38	14404
917.491	14343
917.603	14317
917.715	14393
917.826	14366
917.938	14240
918.049	14180
918.161	14161
918.272	14396
918.384	14355
918.495	14263
918.606	14050
918.717	14012
918.828	14103
918.939	14065
919.05	13993
919.161	14027
919.272	13879
919.383	13849
919.494	14123
919.604	14328
919.715	14065
919.826	13951
919.936	14031
920.047	14100
920.157	14134
920.267	14195
920.378	14088
920.488	14073
920.598	14161
920.708	14339
920.818	14248
920.928	14149
921.038	14423
921.148	14336
921.258	14065
921.368	13883
921.477	13788
921.587	13795
921.697	13753
921.806	13837
921.916	13658
922.025	13544
922.134	13438
922.244	13468
922.353	13422
922.462	13343
922.571	13259
922.68	13091
922.789	13091
922.898	13095
923.007	13065
923.116	13171
923.224	13137
923.333	13027
923.442	13080
923.55	12897
923.659	13015
923.767	12962
923.876	12779
923.984	13004
924.092	12890
924.201	12890
924.309	12856
924.417	12821
924.525	12791
924.633	12703
924.741	13715
924.849	12559
924.956	12726
925.064	12623
925.172	12426
925.279	12544
925.387	12483
925.494	12528
925.602	12662
925.709	12517
925.816	12494
925.924	12566
926.031	12593
926.138	12502
926.245	12509
926.352	12334
926.459	12559
926.566	12547
926.673	12506
926.779	12281
926.886	12262
926.993	12167
927.099	12144
927.206	12133
927.312	12022
927.419	12163
927.525	12102
927.631	12140
927.737	11950
927.843	12019
927.95	11870
928.056	11946
928.162	11984
928.267	11954
928.373	12665
928.479	11988
928.585	11748
928.69	11904
928.796	11935
928.901	11855
929.007	11676
929.112	11786
929.218	11771
929.323	11729
929.428	11756
929.533	11760
929.638	11554
929.743	11699
929.848	11710
929.953	11585
930.058	11490
930.163	11337
930.267	11372
930.372	11554
930.477	11364
930.581	11520
930.685	11452
930.79	11254
930.894	11322
930.998	11227
931.103	11474
931.207	11052
931.311	11014
931.415	10911
931.519	10645
931.623	10637
