Data from test_V78500241_3248.txt Node
Date: Fri Mar 25 15:32:28 CST 2022
User: usil
Spectrometer: V785-0024
Trigger mode: 0
Integration Time (sec): 4.000000E-1
Scans to average: 1
Nonlinearity correction enabled: false
Boxcar width: 0
Storing dark spectrum: false
XAxis mode: Wavelengths
Number of Pixels in Spectrum: 1024
>>>>>Begin Spectral Data<<<<<
801.071	27222
801.214	27123
801.356	26925
801.499	27028
801.641	26845
801.783	26762
801.926	26864
802.068	26750
802.211	26819
802.353	26716
802.496	26415
802.638	26374
802.78	26336
802.923	26408
803.065	26343
803.208	26446
803.35	26355
803.492	26556
803.635	26541
803.777	26434
803.919	26609
804.061	26895
804.204	26632
804.346	26442
804.488	26556
804.63	26484
804.773	26450
804.915	26556
805.057	26583
805.199	26537
805.341	26697
805.483	26708
805.626	26587
805.768	26545
805.91	26594
806.052	26834
806.194	26492
806.336	26872
806.478	26720
806.62	26667
806.762	26785
806.904	26880
807.046	27077
807.188	27066
807.33	27047
807.472	27024
807.614	27005
807.756	27028
807.898	26868
808.04	26819
808.182	26891
808.324	26994
808.465	26960
808.607	27146
808.749	27431
808.891	27344
809.033	27344
809.174	27310
809.316	27298
809.458	27173
809.6	27203
809.741	27367
809.883	27252
810.025	27553
810.166	27618
810.308	27587
810.45	27568
810.591	27545
810.733	27241
810.875	27370
811.016	27165
811.158	27165
811.299	27435
811.441	27504
811.582	27485
811.724	27233
811.865	27233
812.007	27291
812.148	27294
812.29	27412
812.431	27458
812.573	27485
812.714	27542
812.855	27797
812.997	27873
813.138	27934
813.279	27717
813.421	27857
813.562	27595
813.703	27606
813.845	27504
813.986	27100
814.127	27058
814.268	26902
814.41	27058
814.551	26891
814.692	26899
814.833	26914
814.974	26899
815.115	26986
815.256	26811
815.397	26823
815.539	26773
815.68	26712
815.821	26644
815.962	26701
816.103	26625
816.244	26461
816.385	26381
816.526	26450
816.666	26328
816.807	26286
816.948	26202
817.089	26309
817.23	26324
817.371	26187
817.512	26256
817.653	26069
817.793	26138
817.934	26107
818.075	26180
818.216	26233
818.356	26145
818.497	26092
818.638	25951
818.778	26039
818.919	26008
819.06	25993
819.2	26103
819.341	26081
819.481	26195
819.622	26415
819.762	26484
819.903	26347
820.043	26339
820.184	26252
820.324	26248
820.465	26476
820.605	26309
820.746	26237
820.886	26008
821.026	26377
821.167	26119
821.307	26252
821.447	26263
821.588	26164
821.728	26058
821.868	25826
822.008	25757
822.149	25643
822.289	25601
822.429	25518
822.569	25487
822.709	25209
822.849	25179
822.99	25084
823.13	25084
823.27	25118
823.41	25023
823.55	24935
823.69	24943
823.83	24962
823.97	24977
824.11	24821
824.25	24871
824.389	24688
824.529	24837
824.669	24810
824.809	24837
824.949	24939
825.089	24772
825.228	24867
825.368	24692
825.508	24589
825.648	24719
825.787	24688
825.927	24726
826.067	24639
826.206	24658
826.346	24700
826.485	24711
826.625	24623
826.765	24791
826.904	24703
827.044	24467
827.183	24369
827.323	24361
827.462	24395
827.601	24422
827.741	24410
827.88	24384
828.02	24361
828.159	24334
828.298	24323
828.437	24281
828.577	24273
828.716	24498
828.855	24228
828.994	24041
829.134	24087
829.273	24273
829.412	24060
829.551	24064
829.69	24072
829.829	24076
829.968	24258
830.107	24136
830.246	24117
830.385	24072
830.524	24003
830.663	23889
830.802	23931
830.941	23657
831.08	23687
831.219	23783
831.357	23832
831.496	23923
831.635	23596
831.774	23638
831.913	23501
832.051	23440
832.19	23436
832.329	23482
832.467	23471
832.606	23288
832.744	23322
832.883	23372
833.022	23360
833.16	23303
833.299	23474
833.437	23474
833.576	23398
833.714	23444
833.852	23429
833.991	23455
834.129	23615
834.267	23543
834.406	23448
834.544	23585
834.682	23471
834.821	23478
834.959	23562
835.097	23360
835.235	23577
835.373	23596
835.511	23376
835.65	23288
835.788	23307
835.926	23170
836.064	23086
836.202	23299
836.34	23292
836.478	23395
836.615	23250
836.753	23277
836.891	23296
837.029	23303
837.167	23299
837.305	23246
837.443	23231
837.58	23071
837.718	23239
837.856	23052
837.993	23102
838.131	23083
838.269	23174
838.406	23083
838.544	22965
838.681	22733
838.819	22782
838.956	22607
839.094	22675
839.231	22729
839.369	22801
839.506	23098
839.643	22892
839.781	22664
839.918	22588
840.055	22668
840.193	22577
840.33	22561
840.467	22565
840.604	22607
840.742	22786
840.879	22504
841.016	22512
841.153	22451
841.29	22599
841.427	22489
841.564	22561
841.701	22527
841.838	22481
841.975	22588
842.112	22447
842.249	22428
842.385	22257
842.522	22470
842.659	22367
842.796	22268
842.933	22291
843.069	22329
843.206	22253
843.343	22371
843.479	22363
843.616	22367
843.752	22131
843.889	22044
844.025	22242
844.162	22143
844.298	22097
844.435	21991
844.571	22097
844.708	22215
844.844	22257
844.98	22207
845.117	22211
845.253	22097
845.389	22006
845.525	21922
845.661	21953
845.798	21762
845.934	21789
846.07	21865
846.206	21953
846.342	22101
846.478	21819
846.614	21610
846.75	21545
846.886	21545
847.022	21793
847.158	21637
847.294	21644
847.429	21591
847.565	21564
847.701	21816
847.837	21222
847.972	21249
848.108	21306
848.244	21378
848.379	21161
848.515	21093
848.65	21020
848.786	21176
848.921	21207
849.057	21336
849.192	21176
849.328	21135
849.463	21233
849.598	21287
849.734	21013
849.869	21074
850.004	20880
850.14	20857
850.275	20872
850.41	20819
850.545	20948
850.68	20933
850.815	20918
850.95	20944
851.085	21135
851.22	21047
851.355	20971
851.49	20952
851.625	20864
851.76	20975
851.895	20785
852.03	20830
852.165	20960
852.299	20998
852.434	20944
852.569	20948
852.703	20868
852.838	21070
852.973	21077
853.107	21104
853.242	20929
853.376	20731
853.511	20663
853.645	20788
853.78	20845
853.914	20819
854.048	20663
854.183	20887
854.317	20815
854.451	20906
854.585	20792
854.72	20769
854.854	20880
854.988	20815
855.122	20804
855.256	20629
855.39	20758
855.524	20720
855.658	20743
855.792	20796
855.926	20701
856.06	20895
856.194	20670
856.327	20674
856.461	20712
856.595	20762
856.729	20720
856.862	20838
856.996	20773
857.13	20762
857.263	20834
857.397	20727
857.53	20735
857.664	20861
857.797	20853
857.931	20830
858.064	20758
858.197	20773
858.331	20899
858.464	20785
858.597	20781
858.731	20788
858.864	20689
858.997	20731
859.13	20887
859.263	20727
859.396	20781
859.529	20689
859.662	20788
859.795	20788
859.928	20758
860.061	21013
860.194	20956
860.327	20838
860.46	20750
860.592	20880
860.725	20990
860.858	20891
860.99	20785
861.123	20644
861.256	20606
861.388	20785
861.521	21306
861.653	20602
861.786	20518
861.918	20636
862.05	20655
862.183	20716
862.315	20701
862.447	20765
862.58	20571
862.712	20495
862.844	20336
862.976	20537
863.108	20644
863.24	20998
863.372	20324
863.504	20526
863.636	20454
863.768	20469
863.9	20533
864.032	20339
864.164	20362
864.296	20537
864.428	20530
864.559	20613
864.691	20533
864.823	20507
864.954	20530
865.086	20415
865.217	20396
865.349	20267
865.48	20393
865.612	20423
865.743	20556
865.875	20492
866.006	20374
866.137	20278
866.269	20412
866.4	20400
866.531	20343
866.662	20320
866.793	20320
866.924	20385
867.055	20347
867.186	20229
867.317	20408
867.448	20149
867.579	20298
867.71	20164
867.841	20328
867.972	20313
868.103	20347
868.233	20393
868.364	20408
868.495	20374
868.625	20537
868.756	20606
868.886	20488
869.017	20636
869.147	20697
869.278	20663
869.408	20552
869.539	20522
869.669	20594
869.799	20609
869.929	20746
870.06	20659
870.19	20895
870.32	20819
870.45	20819
870.58	20982
870.71	20994
870.84	20971
870.97	21043
871.1	21074
871.23	21055
871.36	21237
871.489	21176
871.619	21085
871.749	21169
871.879	21275
872.008	21260
872.138	21154
872.267	21062
872.397	21089
872.526	21058
872.656	21074
872.785	20971
872.915	21154
873.044	21237
873.173	21157
873.303	21241
873.432	21226
873.561	21283
873.69	21184
873.819	21169
873.948	21176
874.077	21203
874.206	21131
874.335	21203
874.464	21325
874.593	21428
874.722	21424
874.851	21526
874.979	21488
875.108	21561
875.237	21351
875.365	21351
875.494	21344
875.623	21595
875.751	21386
875.88	21329
876.008	21641
876.136	21644
876.265	21934
876.393	21835
876.521	21892
876.65	21934
876.778	21739
876.906	21926
877.034	21755
877.162	21797
877.29	21755
877.418	21812
877.546	21823
877.674	21705
877.802	21785
877.93	21884
878.058	21713
878.185	21553
878.313	21701
878.441	21717
878.568	21656
878.696	21610
878.824	21873
878.951	21846
879.079	22021
879.206	22010
879.333	21915
879.461	21690
879.588	21930
879.715	21850
879.842	22093
879.97	21861
880.097	21519
880.224	21576
880.351	21595
880.478	21663
880.605	21519
880.732	21511
880.859	21781
880.986	21618
881.112	21557
881.239	21534
881.366	21397
881.493	21237
881.619	21146
881.746	21203
881.872	21211
881.999	21123
882.125	21203
882.252	21241
882.378	21039
882.505	21256
882.631	21062
882.757	20971
882.883	21077
883.01	20861
883.136	20887
883.262	20785
883.388	20826
883.514	20811
883.64	20868
883.766	20929
883.892	20682
884.018	20739
884.143	20861
884.269	21036
884.395	20606
884.52	20473
884.646	20674
884.772	20427
884.897	20530
885.023	20560
885.148	20697
885.274	20579
885.399	20701
885.524	20480
885.65	20560
885.775	20602
885.9	20511
886.025	20640
886.15	20571
886.275	20522
886.4	20469
886.525	20499
886.65	20476
886.775	20431
886.9	20621
887.025	20659
887.149	20549
887.274	20320
887.399	20415
887.523	20377
887.648	20233
887.773	20202
887.897	20389
888.021	20332
888.146	20320
888.27	20385
888.395	20347
888.519	20408
888.643	20278
888.767	20389
888.891	20290
889.015	20149
889.139	20054
889.263	20115
889.387	20286
889.511	20362
889.635	20336
889.759	20024
889.883	20183
890.006	20161
890.13	20122
890.254	19997
890.377	20062
890.501	19868
890.624	19818
890.748	19917
890.871	19780
890.995	19632
891.118	19609
891.241	19723
891.364	19696
891.488	19780
891.611	19677
891.734	19700
891.857	19852
891.98	19666
892.103	19776
892.226	19731
892.349	19674
892.471	19373
892.594	19571
892.717	19590
892.839	19586
892.962	19594
893.085	19666
893.207	19689
893.33	19384
893.452	19499
893.575	19666
893.697	19499
893.819	19772
893.941	19761
894.064	19651
894.186	19594
894.308	19556
894.43	19738
894.552	19738
894.674	19567
894.796	19529
894.918	19548
895.04	19578
895.161	19689
895.283	19613
895.405	19521
895.526	19639
895.648	19620
895.769	19635
895.891	19609
896.012	19674
896.134	19693
896.255	19578
896.376	19559
896.498	19590
896.619	19666
896.74	19594
896.861	19719
896.982	19940
897.103	20092
897.224	19791
897.345	19776
897.466	19700
897.587	19913
897.708	19963
897.828	19898
897.949	19822
898.07	19734
898.19	19723
898.311	19909
898.431	19643
898.552	19738
898.672	19894
898.792	20001
898.913	19951
899.033	19818
899.153	19609
899.273	19651
899.393	19643
899.513	19575
899.633	19582
899.753	19559
899.873	19487
899.993	19647
900.113	19480
900.232	19506
900.352	19476
900.472	19384
900.591	19301
900.711	19407
900.83	19381
900.95	19441
901.069	19487
901.189	19217
901.308	19023
901.427	18875
901.546	18977
901.665	18981
901.784	18993
901.904	18829
902.023	18738
902.141	18574
902.26	18582
902.379	18566
902.498	18498
902.617	18536
902.735	18361
902.854	18467
902.973	18334
903.091	18213
903.21	18167
903.328	18148
903.446	18045
903.565	17958
903.683	17923
903.801	17866
903.919	17939
904.038	17916
904.156	17836
904.274	17726
904.392	17684
904.51	17821
904.627	17779
904.745	17794
904.863	17851
904.981	17589
905.098	17516
905.216	17444
905.334	17455
905.451	17459
905.569	17391
905.686	17330
905.803	17429
905.921	17223
906.038	17353
906.155	17303
906.272	17037
906.389	17223
906.506	16972
906.623	17071
906.74	16946
906.857	16805
906.974	16946
907.091	17037
907.208	17132
907.324	16831
907.441	16877
907.557	16744
907.674	16622
907.79	16637
907.907	16675
908.023	16641
908.139	16611
908.256	16725
908.372	16626
908.488	16634
908.604	16542
908.72	16329
908.836	16512
908.952	16314
909.068	16455
909.184	16402
909.3	16329
909.415	16516
909.531	16356
909.647	16074
909.762	16029
909.878	16074
909.993	16048
910.108	16055
910.224	16105
910.339	16090
910.454	15869
910.57	16029
910.685	15854
910.8	16143
910.915	16135
911.03	15918
911.145	15812
911.259	15781
911.374	15682
911.489	15667
911.604	15652
911.718	15542
911.833	15466
911.947	15431
912.062	15382
912.176	15599
912.291	15595
912.405	15450
912.519	15679
912.633	15576
912.748	15519
912.862	15469
912.976	15397
913.09	15203
913.204	15222
913.318	15332
913.431	15428
913.545	15329
913.659	15447
913.772	15161
913.886	15249
914	15085
914.113	15157
914.226	15302
914.34	15192
914.453	14998
914.566	15146
914.68	14963
914.793	14925
914.906	14746
915.019	14693
915.132	14754
915.245	14773
915.358	14659
915.47	14636
915.583	14644
915.696	14689
915.809	14853
915.921	14800
916.034	14716
916.146	14731
916.259	14625
916.371	14712
916.483	14552
916.595	14587
916.708	14511
916.82	14514
916.932	14530
917.044	14530
917.156	14434
917.268	14305
917.38	14339
917.491	14366
917.603	14381
917.715	14492
917.826	14457
917.938	14366
918.049	14313
918.161	14423
918.272	14461
918.384	14514
918.495	14351
918.606	14115
918.717	14069
918.828	14164
918.939	14199
919.05	14077
919.161	14123
919.272	13940
919.383	14012
919.494	14210
919.604	14412
919.715	14092
919.826	14016
919.936	14058
920.047	14168
920.157	14153
920.267	14351
920.378	14119
920.488	14024
920.598	14309
920.708	14393
920.818	14271
920.928	14164
921.038	14469
921.148	14317
921.258	14100
921.368	13989
921.477	13879
921.587	13830
921.697	13704
921.806	13902
921.916	13658
922.025	13548
922.134	13506
922.244	13514
922.353	13575
922.462	13407
922.571	13400
922.68	13202
922.789	13240
922.898	13175
923.007	13149
923.116	13175
923.224	13122
923.333	13076
923.442	13053
923.55	12966
923.659	12947
923.767	13110
923.876	12932
923.984	13031
924.092	12814
924.201	12996
924.309	12924
924.417	12932
924.525	12817
924.633	12802
924.741	13738
924.849	12681
924.956	12878
925.064	12616
925.172	12623
925.279	12498
925.387	12597
925.494	12620
925.602	12719
925.709	12658
925.816	12509
925.924	12521
926.031	12650
926.138	12604
926.245	12593
926.352	12532
926.459	12582
926.566	12593
926.673	12490
926.779	12277
926.886	12456
926.993	12186
927.099	12133
927.206	12175
927.312	12087
927.419	12232
927.525	12175
927.631	12281
927.737	12091
927.843	12064
927.95	11935
928.056	11973
928.162	11954
928.267	12068
928.373	12700
928.479	12182
928.585	11821
928.69	11882
928.796	11980
928.901	11897
929.007	11767
929.112	11855
929.218	11843
929.323	11790
929.428	11729
929.533	11882
929.638	11627
929.743	11672
929.848	11756
929.953	11752
930.058	11630
930.163	11406
930.267	11474
930.372	11581
930.477	11383
930.581	11649
930.685	11478
930.79	11440
930.894	11402
930.998	11258
931.103	11455
931.207	11094
931.311	11132
931.415	10927
931.519	10729
931.623	10752
