Data from test_V78500241_625.txt Node
Date: Fri Mar 25 15:14:12 CST 2022
User: usil
Spectrometer: V785-0024
Trigger mode: 0
Integration Time (sec): 4.000000E-1
Scans to average: 1
Nonlinearity correction enabled: false
Boxcar width: 0
Storing dark spectrum: false
XAxis mode: Wavelengths
Number of Pixels in Spectrum: 1024
>>>>>Begin Spectral Data<<<<<
801.071	27663
801.214	27652
801.356	27477
801.499	27462
801.641	27313
801.783	27431
801.926	27363
802.068	27294
802.211	27142
802.353	27207
802.496	26979
802.638	26902
802.78	27005
802.923	26940
803.065	26823
803.208	26895
803.35	27020
803.492	27009
803.635	27020
803.777	27070
803.919	27211
804.061	27408
804.204	27199
804.346	27009
804.488	27066
804.63	27154
804.773	26960
804.915	27055
805.057	27112
805.199	27058
805.341	27211
805.483	27382
805.626	27222
805.768	27192
805.91	27226
806.052	27199
806.194	27146
806.336	27416
806.478	27275
806.62	27256
806.762	27370
806.904	27530
807.046	27728
807.188	27804
807.33	27709
807.472	27675
807.614	27622
807.756	27614
807.898	27511
808.04	27378
808.182	27545
808.324	27473
808.465	27511
808.607	27728
808.749	27774
808.891	27972
809.033	27983
809.174	27873
809.316	27888
809.458	27846
809.6	27831
809.741	28112
809.883	28105
810.025	28230
810.166	28120
810.308	28280
810.45	28242
810.591	28021
810.733	27899
810.875	27907
811.016	27770
811.158	27804
811.299	27994
811.441	28116
811.582	27991
811.724	27892
811.865	27903
812.007	27797
812.148	27850
812.29	27934
812.431	28078
812.573	28322
812.714	28318
812.855	28394
812.997	28592
813.138	28596
813.279	28634
813.421	28519
813.562	28489
813.703	28440
813.845	28124
813.986	28032
814.127	27789
814.268	27583
814.41	27591
814.551	27587
814.692	27686
814.833	27553
814.974	27595
815.115	27622
815.256	27473
815.397	27519
815.539	27488
815.68	27401
815.821	27329
815.962	27374
816.103	27382
816.244	27317
816.385	27214
816.526	26975
816.666	27017
816.807	26788
816.948	27013
817.089	27036
817.23	26921
817.371	26937
817.512	26979
817.653	26815
817.793	26830
817.934	26773
818.075	26998
818.216	26914
818.356	26746
818.497	26853
818.638	26686
818.778	26511
818.919	26602
819.06	26632
819.2	26804
819.341	26674
819.481	26967
819.622	27047
819.762	27249
819.903	27195
820.043	27043
820.184	27096
820.324	27081
820.465	27074
820.605	26990
820.746	27005
820.886	26948
821.026	26975
821.167	26792
821.307	26956
821.447	26834
821.588	26773
821.728	26663
821.868	26457
822.008	26374
822.149	26298
822.289	26332
822.429	25940
822.569	25970
822.709	26012
822.849	25795
822.99	25906
823.13	25883
823.27	25719
823.41	25761
823.55	25594
823.69	25643
823.83	25689
823.97	25582
824.11	25529
824.25	25457
824.389	25460
824.529	25502
824.669	25567
824.809	25635
824.949	25670
825.089	25616
825.228	25483
825.368	25460
825.508	25419
825.648	25445
825.787	25358
825.927	25468
826.067	25274
826.206	25335
826.346	25419
826.485	25483
826.625	25331
826.765	25483
826.904	25324
827.044	25225
827.183	25179
827.323	25050
827.462	25183
827.601	25152
827.741	25084
827.88	25168
828.02	24981
828.159	25038
828.298	25000
828.437	25183
828.577	24996
828.716	25198
828.855	25069
828.994	24939
829.134	24863
829.273	24970
829.412	24707
829.551	24757
829.69	24757
829.829	24642
829.968	24897
830.107	24875
830.246	24795
830.385	24776
830.524	24681
830.663	24627
830.802	24620
830.941	24429
831.08	24273
831.219	24566
831.357	24582
831.496	24540
831.635	24509
831.774	24155
831.913	24350
832.051	24292
832.19	24087
832.329	24232
832.467	24152
832.606	24057
832.744	24072
832.883	24186
833.022	23984
833.16	24205
833.299	24129
833.437	24213
833.576	24087
833.714	24235
833.852	24281
833.991	24270
834.129	24403
834.267	24174
834.406	24209
834.544	24232
834.682	24144
834.821	24133
834.959	24319
835.097	23988
835.235	24152
835.373	24087
835.511	24091
835.65	23977
835.788	24018
835.926	23828
836.064	23786
836.202	23798
836.34	23931
836.478	24038
836.615	23980
836.753	23901
836.891	24049
837.029	24072
837.167	23866
837.305	23889
837.443	23828
837.58	23882
837.718	23798
837.856	23897
837.993	23866
838.131	23794
838.269	23501
838.406	23638
838.544	23627
838.681	23368
838.819	23421
838.956	23307
839.094	23216
839.231	23387
839.369	23444
839.506	23608
839.643	23501
839.781	23277
839.918	23296
840.055	23254
840.193	23204
840.33	23200
840.467	23162
840.604	23235
840.742	23368
840.879	23094
841.016	23117
841.153	23113
841.29	23303
841.427	23132
841.564	23220
841.701	23086
841.838	23147
841.975	23060
842.112	23181
842.249	22976
842.385	22900
842.522	23105
842.659	23048
842.796	22900
842.933	22942
843.069	22892
843.206	22881
843.343	22999
843.479	22965
843.616	22873
843.752	22706
843.889	22809
844.025	22843
844.162	22702
844.298	22812
844.435	22672
844.571	22801
844.708	22790
844.844	22885
844.98	22816
845.117	22771
845.253	22649
845.389	22622
845.525	22683
845.661	22740
845.798	22554
845.934	22489
846.07	22455
846.206	22668
846.342	22672
846.478	22371
846.614	22306
846.75	22200
846.886	22158
847.022	22291
847.158	22265
847.294	22261
847.429	22181
847.565	22135
847.701	22481
847.837	21956
847.972	21915
848.108	22017
848.244	22006
848.379	21755
848.515	21762
848.65	21812
848.786	21816
848.921	21804
849.057	21861
849.192	21888
849.328	21819
849.463	21899
849.598	21781
849.734	21739
849.869	21709
850.004	21553
850.14	21504
850.275	21644
850.41	21431
850.545	21603
850.68	21561
850.815	21595
850.95	21534
851.085	21778
851.22	21622
851.355	21682
851.49	21599
851.625	21488
851.76	21561
851.895	21504
852.03	21488
852.165	21431
852.299	21500
852.434	21671
852.569	21591
852.703	21534
852.838	21587
852.973	21739
853.107	21713
853.242	21492
853.376	21370
853.511	21237
853.645	21393
853.78	21477
853.914	21454
854.048	21408
854.183	21435
854.317	21416
854.451	21469
854.585	21302
854.72	21469
854.854	21504
854.988	21382
855.122	21389
855.256	21252
855.39	21435
855.524	21488
855.658	21412
855.792	21389
855.926	21325
856.06	21401
856.194	21492
856.327	21386
856.461	21340
856.595	21351
856.729	21382
856.862	21450
856.996	21500
857.13	21485
857.263	21401
857.397	21500
857.53	21443
857.664	21389
857.797	21469
857.931	21564
858.064	21397
858.197	21466
858.331	21344
858.464	21477
858.597	21351
858.731	21351
858.864	21473
858.997	21332
859.13	21481
859.263	21321
859.396	21466
859.529	21412
859.662	21291
859.795	21279
859.928	21473
860.061	21538
860.194	21454
860.327	21462
860.46	21340
860.592	21504
860.725	21568
860.858	21450
860.99	21435
861.123	21348
861.256	21214
861.388	21321
861.521	22010
861.653	21161
861.786	21241
861.918	21192
862.05	21272
862.183	21317
862.315	21329
862.447	21435
862.58	21317
862.712	20990
862.844	21108
862.976	21203
863.108	21214
863.24	21660
863.372	21119
863.504	21081
863.636	21154
863.768	21192
863.9	21001
864.032	21028
864.164	21066
864.296	21218
864.428	21233
864.559	21123
864.691	21157
864.823	21116
864.954	21237
865.086	20952
865.217	21055
865.349	20880
865.48	20834
865.612	21066
865.743	21154
865.875	20982
866.006	21028
866.137	20887
866.269	21024
866.4	20941
866.531	20864
866.662	20998
866.793	20830
866.924	20914
867.055	20906
867.186	20914
867.317	20891
867.448	20861
867.579	20914
867.71	20861
867.841	20857
867.972	20941
868.103	20868
868.233	20918
868.364	20963
868.495	21077
868.625	21112
868.756	21348
868.886	21066
869.017	21066
869.147	21291
869.278	21363
869.408	21203
869.539	21085
869.669	21150
869.799	21104
869.929	21283
870.06	21214
870.19	21431
870.32	21500
870.45	21583
870.58	21519
870.71	21656
870.84	21625
870.97	21530
871.1	21488
871.23	21808
871.36	21762
871.489	21698
871.619	21713
871.749	21823
871.879	21789
872.008	21907
872.138	21720
872.267	21804
872.397	21576
872.526	21629
872.656	21568
872.785	21564
872.915	21686
873.044	21861
873.173	21850
873.303	21797
873.432	21819
873.561	21937
873.69	21915
873.819	21739
873.948	21884
874.077	21774
874.206	21660
874.335	21671
874.464	21895
874.593	22078
874.722	21846
874.851	22013
874.979	21899
875.108	22143
875.237	21975
875.365	21907
875.494	22048
875.623	22006
875.751	21975
875.88	22093
876.008	21991
876.136	22192
876.265	22329
876.393	22459
876.521	22478
876.65	22341
876.778	22405
876.906	22341
877.034	22291
877.162	22318
877.29	22390
877.418	22379
877.546	22348
877.674	22246
877.802	22333
877.93	22322
878.058	22295
878.185	22234
878.313	22253
878.441	22299
878.568	22166
878.696	22314
878.824	22398
878.951	22508
879.079	22485
879.206	22588
879.333	22394
879.461	22325
879.588	22538
879.715	22481
879.842	22717
879.97	22367
880.097	22234
880.224	22154
880.351	22246
880.478	22196
880.605	22166
880.732	22246
880.859	22310
880.986	22120
881.112	22124
881.239	21945
881.366	21937
881.493	21823
881.619	21637
881.746	21846
881.872	21778
881.999	21854
882.125	21671
882.252	21778
882.378	21629
882.505	21835
882.631	21614
882.757	21511
882.883	21443
883.01	21386
883.136	21344
883.262	21272
883.388	21306
883.514	21485
883.64	21454
883.766	21340
883.892	21165
884.018	21222
884.143	21359
884.269	21561
884.395	21089
884.52	21013
884.646	21131
884.772	21028
884.897	20982
885.023	21024
885.148	21119
885.274	21275
885.399	21119
885.524	21070
885.65	21104
885.775	21066
885.9	21058
886.025	21207
886.15	21173
886.275	20895
886.4	21051
886.525	21039
886.65	21055
886.775	20986
886.9	21127
887.025	21287
887.149	21074
887.274	20849
887.399	20830
887.523	20899
887.648	20788
887.773	20743
887.897	20899
888.021	20887
888.146	20819
888.27	20914
888.395	20982
888.519	20948
888.643	20902
888.767	20830
888.891	20693
889.015	20609
889.139	20712
889.263	20667
889.387	20804
889.511	20823
889.635	20906
889.759	20518
889.883	20594
890.006	20648
890.13	20842
890.254	20606
890.377	20613
890.501	20412
890.624	20454
890.748	20484
890.871	20244
890.995	20176
891.118	20229
891.241	20290
891.364	20221
891.488	20442
891.611	20282
891.734	20339
891.857	20286
891.98	20374
892.103	20267
892.226	20199
892.349	20298
892.471	20157
892.594	20122
892.717	20138
892.839	20130
892.962	20286
893.085	20252
893.207	20183
893.33	20069
893.452	20100
893.575	20233
893.697	20107
893.819	20396
893.941	20320
894.064	20366
894.186	20202
894.308	20081
894.43	20202
894.552	20305
894.674	20161
894.796	20107
894.918	20233
895.04	20065
895.161	20172
895.283	20164
895.405	19936
895.526	20145
895.648	20126
895.769	20126
895.891	20180
896.012	20256
896.134	20183
896.255	20199
896.376	20084
896.498	20100
896.619	20199
896.74	20126
896.861	20214
896.982	20442
897.103	20507
897.224	20530
897.345	20377
897.466	20282
897.587	20339
897.708	20450
897.828	20339
897.949	20377
898.07	20290
898.19	20218
898.311	20324
898.431	20324
898.552	20419
898.672	20442
898.792	20415
898.913	20412
899.033	20183
899.153	20206
899.273	20039
899.393	20122
899.513	20180
899.633	20043
899.753	20119
899.873	19959
899.993	20145
900.113	20119
900.232	20103
900.352	20050
900.472	19974
900.591	19860
900.711	19917
900.83	19814
900.95	19986
901.069	20012
901.189	19696
901.308	19571
901.427	19441
901.546	19521
901.665	19407
901.784	19540
901.904	19282
902.023	19255
902.141	19103
902.26	19004
902.379	19137
902.498	18970
902.617	18848
902.735	19076
902.854	18924
902.973	18951
903.091	18635
903.21	18711
903.328	18604
903.446	18589
903.565	18528
903.683	18547
903.801	18315
903.919	18330
904.038	18403
904.156	18273
904.274	18243
904.392	18262
904.51	18254
904.627	18232
904.745	18266
904.863	18407
904.981	18110
905.098	17904
905.216	17897
905.334	17893
905.451	17931
905.569	17931
905.686	17954
905.803	17817
905.921	17638
906.038	17836
906.155	17741
906.272	17608
906.389	17573
906.506	17448
906.623	17532
906.74	17452
906.857	17337
906.974	17231
907.091	17387
907.208	17589
907.324	17414
907.441	17193
907.557	17124
907.674	17143
907.79	17018
907.907	17079
908.023	17174
908.139	17178
908.256	17018
908.372	17056
908.488	17117
908.604	16934
908.72	16759
908.836	16820
908.952	16866
909.068	16927
909.184	16900
909.3	16816
909.415	16847
909.531	16866
909.647	16725
909.762	16607
909.878	16474
909.993	16500
910.108	16615
910.224	16512
910.339	16531
910.454	16508
910.57	16417
910.685	16371
910.8	16691
910.915	16508
911.03	16367
911.145	16230
911.259	16318
911.374	16150
911.489	16177
911.604	16002
911.718	15865
911.833	15979
911.947	15819
912.062	15713
912.176	15876
912.291	15911
912.405	15975
912.519	16067
912.633	16112
912.748	16002
912.862	15876
912.976	15808
913.09	15610
913.204	15747
913.318	15778
913.431	15835
913.545	15816
913.659	15835
913.772	15698
913.886	15568
914	15584
914.113	15629
914.226	15561
914.34	15549
914.453	15443
914.566	15584
914.68	15401
914.793	15412
914.906	15241
915.019	15135
915.132	15142
915.245	15214
915.358	15142
915.47	15154
915.583	15127
915.696	15184
915.809	15348
915.921	15294
916.034	15176
916.146	15028
916.259	15020
916.371	15100
916.483	15074
916.595	15001
916.708	14899
916.82	14956
916.932	14990
917.044	14918
917.156	14971
917.268	14853
917.38	14902
917.491	14777
917.603	14838
917.715	14788
917.826	14804
917.938	14769
918.049	14598
918.161	14705
918.272	14819
918.384	14800
918.495	14754
918.606	14640
918.717	14507
918.828	14537
918.939	14594
919.05	14495
919.161	14541
919.272	14415
919.383	14362
919.494	14518
919.604	14743
919.715	14670
919.826	14389
919.936	14617
920.047	14670
920.157	14454
920.267	14750
920.378	14518
920.488	14564
920.598	14651
920.708	14674
920.818	14632
920.928	14613
921.038	14807
921.148	14705
921.258	14469
921.368	14370
921.477	14248
921.587	14305
921.697	14195
921.806	14271
921.916	14084
922.025	13959
922.134	13917
922.244	13944
922.353	13951
922.462	13757
922.571	13693
922.68	13620
922.789	13468
922.898	13495
923.007	13400
923.116	13639
923.224	13540
923.333	13480
923.442	13449
923.55	13274
923.659	13407
923.767	13426
923.876	13255
923.984	13426
924.092	13377
924.201	13240
924.309	13259
924.417	13293
924.525	13129
924.633	13232
924.741	14016
924.849	13084
924.956	13152
925.064	13019
925.172	12958
925.279	13034
925.387	12970
925.494	12916
925.602	13031
925.709	13012
925.816	12787
925.924	12909
926.031	12996
926.138	12943
926.245	12958
926.352	12848
926.459	12901
926.566	12935
926.673	12776
926.779	12791
926.886	12722
926.993	12578
927.099	12540
927.206	12445
927.312	12452
927.419	12536
927.525	12521
927.631	12544
927.737	12433
927.843	12327
927.95	12315
928.056	12376
928.162	12376
928.267	12384
928.373	13000
928.479	12410
928.585	12220
928.69	12247
928.796	12380
928.901	12178
929.007	12053
929.112	12114
929.218	12213
929.323	12163
929.428	12079
929.533	12152
929.638	11992
929.743	12045
929.848	12072
929.953	11988
930.058	11863
930.163	11695
930.267	11676
930.372	11973
930.477	11691
930.581	11897
930.685	11851
930.79	11657
930.894	11756
930.998	11638
931.103	11710
931.207	11440
931.311	11296
931.415	11189
931.519	11014
931.623	11041
