Data from test_V78500241_1624.txt Node
Date: Fri Mar 25 15:21:09 CST 2022
User: usil
Spectrometer: V785-0024
Trigger mode: 0
Integration Time (sec): 4.000000E-1
Scans to average: 1
Nonlinearity correction enabled: false
Boxcar width: 0
Storing dark spectrum: false
XAxis mode: Wavelengths
Number of Pixels in Spectrum: 1024
>>>>>Begin Spectral Data<<<<<
801.071	27968
801.214	27854
801.356	27739
801.499	27686
801.641	27477
801.783	27443
801.926	27348
802.068	27458
802.211	27401
802.353	27374
802.496	27096
802.638	27081
802.78	27096
802.923	27081
803.065	26944
803.208	27100
803.35	27116
803.492	27321
803.635	27469
803.777	27233
803.919	27230
804.061	27743
804.204	27367
804.346	27302
804.488	27340
804.63	27416
804.773	27066
804.915	27302
805.057	27542
805.199	27226
805.341	27393
805.483	27458
805.626	27336
805.768	27336
805.91	27473
806.052	27519
806.194	27298
806.336	27644
806.478	27618
806.62	27504
806.762	27439
806.904	27736
807.046	28044
807.188	27892
807.33	27747
807.472	27876
807.614	27869
807.756	27903
807.898	27816
808.04	27713
808.182	27724
808.324	27705
808.465	27679
808.607	27911
808.749	28150
808.891	28166
809.033	28177
809.174	28139
809.316	27911
809.458	28025
809.6	28086
809.741	28192
809.883	28070
810.025	28360
810.166	28284
810.308	28253
810.45	28344
810.591	28333
810.733	28158
810.875	28067
811.016	28025
811.158	28048
811.299	28276
811.441	28166
811.582	28131
811.724	28109
811.865	27983
812.007	28002
812.148	28135
812.29	28082
812.431	28215
812.573	28348
812.714	28470
812.855	28557
812.997	28687
813.138	28866
813.279	28805
813.421	28611
813.562	28527
813.703	28561
813.845	28257
813.986	28040
814.127	27911
814.268	27861
814.41	27797
814.551	27686
814.692	27907
814.833	27603
814.974	27793
815.115	27865
815.256	27629
815.397	27530
815.539	27679
815.68	27694
815.821	27553
815.962	27614
816.103	27629
816.244	27443
816.385	27344
816.526	27329
816.666	27203
816.807	26979
816.948	27047
817.089	27302
817.23	27089
817.371	27161
817.512	27009
817.653	27123
817.793	27013
817.934	27116
818.075	27070
818.216	27036
818.356	26967
818.497	26994
818.638	26754
818.778	26682
818.919	26929
819.06	26876
819.2	26952
819.341	27081
819.481	27131
819.622	27207
819.762	27405
819.903	27359
820.043	27336
820.184	27249
820.324	27074
820.465	27275
820.605	27119
820.746	27188
820.886	26975
821.026	27036
821.167	27192
821.307	27127
821.447	27081
821.588	27009
821.728	26785
821.868	26708
822.008	26533
822.149	26526
822.289	26549
822.429	26237
822.569	26233
822.709	26153
822.849	26111
822.99	26031
823.13	25894
823.27	25917
823.41	25795
823.55	25723
823.69	25871
823.83	25841
823.97	25860
824.11	25689
824.25	25639
824.389	25651
824.529	25761
824.669	25624
824.809	25940
824.949	25689
825.089	25887
825.228	25651
825.368	25453
825.508	25586
825.648	25396
825.787	25559
825.927	25548
826.067	25510
826.206	25537
826.346	25578
826.485	25556
826.625	25537
826.765	25582
826.904	25597
827.044	25396
827.183	25362
827.323	25301
827.462	25479
827.601	25335
827.741	25297
827.88	25335
828.02	25206
828.159	25209
828.298	25183
828.437	25327
828.577	25289
828.716	25324
828.855	25247
828.994	25091
829.134	24947
829.273	25023
829.412	24897
829.551	24878
829.69	24909
829.829	24954
829.968	25095
830.107	25012
830.246	24916
830.385	24916
830.524	24798
830.663	24814
830.802	24566
830.941	24528
831.08	24665
831.219	24623
831.357	24715
831.496	24738
831.635	24631
831.774	24528
831.913	24376
832.051	24384
832.19	24315
832.329	24388
832.467	24346
832.606	24239
832.744	24110
832.883	24311
833.022	24178
833.16	24243
833.299	24304
833.437	24395
833.576	24350
833.714	24315
833.852	24388
833.991	24357
834.129	24350
834.267	24418
834.406	24380
834.544	24311
834.682	24456
834.821	24300
834.959	24490
835.097	24178
835.235	24353
835.373	24289
835.511	24292
835.65	24182
835.788	24140
835.926	24060
836.064	24003
836.202	23969
836.34	24129
836.478	24125
836.615	24045
836.753	24140
836.891	24057
837.029	24125
837.167	23980
837.305	24091
837.443	23996
837.58	23965
837.718	23996
837.856	24003
837.993	23859
838.131	23912
838.269	23657
838.406	24003
838.544	23726
838.681	23729
838.819	23516
838.956	23482
839.094	23440
839.231	23611
839.369	23516
839.506	23901
839.643	23794
839.781	23463
839.918	23398
840.055	23482
840.193	23379
840.33	23273
840.467	23292
840.604	23406
840.742	23707
840.879	23280
841.016	23250
841.153	23402
841.29	23463
841.427	23330
841.564	23220
841.701	23410
841.838	23250
841.975	23280
842.112	23162
842.249	23231
842.385	23124
842.522	23345
842.659	23220
842.796	23193
842.933	23132
843.069	23056
843.206	23029
843.343	23151
843.479	23105
843.616	23212
843.752	22839
843.889	22980
844.025	23079
844.162	22858
844.298	22869
844.435	22824
844.571	22831
844.708	22984
844.844	23143
844.98	22995
845.117	22900
845.253	22843
845.389	22744
845.525	22759
845.661	22790
845.798	22679
845.934	22622
846.07	22569
846.206	22485
846.342	22763
846.478	22675
846.614	22535
846.75	22329
846.886	22337
847.022	22554
847.158	22500
847.294	22485
847.429	22462
847.565	22303
847.701	22630
847.837	22063
847.972	21964
848.108	22177
848.244	22051
848.379	22040
848.515	21846
848.65	21968
848.786	22120
848.921	21945
849.057	22101
849.192	21979
849.328	22044
849.463	21888
849.598	21960
849.734	21819
849.869	21766
850.004	21793
850.14	21675
850.275	21755
850.41	21641
850.545	21599
850.68	21648
850.815	21751
850.95	21603
851.085	21888
851.22	21808
851.355	21755
851.49	21644
851.625	21625
851.76	21762
851.895	21530
852.03	21610
852.165	21705
852.299	21842
852.434	21774
852.569	21804
852.703	21720
852.838	21770
852.973	21793
853.107	21816
853.242	21656
853.376	21587
853.511	21424
853.645	21526
853.78	21614
853.914	21572
854.048	21488
854.183	21530
854.317	21557
854.451	21835
854.585	21599
854.72	21603
854.854	21557
854.988	21523
855.122	21549
855.256	21428
855.39	21507
855.524	21644
855.658	21603
855.792	21500
855.926	21473
856.06	21538
856.194	21625
856.327	21557
856.461	21500
856.595	21458
856.729	21397
856.862	21618
856.996	21625
857.13	21641
857.263	21667
857.397	21660
857.53	21458
857.664	21515
857.797	21561
857.931	21606
858.064	21450
858.197	21648
858.331	21553
858.464	21458
858.597	21526
858.731	21538
858.864	21511
858.997	21477
859.13	21439
859.263	21496
859.396	21519
859.529	21488
859.662	21488
859.795	21481
859.928	21549
860.061	21583
860.194	21846
860.327	21572
860.46	21458
860.592	21660
860.725	21675
860.858	21633
860.99	21492
861.123	21367
861.256	21538
861.388	21511
861.521	22181
861.653	21344
861.786	21416
861.918	21275
862.05	21397
862.183	21435
862.315	21492
862.447	21477
862.58	21416
862.712	21256
862.844	21192
862.976	21298
863.108	21306
863.24	21568
863.372	21161
863.504	21218
863.636	21123
863.768	21272
863.9	21298
864.032	21195
864.164	21131
864.296	21306
864.428	21302
864.559	21260
864.691	21256
864.823	21184
864.954	21116
865.086	21131
865.217	21176
865.349	21051
865.48	21173
865.612	21230
865.743	21226
865.875	21077
866.006	21142
866.137	21199
866.269	21203
866.4	21173
866.531	21104
866.662	20891
866.793	21077
866.924	21138
867.055	21036
867.186	21180
867.317	21055
867.448	20891
867.579	21039
867.71	20933
867.841	21024
867.972	21070
868.103	20990
868.233	21089
868.364	21081
868.495	21119
868.625	21245
868.756	21405
868.886	21287
869.017	21348
869.147	21412
869.278	21389
869.408	21310
869.539	21298
869.669	21325
869.799	21260
869.929	21408
870.06	21348
870.19	21606
870.32	21439
870.45	21576
870.58	21728
870.71	21759
870.84	21713
870.97	21606
871.1	21728
871.23	21808
871.36	21705
871.489	21888
871.619	21941
871.749	21861
871.879	21915
872.008	21998
872.138	21819
872.267	21876
872.397	21694
872.526	21785
872.656	21797
872.785	21739
872.915	21831
873.044	21968
873.173	21975
873.303	22059
873.432	21998
873.561	22036
873.69	21895
873.819	21835
873.948	22025
874.077	21842
874.206	21816
874.335	21842
874.464	22048
874.593	22154
874.722	22169
874.851	22211
874.979	22192
875.108	22234
875.237	22211
875.365	21991
875.494	22036
875.623	22234
875.751	22124
875.88	22086
876.008	22261
876.136	22295
876.265	22546
876.393	22675
876.521	22637
876.65	22630
876.778	22443
876.906	22474
877.034	22447
877.162	22500
877.29	22413
877.418	22466
877.546	22470
877.674	22485
877.802	22478
877.93	22455
878.058	22333
878.185	22352
878.313	22367
878.441	22375
878.568	22215
878.696	22432
878.824	22573
878.951	22637
879.079	22618
879.206	22778
879.333	22725
879.461	22493
879.588	22672
879.715	22622
879.842	22733
879.97	22363
880.097	22253
880.224	22341
880.351	22398
880.478	22249
880.605	22226
880.732	22249
880.859	22500
880.986	22287
881.112	22226
881.239	22150
881.366	22021
881.493	21960
881.619	21854
881.746	21778
881.872	21975
881.999	21895
882.125	21816
882.252	21899
882.378	21766
882.505	21846
882.631	21751
882.757	21485
882.883	21644
883.01	21644
883.136	21485
883.262	21542
883.388	21363
883.514	21583
883.64	21656
883.766	21568
883.892	21359
884.018	21405
884.143	21580
884.269	21515
884.395	21245
884.52	21188
884.646	21279
884.772	21127
884.897	21089
885.023	21233
885.148	21317
885.274	21260
885.399	21291
885.524	21226
885.65	21093
885.775	21218
885.9	21138
886.025	21302
886.15	21325
886.275	21135
886.4	21032
886.525	21093
886.65	21123
886.775	21233
886.9	21268
887.025	21336
887.149	21199
887.274	20887
887.399	21020
887.523	20914
887.648	20933
887.773	20925
887.897	21150
888.021	21017
888.146	20952
888.27	21089
888.395	21017
888.519	21096
888.643	20963
888.767	21005
888.891	20883
889.015	20697
889.139	20963
889.263	20788
889.387	20872
889.511	20960
889.635	20956
889.759	20701
889.883	20815
890.006	20724
890.13	20826
890.254	20659
890.377	20564
890.501	20530
890.624	20549
890.748	20560
890.871	20423
890.995	20305
891.118	20324
891.241	20248
891.364	20393
891.488	20404
891.611	20256
891.734	20301
891.857	20385
891.98	20351
892.103	20355
892.226	20313
892.349	20256
892.471	20183
892.594	20286
892.717	20298
892.839	20176
892.962	20225
893.085	20309
893.207	20278
893.33	20122
893.452	20301
893.575	20305
893.697	20278
893.819	20381
893.941	20583
894.064	20377
894.186	20161
894.308	20168
894.43	20271
894.552	20313
894.674	20275
894.796	20149
894.918	20256
895.04	20206
895.161	20317
895.283	20244
895.405	20187
895.526	20206
895.648	20195
895.769	20252
895.891	20248
896.012	20324
896.134	20343
896.255	20347
896.376	20092
896.498	20233
896.619	20244
896.74	20176
896.861	20237
896.982	20632
897.103	20708
897.224	20473
897.345	20461
897.466	20248
897.587	20404
897.708	20541
897.828	20476
897.949	20442
898.07	20385
898.19	20256
898.311	20651
898.431	20450
898.552	20442
898.672	20541
898.792	20377
898.913	20526
899.033	20400
899.153	20164
899.273	20122
899.393	20256
899.513	20210
899.633	20103
899.753	20218
899.873	20161
899.993	20206
900.113	20081
900.232	20164
900.352	20107
900.472	20126
900.591	19986
900.711	19955
900.83	19849
900.95	20046
901.069	20161
901.189	19860
901.308	19635
901.427	19537
901.546	19567
901.665	19632
901.784	19590
901.904	19533
902.023	19316
902.141	19198
902.26	19015
902.379	19103
902.498	18973
902.617	19019
902.735	19110
902.854	19088
902.973	18943
903.091	18757
903.21	18749
903.328	18791
903.446	18540
903.565	18566
903.683	18589
903.801	18429
903.919	18544
904.038	18407
904.156	18346
904.274	18399
904.392	18334
904.51	18194
904.627	18330
904.745	18380
904.863	18414
904.981	18186
905.098	17927
905.216	17988
905.334	18038
905.451	17897
905.569	17893
905.686	17988
905.803	17999
905.921	17798
906.038	17748
906.155	17824
906.272	17661
906.389	17657
906.506	17520
906.623	17547
906.74	17478
906.857	17353
906.974	17440
907.091	17490
907.208	17592
907.324	17490
907.441	17440
907.557	17239
907.674	17162
907.79	17178
907.907	17197
908.023	17216
908.139	17261
908.256	17185
908.372	17178
908.488	17079
908.604	17010
908.72	16889
908.836	17086
908.952	16831
909.068	16968
909.184	16987
909.3	16835
909.415	16942
909.531	16938
909.647	16672
909.762	16721
909.878	16550
909.993	16801
910.108	16554
910.224	16596
910.339	16592
910.454	16550
910.57	16489
910.685	16432
910.8	16596
910.915	16596
911.03	16402
911.145	16284
911.259	16280
911.374	16314
911.489	16246
911.604	16090
911.718	16025
911.833	16021
911.947	15857
912.062	15842
912.176	15850
912.291	15983
912.405	16032
912.519	16173
912.633	16097
912.748	16025
912.862	15968
912.976	15842
913.09	15644
913.204	15789
913.318	15827
913.431	15884
913.545	15778
913.659	15903
913.772	15724
913.886	15709
914	15599
914.113	15591
914.226	15766
914.34	15622
914.453	15553
914.566	15705
914.68	15428
914.793	15485
914.906	15329
915.019	15188
915.132	15211
915.245	15192
915.358	15176
915.47	15150
915.583	15195
915.696	15275
915.809	15325
915.921	15382
916.034	15131
916.146	15017
916.259	14982
916.371	15135
916.483	15214
916.595	15097
916.708	15032
916.82	15051
916.932	14883
917.044	15039
917.156	14937
917.268	14918
917.38	14887
917.491	14788
917.603	14868
917.715	14887
917.826	14960
917.938	14693
918.049	14697
918.161	14804
918.272	14864
918.384	14971
918.495	14804
918.606	14697
918.717	14640
918.828	14575
918.939	14648
919.05	14461
919.161	14629
919.272	14511
919.383	14492
919.494	14602
919.604	14758
919.715	14579
919.826	14427
919.936	14438
920.047	14625
920.157	14545
920.267	14724
920.378	14526
920.488	14571
920.598	14689
920.708	14823
920.818	14701
920.928	14720
921.038	14838
921.148	14804
921.258	14457
921.368	14446
921.477	14324
921.587	14259
921.697	14115
921.806	14336
921.916	14107
922.025	14012
922.134	13917
922.244	13913
922.353	14008
922.462	13864
922.571	13712
922.68	13613
922.789	13552
922.898	13548
923.007	13552
923.116	13578
923.224	13563
923.333	13533
923.442	13495
923.55	13343
923.659	13438
923.767	13449
923.876	13373
923.984	13597
924.092	13293
924.201	13430
924.309	13285
924.417	13308
924.525	13213
924.633	13301
924.741	14218
924.849	12951
924.956	13110
925.064	13110
925.172	13027
925.279	12993
925.387	12966
925.494	13069
925.602	13194
925.709	12985
925.816	12951
925.924	12825
926.031	13027
926.138	12890
926.245	13038
926.352	12867
926.459	12958
926.566	12947
926.673	12890
926.779	12814
926.886	12745
926.993	12555
927.099	12559
927.206	12540
927.312	12426
927.419	12566
927.525	12578
927.631	12559
927.737	12506
927.843	12376
927.95	12304
928.056	12429
928.162	12395
928.267	12391
928.373	12932
928.479	12448
928.585	12182
928.69	12258
928.796	12388
928.901	12292
929.007	12232
929.112	12254
929.218	12197
929.323	12148
929.428	12136
929.533	12251
929.638	12125
929.743	12068
929.848	12049
929.953	11996
930.058	11859
930.163	11767
930.267	11866
930.372	11946
930.477	11756
930.581	12068
930.685	11817
930.79	11653
930.894	11680
930.998	11577
931.103	11764
931.207	11471
931.311	11353
931.415	11258
931.519	11083
931.623	11033
