Data from test_V78500241_99.txt Node
Date: Fri Mar 25 15:10:33 CST 2022
User: usil
Spectrometer: V785-0024
Trigger mode: 0
Integration Time (sec): 4.000000E-1
Scans to average: 1
Nonlinearity correction enabled: false
Boxcar width: 0
Storing dark spectrum: false
XAxis mode: Wavelengths
Number of Pixels in Spectrum: 1024
>>>>>Begin Spectral Data<<<<<
801.071	28341
801.214	28371
801.356	28040
801.499	27956
801.641	27804
801.783	27789
801.926	27876
802.068	27945
802.211	27728
802.353	27819
802.496	27679
802.638	27549
802.78	27485
802.923	27530
803.065	27260
803.208	27454
803.35	27439
803.492	27447
803.635	27530
803.777	27561
803.919	27492
804.061	27861
804.204	27606
804.346	27534
804.488	27443
804.63	27298
804.773	27496
804.915	27557
805.057	27610
805.199	27420
805.341	27610
805.483	27663
805.626	27614
805.768	27492
805.91	27580
806.052	27511
806.194	27526
806.336	27728
806.478	27564
806.62	27637
806.762	27648
806.904	27762
807.046	28021
807.188	27800
807.33	27865
807.472	27892
807.614	27918
807.756	27846
807.898	27854
808.04	27713
808.182	27751
808.324	27766
808.465	27732
808.607	27762
808.749	28010
808.891	28284
809.033	28246
809.174	28010
809.316	28017
809.458	28101
809.6	27937
809.741	28192
809.883	28196
810.025	28295
810.166	28265
810.308	28382
810.45	28363
810.591	28169
810.733	28048
810.875	28040
811.016	27926
811.158	27930
811.299	28036
811.441	28207
811.582	28051
811.724	27953
811.865	27998
812.007	27972
812.148	28097
812.29	28135
812.431	28139
812.573	28352
812.714	28542
812.855	28508
812.997	28504
813.138	28740
813.279	28634
813.421	28516
813.562	28413
813.703	28356
813.845	28265
813.986	27804
814.127	27641
814.268	27599
814.41	27705
814.551	27637
814.692	27823
814.833	27572
814.974	27416
815.115	27648
815.256	27454
815.397	27416
815.539	27519
815.68	27336
815.821	27222
815.962	27439
816.103	27378
816.244	27306
816.385	27150
816.526	27032
816.666	26960
816.807	26804
816.948	26819
817.089	26861
817.23	26773
817.371	26815
817.512	26788
817.653	26727
817.793	26743
817.934	26800
818.075	26838
818.216	26701
818.356	26689
818.497	26564
818.638	26400
818.778	26370
818.919	26461
819.06	26583
819.2	26644
819.341	26712
819.481	26613
819.622	26925
819.762	27142
819.903	26861
820.043	26849
820.184	26826
820.324	26705
820.465	26967
820.605	26940
820.746	26834
820.886	26659
821.026	26636
821.167	26598
821.307	26777
821.447	26674
821.588	26556
821.728	26484
821.868	26271
822.008	26180
822.149	26206
822.289	26176
822.429	25864
822.569	25841
822.709	25852
822.849	25495
822.99	25662
823.13	25502
823.27	25491
823.41	25464
823.55	25430
823.69	25495
823.83	25396
823.97	25327
824.11	25206
824.25	25236
824.389	25259
824.529	25320
824.669	25148
824.809	25506
824.949	25301
825.089	25346
825.228	25339
825.368	25004
825.508	25023
825.648	25084
825.787	25160
825.927	25088
826.067	25008
826.206	24916
826.346	25069
826.485	25129
826.625	24859
826.765	25137
826.904	25187
827.044	24821
827.183	24844
827.323	24791
827.462	24631
827.601	24654
827.741	24589
827.88	24582
828.02	24513
828.159	24715
828.298	24719
828.437	24635
828.577	24517
828.716	24669
828.855	24593
828.994	24388
829.134	24460
829.273	24342
829.412	24410
829.551	24372
829.69	24357
829.829	24327
829.968	24426
830.107	24429
830.246	24376
830.385	24216
830.524	24251
830.663	24140
830.802	24167
830.941	24087
831.08	23821
831.219	23946
831.357	23992
831.496	23999
831.635	23866
831.774	23726
831.913	23748
832.051	23794
832.19	23767
832.329	23790
832.467	23672
832.606	23539
832.744	23611
832.883	23585
833.022	23410
833.16	23528
833.299	23615
833.437	23551
833.576	23649
833.714	23501
833.852	23642
833.991	23676
834.129	23703
834.267	23608
834.406	23608
834.544	23600
834.682	23493
834.821	23543
834.959	23592
835.097	23539
835.235	23623
835.373	23543
835.511	23547
835.65	23318
835.788	23398
835.926	23311
836.064	23250
836.202	23185
836.34	23383
836.478	23414
836.615	23231
836.753	23360
836.891	23482
837.029	23330
837.167	23273
837.305	23220
837.443	23174
837.58	23216
837.718	23246
837.856	23303
837.993	23227
838.131	23250
838.269	23060
838.406	23128
838.544	23086
838.681	22869
838.819	22786
838.956	22664
839.094	22645
839.231	22782
839.369	22786
839.506	22927
839.643	22908
839.781	22637
839.918	22618
840.055	22554
840.193	22470
840.33	22508
840.467	22504
840.604	22584
840.742	22786
840.879	22386
841.016	22424
841.153	22455
841.29	22489
841.427	22599
841.564	22474
841.701	22527
841.838	22550
841.975	22478
842.112	22360
842.249	22352
842.385	22215
842.522	22500
842.659	22169
842.796	22276
842.933	22268
843.069	22204
843.206	22238
843.343	22276
843.479	22272
843.616	22291
843.752	22029
843.889	21994
844.025	22166
844.162	22082
844.298	22105
844.435	22013
844.571	21983
844.708	21968
844.844	22090
844.98	21991
845.117	22074
845.253	21926
845.389	21846
845.525	21846
845.661	21865
845.798	21690
845.934	21835
846.07	21690
846.206	21675
846.342	21876
846.478	21739
846.614	21485
846.75	21439
846.886	21530
847.022	21511
847.158	21428
847.294	21447
847.429	21511
847.565	21310
847.701	21698
847.837	21180
847.972	21074
848.108	21264
848.244	21256
848.379	21074
848.515	20906
848.65	21001
848.786	20956
848.921	20956
849.057	21039
849.192	21142
849.328	21039
849.463	21020
849.598	20876
849.734	20819
849.869	20895
850.004	20788
850.14	20750
850.275	20724
850.41	20682
850.545	20667
850.68	20739
850.815	20724
850.95	20727
851.085	20849
851.22	20758
851.355	20712
851.49	20651
851.625	20655
851.76	20670
851.895	20640
852.03	20598
852.165	20727
852.299	20682
852.434	20743
852.569	20682
852.703	20750
852.838	20769
852.973	20857
853.107	20773
853.242	20651
853.376	20560
853.511	20408
853.645	20606
853.78	20670
853.914	20473
854.048	20469
854.183	20419
854.317	20480
854.451	20606
854.585	20427
854.72	20518
854.854	20499
854.988	20362
855.122	20518
855.256	20450
855.39	20461
855.524	20644
855.658	20606
855.792	20549
855.926	20571
856.06	20552
856.194	20724
856.327	20579
856.461	20469
856.595	20465
856.729	20476
856.862	20602
856.996	20473
857.13	20495
857.263	20594
857.397	20541
857.53	20461
857.664	20564
857.797	20613
857.931	20629
858.064	20492
858.197	20533
858.331	20549
858.464	20408
858.597	20381
858.731	20370
858.864	20415
858.997	20473
859.13	20499
859.263	20400
859.396	20457
859.529	20275
859.662	20343
859.795	20389
859.928	20511
860.061	20609
860.194	20583
860.327	20442
860.46	20431
860.592	20473
860.725	20629
860.858	20514
860.99	20431
861.123	20347
861.256	20446
861.388	20313
861.521	21112
861.653	20332
861.786	20400
861.918	20240
862.05	20324
862.183	20503
862.315	20484
862.447	20583
862.58	20518
862.712	20275
862.844	20214
862.976	20282
863.108	20172
863.24	20670
863.372	20027
863.504	20149
863.636	20172
863.768	20157
863.9	20142
864.032	19989
864.164	19947
864.296	20088
864.428	20202
864.559	20313
864.691	20202
864.823	20100
864.954	20130
865.086	20119
865.217	20069
865.349	19967
865.48	20058
865.612	20126
865.743	20202
865.875	20176
866.006	20005
866.137	19974
866.269	20020
866.4	20050
866.531	20054
866.662	19909
866.793	19890
866.924	19951
867.055	19955
867.186	20027
867.317	19921
867.448	19932
867.579	19860
867.71	19864
867.841	19856
867.972	19921
868.103	19928
868.233	20016
868.364	19932
868.495	20046
868.625	20202
868.756	20336
868.886	20210
869.017	20221
869.147	20263
869.278	20278
869.408	20206
869.539	20256
869.669	20336
869.799	20183
869.929	20248
870.06	20218
870.19	20579
870.32	20412
870.45	20606
870.58	20617
870.71	20746
870.84	20636
870.97	20488
871.1	20541
871.23	20708
871.36	20819
871.489	20575
871.619	20815
871.749	20739
871.879	20804
872.008	20845
872.138	20902
872.267	20826
872.397	20731
872.526	20533
872.656	20686
872.785	20613
872.915	20845
873.044	20743
873.173	20743
873.303	20819
873.432	20800
873.561	20929
873.69	20864
873.819	20823
873.948	20804
874.077	20838
874.206	20686
874.335	20830
874.464	20918
874.593	20975
874.722	21104
874.851	21161
874.979	21176
875.108	21161
875.237	21032
875.365	20960
875.494	21066
875.623	21176
875.751	21009
875.88	21157
876.008	21150
876.136	21317
876.265	21420
876.393	21591
876.521	21591
876.65	21591
876.778	21477
876.906	21405
877.034	21466
877.162	21473
877.29	21443
877.418	21519
877.546	21367
877.674	21424
877.802	21473
877.93	21386
878.058	21428
878.185	21291
878.313	21302
878.441	21435
878.568	21275
878.696	21424
878.824	21416
878.951	21469
879.079	21622
879.206	21770
879.333	21667
879.461	21488
879.588	21660
879.715	21679
879.842	21739
879.97	21469
880.097	21313
880.224	21180
880.351	21135
880.478	21287
880.605	21165
880.732	21348
880.859	21408
880.986	21195
881.112	21268
881.239	21146
881.366	21058
881.493	20796
881.619	20963
881.746	20853
881.872	20933
881.999	20724
882.125	20689
882.252	20746
882.378	20754
882.505	20857
882.631	20788
882.757	20590
882.883	20579
883.01	20552
883.136	20556
883.262	20480
883.388	20377
883.514	20583
883.64	20617
883.766	20454
883.892	20427
884.018	20408
884.143	20533
884.269	20545
884.395	20355
884.52	20214
884.646	20172
884.772	20142
884.897	20168
885.023	20294
885.148	20389
885.274	20362
885.399	20305
885.524	20214
885.65	20278
885.775	20183
885.9	20237
886.025	20336
886.15	20343
886.275	20145
886.4	20008
886.525	20065
886.65	20073
886.775	20081
886.9	20221
887.025	20419
887.149	20084
887.274	19951
887.399	19833
887.523	19963
887.648	19921
887.773	19856
887.897	20119
888.021	20035
888.146	19955
888.27	20092
888.395	19967
888.519	20073
888.643	19951
888.767	19978
888.891	19906
889.015	19868
889.139	19811
889.263	19753
889.387	19761
889.511	19986
889.635	19917
889.759	19685
889.883	19791
890.006	19753
890.13	19875
890.254	19719
890.377	19742
890.501	19552
890.624	19354
890.748	19537
890.871	19346
890.995	19244
891.118	19285
891.241	19457
891.364	19434
891.488	19445
891.611	19301
891.734	19464
891.857	19388
891.98	19331
892.103	19384
892.226	19358
892.349	19179
892.471	19122
892.594	19285
892.717	19289
892.839	19274
892.962	19327
893.085	19308
893.207	19251
893.33	19194
893.452	19228
893.575	19346
893.697	19129
893.819	19392
893.941	19415
894.064	19350
894.186	19251
894.308	19175
894.43	19411
894.552	19327
894.674	19358
894.796	19183
894.918	19316
895.04	19327
895.161	19354
895.283	19282
895.405	19129
895.526	19187
895.648	19278
895.769	19304
895.891	19282
896.012	19312
896.134	19316
896.255	19343
896.376	19228
896.498	19164
896.619	19308
896.74	19373
896.861	19392
896.982	19620
897.103	19822
897.224	19719
897.345	19544
897.466	19438
897.587	19559
897.708	19772
897.828	19537
897.949	19495
898.07	19308
898.19	19441
898.311	19651
898.431	19480
898.552	19476
898.672	19601
898.792	19472
898.913	19495
899.033	19343
899.153	19209
899.273	19202
899.393	19198
899.513	19289
899.633	19175
899.753	19225
899.873	19137
899.993	19141
900.113	19160
900.232	19187
900.352	19080
900.472	19076
900.591	18996
900.711	18970
900.83	18951
900.95	19164
901.069	19114
901.189	19012
901.308	18753
901.427	18521
901.546	18745
901.665	18635
901.784	18597
901.904	18494
902.023	18483
902.141	18194
902.26	18076
902.379	18243
902.498	18098
902.617	18083
902.735	18228
902.854	18125
902.973	18049
903.091	17901
903.21	17764
903.328	17912
903.446	17733
903.565	17672
903.683	17668
903.801	17474
903.919	17509
904.038	17562
904.156	17505
904.274	17501
904.392	17379
904.51	17414
904.627	17349
904.745	17493
904.863	17376
904.981	17235
905.098	17075
905.216	16991
905.334	17109
905.451	17029
905.569	16984
905.686	17117
905.803	16972
905.921	16820
906.038	17048
906.155	16801
906.272	16687
906.389	16763
906.506	16592
906.623	16641
906.74	16542
906.857	16405
906.974	16523
907.091	16698
907.208	16759
907.324	16531
907.441	16485
907.557	16287
907.674	16310
907.79	16204
907.907	16242
908.023	16329
908.139	16253
908.256	16188
908.372	16135
908.488	16078
908.604	16040
908.72	16021
908.836	16002
908.952	15884
909.068	15983
909.184	16044
909.3	15979
909.415	15960
909.531	15934
909.647	15869
909.762	15625
909.878	15679
909.993	15781
910.108	15618
910.224	15671
910.339	15759
910.454	15515
910.57	15473
910.685	15477
910.8	15736
910.915	15656
911.03	15454
911.145	15249
911.259	15325
911.374	15291
911.489	15203
911.604	15188
911.718	15039
911.833	15062
911.947	14902
912.062	14872
912.176	14952
912.291	14952
912.405	14906
912.519	15165
912.633	15283
912.748	15070
912.862	14967
912.976	14765
913.09	14644
913.204	14750
913.318	14785
913.431	14906
913.545	14876
913.659	14952
913.772	14773
913.886	14610
914	14636
914.113	14693
914.226	14724
914.34	14724
914.453	14541
914.566	14743
914.68	14530
914.793	14545
914.906	14309
915.019	14275
915.132	14336
915.245	14244
915.358	14339
915.47	14377
915.583	14332
915.696	14355
915.809	14362
915.921	14454
916.034	14252
916.146	14202
916.259	14183
916.371	14240
916.483	14244
916.595	14111
916.708	14103
916.82	14199
916.932	14084
917.044	14115
917.156	14062
917.268	13993
917.38	14054
917.491	13986
917.603	13936
917.715	14142
917.826	14107
917.938	13970
918.049	13811
918.161	13936
918.272	14046
918.384	14043
918.495	13963
918.606	13837
918.717	13662
918.828	13772
918.939	13788
919.05	13784
919.161	13738
919.272	13419
919.383	13643
919.494	13750
919.604	13925
919.715	13670
919.826	13601
919.936	13616
920.047	13791
920.157	13731
920.267	13944
920.378	13704
920.488	13658
920.598	13845
920.708	13970
920.818	13871
920.928	13849
921.038	13967
921.148	13883
921.258	13636
921.368	13559
921.477	13377
921.587	13441
921.697	13354
921.806	13457
921.916	13308
922.025	13038
922.134	13053
922.244	12977
922.353	13149
922.462	13046
922.571	12993
922.68	12738
922.789	12719
922.898	12806
923.007	12783
923.116	12692
923.224	12593
923.333	12711
923.442	12589
923.55	12540
923.659	12513
923.767	12635
923.876	12570
923.984	12608
924.092	12498
924.201	12479
924.309	12426
924.417	12448
924.525	12452
924.633	12433
924.741	13297
924.849	12182
924.956	12426
925.064	12205
925.172	12102
925.279	12136
925.387	12232
925.494	12186
925.602	12323
925.709	12277
925.816	12064
925.924	12114
926.031	12334
926.138	12247
926.245	12216
926.352	12022
926.459	12190
926.566	12247
926.673	12091
926.779	12041
926.886	11851
926.993	11794
927.099	11767
927.206	11703
927.312	11722
927.419	11722
927.525	11779
927.631	11828
927.737	11722
927.843	11619
927.95	11505
928.056	11551
928.162	11566
928.267	11649
928.373	12133
928.479	11714
928.585	11509
928.69	11638
928.796	11562
928.901	11436
929.007	11311
929.112	11524
929.218	11471
929.323	11383
929.428	11311
929.533	11524
929.638	11261
929.743	11220
929.848	11337
929.953	11334
930.058	11162
930.163	10999
930.267	11075
930.372	11121
930.477	10949
930.581	11337
930.685	11064
930.79	10934
930.894	11018
930.998	10908
931.103	11117
931.207	10698
931.311	10683
931.415	10500
931.519	10352
931.623	10295
