Data from test_V78500241_3120.txt Node
Date: Fri Mar 25 15:31:35 CST 2022
User: usil
Spectrometer: V785-0024
Trigger mode: 0
Integration Time (sec): 4.000000E-1
Scans to average: 1
Nonlinearity correction enabled: false
Boxcar width: 0
Storing dark spectrum: false
XAxis mode: Wavelengths
Number of Pixels in Spectrum: 1024
>>>>>Begin Spectral Data<<<<<
801.071	27093
801.214	27062
801.356	26804
801.499	26773
801.641	26644
801.783	26674
801.926	26659
802.068	26507
802.211	26526
802.353	26404
802.496	26415
802.638	26244
802.78	26282
802.923	26218
803.065	26069
803.208	26214
803.35	26374
803.492	26237
803.635	26514
803.777	26332
803.919	26499
804.061	26617
804.204	26453
804.346	26374
804.488	26294
804.63	26351
804.773	26362
804.915	26374
805.057	26476
805.199	26351
805.341	26408
805.483	26648
805.626	26389
805.768	26385
805.91	26549
806.052	26484
806.194	26453
806.336	26735
806.478	26408
806.62	26457
806.762	26686
806.904	26785
807.046	27070
807.188	26842
807.33	26933
807.472	26925
807.614	26830
807.756	26804
807.898	26853
808.04	26625
808.182	26617
808.324	26731
808.465	26659
808.607	26986
808.749	26990
808.891	27146
809.033	27230
809.174	27096
809.316	27039
809.458	27176
809.6	26982
809.741	27150
809.883	27268
810.025	27325
810.166	27348
810.308	27450
810.45	27237
810.591	27252
810.733	27184
810.875	27085
811.016	26994
811.158	27036
811.299	27150
811.441	27226
811.582	27302
811.724	27024
811.865	27024
812.007	27150
812.148	26895
812.29	27043
812.431	27275
812.573	27287
812.714	27340
812.855	27595
812.997	27682
813.138	27793
813.279	27720
813.421	27576
813.562	27473
813.703	27344
813.845	27275
813.986	26963
814.127	26823
814.268	26701
814.41	26617
814.551	26746
814.692	26777
814.833	26621
814.974	26606
815.115	26701
815.256	26590
815.397	26594
815.539	26583
815.68	26499
815.821	26438
815.962	26400
816.103	26526
816.244	26313
816.385	26263
816.526	26259
816.666	26069
816.807	25997
816.948	26096
817.089	26119
817.23	26043
817.371	25925
817.512	25955
817.653	26039
817.793	25849
817.934	25928
818.075	26058
818.216	25966
818.356	26024
818.497	25944
818.638	25700
818.778	25750
818.919	25689
819.06	25738
819.2	25731
819.341	25982
819.481	25864
819.622	26187
819.762	26252
819.903	26149
820.043	26111
820.184	26103
820.324	26058
820.465	26244
820.605	26069
820.746	25955
820.886	25898
821.026	25955
821.167	25845
821.307	25944
821.447	25845
821.588	25719
821.728	25643
821.868	25502
822.008	25373
822.149	25415
822.289	25327
822.429	25183
822.569	25057
822.709	25114
822.849	24970
822.99	24932
823.13	25042
823.27	24779
823.41	24715
823.55	24585
823.69	24700
823.83	24913
823.97	24585
824.11	24536
824.25	24467
824.389	24490
824.529	24509
824.669	24528
824.809	24692
824.949	24673
825.089	24589
825.228	24597
825.368	24433
825.508	24407
825.648	24300
825.787	24323
825.927	24460
826.067	24296
826.206	24505
826.346	24384
826.485	24525
826.625	24422
826.765	24544
826.904	24403
827.044	24296
827.183	24182
827.323	24022
827.462	24076
827.601	24213
827.741	24102
827.88	24148
828.02	23973
828.159	23939
828.298	24148
828.437	24114
828.577	24076
828.716	24216
828.855	24045
828.994	23901
829.134	23809
829.273	23931
829.412	23767
829.551	23699
829.69	23847
829.829	23771
829.968	23904
830.107	23946
830.246	23882
830.385	23821
830.524	23798
830.663	23672
830.802	23516
830.941	23516
831.08	23360
831.219	23516
831.357	23490
831.496	23634
831.635	23490
831.774	23509
831.913	23448
832.051	23315
832.19	23136
832.329	23162
832.467	23147
832.606	23113
832.744	23094
832.883	22930
833.022	23189
833.16	23132
833.299	23242
833.437	23155
833.576	23273
833.714	23197
833.852	23261
833.991	23193
834.129	23216
834.267	23296
834.406	23155
834.544	23162
834.682	23356
834.821	23147
834.959	23372
835.097	23185
835.235	23212
835.373	23109
835.511	23128
835.65	23067
835.788	23067
835.926	22850
836.064	22934
836.202	22972
836.34	23037
836.478	23159
836.615	22972
836.753	23048
836.891	22980
837.029	23029
837.167	22923
837.305	22850
837.443	22892
837.58	22759
837.718	22968
837.856	22873
837.993	22930
838.131	22869
838.269	22759
838.406	22835
838.544	22656
838.681	22527
838.819	22599
838.956	22287
839.094	22379
839.231	22421
839.369	22580
839.506	22721
839.643	22550
839.781	22360
839.918	22360
840.055	22299
840.193	22246
840.33	22185
840.467	22303
840.604	22455
840.742	22599
840.879	22177
841.016	22139
841.153	22093
841.29	22455
841.427	22318
841.564	22436
841.701	22329
841.838	22200
841.975	22268
842.112	22200
842.249	22223
842.385	22105
842.522	22360
842.659	22242
842.796	22051
842.933	21998
843.069	22013
843.206	21953
843.343	22055
843.479	22036
843.616	22025
843.752	21770
843.889	21880
844.025	22036
844.162	21800
844.298	21899
844.435	21736
844.571	21865
844.708	21774
844.844	21869
844.98	21793
845.117	21861
845.253	21698
845.389	21690
845.525	21751
845.661	21705
845.798	21675
845.934	21583
846.07	21564
846.206	21667
846.342	21614
846.478	21557
846.614	21363
846.75	21195
846.886	21310
847.022	21237
847.158	21226
847.294	21272
847.429	21283
847.565	21329
847.701	21389
847.837	21036
847.972	20872
848.108	20990
848.244	21104
848.379	20891
848.515	20796
848.65	20773
848.786	20941
848.921	20804
849.057	20925
849.192	20979
849.328	20883
849.463	20960
849.598	20697
849.734	20777
849.869	20902
850.004	20769
850.14	20785
850.275	20765
850.41	20522
850.545	20560
850.68	20651
850.815	20739
850.95	20689
851.085	20902
851.22	20750
851.355	20583
851.49	20564
851.625	20651
851.76	20640
851.895	20606
852.03	20575
852.165	20697
852.299	20731
852.434	20697
852.569	20773
852.703	20674
852.838	20750
852.973	20636
853.107	20765
853.242	20697
853.376	20480
853.511	20423
853.645	20427
853.78	20613
853.914	20587
854.048	20404
854.183	20431
854.317	20568
854.451	20560
854.585	20427
854.72	20484
854.854	20495
854.988	20358
855.122	20366
855.256	20370
855.39	20522
855.524	20644
855.658	20423
855.792	20499
855.926	20530
856.06	20469
856.194	20526
856.327	20465
856.461	20457
856.595	20545
856.729	20476
856.862	20663
856.996	20499
857.13	20564
857.263	20594
857.397	20583
857.53	20526
857.664	20526
857.797	20594
857.931	20590
858.064	20400
858.197	20617
858.331	20404
858.464	20263
858.597	20252
858.731	20427
858.864	20518
858.997	20518
859.13	20480
859.263	20457
859.396	20625
859.529	20495
859.662	20389
859.795	20351
859.928	20499
860.061	20640
860.194	20785
860.327	20530
860.46	20518
860.592	20533
860.725	20644
860.858	20617
860.99	20568
861.123	20396
861.256	20301
861.388	20499
861.521	20960
861.653	20385
861.786	20142
861.918	20396
862.05	20473
862.183	20244
862.315	20385
862.447	20442
862.58	20412
862.712	20275
862.844	20187
862.976	20275
863.108	20377
863.24	20583
863.372	20138
863.504	20100
863.636	20168
863.768	20366
863.9	20256
864.032	20119
864.164	20263
864.296	20278
864.428	20263
864.559	20317
864.691	20358
864.823	20142
864.954	20145
865.086	20161
865.217	20084
865.349	19978
865.48	20058
865.612	20157
865.743	20305
865.875	20161
866.006	20084
866.137	20062
866.269	20005
866.4	20069
866.531	20058
866.662	19902
866.793	20130
866.924	20069
867.055	20050
867.186	20069
867.317	19978
867.448	19997
867.579	19944
867.71	19925
867.841	19970
867.972	20065
868.103	19989
868.233	20088
868.364	20043
868.495	20100
868.625	20396
868.756	20454
868.886	20111
869.017	20244
869.147	20396
869.278	20427
869.408	20393
869.539	20298
869.669	20336
869.799	20408
869.929	20450
870.06	20313
870.19	20488
870.32	20533
870.45	20644
870.58	20697
870.71	20708
870.84	20842
870.97	20708
871.1	20697
871.23	20746
871.36	20883
871.489	20804
871.619	20872
871.749	20876
871.879	20918
872.008	20960
872.138	20815
872.267	20895
872.397	20727
872.526	20750
872.656	20777
872.785	20716
872.915	20929
873.044	21032
873.173	20937
873.303	20906
873.432	20899
873.561	20971
873.69	20986
873.819	20864
873.948	21039
874.077	21013
874.206	20956
874.335	20933
874.464	20990
874.593	21169
874.722	21085
874.851	21252
874.979	21363
875.108	21169
875.237	21112
875.365	21001
875.494	21173
875.623	21203
875.751	21157
875.88	21119
876.008	21195
876.136	21272
876.265	21591
876.393	21679
876.521	21519
876.65	21637
876.778	21572
876.906	21519
877.034	21420
877.162	21557
877.29	21443
877.418	21443
877.546	21545
877.674	21477
877.802	21450
877.93	21443
878.058	21443
878.185	21405
878.313	21545
878.441	21542
878.568	21344
878.696	21473
878.824	21443
878.951	21458
879.079	21641
879.206	21751
879.333	21827
879.461	21424
879.588	21576
879.715	21568
879.842	21720
879.97	21534
880.097	21416
880.224	21264
880.351	21382
880.478	21386
880.605	21378
880.732	21340
880.859	21557
880.986	21443
881.112	21321
881.239	21100
881.366	21062
881.493	20937
881.619	20921
881.746	20914
881.872	20971
881.999	20967
882.125	20880
882.252	20925
882.378	20868
882.505	20952
882.631	20800
882.757	20552
882.883	20811
883.01	20701
883.136	20655
883.262	20514
883.388	20461
883.514	20606
883.64	20705
883.766	20549
883.892	20526
884.018	20503
884.143	20571
884.269	20632
884.395	20419
884.52	20244
884.646	20358
884.772	20210
884.897	20161
885.023	20343
885.148	20442
885.274	20381
885.399	20362
885.524	20301
885.65	20305
885.775	20286
885.9	20366
886.025	20389
886.15	20328
886.275	20305
886.4	20256
886.525	20244
886.65	20301
886.775	20168
886.9	20317
887.025	20400
887.149	20221
887.274	20084
887.399	20046
887.523	19970
887.648	19932
887.773	19997
887.897	20081
888.021	20084
888.146	19967
888.27	20130
888.395	20111
888.519	20008
888.643	20073
888.767	20134
888.891	19978
889.015	19902
889.139	19959
889.263	19799
889.387	19970
889.511	19989
889.635	19906
889.759	19833
889.883	19852
890.006	19811
890.13	20088
890.254	19909
890.377	19814
890.501	19571
890.624	19632
890.748	19696
890.871	19556
890.995	19430
891.118	19350
891.241	19491
891.364	19506
891.488	19514
891.611	19476
891.734	19472
891.857	19491
891.98	19396
892.103	19377
892.226	19419
892.349	19377
892.471	19202
892.594	19350
892.717	19369
892.839	19327
892.962	19388
893.085	19529
893.207	19407
893.33	19232
893.452	19293
893.575	19476
893.697	19346
893.819	19548
893.941	19483
894.064	19415
894.186	19358
894.308	19301
894.43	19460
894.552	19491
894.674	19476
894.796	19274
894.918	19206
895.04	19384
895.161	19533
895.283	19438
895.405	19373
895.526	19263
895.648	19362
895.769	19339
895.891	19419
896.012	19495
896.134	19381
896.255	19381
896.376	19422
896.498	19343
896.619	19483
896.74	19384
896.861	19510
896.982	19662
897.103	19852
897.224	19670
897.345	19590
897.466	19616
897.587	19620
897.708	19712
897.828	19586
897.949	19540
898.07	19460
898.19	19616
898.311	19693
898.431	19510
898.552	19552
898.672	19658
898.792	19639
898.913	19552
899.033	19483
899.153	19605
899.273	19350
899.393	19457
899.513	19327
899.633	19308
899.753	19464
899.873	19358
899.993	19487
900.113	19396
900.232	19327
900.352	19312
900.472	19251
900.591	19221
900.711	19012
900.83	19046
900.95	19225
901.069	19285
901.189	19008
901.308	18878
901.427	18837
901.546	18817
901.665	18810
901.784	18757
901.904	18635
902.023	18471
902.141	18479
902.26	18327
902.379	18292
902.498	18216
902.617	18167
902.735	18186
902.854	18251
902.973	18140
903.091	17969
903.21	17950
903.328	17893
903.446	17836
903.565	17805
903.683	17824
903.801	17665
903.919	17764
904.038	17726
904.156	17528
904.274	17600
904.392	17554
904.51	17562
904.627	17505
904.745	17471
904.863	17532
904.981	17318
905.098	17250
905.216	17299
905.334	17250
905.451	17162
905.569	17170
905.686	17166
905.803	17216
905.921	16968
906.038	17147
906.155	17124
906.272	16820
906.389	16831
906.506	16710
906.623	16801
906.74	16801
906.857	16546
906.974	16626
907.091	16885
907.208	16873
907.324	16717
907.441	16721
907.557	16565
907.674	16542
907.79	16417
907.907	16451
908.023	16478
908.139	16535
908.256	16352
908.372	16341
908.488	16436
908.604	16223
908.72	16116
908.836	16204
908.952	16181
909.068	16219
909.184	16234
909.3	16166
909.415	16200
909.531	16071
909.647	15994
909.762	15994
909.878	15899
909.993	16017
910.108	15823
910.224	15846
910.339	15930
910.454	15762
910.57	15762
910.685	15720
910.8	15934
910.915	15846
911.03	15675
911.145	15564
911.259	15587
911.374	15603
911.489	15424
911.604	15401
911.718	15306
911.833	15351
911.947	15173
912.062	15154
912.176	15237
912.291	15249
912.405	15325
912.519	15443
912.633	15439
912.748	15287
912.862	15211
912.976	15062
913.09	14982
913.204	15074
913.318	15165
913.431	15131
913.545	15214
913.659	15176
913.772	15108
913.886	15039
914	14864
914.113	14979
914.226	15070
914.34	14925
914.453	14815
914.566	14880
914.68	14857
914.793	14705
914.906	14522
915.019	14446
915.132	14389
915.245	14450
915.358	14545
915.47	14514
915.583	14526
915.696	14579
915.809	14701
915.921	14667
916.034	14530
916.146	14469
916.259	14537
916.371	14556
916.483	14412
916.595	14389
916.708	14404
916.82	14309
916.932	14339
917.044	14278
917.156	14214
917.268	14202
917.38	14157
917.491	14180
917.603	14153
917.715	14298
917.826	14317
917.938	14168
918.049	14062
918.161	14195
918.272	14389
918.384	14324
918.495	14073
918.606	14008
918.717	13909
918.828	13993
918.939	13955
919.05	13902
919.161	13906
919.272	13769
919.383	13811
919.494	14054
919.604	14183
919.715	13947
919.826	13928
919.936	13917
920.047	14016
920.157	13928
920.267	14130
920.378	13936
920.488	13898
920.598	14111
920.708	14252
920.818	14115
920.928	14058
921.038	14172
921.148	14214
921.258	13940
921.368	13776
921.477	13658
921.587	13719
921.697	13525
921.806	13734
921.916	13609
922.025	13400
922.134	13293
922.244	13392
922.353	13369
922.462	13156
922.571	13152
922.68	12943
922.789	12958
922.898	13031
923.007	12909
923.116	12996
923.224	12977
923.333	13023
923.442	12943
923.55	12764
923.659	12798
923.767	12897
923.876	12848
923.984	12821
924.092	12700
924.201	12688
924.309	12810
924.417	12719
924.525	12646
924.633	12703
924.741	13624
924.849	12506
924.956	12544
925.064	12429
925.172	12433
925.279	12376
925.387	12494
925.494	12452
925.602	12593
925.709	12498
925.816	12403
925.924	12300
926.031	12502
926.138	12365
926.245	12460
926.352	12285
926.459	12479
926.566	12479
926.673	12369
926.779	12209
926.886	12216
926.993	11969
927.099	12015
927.206	11958
927.312	11969
927.419	12053
927.525	12079
927.631	12053
927.737	11885
927.843	11863
927.95	11851
928.056	11794
928.162	11863
928.267	11942
928.373	12498
928.479	11946
928.585	11695
928.69	11764
928.796	11920
928.901	11752
929.007	11585
929.112	11722
929.218	11676
929.323	11608
929.428	11589
929.533	11638
929.638	11520
929.743	11558
929.848	11512
929.953	11505
930.058	11444
930.163	11246
930.267	11239
930.372	11326
930.477	11231
930.581	11417
930.685	11299
930.79	11216
930.894	11193
930.998	11178
931.103	11364
931.207	10942
931.311	10885
931.415	10748
931.519	10592
931.623	10538
