Data from test_V78500241_1998.txt Node
Date: Fri Mar 25 15:23:46 CST 2022
User: usil
Spectrometer: V785-0024
Trigger mode: 0
Integration Time (sec): 4.000000E-1
Scans to average: 1
Nonlinearity correction enabled: false
Boxcar width: 0
Storing dark spectrum: false
XAxis mode: Wavelengths
Number of Pixels in Spectrum: 1024
>>>>>Begin Spectral Data<<<<<
801.071	27819
801.214	27949
801.356	27709
801.499	27667
801.641	27310
801.783	27317
801.926	27439
802.068	27340
802.211	27355
802.353	27389
802.496	27313
802.638	27074
802.78	27074
802.923	27032
803.065	27173
803.208	26944
803.35	27058
803.492	27249
803.635	27310
803.777	27252
803.919	27408
804.061	27519
804.204	27367
804.346	27287
804.488	27058
804.63	27279
804.773	27173
804.915	27211
805.057	27424
805.199	27176
805.341	27241
805.483	27291
805.626	27367
805.768	27317
805.91	27393
806.052	27466
806.194	27427
806.336	27751
806.478	27523
806.62	27393
806.762	27534
806.904	27709
807.046	28105
807.188	27854
807.33	27892
807.472	28002
807.614	27911
807.756	27812
807.898	27701
808.04	27652
808.182	27675
808.324	27747
808.465	27774
808.607	27991
808.749	27968
808.891	28169
809.033	28215
809.174	28101
809.316	28086
809.458	28044
809.6	27960
809.741	28192
809.883	28173
810.025	28314
810.166	28375
810.308	28413
810.45	28185
810.591	28200
810.733	28082
810.875	27911
811.016	27964
811.158	27797
811.299	28238
811.441	28223
811.582	28128
811.724	27991
811.865	27983
812.007	27983
812.148	28070
812.29	27922
812.431	28310
812.573	28284
812.714	28401
812.855	28588
812.997	28577
813.138	28748
813.279	28679
813.421	28596
813.562	28432
813.703	28459
813.845	28276
813.986	28082
814.127	27914
814.268	27648
814.41	27846
814.551	27770
814.692	27838
814.833	27648
814.974	27797
815.115	27762
815.256	27576
815.397	27595
815.539	27564
815.68	27587
815.821	27583
815.962	27526
816.103	27587
816.244	27511
816.385	27245
816.526	27359
816.666	27131
816.807	26868
816.948	27188
817.089	27081
817.23	27039
817.371	27051
817.512	26971
817.653	26876
817.793	27009
817.934	26982
818.075	27085
818.216	27077
818.356	26925
818.497	26872
818.638	26796
818.778	26872
818.919	26826
819.06	26842
819.2	26963
819.341	27013
819.481	26940
819.622	27176
819.762	27408
819.903	27317
820.043	27348
820.184	27142
820.324	27142
820.465	27077
820.605	27241
820.746	27157
820.886	27062
821.026	27123
821.167	27093
821.307	27112
821.447	26887
821.588	26887
821.728	26686
821.868	26606
822.008	26522
822.149	26545
822.289	26415
822.429	26183
822.569	26180
822.709	26126
822.849	25894
822.99	26065
823.13	25982
823.27	25963
823.41	25841
823.55	25609
823.69	25894
823.83	25830
823.97	25761
824.11	25693
824.25	25708
824.389	25601
824.529	25635
824.669	25533
824.809	25635
824.949	25693
825.089	25772
825.228	25658
825.368	25514
825.508	25411
825.648	25556
825.787	25563
825.927	25655
826.067	25483
826.206	25499
826.346	25506
826.485	25441
826.625	25559
826.765	25559
826.904	25605
827.044	25411
827.183	25266
827.323	25251
827.462	25343
827.601	25343
827.741	25240
827.88	25251
828.02	25190
828.159	25206
828.298	25274
828.437	25244
828.577	25118
828.716	25327
828.855	25213
828.994	24909
829.134	24814
829.273	24951
829.412	24989
829.551	24985
829.69	24871
829.829	24913
829.968	25000
830.107	25015
830.246	25000
830.385	24943
830.524	24814
830.663	24825
830.802	24719
830.941	24536
831.08	24604
831.219	24555
831.357	24642
831.496	24684
831.635	24574
831.774	24380
831.913	24483
832.051	24369
832.19	24319
832.329	24475
832.467	24209
832.606	24201
832.744	24262
832.883	24232
833.022	24125
833.16	24281
833.299	24205
833.437	24334
833.576	24323
833.714	24201
833.852	24433
833.991	24315
834.129	24285
834.267	24296
834.406	24357
834.544	24232
834.682	24338
834.821	24330
834.959	24437
835.097	24079
835.235	24452
835.373	24277
835.511	24327
835.65	24330
835.788	23984
835.926	24045
836.064	23950
836.202	24034
836.34	24125
836.478	24110
836.615	24091
836.753	23977
836.891	24251
837.029	24155
837.167	23954
837.305	24015
837.443	23965
837.58	23973
837.718	24121
837.856	23931
837.993	23984
838.131	23961
838.269	23748
838.406	23939
838.544	23802
838.681	23611
838.819	23573
838.956	23440
839.094	23391
839.231	23543
839.369	23661
839.506	23878
839.643	23680
839.781	23448
839.918	23273
840.055	23452
840.193	23467
840.33	23345
840.467	23288
840.604	23406
840.742	23608
840.879	23273
841.016	23250
841.153	23227
841.29	23471
841.427	23337
841.564	23322
841.701	23330
841.838	23258
841.975	23341
842.112	23147
842.249	23090
842.385	23056
842.522	23284
842.659	23220
842.796	23014
842.933	23083
843.069	23105
843.206	23075
843.343	23136
843.479	23048
843.616	23102
843.752	22927
843.889	22885
844.025	23056
844.162	22744
844.298	23041
844.435	22820
844.571	22854
844.708	22873
844.844	22938
844.98	22949
845.117	22991
845.253	22740
845.389	22733
845.525	22771
845.661	22710
845.798	22512
845.934	22656
846.07	22493
846.206	22679
846.342	22736
846.478	22546
846.614	22527
846.75	22253
846.886	22246
847.022	22459
847.158	22306
847.294	22382
847.429	22390
847.565	22276
847.701	22615
847.837	22101
847.972	22032
848.108	22150
848.244	22139
848.379	21972
848.515	21926
848.65	21880
848.786	21937
848.921	21975
849.057	21987
849.192	22032
849.328	21918
849.463	22017
849.598	21770
849.734	21793
849.869	21793
850.004	21671
850.14	21732
850.275	21682
850.41	21660
850.545	21663
850.68	21686
850.815	21759
850.95	21557
851.085	21827
851.22	21804
851.355	21743
851.49	21709
851.625	21599
851.76	21739
851.895	21595
852.03	21705
852.165	21671
852.299	21724
852.434	21713
852.569	21679
852.703	21690
852.838	21739
852.973	21876
853.107	21884
853.242	21686
853.376	21545
853.511	21443
853.645	21401
853.78	21641
853.914	21614
854.048	21435
854.183	21401
854.317	21530
854.451	21576
854.585	21511
854.72	21603
854.854	21610
854.988	21523
855.122	21439
855.256	21458
855.39	21439
855.524	21564
855.658	21595
855.792	21526
855.926	21500
856.06	21523
856.194	21622
856.327	21595
856.461	21481
856.595	21374
856.729	21637
856.862	21660
856.996	21469
857.13	21625
857.263	21587
857.397	21587
857.53	21473
857.664	21603
857.797	21660
857.931	21675
858.064	21561
858.197	21557
858.331	21618
858.464	21382
858.597	21378
858.731	21428
858.864	21370
858.997	21428
859.13	21557
859.263	21507
859.396	21564
859.529	21393
859.662	21454
859.795	21424
859.928	21572
860.061	21587
860.194	21625
860.327	21557
860.46	21519
860.592	21580
860.725	21724
860.858	21686
860.99	21572
861.123	21393
861.256	21469
861.388	21542
861.521	22204
861.653	21412
861.786	21241
861.918	21306
862.05	21458
862.183	21485
862.315	21416
862.447	21420
862.58	21424
862.712	21165
862.844	21252
862.976	21199
863.108	21222
863.24	21599
863.372	21142
863.504	21203
863.636	21279
863.768	21146
863.9	21195
864.032	21104
864.164	21306
864.296	21291
864.428	21317
864.559	21260
864.691	21317
864.823	21207
864.954	21207
865.086	21192
865.217	21135
865.349	21066
865.48	21024
865.612	21176
865.743	21214
865.875	21127
866.006	21081
866.137	21135
866.269	21173
866.4	21066
866.531	21058
866.662	20929
866.793	21039
866.924	21043
867.055	20921
867.186	21184
867.317	20979
867.448	21013
867.579	20998
867.71	21043
867.841	20998
867.972	20986
868.103	21093
868.233	21032
868.364	21013
868.495	21199
868.625	21321
868.756	21310
868.886	21207
869.017	21268
869.147	21313
869.278	21466
869.408	21165
869.539	21268
869.669	21420
869.799	21321
869.929	21382
870.06	21313
870.19	21637
870.32	21542
870.45	21591
870.58	21743
870.71	21797
870.84	21739
870.97	21717
871.1	21671
871.23	21755
871.36	21903
871.489	21800
871.619	21827
871.749	21960
871.879	21949
872.008	21964
872.138	21831
872.267	21876
872.397	21709
872.526	21728
872.656	21713
872.785	21865
872.915	21869
873.044	22082
873.173	21926
873.303	21964
873.432	21987
873.561	21983
873.69	21949
873.819	21892
873.948	21888
874.077	21903
874.206	21899
874.335	21884
874.464	22006
874.593	22173
874.722	22112
874.851	22158
874.979	22185
875.108	22120
875.237	21994
875.365	22013
875.494	22162
875.623	22177
875.751	22162
875.88	22253
876.008	22284
876.136	22341
876.265	22546
876.393	22664
876.521	22573
876.65	22523
876.778	22557
876.906	22417
877.034	22470
877.162	22500
877.29	22512
877.418	22428
877.546	22512
877.674	22375
877.802	22318
877.93	22421
878.058	22451
878.185	22348
878.313	22440
878.441	22462
878.568	22306
878.696	22470
878.824	22500
878.951	22554
879.079	22607
879.206	22729
879.333	22649
879.461	22451
879.588	22580
879.715	22687
879.842	22694
879.97	22538
880.097	22424
880.224	22291
880.351	22352
880.478	22344
880.605	22200
880.732	22291
880.859	22565
880.986	22276
881.112	22314
881.239	22112
881.366	21998
881.493	21956
881.619	21698
881.746	21888
881.872	21979
881.999	21975
882.125	21797
882.252	21827
882.378	21850
882.505	22002
882.631	21800
882.757	21713
882.883	21671
883.01	21477
883.136	21599
883.262	21458
883.388	21321
883.514	21519
883.64	21549
883.766	21526
883.892	21336
884.018	21306
884.143	21572
884.269	21614
884.395	21275
884.52	21188
884.646	21268
884.772	21112
884.897	21157
885.023	21249
885.148	21264
885.274	21443
885.399	21336
885.524	21173
885.65	21207
885.775	21272
885.9	21104
886.025	21279
886.15	21302
886.275	21211
886.4	21150
886.525	21207
886.65	21291
886.775	21058
886.9	21108
887.025	21405
887.149	21138
887.274	21028
887.399	20925
887.523	20853
887.648	20861
887.773	20864
887.897	20975
888.021	21024
888.146	20876
888.27	21028
888.395	21062
888.519	21009
888.643	20937
888.767	20960
888.891	20891
889.015	20845
889.139	20811
889.263	20731
889.387	20887
889.511	20933
889.635	20868
889.759	20678
889.883	20792
890.006	20765
890.13	20925
890.254	20697
890.377	20765
890.501	20450
890.624	20556
890.748	20598
890.871	20431
890.995	20374
891.118	20206
891.241	20313
891.364	20377
891.488	20495
891.611	20328
891.734	20408
891.857	20370
891.98	20191
892.103	20488
892.226	20332
892.349	20278
892.471	20103
892.594	20221
892.717	20218
892.839	20202
892.962	20214
893.085	20290
893.207	20259
893.33	20252
893.452	20157
893.575	20320
893.697	20202
893.819	20343
893.941	20324
894.064	20370
894.186	20214
894.308	20199
894.43	20294
894.552	20347
894.674	20244
894.796	20084
894.918	20286
895.04	20176
895.161	20347
895.283	20271
895.405	20073
895.526	20214
895.648	20180
895.769	20233
895.891	20309
896.012	20320
896.134	20328
896.255	20199
896.376	20233
896.498	20161
896.619	20263
896.74	20275
896.861	20328
896.982	20659
897.103	20594
897.224	20488
897.345	20511
897.466	20457
897.587	20541
897.708	20560
897.828	20465
897.949	20408
898.07	20431
898.19	20442
898.311	20564
898.431	20393
898.552	20446
898.672	20564
898.792	20606
898.913	20404
899.033	20377
899.153	20214
899.273	20005
899.393	20256
899.513	20332
899.633	20142
899.753	20210
899.873	20199
899.993	20301
900.113	20142
900.232	20092
900.352	20081
900.472	20081
900.591	19913
900.711	19997
900.83	20016
900.95	20103
901.069	20111
901.189	19841
901.308	19643
901.427	19575
901.546	19544
901.665	19487
901.784	19597
901.904	19499
902.023	19346
902.141	19335
902.26	19110
902.379	19164
902.498	19114
902.617	19019
902.735	19038
902.854	19042
902.973	18973
903.091	18760
903.21	18741
903.328	18779
903.446	18650
903.565	18589
903.683	18528
903.801	18479
903.919	18471
904.038	18490
904.156	18399
904.274	18311
904.392	18285
904.51	18209
904.627	18330
904.745	18334
904.863	18460
904.981	18076
905.098	17996
905.216	17946
905.334	18083
905.451	17923
905.569	17958
905.686	17969
905.803	17783
905.921	17840
906.038	17950
906.155	17676
906.272	17691
906.389	17653
906.506	17532
906.623	17364
906.74	17471
906.857	17303
906.974	17436
907.091	17551
907.208	17642
907.324	17611
907.441	17410
907.557	17292
907.674	17185
907.79	17159
907.907	17159
908.023	17391
908.139	17189
908.256	17124
908.372	16961
908.488	17140
908.604	17022
908.72	16927
908.836	17006
908.952	16908
909.068	16984
909.184	16984
909.3	16915
909.415	16965
909.531	16938
909.647	16710
909.762	16649
909.878	16668
909.993	16664
910.108	16729
910.224	16599
910.339	16584
910.454	16485
910.57	16478
910.685	16413
910.8	16710
910.915	16668
911.03	16519
911.145	16402
911.259	16234
911.374	16268
911.489	16158
911.604	16139
911.718	15945
911.833	15975
911.947	15915
912.062	15888
912.176	15895
912.291	15975
912.405	15869
912.519	16128
912.633	16048
912.748	15972
912.862	15934
912.976	15648
913.09	15736
913.204	15641
913.318	15732
913.431	15899
913.545	15937
913.659	15854
913.772	15770
913.886	15523
914	15572
914.113	15648
914.226	15671
914.34	15717
914.453	15447
914.566	15610
914.68	15492
914.793	15496
914.906	15294
915.019	15123
915.132	15161
915.245	15146
915.358	15256
915.47	15195
915.583	15150
915.696	15214
915.809	15317
915.921	15348
916.034	15195
916.146	15097
916.259	15055
916.371	15241
916.483	15218
916.595	15055
916.708	14982
916.82	14982
916.932	15070
917.044	14937
917.156	14960
917.268	14800
917.38	14880
917.491	14819
917.603	14815
917.715	14895
917.826	14933
917.938	14777
918.049	14670
918.161	14807
918.272	14990
918.384	14864
918.495	14811
918.606	14590
918.717	14507
918.828	14625
918.939	14610
919.05	14507
919.161	14575
919.272	14351
919.383	14473
919.494	14560
919.604	14811
919.715	14560
919.826	14514
919.936	14613
920.047	14606
920.157	14579
920.267	14762
920.378	14636
920.488	14549
920.598	14682
920.708	14853
920.818	14663
920.928	14727
921.038	14849
921.148	14769
921.258	14598
921.368	14454
921.477	14263
921.587	14282
921.697	14206
921.806	14240
921.916	14157
922.025	13978
922.134	13913
922.244	13849
922.353	13913
922.462	13791
922.571	13784
922.68	13552
922.789	13597
922.898	13647
923.007	13529
923.116	13483
923.224	13518
923.333	13514
923.442	13472
923.55	13373
923.659	13411
923.767	13445
923.876	13373
923.984	13506
924.092	13316
924.201	13312
924.309	13343
924.417	13285
924.525	13270
924.633	13293
924.741	13970
924.849	13080
924.956	13114
925.064	13034
925.172	13034
925.279	12951
925.387	13034
925.494	12989
925.602	13023
925.709	13099
925.816	12901
925.924	12840
926.031	12989
926.138	12962
926.245	12947
926.352	12814
926.459	13057
926.566	12958
926.673	12825
926.779	12753
926.886	12707
926.993	12662
927.099	12528
927.206	12521
927.312	12536
927.419	12658
927.525	12578
927.631	12574
927.737	12521
927.843	12380
927.95	12304
928.056	12441
928.162	12380
928.267	12475
928.373	13012
928.479	12490
928.585	12201
928.69	12308
928.796	12452
928.901	12258
929.007	12091
929.112	12270
929.218	12285
929.323	12133
929.428	12182
929.533	12186
929.638	11977
929.743	11965
929.848	12095
929.953	11999
930.058	11996
930.163	11832
930.267	11836
930.372	11931
930.477	11695
930.581	11958
930.685	11790
930.79	11722
930.894	11695
930.998	11668
931.103	11889
931.207	11436
931.311	11326
931.415	11296
931.519	11117
931.623	11052
