Data from test_V78500241_1140.txt Node
Date: Fri Mar 25 15:17:47 CST 2022
User: usil
Spectrometer: V785-0024
Trigger mode: 0
Integration Time (sec): 4.000000E-1
Scans to average: 1
Nonlinearity correction enabled: false
Boxcar width: 0
Storing dark spectrum: false
XAxis mode: Wavelengths
Number of Pixels in Spectrum: 1024
>>>>>Begin Spectral Data<<<<<
801.071	28150
801.214	28219
801.356	27876
801.499	27759
801.641	27717
801.783	27720
801.926	27755
802.068	27747
802.211	27644
802.353	27545
802.496	27511
802.638	27424
802.78	27389
802.923	27214
803.065	27424
803.208	27450
803.35	27336
803.492	27557
803.635	27599
803.777	27310
803.919	27557
804.061	27972
804.204	27523
804.346	27500
804.488	27523
804.63	27496
804.773	27553
804.915	27637
805.057	27720
805.199	27625
805.341	27762
805.483	27728
805.626	27778
805.768	27572
805.91	27519
806.052	27808
806.194	27500
806.336	27850
806.478	27698
806.62	27709
806.762	27812
806.904	27914
807.046	28211
807.188	28120
807.33	28109
807.472	28242
807.614	28086
807.756	28044
807.898	27945
808.04	28059
808.182	28070
808.324	27983
808.465	28101
808.607	28128
808.749	28459
808.891	28523
809.033	28577
809.174	28421
809.316	28478
809.458	28348
809.6	28291
809.741	28474
809.883	28607
810.025	28664
810.166	28683
810.308	28649
810.45	28500
810.591	28649
810.733	28462
810.875	28291
811.016	28348
811.158	28303
811.299	28584
811.441	28596
811.582	28436
811.724	28375
811.865	28344
812.007	28295
812.148	28295
812.29	28394
812.431	28573
812.573	28622
812.714	28843
812.855	28953
812.997	28965
813.138	28999
813.279	29010
813.421	28911
813.562	28843
813.703	28755
813.845	28615
813.986	28341
814.127	28207
814.268	28044
814.41	28105
814.551	28109
814.692	28131
814.833	27922
814.974	28017
815.115	28158
815.256	27937
815.397	27972
815.539	28097
815.68	27968
815.821	27903
815.962	27926
816.103	27873
816.244	27854
816.385	27709
816.526	27580
816.666	27530
816.807	27408
816.948	27496
817.089	27526
817.23	27348
817.371	27348
817.512	27492
817.653	27420
817.793	27306
817.934	27340
818.075	27458
818.216	27572
818.356	27344
818.497	27363
818.638	26998
818.778	27127
818.919	27074
819.06	27233
819.2	27161
819.341	27378
819.481	27507
819.622	27496
819.762	27797
819.903	27781
820.043	27625
820.184	27580
820.324	27526
820.465	27762
820.605	27690
820.746	27511
820.886	27336
821.026	27424
821.167	27515
821.307	27618
821.447	27443
821.588	27283
821.728	27180
821.868	26963
822.008	26792
822.149	26956
822.289	26880
822.429	26796
822.569	26461
822.709	26613
822.849	26271
822.99	26385
823.13	26442
823.27	26389
823.41	26088
823.55	26054
823.69	26183
823.83	26248
823.97	26168
824.11	26001
824.25	25989
824.389	26005
824.529	26031
824.669	26043
824.809	26180
824.949	26187
825.089	26145
825.228	26221
825.368	25841
825.508	25898
825.648	25944
825.787	25871
825.927	26031
826.067	25849
826.206	25693
826.346	25940
826.485	25951
826.625	25845
826.765	25963
826.904	25966
827.044	25731
827.183	25727
827.323	25738
827.462	25658
827.601	25689
827.741	25658
827.88	25693
828.02	25445
828.159	25719
828.298	25605
828.437	25567
828.577	25616
828.716	25765
828.855	25586
828.994	25392
829.134	25350
829.273	25449
829.412	25346
829.551	25350
829.69	25255
829.829	25343
829.968	25468
830.107	25434
830.246	25388
830.385	25263
830.524	25194
830.663	25198
830.802	25141
830.941	25057
831.08	24875
831.219	25164
831.357	25080
831.496	25110
831.635	24939
831.774	24973
831.913	24859
832.051	24760
832.19	24692
832.329	24837
832.467	24631
832.606	24665
832.744	24604
832.883	24673
833.022	24604
833.16	24608
833.299	24798
833.437	24787
833.576	24654
833.714	24734
833.852	24707
833.991	24753
834.129	24791
834.267	24890
834.406	24779
834.544	24871
834.682	24684
834.821	24692
834.959	24848
835.097	24627
835.235	24707
835.373	24677
835.511	24745
835.65	24623
835.788	24658
835.926	24483
836.064	24403
836.202	24407
836.34	24528
836.478	24532
836.615	24505
836.753	24616
836.891	24665
837.029	24540
837.167	24407
837.305	24437
837.443	24445
837.58	24441
837.718	24460
837.856	24441
837.993	24372
838.131	24315
838.269	24167
838.406	24330
838.544	24327
838.681	24095
838.819	24110
838.956	23771
839.094	23942
839.231	23870
839.369	23996
839.506	24190
839.643	24186
839.781	23889
839.918	23874
840.055	23920
840.193	23790
840.33	23737
840.467	23809
840.604	23805
840.742	24110
840.879	23619
841.016	23718
841.153	23638
841.29	23923
841.427	23760
841.564	23843
841.701	23840
841.838	23741
841.975	23676
842.112	23695
842.249	23566
842.385	23570
842.522	23843
842.659	23558
842.796	23398
842.933	23547
843.069	23509
843.206	23585
843.343	23646
843.479	23486
843.616	23482
843.752	23318
843.889	23398
844.025	23406
844.162	23242
844.298	23307
844.435	23334
844.571	23261
844.708	23376
844.844	23516
844.98	23398
845.117	23303
845.253	23280
845.389	23254
845.525	23178
845.661	23235
845.798	22976
845.934	23143
846.07	23033
846.206	23124
846.342	23200
846.478	23052
846.614	22957
846.75	22683
846.886	22702
847.022	22854
847.158	22862
847.294	22824
847.429	22858
847.565	22683
847.701	22961
847.837	22557
847.972	22561
848.108	22618
848.244	22519
848.379	22405
848.515	22318
848.65	22356
848.786	22363
848.921	22470
849.057	22390
849.192	22405
849.328	22436
849.463	22394
849.598	22329
849.734	22234
849.869	22257
850.004	22242
850.14	22158
850.275	22124
850.41	22040
850.545	22139
850.68	21991
850.815	22150
850.95	22318
851.085	22238
851.22	22120
851.355	22177
851.49	22112
851.625	22063
851.76	22162
851.895	22120
852.03	22010
852.165	22200
852.299	22280
852.434	22455
852.569	22200
852.703	22166
852.838	22162
852.973	22204
853.107	22181
853.242	22162
853.376	22002
853.511	21857
853.645	21823
853.78	22093
853.914	22006
854.048	21964
854.183	21861
854.317	21846
854.451	22128
854.585	21899
854.72	21994
854.854	22032
854.988	21949
855.122	22078
855.256	21770
855.39	21903
855.524	21975
855.658	21937
855.792	22002
855.926	21892
856.06	21987
856.194	21956
856.327	21926
856.461	21937
856.595	21903
856.729	21918
856.862	22040
856.996	22013
857.13	22055
857.263	22112
857.397	21975
857.53	21869
857.664	21964
857.797	21911
857.931	21934
858.064	22059
858.197	21987
858.331	21903
858.464	21892
858.597	21869
858.731	21880
858.864	21816
858.997	21804
859.13	21857
859.263	21842
859.396	22090
859.529	21949
859.662	21991
859.795	21892
859.928	21819
860.061	22097
860.194	22051
860.327	21930
860.46	21975
860.592	21979
860.725	22120
860.858	22032
860.99	21960
861.123	21884
861.256	21812
861.388	21991
861.521	22733
861.653	21842
861.786	21728
861.918	21686
862.05	21838
862.183	22025
862.315	21857
862.447	21991
862.58	21816
862.712	21656
862.844	21812
862.976	21667
863.108	21698
863.24	22086
863.372	21614
863.504	21641
863.636	21595
863.768	21679
863.9	21591
864.032	21530
864.164	21675
864.296	21705
864.428	21724
864.559	21778
864.691	21675
864.823	21583
864.954	21743
865.086	21523
865.217	21526
865.349	21481
865.48	21644
865.612	21580
865.743	21717
865.875	21515
866.006	21504
866.137	21511
866.269	21618
866.4	21450
866.531	21443
866.662	21386
866.793	21405
866.924	21557
867.055	21488
867.186	21496
867.317	21393
867.448	21310
867.579	21443
867.71	21428
867.841	21393
867.972	21454
868.103	21397
868.233	21538
868.364	21538
868.495	21466
868.625	21705
868.756	21819
868.886	21686
869.017	21564
869.147	21747
869.278	21766
869.408	21717
869.539	21724
869.669	21724
869.799	21827
869.929	21892
870.06	21854
870.19	21983
870.32	21991
870.45	22124
870.58	22070
870.71	22188
870.84	22162
870.97	22086
871.1	22013
871.23	22261
871.36	22261
871.489	22112
871.619	22409
871.749	22253
871.879	22318
872.008	22382
872.138	22367
872.267	22272
872.397	22234
872.526	22139
872.656	22181
872.785	22070
872.915	22261
873.044	22402
873.173	22154
873.303	22417
873.432	22306
873.561	22512
873.69	22352
873.819	22318
873.948	22417
874.077	22402
874.206	22272
874.335	22265
874.464	22314
874.593	22618
874.722	22493
874.851	22561
874.979	22634
875.108	22637
875.237	22466
875.365	22409
875.494	22421
875.623	22615
875.751	22580
875.88	22508
876.008	22725
876.136	22782
876.265	22889
876.393	22911
876.521	22938
876.65	23090
876.778	23025
876.906	22942
877.034	22774
877.162	22809
877.29	22934
877.418	22729
877.546	23075
877.674	22896
877.802	22934
877.93	22877
878.058	22774
878.185	22869
878.313	22847
878.441	22904
878.568	22656
878.696	22771
878.824	22771
878.951	22987
879.079	22976
879.206	23178
879.333	22984
879.461	22828
879.588	22908
879.715	23193
879.842	23174
879.97	22873
880.097	22733
880.224	22603
880.351	22790
880.478	22702
880.605	22702
880.732	22626
880.859	22900
880.986	22691
881.112	22637
881.239	22489
881.366	22382
881.493	22356
881.619	22356
881.746	22261
881.872	22284
881.999	22265
882.125	22226
882.252	22272
882.378	22291
882.505	22344
882.631	22105
882.757	21854
882.883	22025
883.01	21960
883.136	21987
883.262	21827
883.388	21770
883.514	21895
883.64	21968
883.766	21835
883.892	21629
884.018	21789
884.143	21835
884.269	21956
884.395	21679
884.52	21618
884.646	21690
884.772	21583
884.897	21416
885.023	21530
885.148	21599
885.274	21679
885.399	21671
885.524	21496
885.65	21713
885.775	21477
885.9	21473
886.025	21633
886.15	21682
886.275	21591
886.4	21534
886.525	21561
886.65	21462
886.775	21439
886.9	21751
887.025	21762
887.149	21625
887.274	21298
887.399	21218
887.523	21256
887.648	21355
887.773	21264
887.897	21340
888.021	21412
888.146	21348
888.27	21348
888.395	21443
888.519	21344
888.643	21416
888.767	21359
888.891	21131
889.015	21184
889.139	21154
889.263	21165
889.387	21233
889.511	21420
889.635	21348
889.759	21028
889.883	21138
890.006	21051
890.13	21302
890.254	21051
890.377	20967
890.501	20910
890.624	20838
890.748	20849
890.871	20811
890.995	20701
891.118	20674
891.241	20750
891.364	20720
891.488	20693
891.611	20701
891.734	20663
891.857	20804
891.98	20785
892.103	20750
892.226	20655
892.349	20533
892.471	20450
892.594	20655
892.717	20636
892.839	20640
892.962	20533
893.085	20533
893.207	20636
893.33	20705
893.452	20518
893.575	20693
893.697	20564
893.819	20636
893.941	20686
894.064	20613
894.186	20564
894.308	20465
894.43	20564
894.552	20765
894.674	20644
894.796	20484
894.918	20537
895.04	20446
895.161	20613
895.283	20689
895.405	20530
895.526	20533
895.648	20518
895.769	20583
895.891	20659
896.012	20632
896.134	20651
896.255	20670
896.376	20473
896.498	20518
896.619	20518
896.74	20613
896.861	20804
896.982	20861
897.103	21005
897.224	20807
897.345	20804
897.466	20670
897.587	20655
897.708	20971
897.828	20785
897.949	20720
898.07	20648
898.19	20773
898.311	20769
898.431	20777
898.552	20838
898.672	20876
898.792	20826
898.913	20743
899.033	20708
899.153	20602
899.273	20568
899.393	20381
899.513	20587
899.633	20522
899.753	20495
899.873	20530
899.993	20632
900.113	20473
900.232	20507
900.352	20541
900.472	20282
900.591	20290
900.711	20355
900.83	20153
900.95	20362
901.069	20404
901.189	20119
901.308	19936
901.427	19864
901.546	19936
901.665	19913
901.784	19879
901.904	19670
902.023	19605
902.141	19514
902.26	19464
902.379	19537
902.498	19354
902.617	19308
902.735	19460
902.854	19324
902.973	19221
903.091	19099
903.21	19057
903.328	18973
903.446	19069
903.565	18825
903.683	18928
903.801	18734
903.919	18825
904.038	18810
904.156	18612
904.274	18631
904.392	18620
904.51	18532
904.627	18559
904.745	18612
904.863	18684
904.981	18464
905.098	18262
905.216	18304
905.334	18289
905.451	18372
905.569	18243
905.686	18247
905.803	18186
905.921	18098
906.038	18232
906.155	18155
906.272	18019
906.389	17977
906.506	17752
906.623	17840
906.74	17729
906.857	17687
906.974	17710
907.091	17874
907.208	17954
907.324	17764
907.441	17703
907.557	17543
907.674	17516
907.79	17512
907.907	17551
908.023	17448
908.139	17539
908.256	17490
908.372	17482
908.488	17406
908.604	17334
908.72	17265
908.836	17212
908.952	17181
909.068	17170
909.184	17311
909.3	17197
909.415	17315
909.531	17235
909.647	16889
909.762	16972
909.878	16919
909.993	16946
910.108	16831
910.224	16900
910.339	16923
910.454	16786
910.57	16668
910.685	16771
910.8	16938
910.915	16961
911.03	16736
911.145	16573
911.259	16550
911.374	16561
911.489	16436
911.604	16447
911.718	16192
911.833	16261
911.947	16150
912.062	16093
912.176	16230
912.291	16280
912.405	16268
912.519	16481
912.633	16382
912.748	16318
912.862	16204
912.976	16078
913.09	16029
913.204	16116
913.318	16204
913.431	16082
913.545	16162
913.659	16162
913.772	16029
913.886	15926
914	15941
914.113	15956
914.226	16051
914.34	15922
914.453	15781
914.566	15865
914.68	15812
914.793	15705
914.906	15431
915.019	15492
915.132	15458
915.245	15469
915.358	15492
915.47	15504
915.583	15447
915.696	15530
915.809	15580
915.921	15549
916.034	15439
916.146	15382
916.259	15325
916.371	15454
916.483	15332
916.595	15275
916.708	15184
916.82	15317
916.932	15275
917.044	15279
917.156	15245
917.268	15085
917.38	15146
917.491	15119
917.603	15116
917.715	15116
917.826	15211
917.938	15024
918.049	14933
918.161	15066
918.272	15157
918.384	15264
918.495	14952
918.606	14902
918.717	14785
918.828	14868
918.939	14830
919.05	14735
919.161	14902
919.272	14682
919.383	14746
919.494	14853
919.604	15055
919.715	14842
919.826	14826
919.936	14792
920.047	14925
920.157	14750
920.267	15024
920.378	14876
920.488	14804
920.598	14876
920.708	15150
920.818	14990
920.928	14979
921.038	15085
921.148	14899
921.258	14842
921.368	14663
921.477	14537
921.587	14598
921.697	14431
921.806	14473
921.916	14339
922.025	14240
922.134	14267
922.244	14119
922.353	14157
922.462	14065
922.571	13967
922.68	13856
922.789	13734
922.898	13845
923.007	13788
923.116	13807
923.224	13837
923.333	13788
923.442	13674
923.55	13685
923.659	13620
923.767	13738
923.876	13575
923.984	13620
924.092	13567
924.201	13613
924.309	13586
924.417	13662
924.525	13499
924.633	13460
924.741	14404
924.849	13278
924.956	13453
925.064	13312
925.172	13107
925.279	13236
925.387	13209
925.494	13263
925.602	13343
925.709	13206
925.816	13141
925.924	13175
926.031	13244
926.138	13152
926.245	13187
926.352	13118
926.459	13213
926.566	13244
926.673	13091
926.779	12928
926.886	13053
926.993	12863
927.099	12783
927.206	12719
927.312	12677
927.419	12787
927.525	12703
927.631	12844
927.737	12722
927.843	12536
927.95	12551
928.056	12566
928.162	12639
928.267	12593
928.373	13236
928.479	12711
928.585	12467
928.69	12570
928.796	12479
928.901	12460
929.007	12380
929.112	12452
929.218	12441
929.323	12285
929.428	12285
929.533	12361
929.638	12186
929.743	12319
929.848	12357
929.953	12270
930.058	12038
930.163	11996
930.267	12041
930.372	12178
930.477	11908
930.581	12186
930.685	12068
930.79	11821
930.894	11954
930.998	11786
931.103	11980
931.207	11600
931.311	11524
931.415	11444
931.519	11235
931.623	11273
