Data from test_V78500241_3361.txt Node
Date: Fri Mar 25 15:33:15 CST 2022
User: usil
Spectrometer: V785-0024
Trigger mode: 0
Integration Time (sec): 4.000000E-1
Scans to average: 1
Nonlinearity correction enabled: false
Boxcar width: 0
Storing dark spectrum: false
XAxis mode: Wavelengths
Number of Pixels in Spectrum: 1024
>>>>>Begin Spectral Data<<<<<
801.071	27165
801.214	27077
801.356	26975
801.499	26788
801.641	26746
801.783	26552
801.926	26629
802.068	26670
802.211	26655
802.353	26564
802.496	26210
802.638	26339
802.78	26290
802.923	26157
803.065	26134
803.208	26225
803.35	26218
803.492	26298
803.635	26594
803.777	26218
803.919	26438
804.061	26705
804.204	26552
804.346	26366
804.488	26336
804.63	26423
804.773	26305
804.915	26507
805.057	26419
805.199	26442
805.341	26530
805.483	26659
805.626	26507
805.768	26442
805.91	26518
806.052	26712
806.194	26606
806.336	26636
806.478	26396
806.62	26469
806.762	26655
806.904	26777
807.046	27043
807.188	27009
807.33	26891
807.472	27001
807.614	26914
807.756	26929
807.898	26804
808.04	26632
808.182	26777
808.324	26743
808.465	26769
808.607	27024
808.749	27104
808.891	27245
809.033	27321
809.174	27138
809.316	27070
809.458	27245
809.6	27192
809.741	27291
809.883	27245
810.025	27515
810.166	27462
810.308	27272
810.45	27287
810.591	27313
810.733	27074
810.875	27150
811.016	27146
811.158	26975
811.299	27104
811.441	27252
811.582	27207
811.724	27173
811.865	27066
812.007	27119
812.148	27024
812.29	27138
812.431	27306
812.573	27336
812.714	27496
812.855	27618
812.997	27641
813.138	27808
813.279	27652
813.421	27675
813.562	27504
813.703	27336
813.845	27317
813.986	26971
814.127	26990
814.268	26940
814.41	26849
814.551	26682
814.692	26834
814.833	26678
814.974	26727
815.115	26830
815.256	26648
815.397	26689
815.539	26583
815.68	26609
815.821	26328
815.962	26670
816.103	26514
816.244	26328
816.385	26404
816.526	26263
816.666	26084
816.807	25993
816.948	26096
817.089	26202
817.23	26043
817.371	26054
817.512	25986
817.653	26046
817.793	25970
817.934	26008
818.075	26149
818.216	26016
818.356	25959
818.497	25951
818.638	25727
818.778	25643
818.919	25875
819.06	25791
819.2	25947
819.341	26058
819.481	25970
819.622	26149
819.762	26438
819.903	26351
820.043	26180
820.184	26233
820.324	26119
820.465	26305
820.605	26027
820.746	26240
820.886	25936
821.026	26035
821.167	25944
821.307	26077
821.447	25875
821.588	25966
821.728	25769
821.868	25647
822.008	25601
822.149	25502
822.289	25464
822.429	25221
822.569	25179
822.709	25278
822.849	24924
822.99	25065
823.13	25065
823.27	24772
823.41	24840
823.55	24692
823.69	24787
823.83	24867
823.97	24844
824.11	24578
824.25	24544
824.389	24681
824.529	24612
824.669	24559
824.809	24741
824.949	24681
825.089	24715
825.228	24730
825.368	24433
825.508	24407
825.648	24570
825.787	24604
825.927	24566
826.067	24460
826.206	24483
826.346	24475
826.485	24486
826.625	24498
826.765	24513
826.904	24464
827.044	24388
827.183	24281
827.323	24270
827.462	24243
827.601	24205
827.741	24152
827.88	24262
828.02	24038
828.159	24247
828.298	24247
828.437	24235
828.577	24098
828.716	24403
828.855	24152
828.994	23885
829.134	23999
829.273	23992
829.412	23889
829.551	23786
829.69	24015
829.829	23977
829.968	24072
830.107	24083
830.246	24015
830.385	23992
830.524	23927
830.663	23851
830.802	23672
830.941	23562
831.08	23535
831.219	23585
831.357	23684
831.496	23733
831.635	23634
831.774	23509
831.913	23436
832.051	23440
832.19	23258
832.329	23334
832.467	23200
832.606	23185
832.744	23204
832.883	23178
833.022	23174
833.16	23193
833.299	23220
833.437	23315
833.576	23269
833.714	23364
833.852	23337
833.991	23406
834.129	23421
834.267	23356
834.406	23288
834.544	23246
834.682	23250
834.821	23277
834.959	23486
835.097	23242
835.235	23349
835.373	23341
835.511	23315
835.65	23246
835.788	23109
835.926	23086
836.064	23022
836.202	22927
836.34	23166
836.478	23128
836.615	23060
836.753	23098
836.891	23311
837.029	23178
837.167	23178
837.305	22995
837.443	23109
837.58	22976
837.718	23048
837.856	22995
837.993	22908
838.131	22976
838.269	22892
838.406	22824
838.544	22771
838.681	22675
838.819	22664
838.956	22451
839.094	22542
839.231	22542
839.369	22736
839.506	22961
839.643	22683
839.781	22417
839.918	22276
840.055	22413
840.193	22504
840.33	22337
840.467	22405
840.604	22447
840.742	22523
840.879	22386
841.016	22352
841.153	22348
841.29	22344
841.427	22497
841.564	22531
841.701	22405
841.838	22436
841.975	22379
842.112	22363
842.249	22257
842.385	22226
842.522	22367
842.659	22257
842.796	22196
842.933	22116
843.069	22067
843.206	22105
843.343	22375
843.479	22093
843.616	22154
843.752	21918
843.889	21972
844.025	22131
844.162	21956
844.298	22055
844.435	21998
844.571	21956
844.708	22040
844.844	22055
844.98	22135
845.117	22158
845.253	21873
845.389	21842
845.525	21823
845.661	21831
845.798	21557
845.934	21705
846.07	21739
846.206	21717
846.342	21861
846.478	21732
846.614	21549
846.75	21473
846.886	21359
847.022	21545
847.158	21515
847.294	21450
847.429	21443
847.565	21492
847.701	21641
847.837	21195
847.972	21165
848.108	21329
848.244	21275
848.379	21020
848.515	21055
848.65	21032
848.786	21058
848.921	21142
849.057	21165
849.192	21116
849.328	21070
849.463	21051
849.598	21055
849.734	20990
849.869	20807
850.004	20815
850.14	20788
850.275	20773
850.41	20754
850.545	20804
850.68	20640
850.815	20758
850.95	20705
851.085	21001
851.22	20925
851.355	20826
851.49	20743
851.625	20781
851.76	20845
851.895	20883
852.03	20743
852.165	20777
852.299	20792
852.434	20872
852.569	20693
852.703	20830
852.838	20887
852.973	20899
853.107	20929
853.242	20750
853.376	20602
853.511	20564
853.645	20598
853.78	20724
853.914	20636
854.048	20518
854.183	20651
854.317	20663
854.451	20788
854.585	20590
854.72	20507
854.854	20785
854.988	20514
855.122	20716
855.256	20541
855.39	20606
855.524	20648
855.658	20708
855.792	20617
855.926	20632
856.06	20689
856.194	20697
856.327	20533
856.461	20568
856.595	20533
856.729	20564
856.862	20792
856.996	20739
857.13	20853
857.263	20735
857.397	20800
857.53	20537
857.664	20720
857.797	20739
857.931	20636
858.064	20640
858.197	20743
858.331	20708
858.464	20575
858.597	20450
858.731	20670
858.864	20533
858.997	20545
859.13	20804
859.263	20552
859.396	20765
859.529	20545
859.662	20522
859.795	20571
859.928	20667
860.061	20765
860.194	20792
860.327	20640
860.46	20708
860.592	20708
860.725	20705
860.858	20830
860.99	20663
861.123	20674
861.256	20602
861.388	20499
861.521	21382
861.653	20507
861.786	20522
861.918	20415
862.05	20423
862.183	20499
862.315	20602
862.447	20579
862.58	20454
862.712	20374
862.844	20408
862.976	20549
863.108	20438
863.24	20632
863.372	20271
863.504	20343
863.636	20434
863.768	20438
863.9	20381
864.032	20267
864.164	20347
864.296	20442
864.428	20301
864.559	20396
864.691	20431
864.823	20389
864.954	20324
865.086	20301
865.217	20252
865.349	20149
865.48	20256
865.612	20259
865.743	20366
865.875	20240
866.006	20298
866.137	20305
866.269	20233
866.4	20332
866.531	20187
866.662	20168
866.793	20218
866.924	20256
867.055	20267
867.186	20103
867.317	20153
867.448	20081
867.579	20081
867.71	20119
867.841	20195
867.972	20180
868.103	20210
868.233	20176
868.364	20142
868.495	20351
868.625	20533
868.756	20476
868.886	20237
869.017	20408
869.147	20609
869.278	20457
869.408	20377
869.539	20385
869.669	20408
869.799	20480
869.929	20530
870.06	20667
870.19	20716
870.32	20686
870.45	20796
870.58	20758
870.71	20910
870.84	20960
870.97	20807
871.1	20902
871.23	21051
871.36	21081
871.489	20929
871.619	20929
871.749	20941
871.879	21039
872.008	21096
872.138	21051
872.267	21024
872.397	20937
872.526	20819
872.656	20815
872.785	20899
872.915	21043
873.044	21135
873.173	21017
873.303	21036
873.432	21123
873.561	21176
873.69	21058
873.819	21085
873.948	21165
874.077	21157
874.206	21032
874.335	21024
874.464	21100
874.593	21393
874.722	21294
874.851	21245
874.979	21321
875.108	21431
875.237	21302
875.365	21264
875.494	21306
875.623	21466
875.751	21252
875.88	21405
876.008	21435
876.136	21542
876.265	21743
876.393	21831
876.521	21808
876.65	21785
876.778	21823
876.906	21633
877.034	21656
877.162	21675
877.29	21679
877.418	21705
877.546	21599
877.674	21599
877.802	21652
877.93	21652
878.058	21660
878.185	21496
878.313	21610
878.441	21698
878.568	21428
878.696	21610
878.824	21530
878.951	21698
879.079	21690
879.206	21937
879.333	21698
879.461	21603
879.588	21774
879.715	21736
879.842	21915
879.97	21663
880.097	21530
880.224	21504
880.351	21466
880.478	21500
880.605	21443
880.732	21519
880.859	21717
880.986	21587
881.112	21420
881.239	21237
881.366	21184
881.493	21154
881.619	21195
881.746	21154
881.872	20998
881.999	21020
882.125	21020
882.252	21165
882.378	21051
882.505	21119
882.631	20956
882.757	20796
882.883	20899
883.01	20735
883.136	20720
883.262	20587
883.388	20655
883.514	20811
883.64	20811
883.766	20743
883.892	20507
884.018	20609
884.143	20689
884.269	20830
884.395	20396
884.52	20442
884.646	20473
884.772	20309
884.897	20339
885.023	20446
885.148	20419
885.274	20587
885.399	20408
885.524	20404
885.65	20522
885.775	20476
885.9	20374
886.025	20480
886.15	20537
886.275	20374
886.4	20377
886.525	20336
886.65	20332
886.775	20396
886.9	20511
887.025	20522
887.149	20370
887.274	20077
887.399	20122
887.523	20134
887.648	20176
887.773	20084
887.897	20282
888.021	20149
888.146	20020
888.27	20301
888.395	20343
888.519	20336
888.643	20278
888.767	20324
888.891	19955
889.015	20050
889.139	20081
889.263	20107
889.387	20225
889.511	20218
889.635	20122
889.759	19955
889.883	20039
890.006	20043
890.13	20183
890.254	19967
890.377	19974
890.501	19681
890.624	19715
890.748	19871
890.871	19712
890.995	19681
891.118	19567
891.241	19590
891.364	19628
891.488	19689
891.611	19666
891.734	19594
891.857	19814
891.98	19704
892.103	19632
892.226	19597
892.349	19483
892.471	19392
892.594	19590
892.717	19605
892.839	19449
892.962	19552
893.085	19613
893.207	19537
893.33	19480
893.452	19460
893.575	19586
893.697	19525
893.819	19704
893.941	19814
894.064	19670
894.186	19453
894.308	19464
894.43	19597
894.552	19712
894.674	19712
894.796	19518
894.918	19487
895.04	19575
895.161	19533
895.283	19597
895.405	19476
895.526	19571
895.648	19533
895.769	19502
895.891	19586
896.012	19772
896.134	19594
896.255	19681
896.376	19548
896.498	19616
896.619	19529
896.74	19464
896.861	19719
896.982	19750
897.103	20020
897.224	19704
897.345	19655
897.466	19620
897.587	19750
897.708	19833
897.828	19769
897.949	19746
898.07	19540
898.19	19757
898.311	19887
898.431	19639
898.552	19807
898.672	19791
898.792	19868
898.913	19799
899.033	19620
899.153	19464
899.273	19384
899.393	19632
899.513	19643
899.633	19620
899.753	19533
899.873	19480
899.993	19495
900.113	19381
900.232	19518
900.352	19449
900.472	19381
900.591	19255
900.711	19278
900.83	19228
900.95	19464
901.069	19285
901.189	19228
901.308	18924
901.427	18867
901.546	19076
901.665	18916
901.784	19023
901.904	18734
902.023	18673
902.141	18471
902.26	18323
902.379	18528
902.498	18273
902.617	18479
902.735	18395
902.854	18372
902.973	18330
903.091	18155
903.21	18091
903.328	18114
903.446	17996
903.565	17885
903.683	17920
903.801	17870
903.919	17847
904.038	17840
904.156	17699
904.274	17680
904.392	17733
904.51	17600
904.627	17573
904.745	17646
904.863	17790
904.981	17558
905.098	17440
905.216	17414
905.334	17341
905.451	17315
905.569	17269
905.686	17353
905.803	17417
905.921	17220
906.038	17254
906.155	17170
906.272	17094
906.389	17140
906.506	16896
906.623	16854
906.74	16778
906.857	16694
906.974	16953
907.091	16908
907.208	16961
907.324	16892
907.441	16824
907.557	16626
907.674	16580
907.79	16565
907.907	16573
908.023	16497
908.139	16653
908.256	16607
908.372	16558
908.488	16443
908.604	16352
908.72	16299
908.836	16303
908.952	16291
909.068	16405
909.184	16542
909.3	16333
909.415	16417
909.531	16291
909.647	16025
909.762	16044
909.878	16105
909.993	16013
910.108	15975
910.224	16097
910.339	16044
910.454	15816
910.57	15956
910.685	15797
910.8	16032
910.915	16036
911.03	15823
911.145	15743
911.259	15614
911.374	15728
911.489	15591
911.604	15469
911.718	15367
911.833	15424
911.947	15325
912.062	15306
912.176	15458
912.291	15424
912.405	15397
912.519	15568
912.633	15652
912.748	15454
912.862	15386
912.976	15272
913.09	15154
913.204	15195
913.318	15294
913.431	15481
913.545	15355
913.659	15294
913.772	15279
913.886	15127
914	15001
914.113	15203
914.226	15154
914.34	15165
914.453	14937
914.566	15055
914.68	14921
914.793	14861
914.906	14701
915.019	14667
915.132	14495
915.245	14651
915.358	14697
915.47	14712
915.583	14693
915.696	14705
915.809	14746
915.921	14796
916.034	14606
916.146	14514
916.259	14541
916.371	14686
916.483	14769
916.595	14530
916.708	14549
916.82	14499
916.932	14492
917.044	14507
917.156	14442
917.268	14339
917.38	14328
917.491	14347
917.603	14347
917.715	14434
917.826	14480
917.938	14298
918.049	14244
918.161	14282
918.272	14457
918.384	14438
918.495	14301
918.606	14088
918.717	14008
918.828	14149
918.939	14084
919.05	14016
919.161	14111
919.272	13860
919.383	13917
919.494	14050
919.604	14320
919.715	14187
919.826	14005
919.936	14096
920.047	14096
920.157	13993
920.267	14180
920.378	14096
920.488	13955
920.598	14126
920.708	14305
920.818	14210
920.928	14225
921.038	14400
921.148	14286
921.258	14077
921.368	13875
921.477	13795
921.587	13898
921.697	13704
921.806	13791
921.916	13590
922.025	13540
922.134	13464
922.244	13491
922.353	13575
922.462	13369
922.571	13244
922.68	13145
922.789	13099
922.898	13129
923.007	13080
923.116	13137
923.224	13065
923.333	13012
923.442	13023
923.55	12909
923.659	12970
923.767	13034
923.876	12954
923.984	12943
924.092	12916
924.201	12939
924.309	12825
924.417	12901
924.525	12810
924.633	12871
924.741	13666
924.849	12642
924.956	12859
925.064	12601
925.172	12566
925.279	12544
925.387	12601
925.494	12547
925.602	12711
925.709	12597
925.816	12525
925.924	12445
926.031	12555
926.138	12525
926.245	12544
926.352	12448
926.459	12536
926.566	12608
926.673	12490
926.779	12232
926.886	12308
926.993	12190
927.099	12175
927.206	12098
927.312	12011
927.419	12129
927.525	12133
927.631	12205
927.737	12057
927.843	12034
927.95	11828
928.056	11939
928.162	11973
928.267	12091
928.373	12464
928.479	12019
928.585	11802
928.69	11832
928.796	11977
928.901	11878
929.007	11668
929.112	11927
929.218	11767
929.323	11821
929.428	11737
929.533	11748
929.638	11600
929.743	11680
929.848	11741
929.953	11592
930.058	11516
930.163	11356
930.267	11440
930.372	11539
930.477	11379
930.581	11627
930.685	11398
930.79	11330
930.894	11433
930.998	11227
931.103	11360
931.207	11132
931.311	10972
931.415	10847
931.519	10668
931.623	10771
