Data from test_V78500241_1400.txt Node
Date: Fri Mar 25 15:19:36 CST 2022
User: usil
Spectrometer: V785-0024
Trigger mode: 0
Integration Time (sec): 4.000000E-1
Scans to average: 1
Nonlinearity correction enabled: false
Boxcar width: 0
Storing dark spectrum: false
XAxis mode: Wavelengths
Number of Pixels in Spectrum: 1024
>>>>>Begin Spectral Data<<<<<
801.071	28268
801.214	28147
801.356	27937
801.499	27842
801.641	27800
801.783	27732
801.926	27835
802.068	27705
802.211	27747
802.353	27648
802.496	27389
802.638	27454
802.78	27340
802.923	27329
803.065	27264
803.208	27416
803.35	27458
803.492	27595
803.635	27595
803.777	27587
803.919	27549
804.061	27774
804.204	27606
804.346	27644
804.488	27488
804.63	27561
804.773	27587
804.915	27606
805.057	27797
805.199	27553
805.341	27698
805.483	27949
805.626	27804
805.768	27652
805.91	27694
806.052	27656
806.194	27743
806.336	27968
806.478	27736
806.62	27728
806.762	27739
806.904	28067
807.046	28192
807.188	28029
807.33	28185
807.472	28158
807.614	28112
807.756	28097
807.898	28128
808.04	27968
808.182	27994
808.324	28036
808.465	28109
808.607	28207
808.749	28401
808.891	28424
809.033	28462
809.174	28394
809.316	28489
809.458	28485
809.6	28341
809.741	28527
809.883	28470
810.025	28710
810.166	28679
810.308	28672
810.45	28653
810.591	28592
810.733	28516
810.875	28481
811.016	28386
811.158	28226
811.299	28519
811.441	28519
811.582	28527
811.724	28398
811.865	28424
812.007	28516
812.148	28455
812.29	28474
812.431	28656
812.573	28691
812.714	28824
812.855	28930
812.997	28968
813.138	29151
813.279	28999
813.421	28877
813.562	28911
813.703	28835
813.845	28664
813.986	28512
814.127	28284
814.268	28192
814.41	28093
814.551	28078
814.692	28131
814.833	28093
814.974	28082
815.115	28284
815.256	28059
815.397	27949
815.539	28105
815.68	27671
815.821	27892
815.962	28010
816.103	27941
816.244	27880
816.385	27743
816.526	27618
816.666	27526
816.807	27408
816.948	27389
817.089	27538
817.23	27374
817.371	27393
817.512	27420
817.653	27530
817.793	27405
817.934	27359
818.075	27447
818.216	27469
818.356	27291
818.497	27370
818.638	27081
818.778	27256
818.919	27020
819.06	27119
819.2	27306
819.341	27458
819.481	27302
819.622	27591
819.762	27747
819.903	27705
820.043	27500
820.184	27507
820.324	27526
820.465	27614
820.605	27507
820.746	27397
820.886	27340
821.026	27549
821.167	27549
821.307	27633
821.447	27416
821.588	27298
821.728	27047
821.868	27009
822.008	26925
822.149	26849
822.289	26845
822.429	26667
822.569	26575
822.709	26537
822.849	26480
822.99	26313
823.13	26286
823.27	26377
823.41	26191
823.55	26107
823.69	26153
823.83	26122
823.97	26237
824.11	25978
824.25	25902
824.389	25936
824.529	26164
824.669	26157
824.809	26168
824.949	26054
825.089	26065
825.228	25993
825.368	25951
825.508	25890
825.648	25932
825.787	26008
825.927	25959
826.067	25849
826.206	25852
826.346	25898
826.485	25902
826.625	25883
826.765	26111
826.904	26035
827.044	25670
827.183	25597
827.323	25559
827.462	25719
827.601	25647
827.741	25590
827.88	25742
828.02	25460
828.159	25571
828.298	25578
828.437	25704
828.577	25476
828.716	25727
828.855	25537
828.994	25301
829.134	25339
829.273	25453
829.412	25168
829.551	25377
829.69	25335
829.829	25346
829.968	25346
830.107	25339
830.246	25285
830.385	25346
830.524	25263
830.663	25183
830.802	24973
830.941	24894
831.08	24859
831.219	25008
831.357	24996
831.496	25179
831.635	24916
831.774	24779
831.913	24707
832.051	24730
832.19	24635
832.329	24722
832.467	24616
832.606	24566
832.744	24608
832.883	24642
833.022	24563
833.16	24696
833.299	24749
833.437	24631
833.576	24753
833.714	24684
833.852	24677
833.991	24722
834.129	24722
834.267	24703
834.406	24608
834.544	24650
834.682	24601
834.821	24612
834.959	24856
835.097	24464
835.235	24536
835.373	24620
835.511	24585
835.65	24452
835.788	24471
835.926	24460
836.064	24323
836.202	24407
836.34	24551
836.478	24532
836.615	24376
836.753	24513
836.891	24521
837.029	24566
837.167	24445
837.305	24254
837.443	24330
837.58	24300
837.718	24365
837.856	24338
837.993	24361
838.131	24247
838.269	24125
838.406	24277
838.544	24030
838.681	23916
838.819	23992
838.956	23908
839.094	23726
839.231	23737
839.369	24064
839.506	24178
839.643	23961
839.781	23904
839.918	23775
840.055	23687
840.193	23821
840.33	23665
840.467	23703
840.604	23710
840.742	23912
840.879	23570
841.016	23646
841.153	23474
841.29	23718
841.427	23611
841.564	23714
841.701	23703
841.838	23661
841.975	23501
842.112	23604
842.249	23505
842.385	23341
842.522	23653
842.659	23551
842.796	23493
842.933	23482
843.069	23398
843.206	23421
843.343	23440
843.479	23471
843.616	23482
843.752	23170
843.889	23288
844.025	23448
844.162	23292
844.298	23307
844.435	23159
844.571	23140
844.708	23254
844.844	23353
844.98	23311
845.117	23326
845.253	23220
845.389	23079
845.525	23010
845.661	23060
845.798	22881
845.934	23098
846.07	22908
846.206	22843
846.342	23086
846.478	22869
846.614	22706
846.75	22618
846.886	22637
847.022	22713
847.158	22862
847.294	22698
847.429	22626
847.565	22656
847.701	22805
847.837	22318
847.972	22413
848.108	22542
848.244	22432
848.379	22219
848.515	22276
848.65	22169
848.786	22196
848.921	22314
849.057	22470
849.192	22356
849.328	22230
849.463	22234
849.598	22169
849.734	22166
849.869	22162
850.004	21949
850.14	22074
850.275	22101
850.41	21994
850.545	21991
850.68	21960
850.815	22112
850.95	21998
851.085	22204
851.22	22162
851.355	22059
851.49	21922
851.625	22010
851.76	22021
851.895	21865
852.03	21907
852.165	21915
852.299	21907
852.434	22120
852.569	22036
852.703	22139
852.838	22105
852.973	22101
853.107	22086
853.242	21998
853.376	21937
853.511	21705
853.645	21686
853.78	21991
853.914	21861
854.048	21812
854.183	21888
854.317	21876
854.451	21972
854.585	21838
854.72	21873
854.854	21816
854.988	21762
855.122	21888
855.256	21720
855.39	21907
855.524	21907
855.658	21838
855.792	21838
855.926	21895
856.06	21941
856.194	21930
856.327	21800
856.461	21819
856.595	21895
856.729	21812
856.862	22002
856.996	21907
857.13	21991
857.263	21941
857.397	21892
857.53	21907
857.664	21949
857.797	21899
857.931	21888
858.064	21827
858.197	21998
858.331	21823
858.464	21648
858.597	21739
858.731	21842
858.864	21587
858.997	21766
859.13	21846
859.263	21838
859.396	21934
859.529	21888
859.662	21812
859.795	21800
859.928	21793
860.061	21945
860.194	22074
860.327	21857
860.46	21895
860.592	21880
860.725	21987
860.858	21953
860.99	21823
861.123	21705
861.256	21701
861.388	21899
861.521	22436
861.653	21701
861.786	21709
861.918	21736
862.05	21694
862.183	21755
862.315	21797
862.447	21797
862.58	21778
862.712	21618
862.844	21363
862.976	21724
863.108	21679
863.24	21926
863.372	21466
863.504	21625
863.636	21424
863.768	21538
863.9	21542
864.032	21401
864.164	21603
864.296	21610
864.428	21534
864.559	21526
864.691	21724
864.823	21466
864.954	21511
865.086	21450
865.217	21477
865.349	21359
865.48	21511
865.612	21431
865.743	21591
865.875	21408
866.006	21344
866.137	21450
866.269	21477
866.4	21344
866.531	21424
866.662	21298
866.793	21378
866.924	21386
867.055	21367
867.186	21397
867.317	21260
867.448	21302
867.579	21389
867.71	21310
867.841	21226
867.972	21378
868.103	21378
868.233	21325
868.364	21367
868.495	21393
868.625	21698
868.756	21663
868.886	21454
869.017	21641
869.147	21629
869.278	21778
869.408	21679
869.539	21545
869.669	21675
869.799	21743
869.929	21698
870.06	21660
870.19	21854
870.32	21918
870.45	21816
870.58	22055
870.71	22143
870.84	21964
870.97	22090
871.1	21922
871.23	22147
871.36	22207
871.489	22036
871.619	22173
871.749	22234
871.879	22204
872.008	22204
872.138	22238
872.267	22181
872.397	22044
872.526	22017
872.656	21926
872.785	22048
872.915	22192
873.044	22310
873.173	22192
873.303	22158
873.432	22154
873.561	22360
873.69	22348
873.819	22158
873.948	22177
874.077	22185
874.206	22268
874.335	22116
874.464	22261
874.593	22523
874.722	22325
874.851	22466
874.979	22402
875.108	22443
875.237	22341
875.365	22276
875.494	22291
875.623	22379
875.751	22485
875.88	22447
876.008	22470
876.136	22485
876.265	22713
876.393	23010
876.521	22850
876.65	22873
876.778	22850
876.906	22664
877.034	22630
877.162	22862
877.29	22717
877.418	22717
877.546	22733
877.674	22615
877.802	22656
877.93	22721
878.058	22763
878.185	22542
878.313	22630
878.441	22713
878.568	22611
878.696	22615
878.824	22786
878.951	22778
879.079	22991
879.206	23079
879.333	22999
879.461	22790
879.588	22919
879.715	22968
879.842	22930
879.97	22843
880.097	22500
880.224	22550
880.351	22569
880.478	22649
880.605	22489
880.732	22687
880.859	22835
880.986	22599
881.112	22557
881.239	22386
881.366	22242
881.493	22310
881.619	22067
881.746	22200
881.872	22223
881.999	22006
882.125	22082
882.252	22105
882.378	22166
882.505	22234
882.631	21918
882.757	21880
882.883	21850
883.01	21983
883.136	21755
883.262	21762
883.388	21667
883.514	21880
883.64	21892
883.766	21736
883.892	21599
884.018	21576
884.143	21778
884.269	21922
884.395	21599
884.52	21492
884.646	21637
884.772	21416
884.897	21355
885.023	21488
885.148	21610
885.274	21610
885.399	21580
885.524	21496
885.65	21557
885.775	21477
885.9	21519
886.025	21549
886.15	21633
886.275	21405
886.4	21397
886.525	21435
886.65	21374
886.775	21401
886.9	21564
887.025	21732
887.149	21408
887.274	21264
887.399	21119
887.523	21252
887.648	21150
887.773	21028
887.897	21241
888.021	21363
888.146	21199
888.27	21245
888.395	21306
888.519	21260
888.643	21241
888.767	21298
888.891	21222
889.015	21020
889.139	21157
889.263	20994
889.387	21081
889.511	21211
889.635	21176
889.759	20982
889.883	20956
890.006	21062
890.13	21123
890.254	20986
890.377	21047
890.501	20800
890.624	20743
890.748	20800
890.871	20689
890.995	20533
891.118	20609
891.241	20575
891.364	20552
891.488	20693
891.611	20602
891.734	20609
891.857	20716
891.98	20651
892.103	20621
892.226	20632
892.349	20541
892.471	20454
892.594	20476
892.717	20571
892.839	20511
892.962	20590
893.085	20609
893.207	20503
893.33	20358
893.452	20457
893.575	20522
893.697	20393
893.819	20625
893.941	20667
894.064	20636
894.186	20419
894.308	20473
894.43	20594
894.552	20590
894.674	20609
894.796	20427
894.918	20434
895.04	20450
895.161	20613
895.283	20560
895.405	20434
895.526	20423
895.648	20507
895.769	20495
895.891	20480
896.012	20712
896.134	20511
896.255	20503
896.376	20545
896.498	20492
896.619	20488
896.74	20545
896.861	20590
896.982	20861
897.103	20941
897.224	20697
897.345	20720
897.466	20693
897.587	20720
897.708	20925
897.828	20785
897.949	20651
898.07	20492
898.19	20598
898.311	20708
898.431	20708
898.552	20667
898.672	20693
898.792	20678
898.913	20724
899.033	20549
899.153	20598
899.273	20465
899.393	20476
899.513	20476
899.633	20511
899.753	20613
899.873	20366
899.993	20446
900.113	20434
900.232	20415
900.352	20256
900.472	20332
900.591	20172
900.711	20210
900.83	20221
900.95	20294
901.069	20434
901.189	20138
901.308	19845
901.427	19712
901.546	19799
901.665	19784
901.784	19674
901.904	19696
902.023	19571
902.141	19422
902.26	19438
902.379	19422
902.498	19331
902.617	19278
902.735	19285
902.854	19335
902.973	19251
903.091	19034
903.21	18951
903.328	18985
903.446	18840
903.565	18772
903.683	18741
903.801	18601
903.919	18707
904.038	18574
904.156	18559
904.274	18631
904.392	18532
904.51	18574
904.627	18433
904.745	18585
904.863	18513
904.981	18323
905.098	18220
905.216	18209
905.334	18209
905.451	18114
905.569	18114
905.686	18232
905.803	18140
905.921	18015
906.038	18110
906.155	18026
906.272	17893
906.389	17935
906.506	17722
906.623	17695
906.74	17707
906.857	17718
906.974	17684
907.091	17771
907.208	17767
907.324	17805
907.441	17512
907.557	17444
907.674	17429
907.79	17349
907.907	17296
908.023	17474
908.139	17459
908.256	17459
908.372	17372
908.488	17318
908.604	17223
908.72	17162
908.836	17166
908.952	17090
909.068	17235
909.184	17261
909.3	17102
909.415	17307
909.531	17060
909.647	16877
909.762	16831
909.878	16896
909.993	16915
910.108	16850
910.224	16904
910.339	16828
910.454	16759
910.57	16615
910.685	16702
910.8	16896
910.915	16801
911.03	16615
911.145	16478
911.259	16466
911.374	16447
911.489	16360
911.604	16363
911.718	16234
911.833	16287
911.947	16109
912.062	15934
912.176	16185
912.291	16284
912.405	16116
912.519	16382
912.633	16215
912.748	16223
912.862	16074
912.976	16025
913.09	15922
913.204	15842
913.318	15972
913.431	16116
913.545	16109
913.659	16105
913.772	16017
913.886	15876
914	15663
914.113	15861
914.226	15918
914.34	15903
914.453	15679
914.566	15850
914.68	15675
914.793	15675
914.906	15530
915.019	15481
915.132	15348
915.245	15355
915.358	15466
915.47	15435
915.583	15382
915.696	15370
915.809	15447
915.921	15458
916.034	15321
916.146	15283
916.259	15424
916.371	15370
916.483	15203
916.595	15192
916.708	15283
916.82	15157
916.932	15176
917.044	15150
917.156	15112
917.268	15112
917.38	15028
917.491	15013
917.603	15047
917.715	15055
917.826	14979
917.938	14929
918.049	14765
918.161	15005
918.272	15070
918.384	15127
918.495	14861
918.606	14830
918.717	14807
918.828	14796
918.939	14838
919.05	14686
919.161	14773
919.272	14552
919.383	14648
919.494	14861
919.604	14967
919.715	14777
919.826	14667
919.936	14678
920.047	14792
920.157	14735
920.267	14899
920.378	14724
920.488	14754
920.598	14910
920.708	14986
920.818	14815
920.928	14876
921.038	15047
921.148	14944
921.258	14720
921.368	14552
921.477	14511
921.587	14473
921.697	14225
921.806	14393
921.916	14408
922.025	14248
922.134	14210
922.244	14050
922.353	14084
922.462	13959
922.571	13986
922.68	13814
922.789	13822
922.898	13761
923.007	13666
923.116	13753
923.224	13715
923.333	13708
923.442	13620
923.55	13586
923.659	13601
923.767	13647
923.876	13472
923.984	13616
924.092	13388
924.201	13578
924.309	13506
924.417	13472
924.525	13499
924.633	13396
924.741	14183
924.849	13240
924.956	13308
925.064	13263
925.172	13122
925.279	13149
925.387	13240
925.494	13175
925.602	13415
925.709	13240
925.816	13053
925.924	13099
926.031	13133
926.138	13061
926.245	13122
926.352	12935
926.459	13141
926.566	13053
926.673	13042
926.779	12954
926.886	12954
926.993	12779
927.099	12798
927.206	12692
927.312	12642
927.419	12764
927.525	12658
927.631	12749
927.737	12578
927.843	12563
927.95	12456
928.056	12540
928.162	12551
928.267	12627
928.373	13202
928.479	12570
928.585	12323
928.69	12559
928.796	12426
928.901	12357
929.007	12285
929.112	12441
929.218	12475
929.323	12273
929.428	12205
929.533	12388
929.638	12258
929.743	12182
929.848	12251
929.953	12129
930.058	12068
930.163	11939
930.267	11999
930.372	12079
930.477	11870
930.581	12060
930.685	11992
930.79	11817
930.894	11882
930.998	11726
931.103	12022
931.207	11551
931.311	11455
931.415	11486
931.519	11143
931.623	11155
