Data from test_V78500241_2443.txt Node
Date: Fri Mar 25 15:26:52 CST 2022
User: usil
Spectrometer: V785-0024
Trigger mode: 0
Integration Time (sec): 4.000000E-1
Scans to average: 1
Nonlinearity correction enabled: false
Boxcar width: 0
Storing dark spectrum: false
XAxis mode: Wavelengths
Number of Pixels in Spectrum: 1024
>>>>>Begin Spectral Data<<<<<
801.071	27104
801.214	26876
801.356	26800
801.499	26743
801.641	26537
801.783	26621
801.926	26488
802.068	26549
802.211	26545
802.353	26442
802.496	26233
802.638	26187
802.78	26278
802.923	26153
803.065	25982
803.208	26153
803.35	26122
803.492	26400
803.635	26355
803.777	26259
803.919	26385
804.061	26689
804.204	26480
804.346	26263
804.488	26161
804.63	26320
804.773	26271
804.915	26298
805.057	26469
805.199	26419
805.341	26457
805.483	26511
805.626	26423
805.768	26362
805.91	26427
806.052	26431
806.194	26347
806.336	26583
806.478	26355
806.62	26526
806.762	26552
806.904	26754
807.046	27039
807.188	26868
807.33	26914
807.472	26910
807.614	26739
807.756	26701
807.898	26609
808.04	26469
808.182	26651
808.324	26708
808.465	26655
808.607	26994
808.749	27161
808.891	27112
809.033	27222
809.174	27032
809.316	26982
809.458	27062
809.6	27089
809.741	27112
809.883	27096
810.025	27233
810.166	27310
810.308	27249
810.45	27256
810.591	27096
810.733	27055
810.875	27017
811.016	26861
811.158	26929
811.299	27032
811.441	27108
811.582	27226
811.724	27017
811.865	26933
812.007	27051
812.148	27017
812.29	27123
812.431	27264
812.573	27344
812.714	27458
812.855	27625
812.997	27511
813.138	27861
813.279	27606
813.421	27553
813.562	27374
813.703	27401
813.845	27283
813.986	26849
814.127	26800
814.268	26617
814.41	26727
814.551	26648
814.692	26765
814.833	26632
814.974	26625
815.115	26571
815.256	26530
815.397	26533
815.539	26560
815.68	26473
815.821	26294
815.962	26362
816.103	26469
816.244	26400
816.385	26145
816.526	26149
816.666	26058
816.807	25963
816.948	25982
817.089	25982
817.23	25936
817.371	25830
817.512	25932
817.653	25837
817.793	26001
817.934	25868
818.075	25890
818.216	25932
818.356	25841
818.497	25811
818.638	25635
818.778	25521
818.919	25590
819.06	25658
819.2	25826
819.341	25841
819.481	26001
819.622	26043
819.762	26256
819.903	26111
820.043	26119
820.184	26050
820.324	26008
820.465	26069
820.605	25982
820.746	25955
820.886	25944
821.026	25925
821.167	26008
821.307	25868
821.447	25986
821.588	25765
821.728	25818
821.868	25548
822.008	25392
822.149	25354
822.289	25373
822.429	25129
822.569	25198
822.709	25012
822.849	24901
822.99	24901
823.13	24966
823.27	24806
823.41	24783
823.55	24582
823.69	24707
823.83	24703
823.97	24623
824.11	24517
824.25	24528
824.389	24494
824.529	24692
824.669	24601
824.809	24654
824.949	24566
825.089	24707
825.228	24658
825.368	24414
825.508	24327
825.648	24369
825.787	24505
825.927	24418
826.067	24479
826.206	24251
826.346	24285
826.485	24414
826.625	24380
826.765	24486
826.904	24334
827.044	24292
827.183	24125
827.323	24098
827.462	24110
827.601	23996
827.741	24098
827.88	24091
828.02	24038
828.159	24076
828.298	24034
828.437	24186
828.577	23984
828.716	24174
828.855	24049
828.994	23805
829.134	23863
829.273	23885
829.412	23824
829.551	23771
829.69	23737
829.829	23950
829.968	23813
830.107	23908
830.246	23760
830.385	23752
830.524	23733
830.663	23630
830.802	23596
830.941	23391
831.08	23448
831.219	23486
831.357	23551
831.496	23649
831.635	23334
831.774	23376
831.913	23216
832.051	23151
832.19	23204
832.329	23174
832.467	23109
832.606	23090
832.744	23166
832.883	23083
833.022	23029
833.16	23132
833.299	23041
833.437	23098
833.576	23075
833.714	23124
833.852	23261
833.991	23166
834.129	23254
834.267	23273
834.406	23220
834.544	23269
834.682	23132
834.821	23105
834.959	23227
835.097	23083
835.235	23223
835.373	23239
835.511	23258
835.65	22987
835.788	23060
835.926	22930
836.064	22866
836.202	22786
836.34	23006
836.478	22965
836.615	22927
836.753	23151
836.891	23064
837.029	23075
837.167	22892
837.305	22927
837.443	22949
837.58	22862
837.718	22946
837.856	22854
837.993	22915
838.131	22957
838.269	22790
838.406	22881
838.544	22668
838.681	22497
838.819	22523
838.956	22268
839.094	22440
839.231	22535
839.369	22508
839.506	22812
839.643	22668
839.781	22333
839.918	22310
840.055	22287
840.193	22333
840.33	22272
840.467	22276
840.604	22272
840.742	22462
840.879	22150
841.016	22272
841.153	22055
841.29	22394
841.427	22268
841.564	22322
841.701	22295
841.838	22196
841.975	22116
842.112	22112
842.249	22162
842.385	21953
842.522	22287
842.659	22101
842.796	21956
842.933	22070
843.069	21945
843.206	21926
843.343	22010
843.479	22070
843.616	22116
843.752	21804
843.889	21964
844.025	21888
844.162	21911
844.298	21994
844.435	21907
844.571	21800
844.708	21857
844.844	21972
844.98	21842
845.117	21907
845.253	21698
845.389	21701
845.525	21690
845.661	21568
845.798	21504
845.934	21591
846.07	21424
846.206	21603
846.342	21663
846.478	21492
846.614	21306
846.75	21355
846.886	21279
847.022	21401
847.158	21386
847.294	21435
847.429	21332
847.565	21192
847.701	21477
847.837	21020
847.972	20914
848.108	21093
848.244	21062
848.379	20994
848.515	20914
848.65	20857
848.786	20956
848.921	20842
849.057	21001
849.192	20887
849.328	20800
849.463	20853
849.598	20823
849.734	20823
849.869	20754
850.004	20609
850.14	20659
850.275	20678
850.41	20609
850.545	20724
850.68	20648
850.815	20575
850.95	20701
851.085	20826
851.22	20811
851.355	20701
851.49	20651
851.625	20473
851.76	20602
851.895	20442
852.03	20549
852.165	20663
852.299	20697
852.434	20674
852.569	20640
852.703	20667
852.838	20739
852.973	20686
853.107	20708
853.242	20533
853.376	20594
853.511	20480
853.645	20507
853.78	20708
853.914	20545
854.048	20484
854.183	20328
854.317	20419
854.451	20781
854.585	20454
854.72	20427
854.854	20511
854.988	20457
855.122	20511
855.256	20374
855.39	20404
855.524	20526
855.658	20545
855.792	20442
855.926	20541
856.06	20518
856.194	20549
856.327	20415
856.461	20461
856.595	20488
856.729	20480
856.862	20587
856.996	20396
857.13	20644
857.263	20617
857.397	20648
857.53	20450
857.664	20507
857.797	20427
857.931	20575
858.064	20587
858.197	20522
858.331	20533
858.464	20362
858.597	20237
858.731	20579
858.864	20541
858.997	20423
859.13	20541
859.263	20537
859.396	20644
859.529	20465
859.662	20518
859.795	20484
859.928	20507
860.061	20777
860.194	20716
860.327	20568
860.46	20484
860.592	20621
860.725	20750
860.858	20556
860.99	20446
861.123	20393
861.256	20389
861.388	20484
861.521	20952
861.653	20339
861.786	20278
861.918	20374
862.05	20305
862.183	20446
862.315	20431
862.447	20473
862.58	20381
862.712	20233
862.844	20328
862.976	20240
863.108	20252
863.24	20568
863.372	20172
863.504	20267
863.636	20244
863.768	20149
863.9	20172
864.032	20164
864.164	20126
864.296	20176
864.428	20267
864.559	20210
864.691	20332
864.823	20164
864.954	20259
865.086	20187
865.217	20195
865.349	19978
865.48	20126
865.612	20084
865.743	20248
865.875	20157
866.006	20031
866.137	20096
866.269	20031
866.4	20081
866.531	20126
866.662	20077
866.793	19982
866.924	20035
867.055	20191
867.186	20107
867.317	19936
867.448	20012
867.579	19993
867.71	20073
867.841	20035
867.972	20043
868.103	20081
868.233	20046
868.364	20161
868.495	20199
868.625	20400
868.756	20454
868.886	20214
869.017	20183
869.147	20404
869.278	20434
869.408	20450
869.539	20396
869.669	20396
869.799	20370
869.929	20385
870.06	20495
870.19	20583
870.32	20556
870.45	20556
870.58	20708
870.71	20864
870.84	20876
870.97	20587
871.1	20568
871.23	20895
871.36	20800
871.489	20849
871.619	20796
871.749	20944
871.879	20956
872.008	21020
872.138	20887
872.267	20880
872.397	20712
872.526	20788
872.656	20731
872.785	20689
872.915	20952
873.044	21093
873.173	20975
873.303	20990
873.432	20963
873.561	21039
873.69	21009
873.819	20960
873.948	21013
874.077	20845
874.206	20838
874.335	20963
874.464	21020
874.593	21165
874.722	21176
874.851	21108
874.979	21192
875.108	21154
875.237	21066
875.365	21211
875.494	21104
875.623	21264
875.751	21135
875.88	21085
876.008	21279
876.136	21393
876.265	21523
876.393	21762
876.521	21671
876.65	21694
876.778	21641
876.906	21530
877.034	21549
877.162	21485
877.29	21405
877.418	21576
877.546	21496
877.674	21553
877.802	21561
877.93	21561
878.058	21473
878.185	21378
878.313	21469
878.441	21481
878.568	21359
878.696	21466
878.824	21488
878.951	21576
879.079	21663
879.206	21907
879.333	21694
879.461	21549
879.588	21682
879.715	21694
879.842	21751
879.97	21469
880.097	21370
880.224	21310
880.351	21462
880.478	21317
880.605	21313
880.732	21249
880.859	21606
880.986	21226
881.112	21367
881.239	21100
881.366	21089
881.493	20906
881.619	21043
881.746	21036
881.872	20937
881.999	20861
882.125	20933
882.252	20849
882.378	20857
882.505	20990
882.631	20838
882.757	20667
882.883	20743
883.01	20678
883.136	20632
883.262	20522
883.388	20450
883.514	20743
883.64	20636
883.766	20560
883.892	20404
884.018	20366
884.143	20701
884.269	20750
884.395	20313
884.52	20355
884.646	20362
884.772	20252
884.897	20221
885.023	20328
885.148	20446
885.274	20377
885.399	20419
885.524	20408
885.65	20294
885.775	20214
885.9	20309
886.025	20415
886.15	20374
886.275	20278
886.4	20256
886.525	20351
886.65	20282
886.775	20256
886.9	20408
887.025	20476
887.149	20282
887.274	20134
887.399	20050
887.523	20119
887.648	20039
887.773	19970
887.897	20180
888.021	20065
888.146	19963
888.27	20103
888.395	20183
888.519	20100
888.643	19989
888.767	20218
888.891	19989
889.015	19917
889.139	19864
889.263	19765
889.387	20005
889.511	20115
889.635	20020
889.759	19864
889.883	19791
890.006	19890
890.13	19997
890.254	19788
890.377	19822
890.501	19605
890.624	19525
890.748	19639
890.871	19563
890.995	19434
891.118	19377
891.241	19464
891.364	19415
891.488	19613
891.611	19468
891.734	19434
891.857	19548
891.98	19506
892.103	19464
892.226	19476
892.349	19411
892.471	19297
892.594	19320
892.717	19495
892.839	19354
892.962	19266
893.085	19552
893.207	19354
893.33	19168
893.452	19247
893.575	19502
893.697	19422
893.819	19529
893.941	19525
894.064	19441
894.186	19312
894.308	19236
894.43	19426
894.552	19499
894.674	19449
894.796	19160
894.918	19274
895.04	19354
895.161	19445
895.283	19263
895.405	19339
895.526	19400
895.648	19373
895.769	19388
895.891	19438
896.012	19514
896.134	19464
896.255	19430
896.376	19491
896.498	19480
896.619	19434
896.74	19422
896.861	19457
896.982	19818
897.103	19909
897.224	19594
897.345	19685
897.466	19582
897.587	19666
897.708	19746
897.828	19605
897.949	19594
898.07	19384
898.19	19616
898.311	19677
898.431	19658
898.552	19639
898.672	19613
898.792	19769
898.913	19685
899.033	19525
899.153	19369
899.273	19285
899.393	19339
899.513	19324
899.633	19187
899.753	19403
899.873	19362
899.993	19426
900.113	19331
900.232	19373
900.352	19206
900.472	19118
900.591	19133
900.711	19327
900.83	19240
900.95	19236
901.069	19304
901.189	19133
901.308	18806
901.427	18798
901.546	18726
901.665	18802
901.784	18810
901.904	18494
902.023	18525
902.141	18361
902.26	18311
902.379	18289
902.498	18327
902.617	18270
902.735	18357
902.854	18300
902.973	18213
903.091	17920
903.21	17958
903.328	18068
903.446	17901
903.565	17821
903.683	17722
903.801	17687
903.919	17794
904.038	17570
904.156	17551
904.274	17581
904.392	17611
904.51	17543
904.627	17463
904.745	17535
904.863	17558
904.981	17372
905.098	17265
905.216	17261
905.334	17231
905.451	17269
905.569	17200
905.686	17258
905.803	17193
905.921	17067
906.038	17113
906.155	17052
906.272	16987
906.389	16942
906.506	16835
906.623	16881
906.74	16790
906.857	16656
906.974	16713
907.091	16869
907.208	16892
907.324	16782
907.441	16672
907.557	16531
907.674	16523
907.79	16428
907.907	16519
908.023	16603
908.139	16516
908.256	16322
908.372	16375
908.488	16284
908.604	16173
908.72	16215
908.836	16211
908.952	16223
909.068	16196
909.184	16306
909.3	16166
909.415	16295
909.531	16128
909.647	16006
909.762	15983
909.878	15850
909.993	15907
910.108	15880
910.224	15770
910.339	15808
910.454	15812
910.57	15713
910.685	15648
910.8	16040
910.915	15831
911.03	15736
911.145	15545
911.259	15485
911.374	15580
911.489	15454
911.604	15439
911.718	15260
911.833	15325
911.947	15161
912.062	15135
912.176	15180
912.291	15264
912.405	15268
912.519	15454
912.633	15412
912.748	15294
912.862	15287
912.976	15089
913.09	14971
913.204	15089
913.318	15199
913.431	15203
913.545	15161
913.659	15161
913.772	15036
913.886	14971
914	14921
914.113	15024
914.226	15013
914.34	14967
914.453	14796
914.566	14952
914.68	14811
914.793	14765
914.906	14670
915.019	14507
915.132	14499
915.245	14530
915.358	14457
915.47	14564
915.583	14545
915.696	14545
915.809	14697
915.921	14674
916.034	14393
916.146	14415
916.259	14404
916.371	14503
916.483	14446
916.595	14377
916.708	14393
916.82	14442
916.932	14324
917.044	14263
917.156	14347
917.268	14168
917.38	14191
917.491	14240
917.603	14145
917.715	14252
917.826	14290
917.938	14161
918.049	14046
918.161	14168
918.272	14317
918.384	14229
918.495	14115
918.606	14035
918.717	13944
918.828	13989
918.939	14001
919.05	13917
919.161	13928
919.272	13731
919.383	13837
919.494	14088
919.604	14225
919.715	13959
919.826	13902
919.936	13959
920.047	13936
920.157	13997
920.267	14123
920.378	13864
920.488	13947
920.598	14180
920.708	14240
920.818	14172
920.928	14065
921.038	14278
921.148	14214
921.258	13898
921.368	13890
921.477	13757
921.587	13636
921.697	13537
921.806	13696
921.916	13575
922.025	13495
922.134	13335
922.244	13396
922.353	13331
922.462	13324
922.571	13198
922.68	13038
922.789	12947
922.898	13099
923.007	12901
923.116	12970
923.224	12947
923.333	12966
923.442	12867
923.55	12821
923.659	12890
923.767	12954
923.876	12840
923.984	12760
924.092	12722
924.201	12837
924.309	12753
924.417	12764
924.525	12802
924.633	12711
924.741	13655
924.849	12532
924.956	12593
925.064	12547
925.172	12395
925.279	12403
925.387	12479
925.494	12391
925.602	12563
925.709	12494
925.816	12361
925.924	12380
926.031	12437
926.138	12327
926.245	12494
926.352	12327
926.459	12407
926.566	12460
926.673	12273
926.779	12281
926.886	12194
926.993	12049
927.099	12038
927.206	12026
927.312	11931
927.419	12079
927.525	12034
927.631	11999
927.737	11969
927.843	11882
927.95	11748
928.056	11809
928.162	11912
928.267	11897
928.373	12604
928.479	11916
928.585	11707
928.69	11756
928.796	11805
928.901	11661
929.007	11558
929.112	11672
929.218	11596
929.323	11665
929.428	11562
929.533	11824
929.638	11512
929.743	11528
929.848	11661
929.953	11520
930.058	11372
930.163	11181
930.267	11288
930.372	11459
930.477	11220
930.581	11467
930.685	11288
930.79	11193
930.894	11227
930.998	11178
931.103	11322
931.207	10896
931.311	10850
931.415	10816
931.519	10603
931.623	10618
