Data from test_V78500241_958.txt Node
Date: Fri Mar 25 15:16:31 CST 2022
User: usil
Spectrometer: V785-0024
Trigger mode: 0
Integration Time (sec): 4.000000E-1
Scans to average: 1
Nonlinearity correction enabled: false
Boxcar width: 0
Storing dark spectrum: false
XAxis mode: Wavelengths
Number of Pixels in Spectrum: 1024
>>>>>Begin Spectral Data<<<<<
801.071	28147
801.214	27949
801.356	27793
801.499	27709
801.641	27507
801.783	27420
801.926	27553
802.068	27454
802.211	27374
802.353	27412
802.496	27142
802.638	27119
802.78	27226
802.923	27192
803.065	27077
803.208	27230
803.35	27230
803.492	27389
803.635	27351
803.777	27199
803.919	27450
804.061	27682
804.204	27325
804.346	27405
804.488	27294
804.63	27397
804.773	27374
804.915	27386
805.057	27462
805.199	27370
805.341	27458
805.483	27458
805.626	27450
805.768	27393
805.91	27576
806.052	27599
806.194	27420
806.336	27778
806.478	27549
806.62	27614
806.762	27724
806.904	27766
807.046	27953
807.188	28006
807.33	27907
807.472	27960
807.614	27842
807.756	28013
807.898	27770
808.04	27873
808.182	27808
808.324	27690
808.465	27865
808.607	27956
808.749	28044
808.891	28234
809.033	28272
809.174	28219
809.316	28150
809.458	28211
809.6	28036
809.741	28257
809.883	28481
810.025	28493
810.166	28531
810.308	28573
810.45	28299
810.591	28417
810.733	28147
810.875	28211
811.016	28150
811.158	28070
811.299	28238
811.441	28390
811.582	28284
811.724	28295
811.865	27968
812.007	28131
812.148	28013
812.29	28226
812.431	28333
812.573	28417
812.714	28554
812.855	28748
812.997	28812
813.138	28949
813.279	28778
813.421	28744
813.562	28748
813.703	28580
813.845	28421
813.986	28040
814.127	27934
814.268	27831
814.41	27755
814.551	27823
814.692	27861
814.833	27736
814.974	27873
815.115	27895
815.256	27842
815.397	27846
815.539	27739
815.68	27743
815.821	27682
815.962	27743
816.103	27717
816.244	27485
816.385	27507
816.526	27435
816.666	27249
816.807	27169
816.948	27252
817.089	27279
817.23	27222
817.371	27245
817.512	27188
817.653	27184
817.793	27131
817.934	27173
818.075	27066
818.216	27279
818.356	27135
818.497	26933
818.638	26864
818.778	26861
818.919	27036
819.06	27051
819.2	27173
819.341	27294
819.481	27093
819.622	27317
819.762	27481
819.903	27496
820.043	27336
820.184	27294
820.324	27272
820.465	27485
820.605	27252
820.746	27310
820.886	27176
821.026	27184
821.167	27340
821.307	27249
821.447	27146
821.588	27074
821.728	26914
821.868	26876
822.008	26590
822.149	26644
822.289	26552
822.429	26389
822.569	26396
822.709	26298
822.849	26138
822.99	26233
823.13	26142
823.27	26126
823.41	26012
823.55	25894
823.69	25909
823.83	26016
823.97	25890
824.11	25765
824.25	25807
824.389	25693
824.529	25890
824.669	25765
824.809	25917
824.949	25955
825.089	26012
825.228	25818
825.368	25750
825.508	25708
825.648	25906
825.787	25715
825.927	25757
826.067	25655
826.206	25635
826.346	25708
826.485	25788
826.625	25647
826.765	25811
826.904	25719
827.044	25529
827.183	25441
827.323	25335
827.462	25430
827.601	25571
827.741	25293
827.88	25472
828.02	25259
828.159	25373
828.298	25289
828.437	25506
828.577	25282
828.716	25438
828.855	25392
828.994	25080
829.134	25156
829.273	25175
829.412	25099
829.551	25008
829.69	25236
829.829	25126
829.968	25240
830.107	25175
830.246	25088
830.385	25012
830.524	25023
830.663	24947
830.802	24837
830.941	24760
831.08	24791
831.219	24844
831.357	24913
831.496	24837
831.635	24806
831.774	24620
831.913	24681
832.051	24456
832.19	24483
832.329	24540
832.467	24486
832.606	24403
832.744	24380
832.883	24464
833.022	24414
833.16	24471
833.299	24551
833.437	24620
833.576	24479
833.714	24445
833.852	24471
833.991	24429
834.129	24483
834.267	24570
834.406	24407
834.544	24525
834.682	24452
834.821	24536
834.959	24574
835.097	24277
835.235	24486
835.373	24414
835.511	24353
835.65	24346
835.788	24311
835.926	24243
836.064	24095
836.202	24129
836.34	24315
836.478	24330
836.615	24277
836.753	24304
836.891	24384
837.029	24292
837.167	24224
837.305	24083
837.443	24220
837.58	24095
837.718	24224
837.856	24178
837.993	24197
838.131	24216
838.269	23965
838.406	24041
838.544	24041
838.681	23786
838.819	23661
838.956	23570
839.094	23627
839.231	23566
839.369	23726
839.506	24011
839.643	23863
839.781	23619
839.918	23638
840.055	23657
840.193	23558
840.33	23436
840.467	23630
840.604	23516
840.742	23832
840.879	23356
841.016	23391
841.153	23452
841.29	23657
841.427	23486
841.564	23463
841.701	23524
841.838	23433
841.975	23459
842.112	23341
842.249	23235
842.385	23147
842.522	23528
842.659	23376
842.796	23174
842.933	23258
843.069	23162
843.206	23258
843.343	23337
843.479	23220
843.616	23284
843.752	23147
843.889	22930
844.025	23258
844.162	22946
844.298	23147
844.435	23086
844.571	22961
844.708	23006
844.844	23200
844.98	23360
845.117	23185
845.253	23136
845.389	22805
845.525	22957
845.661	22892
845.798	22767
845.934	22805
846.07	22706
846.206	22786
846.342	22904
846.478	22744
846.614	22561
846.75	22481
846.886	22493
847.022	22611
847.158	22607
847.294	22535
847.429	22440
847.565	22615
847.701	22801
847.837	22147
847.972	22303
848.108	22341
848.244	22291
848.379	22029
848.515	22097
848.65	22154
848.786	22230
848.921	22143
849.057	22318
849.192	22265
849.328	22181
849.463	22112
849.598	21994
849.734	22002
849.869	22051
850.004	21987
850.14	21857
850.275	22017
850.41	21774
850.545	21960
850.68	21827
850.815	21956
850.95	21934
851.085	22070
851.22	21964
851.355	21880
851.49	21934
851.625	21789
851.76	21823
851.895	21778
852.03	21808
852.165	21953
852.299	21930
852.434	21888
852.569	21975
852.703	21884
852.838	21873
852.973	21949
853.107	21991
853.242	21880
853.376	21720
853.511	21595
853.645	21656
853.78	21778
853.914	21701
854.048	21599
854.183	21682
854.317	21705
854.451	21816
854.585	21698
854.72	21728
854.854	21804
854.988	21603
855.122	21846
855.256	21492
855.39	21679
855.524	21846
855.658	21652
855.792	21736
855.926	21663
856.06	21610
856.194	21766
856.327	21682
856.461	21701
856.595	21671
856.729	21827
856.862	21846
856.996	21698
857.13	21739
857.263	21789
857.397	21743
857.53	21542
857.664	21690
857.797	21747
857.931	21846
858.064	21781
858.197	21800
858.331	21774
858.464	21603
858.597	21739
858.731	21766
858.864	21713
858.997	21622
859.13	21694
859.263	21793
859.396	21869
859.529	21652
859.662	21770
859.795	21698
859.928	21709
860.061	21888
860.194	21793
860.327	21713
860.46	21800
860.592	21922
860.725	21838
860.858	21747
860.99	21732
861.123	21717
861.256	21660
861.388	21713
861.521	22265
861.653	21561
861.786	21458
861.918	21679
862.05	21648
862.183	21656
862.315	21629
862.447	21728
862.58	21660
862.712	21447
862.844	21310
862.976	21599
863.108	21572
863.24	21903
863.372	21439
863.504	21420
863.636	21393
863.768	21416
863.9	21408
864.032	21306
864.164	21389
864.296	21355
864.428	21408
864.559	21458
864.691	21393
864.823	21435
864.954	21450
865.086	21298
865.217	21408
865.349	21184
865.48	21233
865.612	21325
865.743	21329
865.875	21367
866.006	21260
866.137	21283
866.269	21226
866.4	21233
866.531	21074
866.662	21317
866.793	21279
866.924	21119
867.055	21176
867.186	21135
867.317	21195
867.448	21188
867.579	21161
867.71	21233
867.841	21142
867.972	21287
868.103	21165
868.233	21260
868.364	21180
868.495	21355
868.625	21553
868.756	21473
868.886	21401
869.017	21447
869.147	21530
869.278	21633
869.408	21538
869.539	21462
869.669	21583
869.799	21549
869.929	21553
870.06	21583
870.19	21709
870.32	21751
870.45	21876
870.58	21793
870.71	21911
870.84	21895
870.97	21751
871.1	21804
871.23	21979
871.36	22002
871.489	21960
871.619	21960
871.749	22074
871.879	21975
872.008	22173
872.138	22063
872.267	22063
872.397	21827
872.526	21816
872.656	21857
872.785	21899
872.915	22078
873.044	22086
873.173	22032
873.303	22147
873.432	21994
873.561	22188
873.69	22223
873.819	22131
873.948	22147
874.077	22017
874.206	22173
874.335	22105
874.464	22169
874.593	22204
874.722	22211
874.851	22253
874.979	22314
875.108	22341
875.237	22223
875.365	22261
875.494	22154
875.623	22322
875.751	22242
875.88	22325
876.008	22436
876.136	22405
876.265	22717
876.393	22748
876.521	22797
876.65	22725
876.778	22774
876.906	22607
877.034	22630
877.162	22706
877.29	22588
877.418	22702
877.546	22603
877.674	22603
877.802	22596
877.93	22603
878.058	22641
878.185	22493
878.313	22679
878.441	22588
878.568	22402
878.696	22489
878.824	22672
878.951	22694
879.079	22786
879.206	22995
879.333	22904
879.461	22649
879.588	22702
879.715	22881
879.842	22885
879.97	22687
880.097	22489
880.224	22421
880.351	22497
880.478	22413
880.605	22466
880.732	22577
880.859	22645
880.986	22504
881.112	22432
881.239	22314
881.366	22272
881.493	22078
881.619	22051
881.746	22192
881.872	22036
881.999	21873
882.125	22025
882.252	22025
882.378	21899
882.505	22185
882.631	21953
882.757	21838
882.883	21793
883.01	21724
883.136	21698
883.262	21545
883.388	21542
883.514	21781
883.64	21838
883.766	21701
883.892	21568
884.018	21526
884.143	21690
884.269	21709
884.395	21481
884.52	21340
884.646	21310
884.772	21230
884.897	21325
885.023	21268
885.148	21351
885.274	21545
885.399	21344
885.524	21435
885.65	21287
885.775	21439
885.9	21302
886.025	21389
886.15	21424
886.275	21256
886.4	21298
886.525	21272
886.65	21226
886.775	21275
886.9	21511
887.025	21618
887.149	21370
887.274	21195
887.399	21150
887.523	21252
887.648	21028
887.773	21005
887.897	21180
888.021	21157
888.146	21074
888.27	21135
888.395	21256
888.519	21138
888.643	21192
888.767	21199
888.891	21157
889.015	20906
889.139	21066
889.263	20975
889.387	21009
889.511	21142
889.635	21005
889.759	20910
889.883	20895
890.006	20918
890.13	21058
890.254	20864
890.377	20838
890.501	20773
890.624	20701
890.748	20716
890.871	20606
890.995	20522
891.118	20332
891.241	20404
891.364	20499
891.488	20594
891.611	20522
891.734	20522
891.857	20640
891.98	20545
892.103	20484
892.226	20568
892.349	20358
892.471	20240
892.594	20381
892.717	20419
892.839	20377
892.962	20400
893.085	20427
893.207	20339
893.33	20187
893.452	20256
893.575	20446
893.697	20400
893.819	20575
893.941	20495
894.064	20560
894.186	20355
894.308	20229
894.43	20492
894.552	20590
894.674	20377
894.796	20336
894.918	20362
895.04	20339
895.161	20431
895.283	20526
895.405	20332
895.526	20351
895.648	20355
895.769	20343
895.891	20396
896.012	20366
896.134	20434
896.255	20298
896.376	20313
896.498	20320
896.619	20473
896.74	20278
896.861	20396
896.982	20705
897.103	20765
897.224	20632
897.345	20571
897.466	20590
897.587	20518
897.708	20746
897.828	20701
897.949	20522
898.07	20415
898.19	20629
898.311	20689
898.431	20503
898.552	20552
898.672	20670
898.792	20632
898.913	20602
899.033	20469
899.153	20469
899.273	20138
899.393	20370
899.513	20389
899.633	20412
899.753	20336
899.873	20358
899.993	20286
900.113	20370
900.232	20317
900.352	20267
900.472	20103
900.591	19967
900.711	20199
900.83	20081
900.95	20240
901.069	20096
901.189	19967
901.308	19875
901.427	19715
901.546	19651
901.665	19693
901.784	19719
901.904	19537
902.023	19339
902.141	19274
902.26	19217
902.379	19377
902.498	19266
902.617	19202
902.735	19171
902.854	19156
902.973	19114
903.091	18776
903.21	18916
903.328	18814
903.446	18700
903.565	18582
903.683	18719
903.801	18582
903.919	18639
904.038	18608
904.156	18395
904.274	18464
904.392	18426
904.51	18456
904.627	18422
904.745	18445
904.863	18448
904.981	18262
905.098	18171
905.216	18182
905.334	18072
905.451	18136
905.569	18072
905.686	18174
905.803	18079
905.921	17893
906.038	17950
906.155	17992
906.272	17828
906.389	17859
906.506	17748
906.623	17653
906.74	17680
906.857	17516
906.974	17573
907.091	17649
907.208	17733
907.324	17619
907.441	17642
907.557	17402
907.674	17410
907.79	17280
907.907	17288
908.023	17315
908.139	17379
908.256	17330
908.372	17299
908.488	17223
908.604	17090
908.72	17090
908.836	17083
908.952	17083
909.068	17075
909.184	17113
909.3	17140
909.415	16995
909.531	17117
909.647	16824
909.762	16900
909.878	16744
909.993	16858
910.108	16706
910.224	16763
910.339	16755
910.454	16729
910.57	16504
910.685	16561
910.8	16801
910.915	16774
911.03	16546
911.145	16462
911.259	16386
911.374	16329
911.489	16379
911.604	16276
911.718	16116
911.833	16166
911.947	16082
912.062	15865
912.176	16029
912.291	16044
912.405	16105
912.519	16303
912.633	16238
912.748	16188
912.862	16071
912.976	15956
913.09	15762
913.204	15865
913.318	15953
913.431	16021
913.545	15991
913.659	15972
913.772	15842
913.886	15778
914	15656
914.113	15907
914.226	15720
914.34	15713
914.453	15701
914.566	15816
914.68	15656
914.793	15466
914.906	15386
915.019	15408
915.132	15241
915.245	15306
915.358	15291
915.47	15317
915.583	15321
915.696	15359
915.809	15386
915.921	15359
916.034	15294
916.146	15321
916.259	15275
916.371	15382
916.483	15302
916.595	15176
916.708	15165
916.82	15150
916.932	15135
917.044	14971
917.156	15043
917.268	14895
917.38	15028
917.491	14963
917.603	14944
917.715	14979
917.826	15047
917.938	14864
918.049	14838
918.161	14857
918.272	14979
918.384	15032
918.495	14899
918.606	14788
918.717	14701
918.828	14788
918.939	14788
919.05	14674
919.161	14701
919.272	14492
919.383	14579
919.494	14678
919.604	14925
919.715	14651
919.826	14617
919.936	14674
920.047	14739
920.157	14712
920.267	14899
920.378	14640
920.488	14682
920.598	14792
920.708	14895
920.818	14785
920.928	14899
921.038	14982
921.148	14891
921.258	14625
921.368	14537
921.477	14442
921.587	14419
921.697	14282
921.806	14461
921.916	14244
922.025	14100
922.134	14054
922.244	13936
922.353	14100
922.462	13879
922.571	13864
922.68	13727
922.789	13776
922.898	13723
923.007	13590
923.116	13765
923.224	13666
923.333	13719
923.442	13582
923.55	13548
923.659	13556
923.767	13636
923.876	13510
923.984	13533
924.092	13365
924.201	13460
924.309	13365
924.417	13365
924.525	13365
924.633	13419
924.741	14180
924.849	13187
924.956	13403
925.064	13236
925.172	13126
925.279	13099
925.387	13129
925.494	13088
925.602	13217
925.709	13190
925.816	13038
925.924	13046
926.031	13053
926.138	13000
926.245	13038
926.352	12958
926.459	13183
926.566	13160
926.673	12985
926.779	12913
926.886	12844
926.993	12757
927.099	12745
927.206	12627
927.312	12528
927.419	12635
927.525	12601
927.631	12639
927.737	12604
927.843	12460
927.95	12376
928.056	12479
928.162	12441
928.267	12494
928.373	13156
928.479	12555
928.585	12311
928.69	12445
928.796	12429
928.901	12350
929.007	12205
929.112	12350
929.218	12308
929.323	12205
929.428	12178
929.533	12304
929.638	12175
929.743	12186
929.848	12194
929.953	12186
930.058	12030
930.163	11942
930.267	11942
930.372	11958
930.477	11786
930.581	12079
930.685	11923
930.79	11752
930.894	11771
930.998	11809
931.103	11897
931.207	11562
931.311	11433
931.415	11345
931.519	11162
931.623	11166
