Data from test_V78500241_2020.txt Node
Date: Fri Mar 25 15:23:55 CST 2022
User: usil
Spectrometer: V785-0024
Trigger mode: 0
Integration Time (sec): 4.000000E-1
Scans to average: 1
Nonlinearity correction enabled: false
Boxcar width: 0
Storing dark spectrum: false
XAxis mode: Wavelengths
Number of Pixels in Spectrum: 1024
>>>>>Begin Spectral Data<<<<<
801.071	27964
801.214	27789
801.356	27526
801.499	27477
801.641	27302
801.783	27275
801.926	27431
802.068	27454
802.211	27180
802.353	27127
802.496	26948
802.638	26956
802.78	26937
802.923	26937
803.065	27058
803.208	26849
803.35	26899
803.492	27135
803.635	27272
803.777	27096
803.919	27089
804.061	27542
804.204	27154
804.346	27017
804.488	27119
804.63	27112
804.773	27024
804.915	27192
805.057	27340
805.199	27108
805.341	27230
805.483	27279
805.626	27393
805.768	27241
805.91	27313
806.052	27306
806.194	27332
806.336	27332
806.478	27397
806.62	27344
806.762	27431
806.904	27466
807.046	27880
807.188	27690
807.33	27663
807.472	27854
807.614	27538
807.756	27736
807.898	27523
808.04	27553
808.182	27572
808.324	27652
808.465	27614
808.607	27895
808.749	27987
808.891	28086
809.033	28173
809.174	28013
809.316	28002
809.458	27888
809.6	27926
809.741	28067
809.883	28048
810.025	28230
810.166	28234
810.308	28226
810.45	28177
810.591	28078
810.733	27914
810.875	27949
811.016	27755
811.158	27804
811.299	27873
811.441	28044
811.582	28017
811.724	27907
811.865	27846
812.007	27857
812.148	27850
812.29	27850
812.431	28131
812.573	28215
812.714	28375
812.855	28481
812.997	28504
813.138	28668
813.279	28618
813.421	28440
813.562	28352
813.703	28226
813.845	28128
813.986	27934
814.127	27827
814.268	27671
814.41	27591
814.551	27736
814.692	27679
814.833	27603
814.974	27561
815.115	27671
815.256	27576
815.397	27500
815.539	27583
815.68	27424
815.821	27389
815.962	27481
816.103	27355
816.244	27378
816.385	27150
816.526	27112
816.666	27077
816.807	26880
816.948	26910
817.089	27020
817.23	26811
817.371	26944
817.512	26887
817.653	26891
817.793	26781
817.934	26857
818.075	26906
818.216	26963
818.356	26979
818.497	26857
818.638	26670
818.778	26792
818.919	26785
819.06	26861
819.2	26864
819.341	26861
819.481	26853
819.622	27112
819.762	27252
819.903	27165
820.043	27051
820.184	26990
820.324	27001
820.465	26868
820.605	26906
820.746	26944
820.886	26735
821.026	27001
821.167	26956
821.307	27017
821.447	26929
821.588	26830
821.728	26701
821.868	26617
822.008	26370
822.149	26377
822.289	26343
822.429	26065
822.569	26043
822.709	25989
822.849	25868
822.99	25887
823.13	25894
823.27	25807
823.41	25643
823.55	25567
823.69	25670
823.83	25746
823.97	25674
824.11	25540
824.25	25491
824.389	25647
824.529	25651
824.669	25540
824.809	25548
824.949	25597
825.089	25597
825.228	25567
825.368	25438
825.508	25384
825.648	25289
825.787	25479
825.927	25506
826.067	25350
826.206	25381
826.346	25255
826.485	25460
826.625	25472
826.765	25415
826.904	25472
827.044	25122
827.183	25076
827.323	25122
827.462	25304
827.601	25107
827.741	25122
827.88	25225
828.02	25050
828.159	25088
828.298	25038
828.437	25076
828.577	25023
828.716	25190
828.855	25069
828.994	24806
829.134	24829
829.273	24837
829.412	24726
829.551	24848
829.69	24840
829.829	24909
829.968	24905
830.107	24814
830.246	24844
830.385	24825
830.524	24722
830.663	24578
830.802	24437
830.941	24445
831.08	24361
831.219	24646
831.357	24498
831.496	24669
831.635	24323
831.774	24426
831.913	24273
832.051	24194
832.19	24190
832.329	24224
832.467	24136
832.606	24163
832.744	24102
832.883	24095
833.022	24057
833.16	24121
833.299	24254
833.437	24148
833.576	24178
833.714	24178
833.852	24239
833.991	24334
834.129	24376
834.267	24311
834.406	24209
834.544	24209
834.682	24292
834.821	24209
834.959	24346
835.097	24197
835.235	24296
835.373	24117
835.511	24098
835.65	24049
835.788	24068
835.926	23893
836.064	23859
836.202	23931
836.34	24030
836.478	24018
836.615	23946
836.753	24030
836.891	24095
837.029	24034
837.167	23961
837.305	23984
837.443	23969
837.58	23817
837.718	23912
837.856	23901
837.993	23870
838.131	23863
838.269	23619
838.406	23714
838.544	23634
838.681	23615
838.819	23417
838.956	23368
839.094	23318
839.231	23277
839.369	23436
839.506	23703
839.643	23505
839.781	23288
839.918	23200
840.055	23337
840.193	23277
840.33	23254
840.467	23166
840.604	23277
840.742	23516
840.879	23162
841.016	23189
841.153	23220
841.29	23208
841.427	23227
841.564	23288
841.701	23341
841.838	23204
841.975	23140
842.112	23181
842.249	23170
842.385	23033
842.522	23162
842.659	23022
842.796	22919
842.933	23033
843.069	22965
843.206	22934
843.343	23041
843.479	22927
843.616	22987
843.752	22733
843.889	22873
844.025	22858
844.162	22713
844.298	22752
844.435	22740
844.571	22752
844.708	22843
844.844	22869
844.98	22847
845.117	22782
845.253	22710
845.389	22634
845.525	22656
845.661	22664
845.798	22645
845.934	22531
846.07	22538
846.206	22462
846.342	22550
846.478	22428
846.614	22386
846.75	22204
846.886	22325
847.022	22265
847.158	22322
847.294	22215
847.429	22268
847.565	22344
847.701	22470
847.837	21918
847.972	22063
848.108	22059
848.244	21994
848.379	21941
848.515	21808
848.65	21720
848.786	21876
848.921	21774
849.057	21937
849.192	21983
849.328	21774
849.463	21903
849.598	21854
849.734	21625
849.869	21557
850.004	21557
850.14	21709
850.275	21553
850.41	21511
850.545	21652
850.68	21564
850.815	21580
850.95	21507
851.085	21728
851.22	21743
851.355	21641
851.49	21545
851.625	21629
851.76	21549
851.895	21637
852.03	21526
852.165	21542
852.299	21576
852.434	21618
852.569	21625
852.703	21580
852.838	21663
852.973	21580
853.107	21713
853.242	21519
853.376	21564
853.511	21161
853.645	21370
853.78	21606
853.914	21458
854.048	21481
854.183	21397
854.317	21370
854.451	21507
854.585	21374
854.72	21462
854.854	21420
854.988	21374
855.122	21397
855.256	21256
855.39	21355
855.524	21443
855.658	21443
855.792	21313
855.926	21447
856.06	21325
856.194	21306
856.327	21298
856.461	21359
856.595	21408
856.729	21298
856.862	21534
856.996	21428
857.13	21485
857.263	21511
857.397	21401
857.53	21207
857.664	21416
857.797	21549
857.931	21511
858.064	21412
858.197	21507
858.331	21389
858.464	21351
858.597	21355
858.731	21378
858.864	21321
858.997	21321
859.13	21439
859.263	21504
859.396	21439
859.529	21408
859.662	21412
859.795	21397
859.928	21386
860.061	21557
860.194	21580
860.327	21507
860.46	21332
860.592	21511
860.725	21572
860.858	21561
860.99	21332
861.123	21344
861.256	21351
861.388	21401
861.521	22090
861.653	21272
861.786	21173
861.918	21256
862.05	21230
862.183	21298
862.315	21420
862.447	21382
862.58	21249
862.712	21089
862.844	21127
862.976	21211
863.108	21142
863.24	21458
863.372	21096
863.504	21085
863.636	21176
863.768	21199
863.9	21047
864.032	21150
864.164	21150
864.296	21241
864.428	21093
864.559	21119
864.691	21180
864.823	21093
864.954	21051
865.086	21138
865.217	21062
865.349	20956
865.48	20998
865.612	21058
865.743	21146
865.875	21036
866.006	21032
866.137	20933
866.269	21017
866.4	20982
866.531	20948
866.662	20899
866.793	20982
866.924	20975
867.055	20906
867.186	20979
867.317	20960
867.448	20880
867.579	20868
867.71	20769
867.841	20880
867.972	21013
868.103	20941
868.233	20880
868.364	20921
868.495	21138
868.625	21154
868.756	21256
868.886	21028
869.017	21245
869.147	21252
869.278	21294
869.408	21169
869.539	21135
869.669	21154
869.799	21355
869.929	21359
870.06	21325
870.19	21443
870.32	21367
870.45	21466
870.58	21614
870.71	21656
870.84	21728
870.97	21515
871.1	21610
871.23	21766
871.36	21770
871.489	21583
871.619	21705
871.749	21804
871.879	21876
872.008	21888
872.138	21827
872.267	21709
872.397	21713
872.526	21625
872.656	21576
872.785	21743
872.915	21884
873.044	21934
873.173	21656
873.303	21827
873.432	21713
873.561	21835
873.69	21808
873.819	21800
873.948	21827
874.077	21846
874.206	21720
874.335	21759
874.464	21842
874.593	21972
874.722	21991
874.851	22021
874.979	22059
875.108	22109
875.237	22067
875.365	21983
875.494	22074
875.623	22048
875.751	21953
875.88	21998
876.008	22177
876.136	22261
876.265	22348
876.393	22447
876.521	22382
876.65	22485
876.778	22500
876.906	22405
877.034	22226
877.162	22421
877.29	22287
877.418	22428
877.546	22363
877.674	22310
877.802	22402
877.93	22409
878.058	22329
878.185	22329
878.313	22284
878.441	22436
878.568	22166
878.696	22287
878.824	22432
878.951	22390
879.079	22428
879.206	22641
879.333	22527
879.461	22428
879.588	22337
879.715	22516
879.842	22546
879.97	22379
880.097	22158
880.224	22215
880.351	22150
880.478	22181
880.605	22093
880.732	22147
880.859	22360
880.986	22181
881.112	22166
881.239	22063
881.366	22032
881.493	21873
881.619	21720
881.746	21743
881.872	21648
881.999	21739
882.125	21728
882.252	21804
882.378	21751
882.505	21915
882.631	21648
882.757	21599
882.883	21580
883.01	21435
883.136	21408
883.262	21363
883.388	21408
883.514	21473
883.64	21477
883.766	21264
883.892	21180
884.018	21264
884.143	21313
884.269	21359
884.395	21142
884.52	21024
884.646	21100
884.772	21001
884.897	20876
885.023	21116
885.148	21203
885.274	21222
885.399	21116
885.524	21146
885.65	21058
885.775	21096
885.9	21157
886.025	21268
886.15	21169
886.275	21089
886.4	21028
886.525	20971
886.65	21058
886.775	20971
886.9	21287
887.025	21355
887.149	21123
887.274	20921
887.399	20807
887.523	20921
887.648	20800
887.773	20769
887.897	20918
888.021	20921
888.146	20727
888.27	20986
888.395	20941
888.519	20887
888.643	20937
888.767	20967
888.891	20769
889.015	20606
889.139	20743
889.263	20686
889.387	20864
889.511	20785
889.635	20819
889.759	20480
889.883	20663
890.006	20731
890.13	20712
890.254	20609
890.377	20632
890.501	20362
890.624	20328
890.748	20404
890.871	20332
890.995	20062
891.118	20153
891.241	20183
891.364	20252
891.488	20396
891.611	20225
891.734	20195
891.857	20362
891.98	20240
892.103	20328
892.226	20259
892.349	20180
892.471	20008
892.594	20069
892.717	20218
892.839	20164
892.962	20237
893.085	20172
893.207	20172
893.33	20100
893.452	20062
893.575	20126
893.697	20145
893.819	20252
893.941	20298
894.064	20206
894.186	20024
894.308	20012
894.43	20229
894.552	20195
894.674	20191
894.796	20050
894.918	20096
895.04	20145
895.161	20077
895.283	20202
895.405	20111
895.526	20069
895.648	20142
895.769	20073
895.891	20210
896.012	20233
896.134	20233
896.255	20328
896.376	20119
896.498	20103
896.619	20233
896.74	20164
896.861	20172
896.982	20457
897.103	20556
897.224	20377
897.345	20438
897.466	20358
897.587	20324
897.708	20511
897.828	20461
897.949	20248
898.07	20256
898.19	20221
898.311	20503
898.431	20271
898.552	20317
898.672	20385
898.792	20454
898.913	20362
899.033	20142
899.153	20221
899.273	20107
899.393	20100
899.513	19982
899.633	20161
899.753	20111
899.873	20069
899.993	20221
900.113	20012
900.232	20199
900.352	20016
900.472	19970
900.591	19723
900.711	19951
900.83	19776
900.95	19887
901.069	19894
901.189	19791
901.308	19582
901.427	19407
901.546	19556
901.665	19529
901.784	19480
901.904	19331
902.023	19122
902.141	19015
902.26	18989
902.379	19004
902.498	18996
902.617	18897
902.735	18962
902.854	18958
902.973	18939
903.091	18791
903.21	18616
903.328	18707
903.446	18623
903.565	18532
903.683	18532
903.801	18445
903.919	18399
904.038	18422
904.156	18136
904.274	18289
904.392	18186
904.51	18209
904.627	18178
904.745	18254
904.863	18174
904.981	17973
905.098	17935
905.216	17821
905.334	17821
905.451	17889
905.569	17817
905.686	17859
905.803	17847
905.921	17687
906.038	17840
906.155	17589
906.272	17611
906.389	17539
906.506	17398
906.623	17414
906.74	17410
906.857	17379
906.974	17239
907.091	17459
907.208	17429
907.324	17524
907.441	17414
907.557	17292
907.674	17231
907.79	17071
907.907	17071
908.023	17140
908.139	17056
908.256	17109
908.372	16999
908.488	16927
908.604	16797
908.72	16873
908.836	16854
908.952	16828
909.068	16831
909.184	16934
909.3	16892
909.415	16892
909.531	16778
909.647	16546
909.762	16478
909.878	16470
909.993	16554
910.108	16497
910.224	16527
910.339	16500
910.454	16497
910.57	16402
910.685	16287
910.8	16546
910.915	16577
911.03	16310
911.145	16162
911.259	16162
911.374	16154
911.489	16074
911.604	15994
911.718	15911
911.833	15888
911.947	15747
912.062	15686
912.176	15831
912.291	15869
912.405	15903
912.519	16044
912.633	16074
912.748	15972
912.862	15903
912.976	15793
913.09	15542
913.204	15667
913.318	15743
913.431	15842
913.545	15831
913.659	15793
913.772	15675
913.886	15526
914	15332
914.113	15591
914.226	15641
914.34	15534
914.453	15363
914.566	15667
914.68	15291
914.793	15458
914.906	15146
915.019	15173
915.132	15089
915.245	15017
915.358	15135
915.47	15066
915.583	15131
915.696	15176
915.809	15302
915.921	15173
916.034	15108
916.146	15043
916.259	15062
916.371	14990
916.483	15089
916.595	14933
916.708	14963
916.82	15009
916.932	14975
917.044	14880
917.156	14804
917.268	14804
917.38	14895
917.491	14720
917.603	14826
917.715	14777
917.826	14815
917.938	14720
918.049	14545
918.161	14716
918.272	14769
918.384	14845
918.495	14708
918.606	14583
918.717	14564
918.828	14571
918.939	14514
919.05	14541
919.161	14408
919.272	14290
919.383	14259
919.494	14533
919.604	14705
919.715	14469
919.826	14408
919.936	14450
920.047	14537
920.157	14518
920.267	14667
920.378	14522
920.488	14469
920.598	14659
920.708	14754
920.818	14602
920.928	14598
921.038	14746
921.148	14731
921.258	14343
921.368	14305
921.477	14244
921.587	14263
921.697	14191
921.806	14210
921.916	14138
922.025	13932
922.134	13894
922.244	13795
922.353	13898
922.462	13811
922.571	13719
922.68	13533
922.789	13388
922.898	13605
923.007	13506
923.116	13609
923.224	13529
923.333	13499
923.442	13304
923.55	13358
923.659	13400
923.767	13411
923.876	13320
923.984	13316
924.092	13255
924.201	13217
924.309	13339
924.417	13263
924.525	13164
924.633	13179
924.741	13898
924.849	13046
924.956	13126
925.064	12977
925.172	12833
925.279	12977
925.387	12947
925.494	12966
925.602	13050
925.709	12909
925.816	12829
925.924	12920
926.031	12863
926.138	12856
926.245	12920
926.352	12730
926.459	12833
926.566	12928
926.673	12798
926.779	12783
926.886	12639
926.993	12486
927.099	12574
927.206	12448
927.312	12380
927.419	12521
927.525	12490
927.631	12471
927.737	12460
927.843	12346
927.95	12292
928.056	12323
928.162	12311
928.267	12338
928.373	12951
928.479	12300
928.585	12213
928.69	12251
928.796	12323
928.901	12186
929.007	11988
929.112	12190
929.218	12049
929.323	12034
929.428	12068
929.533	12186
929.638	11912
929.743	11961
929.848	12041
929.953	11893
930.058	11863
930.163	11684
930.267	11798
930.372	11859
930.477	11718
930.581	11912
930.685	11824
930.79	11543
930.894	11665
930.998	11608
931.103	11764
931.207	11402
931.311	11345
931.415	11143
931.519	11010
931.623	10946
