Data from test_V78500241_41.txt Node
Date: Fri Mar 25 15:10:08 CST 2022
User: usil
Spectrometer: V785-0024
Trigger mode: 0
Integration Time (sec): 4.000000E-1
Scans to average: 1
Nonlinearity correction enabled: false
Boxcar width: 0
Storing dark spectrum: false
XAxis mode: Wavelengths
Number of Pixels in Spectrum: 1024
>>>>>Begin Spectral Data<<<<<
801.071	28793
801.214	28786
801.356	28493
801.499	28500
801.641	28341
801.783	28276
801.926	28554
802.068	28360
802.211	28272
802.353	28280
802.496	28040
802.638	27922
802.78	27865
802.923	27998
803.065	27736
803.208	27972
803.35	27835
803.492	27994
803.635	28112
803.777	27956
803.919	28120
804.061	28352
804.204	28124
804.346	28090
804.488	27930
804.63	27903
804.773	27903
804.915	27972
805.057	28181
805.199	28032
805.341	28154
805.483	28116
805.626	28090
805.768	28017
805.91	28105
806.052	28131
806.194	28002
806.336	28200
806.478	28211
806.62	28128
806.762	28124
806.904	28295
807.046	28618
807.188	28409
807.33	28451
807.472	28550
807.614	28329
807.756	28352
807.898	28284
808.04	28181
808.182	28166
808.324	28325
808.465	28234
808.607	28424
808.749	28538
808.891	28656
809.033	28752
809.174	28550
809.316	28432
809.458	28634
809.6	28561
809.741	28721
809.883	28649
810.025	28911
810.166	28888
810.308	28968
810.45	28786
810.591	28683
810.733	28603
810.875	28554
811.016	28474
811.158	28226
811.299	28478
811.441	28736
811.582	28474
811.724	28405
811.865	28344
812.007	28390
812.148	28493
812.29	28523
812.431	28740
812.573	28713
812.714	28854
812.855	29029
812.997	29067
813.138	29269
813.279	29109
813.421	28938
813.562	28900
813.703	28725
813.845	28622
813.986	28348
814.127	28246
814.268	28082
814.41	28196
814.551	28055
814.692	28188
814.833	28017
814.974	27994
815.115	28109
815.256	27987
815.397	27800
815.539	27945
815.68	27911
815.821	27599
815.962	27797
816.103	27717
816.244	27701
816.385	27443
816.526	27542
816.666	27306
816.807	27272
816.948	27279
817.089	27298
817.23	27203
817.371	27222
817.512	27230
817.653	27230
817.793	27154
817.934	27142
818.075	27173
818.216	27241
818.356	27047
818.497	26887
818.638	26811
818.778	26872
818.919	26861
819.06	26914
819.2	27051
819.341	27070
819.481	27051
819.622	27146
819.762	27283
819.903	27363
820.043	27138
820.184	27199
820.324	27287
820.465	27222
820.605	27135
820.746	27218
820.886	27017
821.026	27154
821.167	27127
821.307	27233
821.447	26986
821.588	26975
821.728	26975
821.868	26701
822.008	26476
822.149	26442
822.289	26480
822.429	26446
822.569	26263
822.709	26210
822.849	26088
822.99	25947
823.13	25947
823.27	25940
823.41	25818
823.55	25814
823.69	25811
823.83	25772
823.97	25689
824.11	25620
824.25	25609
824.389	25578
824.529	25594
824.669	25571
824.809	25582
824.949	25731
825.089	25651
825.228	25628
825.368	25369
825.508	25365
825.648	25449
825.787	25335
825.927	25518
826.067	25293
826.206	25362
826.346	25460
826.485	25403
826.625	25343
826.765	25460
826.904	25358
827.044	25160
827.183	25156
827.323	24943
827.462	25148
827.601	25107
827.741	25065
827.88	25061
828.02	24852
828.159	25027
828.298	25019
828.437	25080
828.577	24996
828.716	25053
828.855	24920
828.994	24616
829.134	24692
829.273	24688
829.412	24604
829.551	24650
829.69	24665
829.829	24814
829.968	24757
830.107	24688
830.246	24715
830.385	24486
830.524	24467
830.663	24551
830.802	24479
830.941	24323
831.08	24258
831.219	24300
831.357	24338
831.496	24525
831.635	24292
831.774	24121
831.913	24163
832.051	24026
832.19	23958
832.329	23977
832.467	23874
832.606	23764
832.744	23901
832.883	23901
833.022	23775
833.16	23866
833.299	23863
833.437	23882
833.576	23908
833.714	23836
833.852	23897
833.991	23920
834.129	23885
834.267	23802
834.406	23764
834.544	23840
834.682	23882
834.821	23828
834.959	24007
835.097	23684
835.235	23809
835.373	23885
835.511	23840
835.65	23756
835.788	23642
835.926	23535
836.064	23482
836.202	23448
836.34	23783
836.478	23672
836.615	23589
836.753	23668
836.891	23668
837.029	23676
837.167	23535
837.305	23634
837.443	23433
837.58	23520
837.718	23657
837.856	23535
837.993	23315
838.131	23505
838.269	23410
838.406	23345
838.544	23280
838.681	23132
838.819	23033
838.956	22949
839.094	22965
839.231	23075
839.369	23090
839.506	23410
839.643	23239
839.781	22801
839.918	22790
840.055	23079
840.193	22759
840.33	22812
840.467	22942
840.604	22831
840.742	22995
840.879	22675
841.016	22706
841.153	22778
841.29	22965
841.427	22771
841.564	22759
841.701	22736
841.838	22698
841.975	22694
842.112	22573
842.249	22500
842.385	22527
842.522	22691
842.659	22470
842.796	22478
842.933	22489
843.069	22459
843.206	22382
843.343	22466
843.479	22523
843.616	22489
843.752	22287
843.889	22215
844.025	22272
844.162	22154
844.298	22360
844.435	22249
844.571	21975
844.708	22158
844.844	22322
844.98	22265
845.117	22367
845.253	22116
845.389	22105
845.525	22090
845.661	22017
845.798	21922
845.934	21911
846.07	21876
846.206	21846
846.342	22128
846.478	21880
846.614	21701
846.75	21576
846.886	21686
847.022	21759
847.158	21690
847.294	21667
847.429	21739
847.565	21496
847.701	21823
847.837	21389
847.972	21237
848.108	21389
848.244	21481
848.379	21275
848.515	21173
848.65	21203
848.786	21264
848.921	21173
849.057	21298
849.192	21233
849.328	21180
849.463	21188
849.598	21252
849.734	21085
849.869	21017
850.004	20853
850.14	21036
850.275	20842
850.41	20933
850.545	20929
850.68	20838
850.815	20960
850.95	20838
851.085	21020
851.22	20952
851.355	21009
851.49	20838
851.625	20883
851.76	20845
851.895	20785
852.03	20811
852.165	20811
852.299	20849
852.434	20975
852.569	20910
852.703	20815
852.838	20929
852.973	20925
853.107	20986
853.242	20842
853.376	20735
853.511	20674
853.645	20693
853.78	20914
853.914	20811
854.048	20773
854.183	20708
854.317	20689
854.451	20845
854.585	20739
854.72	20644
854.854	20689
854.988	20613
855.122	20640
855.256	20670
855.39	20785
855.524	20712
855.658	20701
855.792	20731
855.926	20777
856.06	20598
856.194	20804
856.327	20575
856.461	20602
856.595	20499
856.729	20629
856.862	20727
856.996	20670
857.13	20701
857.263	20830
857.397	20781
857.53	20621
857.664	20796
857.797	20845
857.931	20682
858.064	20625
858.197	20659
858.331	20613
858.464	20655
858.597	20511
858.731	20667
858.864	20549
858.997	20606
859.13	20594
859.263	20629
859.396	20716
859.529	20606
859.662	20522
859.795	20560
859.928	20609
860.061	20689
860.194	20853
860.327	20594
860.46	20655
860.592	20746
860.725	20777
860.858	20693
860.99	20617
861.123	20480
861.256	20537
861.388	20427
861.521	21077
861.653	20495
861.786	20442
861.918	20530
862.05	20609
862.183	20621
862.315	20678
862.447	20575
862.58	20670
862.712	20339
862.844	20389
862.976	20518
863.108	20237
863.24	20781
863.372	20225
863.504	20278
863.636	20195
863.768	20225
863.9	20210
864.032	20130
864.164	20233
864.296	20248
864.428	20419
864.559	20389
864.691	20328
864.823	20332
864.954	20229
865.086	20199
865.217	20199
865.349	20149
865.48	20199
865.612	20237
865.743	20271
865.875	20214
866.006	20259
866.137	20176
866.269	20214
866.4	20164
866.531	20138
866.662	20058
866.793	20016
866.924	20088
867.055	20088
867.186	20043
867.317	20134
867.448	20008
867.579	20290
867.71	20012
867.841	20096
867.972	20153
868.103	20157
868.233	20130
868.364	20115
868.495	20138
868.625	20355
868.756	20412
868.886	20290
869.017	20313
869.147	20579
869.278	20526
869.408	20267
869.539	20248
869.669	20377
869.799	20332
869.929	20396
870.06	20526
870.19	20636
870.32	20530
870.45	20617
870.58	20682
870.71	20849
870.84	20826
870.97	20625
871.1	20712
871.23	20910
871.36	20982
871.489	20876
871.619	20925
871.749	20998
871.879	21020
872.008	20960
872.138	20944
872.267	20906
872.397	20781
872.526	20773
872.656	20724
872.785	20754
872.915	20910
873.044	21070
873.173	21001
873.303	21020
873.432	20948
873.561	21070
873.69	20914
873.819	20960
873.948	20948
874.077	21020
874.206	20925
874.335	20979
874.464	21108
874.593	21131
874.722	21112
874.851	21207
874.979	21283
875.108	21241
875.237	21256
875.365	21062
875.494	21192
875.623	21310
875.751	21123
875.88	21283
876.008	21302
876.136	21397
876.265	21698
876.393	21770
876.521	21679
876.65	21739
876.778	21564
876.906	21603
877.034	21530
877.162	21428
877.29	21405
877.418	21492
877.546	21542
877.674	21568
877.802	21542
877.93	21477
878.058	21496
878.185	21545
878.313	21667
878.441	21583
878.568	21370
878.696	21519
878.824	21591
878.951	21530
879.079	21698
879.206	21831
879.333	21766
879.461	21641
879.588	21656
879.715	21698
879.842	21793
879.97	21557
880.097	21447
880.224	21374
880.351	21488
880.478	21450
880.605	21306
880.732	21431
880.859	21481
880.986	21294
881.112	21389
881.239	21310
881.366	21112
881.493	21028
881.619	20921
881.746	20933
881.872	20914
881.999	20918
882.125	20937
882.252	21028
882.378	20963
882.505	21207
882.631	20895
882.757	20739
882.883	20785
883.01	20712
883.136	20735
883.262	20613
883.388	20499
883.514	20762
883.64	20705
883.766	20705
883.892	20400
884.018	20450
884.143	20663
884.269	20720
884.395	20465
884.52	20377
884.646	20377
884.772	20237
884.897	20328
885.023	20256
885.148	20465
885.274	20556
885.399	20370
885.524	20233
885.65	20267
885.775	20362
885.9	20377
886.025	20552
886.15	20419
886.275	20240
886.4	20149
886.525	20301
886.65	20218
886.775	20126
886.9	20446
887.025	20514
887.149	20336
887.274	20168
887.399	20039
887.523	20020
887.648	20031
887.773	19970
887.897	20202
888.021	20187
888.146	20020
888.27	20218
888.395	20043
888.519	20221
888.643	20024
888.767	20153
888.891	19989
889.015	19871
889.139	19970
889.263	19879
889.387	19936
889.511	20111
889.635	20027
889.759	19822
889.883	19894
890.006	19909
890.13	20092
890.254	19795
890.377	19864
890.501	19639
890.624	19616
890.748	19613
890.871	19571
890.995	19491
891.118	19289
891.241	19472
891.364	19476
891.488	19533
891.611	19411
891.734	19388
891.857	19430
891.98	19468
892.103	19464
892.226	19445
892.349	19377
892.471	19320
892.594	19403
892.717	19445
892.839	19381
892.962	19365
893.085	19415
893.207	19441
893.33	19270
893.452	19285
893.575	19377
893.697	19331
893.819	19502
893.941	19613
894.064	19559
894.186	19331
894.308	19308
894.43	19434
894.552	19460
894.674	19575
894.796	19297
894.918	19449
895.04	19320
895.161	19533
895.283	19388
895.405	19430
895.526	19381
895.648	19400
895.769	19430
895.891	19407
896.012	19495
896.134	19628
896.255	19392
896.376	19396
896.498	19343
896.619	19499
896.74	19403
896.861	19464
896.982	19780
897.103	19864
897.224	19799
897.345	19628
897.466	19480
897.587	19624
897.708	19902
897.828	19719
897.949	19609
898.07	19480
898.19	19502
898.311	19833
898.431	19578
898.552	19605
898.672	19674
898.792	19677
898.913	19609
899.033	19476
899.153	19453
899.273	19331
899.393	19221
899.513	19316
899.633	19289
899.753	19339
899.873	19247
899.993	19274
900.113	19274
900.232	19251
900.352	19179
900.472	19053
900.591	19069
900.711	19198
900.83	19080
900.95	19278
901.069	19202
901.189	19027
901.308	18840
901.427	18776
901.546	18772
901.665	18787
901.784	18760
901.904	18582
902.023	18456
902.141	18296
902.26	18372
902.379	18292
902.498	18209
902.617	18152
902.735	18235
902.854	18190
902.973	18163
903.091	17935
903.21	17965
903.328	17908
903.446	17901
903.565	17752
903.683	17748
903.801	17627
903.919	17687
904.038	17729
904.156	17558
904.274	17532
904.392	17497
904.51	17455
904.627	17402
904.745	17585
904.863	17524
904.981	17318
905.098	17079
905.216	17121
905.334	17143
905.451	17265
905.569	17067
905.686	17147
905.803	17140
905.921	16965
906.038	17067
906.155	17071
906.272	16812
906.389	16831
906.506	16713
906.623	16713
906.74	16660
906.857	16618
906.974	16497
907.091	16729
907.208	16812
907.324	16694
907.441	16637
907.557	16417
907.674	16329
907.79	16333
907.907	16333
908.023	16447
908.139	16394
908.256	16265
908.372	16242
908.488	16135
908.604	16036
908.72	16010
908.836	16158
908.952	16090
909.068	16010
909.184	16074
909.3	16086
909.415	16074
909.531	16044
909.647	15808
909.762	15690
909.878	15698
909.993	15755
910.108	15694
910.224	15675
910.339	15781
910.454	15599
910.57	15648
910.685	15488
910.8	15770
910.915	15663
911.03	15656
911.145	15424
911.259	15519
911.374	15302
911.489	15317
911.604	15226
911.718	15047
911.833	15146
911.947	15013
912.062	14933
912.176	15051
912.291	15131
912.405	15028
912.519	15211
912.633	15207
912.748	15032
912.862	15116
912.976	14849
913.09	14701
913.204	14895
913.318	14914
913.431	14990
913.545	14960
913.659	15077
913.772	14800
913.886	14792
914	14686
914.113	14811
914.226	14777
914.34	14796
914.453	14621
914.566	14792
914.68	14613
914.793	14640
914.906	14336
915.019	14328
915.132	14259
915.245	14370
915.358	14366
915.47	14377
915.583	14412
915.696	14400
915.809	14514
915.921	14495
916.034	14320
916.146	14298
916.259	14191
916.371	14366
916.483	14259
916.595	14210
916.708	14244
916.82	14282
916.932	14157
917.044	14145
917.156	14157
917.268	14077
917.38	14024
917.491	13974
917.603	14035
917.715	14107
917.826	14119
917.938	13993
918.049	13856
918.161	14054
918.272	14054
918.384	14111
918.495	13986
918.606	13944
918.717	13681
918.828	13715
918.939	13807
919.05	13677
919.161	13776
919.272	13556
919.383	13685
919.494	13822
919.604	13947
919.715	13750
919.826	13693
919.936	13693
920.047	13860
920.157	13727
920.267	13928
920.378	13708
920.488	13723
920.598	13826
920.708	13970
920.818	13951
920.928	13890
921.038	14046
921.148	13974
921.258	13765
921.368	13693
921.477	13521
921.587	13506
921.697	13441
921.806	13537
921.916	13369
922.025	13190
922.134	13209
922.244	13084
922.353	13099
922.462	13008
922.571	12878
922.68	12776
922.789	12768
922.898	12787
923.007	12730
923.116	12768
923.224	12688
923.333	12745
923.442	12547
923.55	12559
923.659	12604
923.767	12540
923.876	12486
923.984	12608
924.092	12437
924.201	12494
924.309	12506
924.417	12525
924.525	12456
924.633	12414
924.741	13183
924.849	12247
924.956	12403
925.064	12323
925.172	12182
925.279	12155
925.387	12228
925.494	12152
925.602	12304
925.709	12209
925.816	12057
925.924	12262
926.031	12323
926.138	12197
926.245	12155
926.352	12125
926.459	12239
926.566	12281
926.673	12095
926.779	11916
926.886	12003
926.993	11897
927.099	11882
927.206	11843
927.312	11794
927.419	11786
927.525	11760
927.631	11828
927.737	11680
927.843	11630
927.95	11551
928.056	11676
928.162	11756
928.267	11703
928.373	12342
928.479	11733
928.585	11406
928.69	11604
928.796	11684
928.901	11581
929.007	11364
929.112	11474
929.218	11551
929.323	11368
929.428	11410
929.533	11524
929.638	11303
929.743	11387
929.848	11391
929.953	11315
930.058	11212
930.163	11128
930.267	11151
930.372	11204
930.477	10984
930.581	11269
930.685	11128
930.79	11064
930.894	11025
930.998	10915
931.103	11181
931.207	10710
931.311	10714
931.415	10542
931.519	10344
931.623	10352
