Data from test_V78500241_2974.txt Node
Date: Fri Mar 25 15:30:34 CST 2022
User: usil
Spectrometer: V785-0024
Trigger mode: 0
Integration Time (sec): 4.000000E-1
Scans to average: 1
Nonlinearity correction enabled: false
Boxcar width: 0
Storing dark spectrum: false
XAxis mode: Wavelengths
Number of Pixels in Spectrum: 1024
>>>>>Begin Spectral Data<<<<<
801.071	27047
801.214	27093
801.356	26872
801.499	26765
801.641	26636
801.783	26579
801.926	26602
802.068	26606
802.211	26450
802.353	26446
802.496	26320
802.638	26438
802.78	26157
802.923	26202
803.065	26073
803.208	26073
803.35	26199
803.492	26533
803.635	26336
803.777	26339
803.919	26457
804.061	26777
804.204	26370
804.346	26332
804.488	26263
804.63	26385
804.773	26282
804.915	26366
805.057	26568
805.199	26400
805.341	26514
805.483	26560
805.626	26549
805.768	26495
805.91	26648
806.052	26492
806.194	26484
806.336	26644
806.478	26579
806.62	26480
806.762	26651
806.904	26686
807.046	26998
807.188	26937
807.33	27055
807.472	27028
807.614	26777
807.756	26963
807.898	26708
808.04	26701
808.182	26777
808.324	26762
808.465	26648
808.607	26906
808.749	27100
808.891	27199
809.033	27275
809.174	27070
809.316	27100
809.458	27116
809.6	26986
809.741	27218
809.883	27351
810.025	27329
810.166	27420
810.308	27325
810.45	27374
810.591	27348
810.733	27176
810.875	27062
811.016	27131
811.158	27096
811.299	27207
811.441	27180
811.582	27317
811.724	27043
811.865	27161
812.007	27013
812.148	27176
812.29	27142
812.431	27336
812.573	27233
812.714	27443
812.855	27610
812.997	27766
813.138	27797
813.279	27701
813.421	27610
813.562	27401
813.703	27424
813.845	27188
813.986	26998
814.127	26883
814.268	26864
814.41	26845
814.551	26689
814.692	26849
814.833	26724
814.974	26678
815.115	26705
815.256	26613
815.397	26537
815.539	26560
815.68	26602
815.821	26492
815.962	26560
816.103	26594
816.244	26362
816.385	26328
816.526	26305
816.666	26142
816.807	25875
816.948	26119
817.089	26092
817.23	26027
817.371	25959
817.512	25986
817.653	26069
817.793	25944
817.934	26031
818.075	25982
818.216	26046
818.356	25932
818.497	25890
818.638	25715
818.778	25753
818.919	25746
819.06	25928
819.2	25868
819.341	26065
819.481	25852
819.622	26111
819.762	26324
819.903	26142
820.043	26298
820.184	26115
820.324	26096
820.465	26187
820.605	26096
820.746	26081
820.886	25932
821.026	25963
821.167	26081
821.307	26134
821.447	25746
821.588	25951
821.728	25925
821.868	25712
822.008	25350
822.149	25457
822.289	25426
822.429	25377
822.569	25122
822.709	25168
822.849	24970
822.99	24848
823.13	24848
823.27	24947
823.41	24810
823.55	24700
823.69	24779
823.83	24829
823.97	24684
824.11	24505
824.25	24608
824.389	24521
824.529	24604
824.669	24719
824.809	24563
824.949	24658
825.089	24620
825.228	24741
825.368	24315
825.508	24285
825.648	24532
825.787	24555
825.927	24547
826.067	24296
826.206	24399
826.346	24471
826.485	24498
826.625	24445
826.765	24441
826.904	24498
827.044	24277
827.183	24247
827.323	24174
827.462	24262
827.601	24197
827.741	24197
827.88	24194
828.02	24057
828.159	24091
828.298	24087
828.437	24186
828.577	24015
828.716	24323
828.855	24091
828.994	23741
829.134	23893
829.273	23893
829.412	23760
829.551	23748
829.69	23977
829.829	23859
829.968	24060
830.107	23874
830.246	23935
830.385	23729
830.524	23741
830.663	23653
830.802	23699
830.941	23497
831.08	23551
831.219	23512
831.357	23417
831.496	23634
831.635	23448
831.774	23356
831.913	23250
832.051	23220
832.19	23239
832.329	23223
832.467	23200
832.606	22965
832.744	23162
832.883	23052
833.022	23060
833.16	23250
833.299	23223
833.437	23162
833.576	23086
833.714	23303
833.852	23060
833.991	23280
834.129	23200
834.267	23223
834.406	23200
834.544	23280
834.682	23174
834.821	23128
834.959	23410
835.097	23200
835.235	23212
835.373	23159
835.511	23170
835.65	23094
835.788	23018
835.926	22930
836.064	22839
836.202	22900
836.34	23003
836.478	23079
836.615	22896
836.753	23064
836.891	23044
837.029	22953
837.167	23052
837.305	22908
837.443	22820
837.58	22953
837.718	22961
837.856	22866
837.993	22797
838.131	22843
838.269	22713
838.406	22596
838.544	22668
838.681	22622
838.819	22557
838.956	22367
839.094	22280
839.231	22337
839.369	22607
839.506	22675
839.643	22466
839.781	22200
839.918	22299
840.055	22287
840.193	22268
840.33	22337
840.467	22341
840.604	22234
840.742	22557
840.879	22261
841.016	22185
841.153	22116
841.29	22348
841.427	22219
841.564	22268
841.701	22344
841.838	22166
841.975	22230
842.112	22173
842.249	22238
842.385	22105
842.522	22291
842.659	22143
842.796	22051
842.933	22112
843.069	21949
843.206	21968
843.343	22078
843.479	21956
843.616	22051
843.752	21861
843.889	21895
844.025	21899
844.162	21804
844.298	21888
844.435	21762
844.571	21797
844.708	21812
844.844	21876
844.98	21968
845.117	21926
845.253	21690
845.389	21660
845.525	21709
845.661	21637
845.798	21523
845.934	21576
846.07	21587
846.206	21625
846.342	21618
846.478	21450
846.614	21348
846.75	21203
846.886	21272
847.022	21386
847.158	21340
847.294	21237
847.429	21370
847.565	21275
847.701	21523
847.837	21051
847.972	21009
848.108	21123
848.244	21070
848.379	21051
848.515	20952
848.65	20811
848.786	20948
848.921	20861
849.057	20967
849.192	20910
849.328	20933
849.463	20823
849.598	20815
849.734	20788
849.869	20689
850.004	20545
850.14	20731
850.275	20625
850.41	20556
850.545	20545
850.68	20598
850.815	20590
850.95	20693
851.085	20861
851.22	20724
851.355	20720
851.49	20693
851.625	20590
851.76	20587
851.895	20590
852.03	20590
852.165	20689
852.299	20629
852.434	20765
852.569	20587
852.703	20564
852.838	20758
852.973	20777
853.107	20785
853.242	20549
853.376	20469
853.511	20362
853.645	20438
853.78	20594
853.914	20533
854.048	20438
854.183	20476
854.317	20511
854.451	20769
854.585	20454
854.72	20431
854.854	20648
854.988	20370
855.122	20514
855.256	20355
855.39	20381
855.524	20590
855.658	20400
855.792	20465
855.926	20412
856.06	20438
856.194	20518
856.327	20419
856.461	20442
856.595	20457
856.729	20446
856.862	20495
856.996	20480
857.13	20549
857.263	20651
857.397	20499
857.53	20476
857.664	20423
857.797	20663
857.931	20598
858.064	20492
858.197	20537
858.331	20461
858.464	20313
858.597	20374
858.731	20309
858.864	20476
858.997	20317
859.13	20393
859.263	20476
859.396	20579
859.529	20427
859.662	20499
859.795	20400
859.928	20396
860.061	20564
860.194	20682
860.327	20492
860.46	20492
860.592	20541
860.725	20473
860.858	20503
860.99	20636
861.123	20298
861.256	20377
861.388	20400
861.521	21104
861.653	20351
861.786	20305
861.918	20301
862.05	20286
862.183	20427
862.315	20427
862.447	20415
862.58	20377
862.712	20168
862.844	20161
862.976	20248
863.108	20157
863.24	20583
863.372	20073
863.504	20244
863.636	20130
863.768	20187
863.9	20054
864.032	20202
864.164	20187
864.296	20081
864.428	20229
864.559	20248
864.691	20183
864.823	20180
864.954	20176
865.086	20149
865.217	20005
865.349	19936
865.48	20024
865.612	20115
865.743	20103
865.875	20012
866.006	20024
866.137	20161
866.269	19986
866.4	20187
866.531	20039
866.662	20111
866.793	19940
866.924	20092
867.055	19989
867.186	19986
867.317	20027
867.448	19932
867.579	19970
867.71	19982
867.841	19822
867.972	20046
868.103	19982
868.233	20008
868.364	19967
868.495	20122
868.625	20275
868.756	20404
868.886	20088
869.017	20309
869.147	20206
869.278	20355
869.408	20248
869.539	20183
869.669	20374
869.799	20336
869.929	20259
870.06	20427
870.19	20659
870.32	20568
870.45	20602
870.58	20602
870.71	20697
870.84	20796
870.97	20697
871.1	20762
871.23	20807
871.36	20929
871.489	20739
871.619	20754
871.749	20796
871.879	20994
872.008	21001
872.138	20864
872.267	20785
872.397	20693
872.526	20651
872.656	20674
872.785	20727
872.915	20933
873.044	20872
873.173	20990
873.303	20887
873.432	20906
873.561	21036
873.69	20971
873.819	20781
873.948	20925
874.077	20853
874.206	20804
874.335	20899
874.464	21043
874.593	21237
874.722	21085
874.851	21116
874.979	21142
875.108	21085
875.237	21127
875.365	21089
875.494	21024
875.623	21131
875.751	21100
875.88	21199
876.008	21317
876.136	21211
876.265	21591
876.393	21652
876.521	21637
876.65	21561
876.778	21625
876.906	21485
877.034	21576
877.162	21500
877.29	21412
877.418	21564
877.546	21526
877.674	21485
877.802	21439
877.93	21367
878.058	21500
878.185	21332
878.313	21378
878.441	21386
878.568	21268
878.696	21458
878.824	21492
878.951	21561
879.079	21686
879.206	21781
879.333	21660
879.461	21538
879.588	21568
879.715	21705
879.842	21770
879.97	21488
880.097	21382
880.224	21325
880.351	21367
880.478	21424
880.605	21393
880.732	21306
880.859	21542
880.986	21184
881.112	21420
881.239	21169
881.366	21116
881.493	21093
881.619	20876
881.746	20895
881.872	20925
881.999	20815
882.125	20750
882.252	20921
882.378	20785
882.505	20925
882.631	20754
882.757	20526
882.883	20720
883.01	20632
883.136	20613
883.262	20541
883.388	20404
883.514	20587
883.64	20670
883.766	20545
883.892	20404
884.018	20484
884.143	20446
884.269	20735
884.395	20324
884.52	20221
884.646	20237
884.772	20206
884.897	20119
885.023	20427
885.148	20377
885.274	20362
885.399	20271
885.524	20286
885.65	20233
885.775	20195
885.9	20180
886.025	20339
886.15	20309
886.275	20256
886.4	20138
886.525	20366
886.65	20168
886.775	20202
886.9	20294
887.025	20537
887.149	20210
887.274	20115
887.399	20008
887.523	20027
887.648	19951
887.773	20073
887.897	20202
888.021	20077
888.146	19967
888.27	20115
888.395	20103
888.519	20119
888.643	20119
888.767	20039
888.891	19944
889.015	19909
889.139	19894
889.263	19925
889.387	19940
889.511	20016
889.635	19947
889.759	19879
889.883	19856
890.006	19761
890.13	20027
890.254	19643
890.377	19860
890.501	19506
890.624	19544
890.748	19658
890.871	19605
890.995	19460
891.118	19468
891.241	19407
891.364	19464
891.488	19590
891.611	19324
891.734	19453
891.857	19449
891.98	19449
892.103	19502
892.226	19460
892.349	19396
892.471	19381
892.594	19320
892.717	19362
892.839	19407
892.962	19377
893.085	19449
893.207	19369
893.33	19346
893.452	19266
893.575	19400
893.697	19266
893.819	19480
893.941	19506
894.064	19540
894.186	19251
894.308	19324
894.43	19392
894.552	19525
894.674	19419
894.796	19266
894.918	19384
895.04	19274
895.161	19487
895.283	19472
895.405	19278
895.526	19449
895.648	19362
895.769	19419
895.891	19362
896.012	19476
896.134	19350
896.255	19419
896.376	19346
896.498	19365
896.619	19422
896.74	19392
896.861	19419
896.982	19670
897.103	19860
897.224	19658
897.345	19582
897.466	19597
897.587	19620
897.708	19776
897.828	19708
897.949	19662
898.07	19552
898.19	19559
898.311	19693
898.431	19537
898.552	19685
898.672	19696
898.792	19788
898.913	19677
899.033	19495
899.153	19415
899.273	19362
899.393	19316
899.513	19422
899.633	19388
899.753	19499
899.873	19327
899.993	19506
900.113	19297
900.232	19301
900.352	19244
900.472	19301
900.591	19183
900.711	19232
900.83	19126
900.95	19293
901.069	19240
901.189	19114
901.308	18928
901.427	18730
901.546	18730
901.665	18817
901.784	18764
901.904	18730
902.023	18620
902.141	18346
902.26	18311
902.379	18479
902.498	18304
902.617	18273
902.735	18471
902.854	18224
902.973	18319
903.091	18087
903.21	17988
903.328	17992
903.446	17893
903.565	17760
903.683	17729
903.801	17714
903.919	17619
904.038	17695
904.156	17524
904.274	17714
904.392	17535
904.51	17604
904.627	17539
904.745	17543
904.863	17562
904.981	17421
905.098	17239
905.216	17193
905.334	17326
905.451	17277
905.569	17299
905.686	17235
905.803	17250
905.921	17056
906.038	17170
906.155	16949
906.272	16858
906.389	17006
906.506	16782
906.623	16774
906.74	16755
906.857	16672
906.974	16691
907.091	16831
907.208	16995
907.324	16816
907.441	16558
907.557	16546
907.674	16630
907.79	16322
907.907	16440
908.023	16550
908.139	16417
908.256	16443
908.372	16310
908.488	16329
908.604	16177
908.72	16200
908.836	16329
908.952	16162
909.068	16246
909.184	16265
909.3	16253
909.415	16333
909.531	16158
909.647	16006
909.762	15922
909.878	15964
909.993	16021
910.108	15907
910.224	15831
910.339	15964
910.454	15766
910.57	15861
910.685	15580
910.8	15918
910.915	15861
911.03	15785
911.145	15587
911.259	15584
911.374	15553
911.489	15530
911.604	15374
911.718	15256
911.833	15291
911.947	15157
912.062	15306
912.176	15317
912.291	15355
912.405	15466
912.519	15557
912.633	15420
912.748	15317
912.862	15230
912.976	15142
913.09	14902
913.204	15017
913.318	15138
913.431	15176
913.545	15150
913.659	15150
913.772	15123
913.886	14960
914	14902
914.113	14971
914.226	15093
914.34	15017
914.453	14937
914.566	14914
914.68	14739
914.793	14834
914.906	14541
915.019	14480
915.132	14503
915.245	14583
915.358	14415
915.47	14503
915.583	14541
915.696	14594
915.809	14636
915.921	14682
916.034	14503
916.146	14408
916.259	14396
916.371	14526
916.483	14465
916.595	14434
916.708	14381
916.82	14301
916.932	14442
917.044	14256
917.156	14328
917.268	14168
917.38	14218
917.491	14259
917.603	14134
917.715	14252
917.826	14358
917.938	14214
918.049	14012
918.161	14240
918.272	14225
918.384	14286
918.495	14153
918.606	14092
918.717	13947
918.828	13997
918.939	14077
919.05	13883
919.161	13970
919.272	13791
919.383	13871
919.494	14035
919.604	14145
919.715	14008
919.826	13799
919.936	13944
920.047	13982
920.157	13902
920.267	14088
920.378	13974
920.488	13890
920.598	14069
920.708	14263
920.818	14062
920.928	14145
921.038	14240
921.148	14081
921.258	14050
921.368	13856
921.477	13704
921.587	13731
921.697	13624
921.806	13658
921.916	13578
922.025	13396
922.134	13301
922.244	13324
922.353	13453
922.462	13228
922.571	13236
922.68	13164
922.789	13072
922.898	13050
923.007	12966
923.116	13050
923.224	12947
923.333	12932
923.442	12844
923.55	12829
923.659	12810
923.767	12840
923.876	12840
923.984	12856
924.092	12825
924.201	12859
924.309	12772
924.417	12715
924.525	12684
924.633	12612
924.741	13544
924.849	12479
924.956	12620
925.064	12506
925.172	12384
925.279	12536
925.387	12498
925.494	12464
925.602	12513
925.709	12471
925.816	12296
925.924	12327
926.031	12513
926.138	12460
926.245	12445
926.352	12422
926.459	12311
926.566	12513
926.673	12338
926.779	12228
926.886	12178
926.993	12152
927.099	12095
927.206	11977
927.312	12038
927.419	12072
927.525	11980
927.631	12064
927.737	11912
927.843	11889
927.95	11817
928.056	11878
928.162	11920
928.267	11958
928.373	12483
928.479	11935
928.585	11714
928.69	11897
928.796	11821
928.901	11703
929.007	11630
929.112	11764
929.218	11680
929.323	11691
929.428	11547
929.533	11771
929.638	11524
929.743	11642
929.848	11608
929.953	11558
930.058	11448
930.163	11292
930.267	11261
930.372	11444
930.477	11197
930.581	11463
930.685	11284
930.79	11204
930.894	11189
930.998	11178
931.103	11292
931.207	10923
931.311	10896
931.415	10782
931.519	10607
931.623	10546
