Data from test_V78500241_2675.txt Node
Date: Fri Mar 25 15:28:29 CST 2022
User: usil
Spectrometer: V785-0024
Trigger mode: 0
Integration Time (sec): 4.000000E-1
Scans to average: 1
Nonlinearity correction enabled: false
Boxcar width: 0
Storing dark spectrum: false
XAxis mode: Wavelengths
Number of Pixels in Spectrum: 1024
>>>>>Begin Spectral Data<<<<<
801.071	27036
801.214	26777
801.356	26640
801.499	26629
801.641	26453
801.783	26442
801.926	26590
802.068	26488
802.211	26381
802.353	26412
802.496	26214
802.638	25986
802.78	26065
802.923	26058
803.065	26005
803.208	26077
803.35	26130
803.492	26256
803.635	26271
803.777	26176
803.919	26081
804.061	26579
804.204	26381
804.346	26187
804.488	26142
804.63	26298
804.773	26176
804.915	26111
805.057	26278
805.199	26195
805.341	26347
805.483	26313
805.626	26282
805.768	26225
805.91	26476
806.052	26355
806.194	26339
806.336	26366
806.478	26229
806.62	26168
806.762	26442
806.904	26522
807.046	26777
807.188	26773
807.33	26708
807.472	26792
807.614	26644
807.756	26530
807.898	26571
808.04	26617
808.182	26507
808.324	26564
808.465	26720
808.607	26937
808.749	26781
808.891	26971
809.033	27096
809.174	27043
809.316	26948
809.458	26906
809.6	26830
809.741	27043
809.883	27116
810.025	27192
810.166	27287
810.308	27275
810.45	27108
810.591	27138
810.733	26887
810.875	26902
811.016	26872
811.158	26834
811.299	26967
811.441	27112
811.582	27123
811.724	26796
811.865	26845
812.007	26800
812.148	26845
812.29	26925
812.431	26918
812.573	27222
812.714	27351
812.855	27348
812.997	27507
813.138	27534
813.279	27420
813.421	27237
813.562	27287
813.703	27237
813.845	27081
813.986	26750
814.127	26689
814.268	26769
814.41	26621
814.551	26503
814.692	26617
814.833	26480
814.974	26583
815.115	26636
815.256	26343
815.397	26507
815.539	26404
815.68	26275
815.821	26240
815.962	26290
816.103	26358
816.244	26259
816.385	26100
816.526	26024
816.666	25966
816.807	25788
816.948	25811
817.089	25986
817.23	25868
817.371	25852
817.512	25791
817.653	25875
817.793	25613
817.934	25803
818.075	25818
818.216	25811
818.356	25738
818.497	25632
818.638	25518
818.778	25540
818.919	25518
819.06	25624
819.2	25594
819.341	25776
819.481	25811
819.622	25963
819.762	26195
819.903	25852
820.043	26027
820.184	25936
820.324	25837
820.465	26024
820.605	25837
820.746	25837
820.886	25753
821.026	25906
821.167	25841
821.307	25887
821.447	25753
821.588	25803
821.728	25597
821.868	25449
822.008	25346
822.149	25460
822.289	25289
822.429	25145
822.569	25061
822.709	24992
822.849	24753
822.99	24726
823.13	24661
823.27	24772
823.41	24700
823.55	24456
823.69	24620
823.83	24540
823.97	24422
824.11	24372
824.25	24285
824.389	24403
824.529	24407
824.669	24357
824.809	24521
824.949	24441
825.089	24418
825.228	24513
825.368	24289
825.508	24254
825.648	24213
825.787	24300
825.927	24395
826.067	24254
826.206	24247
826.346	24319
826.485	24228
826.625	24330
826.765	24399
826.904	24426
827.044	24038
827.183	24038
827.323	23996
827.462	23942
827.601	23866
827.741	23889
827.88	24007
828.02	23752
828.159	24041
828.298	23969
828.437	24068
828.577	23950
828.716	23984
828.855	23859
828.994	23623
829.134	23722
829.273	23649
829.412	23623
829.551	23558
829.69	23611
829.829	23726
829.968	23687
830.107	23672
830.246	23596
830.385	23573
830.524	23634
830.663	23554
830.802	23391
830.941	23254
831.08	23349
831.219	23433
831.357	23341
831.496	23608
831.635	23239
831.774	23121
831.913	23151
832.051	23094
832.19	23029
832.329	23006
832.467	22968
832.606	22957
832.744	22873
832.883	22991
833.022	22881
833.16	23003
833.299	23037
833.437	23018
833.576	23075
833.714	22984
833.852	23064
833.991	23128
834.129	23098
834.267	23208
834.406	23151
834.544	22949
834.682	23121
834.821	22995
834.959	23265
835.097	23003
835.235	23102
835.373	23022
835.511	23083
835.65	22961
835.788	22984
835.926	22702
836.064	22694
836.202	22759
836.34	22930
836.478	22961
836.615	22843
836.753	22797
836.891	23060
837.029	22923
837.167	22828
837.305	22763
837.443	22812
837.58	22698
837.718	22755
837.856	22881
837.993	22596
838.131	22774
838.269	22668
838.406	22634
838.544	22565
838.681	22424
838.819	22428
838.956	22185
839.094	22120
839.231	22333
839.369	22382
839.506	22668
839.643	22417
839.781	22246
839.918	22200
840.055	22257
840.193	22169
840.33	22040
840.467	22150
840.604	22200
840.742	22527
840.879	22120
841.016	22067
841.153	22070
841.29	22234
841.427	22192
841.564	22200
841.701	22074
841.838	22013
841.975	22124
842.112	22044
842.249	22025
842.385	22006
842.522	22204
842.659	22051
842.796	21968
842.933	21857
843.069	21964
843.206	21865
843.343	21956
843.479	21926
843.616	21987
843.752	21587
843.889	21724
844.025	21838
844.162	21648
844.298	21812
844.435	21793
844.571	21583
844.708	21675
844.844	21808
844.98	21838
845.117	21751
845.253	21595
845.389	21595
845.525	21614
845.661	21622
845.798	21321
845.934	21545
846.07	21382
846.206	21462
846.342	21595
846.478	21325
846.614	21176
846.75	21188
846.886	21161
847.022	21294
847.158	21226
847.294	21184
847.429	21199
847.565	21203
847.701	21469
847.837	20891
847.972	20952
848.108	21013
848.244	21070
848.379	20777
848.515	20693
848.65	20743
848.786	20731
848.921	20838
849.057	20975
849.192	20944
849.328	20705
849.463	20815
849.598	20826
849.734	20617
849.869	20587
850.004	20492
850.14	20518
850.275	20571
850.41	20568
850.545	20518
850.68	20442
850.815	20587
850.95	20530
851.085	20720
851.22	20640
851.355	20549
851.49	20552
851.625	20522
851.76	20511
851.895	20533
852.03	20454
852.165	20495
852.299	20594
852.434	20625
852.569	20560
852.703	20541
852.838	20625
852.973	20629
853.107	20689
853.242	20484
853.376	20381
853.511	20252
853.645	20423
853.78	20351
853.914	20305
854.048	20290
854.183	20332
854.317	20263
854.451	20590
854.585	20427
854.72	20423
854.854	20408
854.988	20218
855.122	20336
855.256	20275
855.39	20362
855.524	20404
855.658	20408
855.792	20438
855.926	20393
856.06	20415
856.194	20431
856.327	20256
856.461	20259
856.595	20229
856.729	20161
856.862	20454
856.996	20427
857.13	20377
857.263	20511
857.397	20473
857.53	20298
857.664	20324
857.797	20488
857.931	20412
858.064	20366
858.197	20427
858.331	20271
858.464	20233
858.597	20351
858.731	20172
858.864	20317
858.997	20278
859.13	20324
859.263	20290
859.396	20423
859.529	20370
859.662	20347
859.795	20172
859.928	20218
860.061	20476
860.194	20473
860.327	20396
860.46	20355
860.592	20495
860.725	20442
860.858	20499
860.99	20431
861.123	20256
861.256	20332
861.388	20248
861.521	20979
861.653	20176
861.786	20206
861.918	20126
862.05	20202
862.183	20324
862.315	20317
862.447	20366
862.58	20366
862.712	19997
862.844	20096
862.976	20126
863.108	20199
863.24	20495
863.372	19898
863.504	19967
863.636	20058
863.768	20122
863.9	20092
864.032	20069
864.164	20073
864.296	20126
864.428	20218
864.559	20119
864.691	20172
864.823	20031
864.954	19989
865.086	20103
865.217	20058
865.349	19890
865.48	20065
865.612	19936
865.743	20069
865.875	20005
866.006	19963
866.137	20001
866.269	20050
866.4	19978
866.531	19921
866.662	19963
866.793	19955
866.924	19837
867.055	19845
867.186	19826
867.317	19913
867.448	19898
867.579	19868
867.71	19807
867.841	19947
867.972	19925
868.103	19860
868.233	19932
868.364	19849
868.495	19967
868.625	20164
868.756	20183
868.886	20126
869.017	20149
869.147	20229
869.278	20233
869.408	20214
869.539	20149
869.669	20256
869.799	20206
869.929	20336
870.06	20290
870.19	20404
870.32	20465
870.45	20594
870.58	20518
870.71	20727
870.84	20693
870.97	20549
871.1	20617
871.23	20830
871.36	20785
871.489	20632
871.619	20735
871.749	20788
871.879	20765
872.008	20918
872.138	20769
872.267	20708
872.397	20655
872.526	20609
872.656	20598
872.785	20522
872.915	20689
873.044	20960
873.173	20758
873.303	20853
873.432	20918
873.561	20925
873.69	20724
873.819	20735
873.948	20876
874.077	20792
874.206	20777
874.335	20845
874.464	20883
874.593	20906
874.722	20956
874.851	21055
874.979	20982
875.108	21085
875.237	21055
875.365	20819
875.494	20941
875.623	21104
875.751	20963
875.88	21127
876.008	21218
876.136	21256
876.265	21507
876.393	21519
876.521	21587
876.65	21382
876.778	21439
876.906	21412
877.034	21424
877.162	21416
877.29	21378
877.418	21370
877.546	21348
877.674	21306
877.802	21401
877.93	21526
878.058	21321
878.185	21230
878.313	21180
878.441	21321
878.568	21199
878.696	21359
878.824	21481
878.951	21374
879.079	21576
879.206	21614
879.333	21625
879.461	21435
879.588	21553
879.715	21435
879.842	21759
879.97	21469
880.097	21230
880.224	21085
880.351	21256
880.478	21233
880.605	21165
880.732	21336
880.859	21397
880.986	21173
881.112	21287
881.239	21074
881.366	20967
881.493	21013
881.619	20845
881.746	20864
881.872	20777
881.999	20735
882.125	20758
882.252	20804
882.378	20823
882.505	20994
882.631	20716
882.757	20587
882.883	20507
883.01	20541
883.136	20484
883.262	20358
883.388	20400
883.514	20549
883.64	20469
883.766	20492
883.892	20343
884.018	20362
884.143	20446
884.269	20385
884.395	20286
884.52	20122
884.646	20256
884.772	20180
884.897	20115
885.023	20206
885.148	20290
885.274	20286
885.399	20214
885.524	20214
885.65	20206
885.775	20218
885.9	20073
886.025	20328
886.15	20408
886.275	20172
886.4	20012
886.525	20305
886.65	20122
886.775	20092
886.9	20267
887.025	20347
887.149	20081
887.274	20012
887.399	19883
887.523	19986
887.648	19849
887.773	19871
887.897	20088
888.021	20016
888.146	19928
888.27	20020
888.395	19993
888.519	19967
888.643	19970
888.767	19868
888.891	19902
889.015	19769
889.139	19864
889.263	19681
889.387	19894
889.511	19936
889.635	19989
889.759	19628
889.883	19814
890.006	19780
890.13	19811
890.254	19712
890.377	19586
890.501	19533
890.624	19426
890.748	19578
890.871	19453
890.995	19297
891.118	19251
891.241	19384
891.364	19244
891.488	19381
891.611	19350
891.734	19373
891.857	19392
891.98	19339
892.103	19514
892.226	19324
892.349	19331
892.471	19141
892.594	19217
892.717	19312
892.839	19232
892.962	19266
893.085	19259
893.207	19232
893.33	19156
893.452	19202
893.575	19285
893.697	19209
893.819	19392
893.941	19457
894.064	19320
894.186	19297
894.308	19213
894.43	19365
894.552	19419
894.674	19270
894.796	19133
894.918	19160
895.04	19259
895.161	19365
895.283	19198
895.405	19194
895.526	19289
895.648	19209
895.769	19289
895.891	19289
896.012	19335
896.134	19297
896.255	19324
896.376	19194
896.498	19285
896.619	19251
896.74	19183
896.861	19331
896.982	19658
897.103	19841
897.224	19613
897.345	19468
897.466	19438
897.587	19540
897.708	19620
897.828	19544
897.949	19506
898.07	19407
898.19	19422
898.311	19643
898.431	19495
898.552	19396
898.672	19544
898.792	19616
898.913	19453
899.033	19381
899.153	19358
899.273	19156
899.393	19259
899.513	19339
899.633	19259
899.753	19327
899.873	19278
899.993	19381
900.113	19240
900.232	19156
900.352	19274
900.472	19095
900.591	19069
900.711	19057
900.83	19084
900.95	19190
901.069	19198
901.189	19019
901.308	18795
901.427	18642
901.546	18604
901.665	18669
901.784	18623
901.904	18521
902.023	18540
902.141	18243
902.26	18289
902.379	18209
902.498	18186
902.617	18178
902.735	18273
902.854	18186
902.973	18095
903.091	17885
903.21	17885
903.328	17908
903.446	17737
903.565	17745
903.683	17699
903.801	17558
903.919	17653
904.038	17573
904.156	17455
904.274	17490
904.392	17414
904.51	17436
904.627	17364
904.745	17398
904.863	17512
904.981	17326
905.098	17117
905.216	17136
905.334	17124
905.451	17098
905.569	17037
905.686	17143
905.803	17064
905.921	16930
906.038	17041
906.155	16927
906.272	16805
906.389	16866
906.506	16698
906.623	16615
906.74	16687
906.857	16558
906.974	16622
907.091	16759
907.208	16706
907.324	16687
907.441	16531
907.557	16424
907.674	16375
907.79	16489
907.907	16360
908.023	16367
908.139	16371
908.256	16398
908.372	16409
908.488	16272
908.604	16147
908.72	16204
908.836	16177
908.952	16116
909.068	16101
909.184	16310
909.3	16101
909.415	16169
909.531	16093
909.647	15972
909.762	15876
909.878	15850
909.993	15857
910.108	15812
910.224	15808
910.339	15755
910.454	15732
910.57	15690
910.685	15629
910.8	15915
910.915	15766
911.03	15587
911.145	15542
911.259	15431
911.374	15515
911.489	15397
911.604	15272
911.718	15173
911.833	15180
911.947	15051
912.062	15165
912.176	15230
912.291	15211
912.405	15279
912.519	15435
912.633	15359
912.748	15184
912.862	15218
912.976	15062
913.09	14941
913.204	15005
913.318	15047
913.431	15161
913.545	15100
913.659	15100
913.772	14914
913.886	14769
914	14861
914.113	14819
914.226	14933
914.34	14876
914.453	14693
914.566	14807
914.68	14667
914.793	14735
914.906	14571
915.019	14454
915.132	14389
915.245	14362
915.358	14450
915.47	14434
915.583	14355
915.696	14484
915.809	14480
915.921	14564
916.034	14434
916.146	14351
916.259	14332
916.371	14473
916.483	14355
916.595	14278
916.708	14309
916.82	14286
916.932	14259
917.044	14256
917.156	14282
917.268	14130
917.38	14214
917.491	14149
917.603	14183
917.715	14191
917.826	14218
917.938	14012
918.049	14001
918.161	13974
918.272	14271
918.384	14278
918.495	14024
918.606	14001
918.717	13833
918.828	13913
918.939	14069
919.05	13833
919.161	13913
919.272	13696
919.383	13719
919.494	14008
919.604	14054
919.715	13890
919.826	13791
919.936	13868
920.047	13947
920.157	13864
920.267	14008
920.378	13883
920.488	13841
920.598	14031
920.708	14084
920.818	13989
920.928	13928
921.038	14123
921.148	14126
921.258	13826
921.368	13814
921.477	13639
921.587	13548
921.697	13422
921.806	13537
921.916	13567
922.025	13346
922.134	13331
922.244	13259
922.353	13316
922.462	13141
922.571	13053
922.68	12905
922.789	12897
922.898	12951
923.007	12867
923.116	12951
923.224	12973
923.333	12878
923.442	12783
923.55	12779
923.659	12791
923.767	12814
923.876	12810
923.984	12776
924.092	12658
924.201	12703
924.309	12711
924.417	12669
924.525	12627
924.633	12719
924.741	13556
924.849	12471
924.956	12612
925.064	12441
925.172	12285
925.279	12376
925.387	12395
925.494	12467
925.602	12467
925.709	12490
925.816	12304
925.924	12296
926.031	12342
926.138	12327
926.245	12376
926.352	12258
926.459	12399
926.566	12441
926.673	12315
926.779	12125
926.886	12186
926.993	12060
927.099	11973
927.206	11980
927.312	11950
927.419	11958
927.525	11885
927.631	12038
927.737	11870
927.843	11855
927.95	11733
928.056	11878
928.162	11779
928.267	11832
928.373	12342
928.479	11859
928.585	11570
928.69	11794
928.796	11832
928.901	11665
929.007	11516
929.112	11676
929.218	11657
929.323	11551
929.428	11535
929.533	11684
929.638	11455
929.743	11486
929.848	11554
929.953	11486
930.058	11364
930.163	11220
930.267	11189
930.372	11440
930.477	11318
930.581	11516
930.685	11303
930.79	11143
930.894	11075
930.998	11109
931.103	11208
931.207	10908
931.311	10873
931.415	10740
931.519	10554
931.623	10535
