Data from test_V78500241_91.txt Node
Date: Fri Mar 25 15:10:29 CST 2022
User: usil
Spectrometer: V785-0024
Trigger mode: 0
Integration Time (sec): 4.000000E-1
Scans to average: 1
Nonlinearity correction enabled: false
Boxcar width: 0
Storing dark spectrum: false
XAxis mode: Wavelengths
Number of Pixels in Spectrum: 1024
>>>>>Begin Spectral Data<<<<<
801.071	28287
801.214	28356
801.356	28135
801.499	28002
801.641	27911
801.783	27979
801.926	27937
802.068	27964
802.211	27846
802.353	27816
802.496	27576
802.638	27568
802.78	27572
802.923	27317
803.065	27458
803.208	27481
803.35	27576
803.492	27462
803.635	27667
803.777	27561
803.919	27633
804.061	27956
804.204	27641
804.346	27416
804.488	27424
804.63	27576
804.773	27386
804.915	27572
805.057	27717
805.199	27549
805.341	27622
805.483	27469
805.626	27576
805.768	27534
805.91	27652
806.052	27625
806.194	27427
806.336	27759
806.478	27576
806.62	27663
806.762	27663
806.904	27835
807.046	28173
807.188	27949
807.33	27994
807.472	28044
807.614	27884
807.756	28063
807.898	27618
808.04	27732
808.182	27770
808.324	27789
808.465	27770
808.607	27930
808.749	27972
808.891	28215
809.033	28268
809.174	28223
809.316	28166
809.458	28185
809.6	28074
809.741	28253
809.883	28226
810.025	28337
810.166	28306
810.308	28417
810.45	28295
810.591	28257
810.733	28086
810.875	28090
811.016	28063
811.158	27907
811.299	27972
811.441	28329
811.582	28200
811.724	28097
811.865	28063
812.007	27960
812.148	28013
812.29	28025
812.431	28272
812.573	28417
812.714	28519
812.855	28542
812.997	28664
813.138	28805
813.279	28687
813.421	28611
813.562	28459
813.703	28428
813.845	28162
813.986	27964
814.127	27770
814.268	27709
814.41	27762
814.551	27736
814.692	27728
814.833	27701
814.974	27504
815.115	27751
815.256	27511
815.397	27393
815.539	27481
815.68	27427
815.821	27313
815.962	27469
816.103	27454
816.244	27192
816.385	27036
816.526	27165
816.666	27001
816.807	26925
816.948	26849
817.089	27013
817.23	26857
817.371	26845
817.512	26960
817.653	26895
817.793	26644
817.934	26876
818.075	26777
818.216	26727
818.356	26720
818.497	26682
818.638	26537
818.778	26659
818.919	26568
819.06	26533
819.2	26571
819.341	26758
819.481	26670
819.622	26834
819.762	27123
819.903	27116
820.043	26880
820.184	26880
820.324	26967
820.465	26914
820.605	26826
820.746	26823
820.886	26632
821.026	26739
821.167	26754
821.307	26796
821.447	26533
821.588	26693
821.728	26518
821.868	26317
822.008	26199
822.149	26240
822.289	26115
822.429	25879
822.569	25932
822.709	25811
822.849	25685
822.99	25807
823.13	25582
823.27	25544
823.41	25537
823.55	25457
823.69	25438
823.83	25460
823.97	25453
824.11	25183
824.25	25209
824.389	25354
824.529	25289
824.669	25225
824.809	25358
824.949	25301
825.089	25415
825.228	25232
825.368	25270
825.508	25088
825.648	25145
825.787	25050
825.927	25190
826.067	25057
826.206	24916
826.346	24924
826.485	25034
826.625	24920
826.765	25148
826.904	25050
827.044	24859
827.183	24791
827.323	24608
827.462	24639
827.601	24631
827.741	24684
827.88	24734
828.02	24601
828.159	24551
828.298	24582
828.437	24730
828.577	24631
828.716	24791
828.855	24620
828.994	24365
829.134	24399
829.273	24517
829.412	24403
829.551	24254
829.69	24536
829.829	24422
829.968	24525
830.107	24410
830.246	24426
830.385	24334
830.524	24182
830.663	24060
830.802	24174
830.941	23973
831.08	23946
831.219	24034
831.357	23931
831.496	24072
831.635	24045
831.774	23790
831.913	23817
832.051	23676
832.19	23707
832.329	23843
832.467	23649
832.606	23463
832.744	23653
832.883	23615
833.022	23463
833.16	23554
833.299	23585
833.437	23600
833.576	23619
833.714	23748
833.852	23729
833.991	23714
834.129	23687
834.267	23619
834.406	23672
834.544	23543
834.682	23638
834.821	23459
834.959	23684
835.097	23516
835.235	23699
835.373	23516
835.511	23524
835.65	23459
835.788	23562
835.926	23402
836.064	23200
836.202	23372
836.34	23395
836.478	23539
836.615	23372
836.753	23433
836.891	23455
837.029	23448
837.167	23414
837.305	23353
837.443	23178
837.58	23132
837.718	23322
837.856	23341
837.993	23220
838.131	23258
838.269	23128
838.406	23140
838.544	23033
838.681	22965
838.819	22854
838.956	22641
839.094	22641
839.231	22812
839.369	22809
839.506	22946
839.643	22843
839.781	22752
839.918	22622
840.055	22683
840.193	22584
840.33	22615
840.467	22603
840.604	22542
840.742	22828
840.879	22497
841.016	22557
841.153	22447
841.29	22561
841.427	22531
841.564	22535
841.701	22565
841.838	22428
841.975	22382
842.112	22470
842.249	22360
842.385	22257
842.522	22398
842.659	22371
842.796	22341
842.933	22234
843.069	22192
843.206	22207
843.343	22371
843.479	22215
843.616	22154
843.752	21987
843.889	22006
844.025	22253
844.162	22021
844.298	22120
844.435	21983
844.571	22048
844.708	22112
844.844	22158
844.98	22211
845.117	22105
845.253	21915
845.389	21884
845.525	21930
845.661	21854
845.798	21774
845.934	21804
846.07	21732
846.206	21724
846.342	21812
846.478	21614
846.614	21591
846.75	21500
846.886	21412
847.022	21591
847.158	21603
847.294	21557
847.429	21523
847.565	21306
847.701	21679
847.837	21237
847.972	21184
848.108	21165
848.244	21287
848.379	21127
848.515	20986
848.65	20941
848.786	20952
848.921	20944
849.057	21123
849.192	21089
849.328	20963
849.463	20982
849.598	20967
849.734	21017
849.869	20830
850.004	20914
850.14	20781
850.275	20811
850.41	20708
850.545	20651
850.68	20708
850.815	20777
850.95	20807
851.085	20967
851.22	20830
851.355	20712
851.49	20667
851.625	20625
851.76	20663
851.895	20678
852.03	20640
852.165	20735
852.299	20663
852.434	20777
852.569	20705
852.703	20792
852.838	20769
852.973	20902
853.107	20777
853.242	20697
853.376	20511
853.511	20332
853.645	20499
853.78	20663
853.914	20670
854.048	20575
854.183	20492
854.317	20564
854.451	20609
854.585	20476
854.72	20530
854.854	20511
854.988	20457
855.122	20518
855.256	20317
855.39	20533
855.524	20651
855.658	20499
855.792	20617
855.926	20564
856.06	20568
856.194	20533
856.327	20629
856.461	20583
856.595	20400
856.729	20415
856.862	20701
856.996	20564
857.13	20617
857.263	20602
857.397	20545
857.53	20503
857.664	20579
857.797	20594
857.931	20568
858.064	20518
858.197	20617
858.331	20469
858.464	20408
858.597	20408
858.731	20415
858.864	20492
858.997	20374
859.13	20465
859.263	20461
859.396	20568
859.529	20503
859.662	20480
859.795	20347
859.928	20606
860.061	20670
860.194	20556
860.327	20473
860.46	20594
860.592	20560
860.725	20571
860.858	20571
860.99	20499
861.123	20320
861.256	20434
861.388	20438
861.521	21055
861.653	20218
861.786	20199
861.918	20366
862.05	20457
862.183	20499
862.315	20480
862.447	20613
862.58	20492
862.712	20225
862.844	20069
862.976	20294
863.108	20290
863.24	20640
863.372	20115
863.504	20229
863.636	20084
863.768	20096
863.9	20187
864.032	20172
864.164	20039
864.296	20244
864.428	20240
864.559	20180
864.691	20237
864.823	20267
864.954	20275
865.086	20161
865.217	20122
865.349	20016
865.48	20115
865.612	20058
865.743	20092
865.875	20058
866.006	20046
866.137	20043
866.269	20126
866.4	20039
866.531	19936
866.662	19940
866.793	20046
866.924	20027
867.055	19955
867.186	19909
867.317	19967
867.448	19917
867.579	20046
867.71	19959
867.841	19993
867.972	19997
868.103	20035
868.233	19993
868.364	19989
868.495	20027
868.625	20267
868.756	20347
868.886	20176
869.017	20286
869.147	20324
869.278	20336
869.408	20317
869.539	20096
869.669	20332
869.799	20301
869.929	20317
870.06	20328
870.19	20613
870.32	20526
870.45	20636
870.58	20590
870.71	20640
870.84	20720
870.97	20587
871.1	20651
871.23	20746
871.36	20765
871.489	20587
871.619	20743
871.749	20857
871.879	20785
872.008	20910
872.138	20849
872.267	20853
872.397	20777
872.526	20613
872.656	20739
872.785	20636
872.915	20872
873.044	20944
873.173	20887
873.303	20857
873.432	20891
873.561	20944
873.69	20872
873.819	20838
873.948	20921
874.077	20773
874.206	20773
874.335	20785
874.464	20933
874.593	21093
874.722	20994
874.851	21173
874.979	21161
875.108	21135
875.237	21138
875.365	21009
875.494	21055
875.623	21192
875.751	21081
875.88	21051
876.008	21176
876.136	21321
876.265	21435
876.393	21530
876.521	21488
876.65	21443
876.778	21504
876.906	21439
877.034	21298
877.162	21310
877.29	21420
877.418	21435
877.546	21450
877.674	21344
877.802	21378
877.93	21431
878.058	21363
878.185	21260
878.313	21363
878.441	21344
878.568	21264
878.696	21340
878.824	21401
878.951	21542
879.079	21557
879.206	21762
879.333	21580
879.461	21420
879.588	21625
879.715	21648
879.842	21701
879.97	21485
880.097	21256
880.224	21165
880.351	21256
880.478	21294
880.605	21108
880.732	21237
880.859	21401
880.986	21245
881.112	21317
881.239	21066
881.366	20986
881.493	20902
881.619	20937
881.746	20899
881.872	20842
881.999	20880
882.125	20800
882.252	20910
882.378	20891
882.505	21028
882.631	20758
882.757	20587
882.883	20644
883.01	20629
883.136	20621
883.262	20450
883.388	20499
883.514	20678
883.64	20727
883.766	20549
883.892	20400
884.018	20332
884.143	20651
884.269	20625
884.395	20275
884.52	20138
884.646	20252
884.772	20214
884.897	20088
885.023	20229
885.148	20275
885.274	20336
885.399	20263
885.524	20153
885.65	20278
885.775	20206
885.9	20221
886.025	20347
886.15	20229
886.275	20145
886.4	20233
886.525	20149
886.65	20111
886.775	20122
886.9	20366
887.025	20431
887.149	20161
887.274	20035
887.399	19932
887.523	19875
887.648	19978
887.773	19951
887.897	20046
888.021	20001
888.146	19963
888.27	19963
888.395	20077
888.519	19951
888.643	20077
888.767	19887
888.891	19890
889.015	19879
889.139	19864
889.263	19666
889.387	19871
889.511	19982
889.635	19818
889.759	19746
889.883	19677
890.006	19795
890.13	19849
890.254	19677
890.377	19719
890.501	19540
890.624	19510
890.748	19662
890.871	19388
890.995	19365
891.118	19362
891.241	19320
891.364	19426
891.488	19430
891.611	19343
891.734	19339
891.857	19441
891.98	19327
892.103	19324
892.226	19544
892.349	19278
892.471	19137
892.594	19312
892.717	19316
892.839	19312
892.962	19320
893.085	19369
893.207	19225
893.33	19141
893.452	19088
893.575	19335
893.697	19175
893.819	19495
893.941	19483
894.064	19403
894.186	19202
894.308	19232
894.43	19381
894.552	19464
894.674	19339
894.796	19110
894.918	19251
895.04	19278
895.161	19388
895.283	19320
895.405	19304
895.526	19278
895.648	19289
895.769	19381
895.891	19316
896.012	19403
896.134	19441
896.255	19350
896.376	19297
896.498	19358
896.619	19392
896.74	19297
896.861	19293
896.982	19685
897.103	19890
897.224	19620
897.345	19525
897.466	19460
897.587	19502
897.708	19575
897.828	19590
897.949	19384
898.07	19343
898.19	19430
898.311	19605
898.431	19491
898.552	19609
898.672	19563
898.792	19582
898.913	19453
899.033	19464
899.153	19274
899.273	19304
899.393	19217
899.513	19194
899.633	19266
899.753	19228
899.873	19164
899.993	19225
900.113	19228
900.232	19263
900.352	19198
900.472	19000
900.591	19015
900.711	19076
900.83	19008
900.95	19206
901.069	19122
901.189	19004
901.308	18753
901.427	18620
901.546	18734
901.665	18585
901.784	18673
901.904	18490
902.023	18498
902.141	18342
902.26	18136
902.379	18213
902.498	18114
902.617	18171
902.735	18209
902.854	18213
902.973	18038
903.091	17863
903.21	17889
903.328	17733
903.446	17707
903.565	17570
903.683	17615
903.801	17440
903.919	17680
904.038	17509
904.156	17448
904.274	17505
904.392	17402
904.51	17463
904.627	17353
904.745	17402
904.863	17551
904.981	17155
905.098	17075
905.216	17071
905.334	17090
905.451	17132
905.569	17083
905.686	17178
905.803	17155
905.921	16869
906.038	16976
906.155	16953
906.272	16752
906.389	16744
906.506	16675
906.623	16713
906.74	16516
906.857	16478
906.974	16523
907.091	16691
907.208	16793
907.324	16683
907.441	16474
907.557	16382
907.674	16249
907.79	16268
907.907	16185
908.023	16249
908.139	16291
908.256	16204
908.372	16219
908.488	16105
908.604	16082
908.72	15972
908.836	16048
908.952	15956
909.068	15911
909.184	16109
909.3	15956
909.415	16021
909.531	15979
909.647	15728
909.762	15751
909.878	15770
909.993	15644
910.108	15713
910.224	15652
910.339	15576
910.454	15580
910.57	15488
910.685	15378
910.8	15743
910.915	15553
911.03	15515
911.145	15348
911.259	15310
911.374	15268
911.489	15264
911.604	15097
911.718	15005
911.833	15005
911.947	14944
912.062	14807
912.176	14979
912.291	15020
912.405	15047
912.519	15123
912.633	15291
912.748	15043
912.862	14975
912.976	14914
913.09	14815
913.204	14716
913.318	14864
913.431	14944
913.545	15028
913.659	14883
913.772	14861
913.886	14655
914	14629
914.113	14838
914.226	14788
914.34	14712
914.453	14495
914.566	14678
914.68	14552
914.793	14587
914.906	14328
915.019	14298
915.132	14237
915.245	14202
915.358	14309
915.47	14358
915.583	14252
915.696	14404
915.809	14503
915.921	14347
916.034	14202
916.146	14073
916.259	14161
916.371	14263
916.483	14313
916.595	14123
916.708	14103
916.82	14115
916.932	14134
917.044	14043
917.156	14046
917.268	14001
917.38	14005
917.491	13887
917.603	14039
917.715	14016
917.826	13993
917.938	13940
918.049	13750
918.161	14016
918.272	14039
918.384	14096
918.495	13947
918.606	13833
918.717	13681
918.828	13784
918.939	13811
919.05	13651
919.161	13765
919.272	13502
919.383	13632
919.494	13780
919.604	14020
919.715	13753
919.826	13696
919.936	13715
920.047	13723
920.157	13731
920.267	13932
920.378	13624
920.488	13658
920.598	13822
920.708	14020
920.818	13860
920.928	13769
921.038	13989
921.148	13944
921.258	13651
921.368	13590
921.477	13430
921.587	13411
921.697	13346
921.806	13441
921.916	13346
922.025	13145
922.134	13114
922.244	13023
922.353	13053
922.462	12977
922.571	12943
922.68	12764
922.789	12658
922.898	12787
923.007	12639
923.116	12776
923.224	12745
923.333	12726
923.442	12620
923.55	12563
923.659	12578
923.767	12563
923.876	12627
923.984	12566
924.092	12555
924.201	12437
924.309	12486
924.417	12486
924.525	12429
924.633	12422
924.741	13175
924.849	12201
924.956	12361
925.064	12175
925.172	12136
925.279	12220
925.387	12220
925.494	12216
925.602	12266
925.709	12289
925.816	12125
925.924	12125
926.031	12232
926.138	12133
926.245	12136
926.352	12022
926.459	12292
926.566	12270
926.673	12114
926.779	11992
926.886	11958
926.993	11847
927.099	11786
927.206	11726
927.312	11699
927.419	11767
927.525	11855
927.631	11779
927.737	11649
927.843	11657
927.95	11474
928.056	11668
928.162	11615
928.267	11691
928.373	12133
928.479	11642
928.585	11486
928.69	11596
928.796	11589
928.901	11467
929.007	11368
929.112	11398
929.218	11455
929.323	11337
929.428	11303
929.533	11482
929.638	11261
929.743	11258
929.848	11387
929.953	11284
930.058	11292
930.163	11037
930.267	11098
930.372	11178
930.477	11014
930.581	11265
930.685	11113
930.79	10972
930.894	10995
930.998	10980
931.103	11064
931.207	10683
931.311	10580
931.415	10565
931.519	10314
931.623	10284
