Data from test_V78500241_2156.txt Node
Date: Fri Mar 25 15:24:52 CST 2022
User: usil
Spectrometer: V785-0024
Trigger mode: 0
Integration Time (sec): 4.000000E-1
Scans to average: 1
Nonlinearity correction enabled: false
Boxcar width: 0
Storing dark spectrum: false
XAxis mode: Wavelengths
Number of Pixels in Spectrum: 1024
>>>>>Begin Spectral Data<<<<<
801.071	27724
801.214	27682
801.356	27553
801.499	27310
801.641	27230
801.783	27245
801.926	27321
802.068	27256
802.211	27207
802.353	27138
802.496	27089
802.638	26986
802.78	26781
802.923	26826
803.065	26765
803.208	26834
803.35	26876
803.492	27081
803.635	27142
803.777	27070
803.919	27058
804.061	27450
804.204	27245
804.346	27157
804.488	27009
804.63	27214
804.773	27096
804.915	27146
805.057	27081
805.199	26982
805.341	27313
805.483	27431
805.626	27230
805.768	27252
805.91	27199
806.052	27252
806.194	27093
806.336	27496
806.478	27222
806.62	27351
806.762	27306
806.904	27618
807.046	27686
807.188	27637
807.33	27736
807.472	27698
807.614	27564
807.756	27644
807.898	27363
808.04	27427
808.182	27507
808.324	27595
808.465	27686
808.607	27603
808.749	27861
808.891	28036
809.033	28044
809.174	27869
809.316	27789
809.458	27816
809.6	27899
809.741	27964
809.883	28013
810.025	28093
810.166	28158
810.308	28120
810.45	28303
810.591	28059
810.733	27899
810.875	27869
811.016	27694
811.158	27690
811.299	27857
811.441	28093
811.582	27964
811.724	27797
811.865	27876
812.007	27709
812.148	27838
812.29	27869
812.431	28036
812.573	28173
812.714	28169
812.855	28280
812.997	28432
813.138	28493
813.279	28310
813.421	28139
813.562	28356
813.703	28181
813.845	28051
813.986	27876
814.127	27766
814.268	27477
814.41	27641
814.551	27519
814.692	27564
814.833	27389
814.974	27542
815.115	27599
815.256	27526
815.397	27374
815.539	27363
815.68	27450
815.821	27329
815.962	27401
816.103	27325
816.244	27203
816.385	27104
816.526	27051
816.666	26994
816.807	26842
816.948	26967
817.089	26960
817.23	26823
817.371	26781
817.512	26689
817.653	26807
817.793	26674
817.934	26800
818.075	26925
818.216	26823
818.356	26914
818.497	26815
818.638	26648
818.778	26533
818.919	26686
819.06	26571
819.2	26686
819.341	26807
819.481	26811
819.622	26994
819.762	27138
819.903	27043
820.043	27020
820.184	27055
820.324	26834
820.465	26982
820.605	26979
820.746	26830
820.886	26857
821.026	26842
821.167	26849
821.307	27085
821.447	26834
821.588	26785
821.728	26590
821.868	26541
822.008	26271
822.149	26229
822.289	26275
822.429	26103
822.569	26092
822.709	26065
822.849	25818
822.99	25769
823.13	25807
823.27	25586
823.41	25620
823.55	25411
823.69	25658
823.83	25658
823.97	25559
824.11	25449
824.25	25483
824.389	25327
824.529	25525
824.669	25483
824.809	25643
824.949	25510
825.089	25529
825.228	25476
825.368	25327
825.508	25274
825.648	25255
825.787	25274
825.927	25407
826.067	25301
826.206	25285
826.346	25331
826.485	25225
826.625	25274
826.765	25228
826.904	25266
827.044	24973
827.183	24939
827.323	25031
827.462	25000
827.601	24810
827.741	24882
827.88	24981
828.02	24810
828.159	25004
828.298	25004
828.437	25015
828.577	24901
828.716	25019
828.855	24856
828.994	24616
829.134	24707
829.273	24772
829.412	24460
829.551	24711
829.69	24665
829.829	24700
829.968	24875
830.107	24696
830.246	24787
830.385	24650
830.524	24502
830.663	24467
830.802	24422
830.941	24346
831.08	24262
831.219	24346
831.357	24353
831.496	24479
831.635	24334
831.774	24194
831.913	24258
832.051	24049
832.19	24079
832.329	24087
832.467	23950
832.606	23878
832.744	23973
832.883	23859
833.022	23851
833.16	24034
833.299	23977
833.437	23973
833.576	23992
833.714	24007
833.852	24053
833.991	24011
834.129	24159
834.267	24102
834.406	24015
834.544	24041
834.682	23882
834.821	23897
834.959	24243
835.097	24011
835.235	24133
835.373	23992
835.511	23961
835.65	23901
835.788	23676
835.926	23748
836.064	23581
836.202	23676
836.34	23939
836.478	23973
836.615	23760
836.753	23847
836.891	23904
837.029	23992
837.167	23805
837.305	23653
837.443	23764
837.58	23714
837.718	23665
837.856	23577
837.993	23585
838.131	23699
838.269	23539
838.406	23539
838.544	23562
838.681	23307
838.819	23383
838.956	23162
839.094	23353
839.231	23079
839.369	23391
839.506	23551
839.643	23360
839.781	23094
839.918	23010
840.055	23121
840.193	23083
840.33	23083
840.467	23143
840.604	23071
840.742	23269
840.879	22881
841.016	22892
841.153	22972
841.29	23216
841.427	23086
841.564	23136
841.701	23128
841.838	22976
841.975	22927
842.112	22999
842.249	22812
842.385	22812
842.522	23079
842.659	22812
842.796	22839
842.933	22797
843.069	22809
843.206	22797
843.343	22854
843.479	22904
843.616	22835
843.752	22584
843.889	22706
844.025	22805
844.162	22527
844.298	22763
844.435	22607
844.571	22573
844.708	22733
844.844	22771
844.98	22713
845.117	22615
845.253	22424
845.389	22565
845.525	22318
845.661	22436
845.798	22352
845.934	22367
846.07	22284
846.206	22329
846.342	22459
846.478	22284
846.614	22150
846.75	22013
846.886	22082
847.022	22211
847.158	22154
847.294	22090
847.429	22207
847.565	22017
847.701	22280
847.837	21899
847.972	21762
848.108	21956
848.244	21850
848.379	21736
848.515	21637
848.65	21667
848.786	21557
848.921	21652
849.057	21778
849.192	21728
849.328	21534
849.463	21709
849.598	21648
849.734	21420
849.869	21530
850.004	21412
850.14	21523
850.275	21496
850.41	21424
850.545	21420
850.68	21378
850.815	21431
850.95	21481
851.085	21633
851.22	21416
851.355	21374
851.49	21477
851.625	21226
851.76	21367
851.895	21321
852.03	21424
852.165	21401
852.299	21355
852.434	21431
852.569	21424
852.703	21504
852.838	21431
852.973	21428
853.107	21504
853.242	21321
853.376	21241
853.511	21180
853.645	21233
853.78	21393
853.914	21233
854.048	21157
854.183	21207
854.317	21382
854.451	21420
854.585	21203
854.72	21150
854.854	21195
854.988	21180
855.122	21218
855.256	21112
855.39	21169
855.524	21367
855.658	21249
855.792	21249
855.926	21252
856.06	21313
856.194	21272
856.327	21207
856.461	21230
856.595	21089
856.729	21245
856.862	21329
856.996	21226
857.13	21386
857.263	21340
857.397	21344
857.53	21249
857.664	21351
857.797	21340
857.931	21374
858.064	21264
858.197	21233
858.331	21180
858.464	21317
858.597	21131
858.731	21222
858.864	21214
858.997	21241
859.13	21188
859.263	21230
859.396	21184
859.529	21157
859.662	21184
859.795	21161
859.928	21317
860.061	21351
860.194	21363
860.327	21329
860.46	21279
860.592	21245
860.725	21370
860.858	21317
860.99	21264
861.123	21157
861.256	21180
861.388	21146
861.521	21804
861.653	21119
861.786	21104
861.918	20998
862.05	21058
862.183	21165
862.315	21287
862.447	21154
862.58	21154
862.712	20967
862.844	20967
862.976	21051
863.108	21104
863.24	21564
863.372	20902
863.504	20994
863.636	20925
863.768	20899
863.9	20929
864.032	20838
864.164	20777
864.296	20941
864.428	21013
864.559	21058
864.691	20994
864.823	20963
864.954	20845
865.086	20842
865.217	20868
865.349	20830
865.48	20819
865.612	20792
865.743	20849
865.875	20880
866.006	20785
866.137	20902
866.269	20880
866.4	20864
866.531	20853
866.662	20811
866.793	20682
866.924	20857
867.055	20785
867.186	20731
867.317	20743
867.448	20640
867.579	20674
867.71	20655
867.841	20842
867.972	20815
868.103	20701
868.233	20765
868.364	20769
868.495	20895
868.625	21089
868.756	21116
868.886	20948
869.017	20971
869.147	20948
869.278	21173
869.408	20952
869.539	20979
869.669	21043
869.799	21017
869.929	21062
870.06	21089
870.19	21340
870.32	21268
870.45	21340
870.58	21454
870.71	21488
870.84	21401
870.97	21272
871.1	21363
871.23	21462
871.36	21496
871.489	21511
871.619	21686
871.749	21610
871.879	21614
872.008	21648
872.138	21572
872.267	21770
872.397	21469
872.526	21313
872.656	21412
872.785	21485
872.915	21481
873.044	21717
873.173	21530
873.303	21545
873.432	21526
873.561	21637
873.69	21663
873.819	21644
873.948	21606
874.077	21614
874.206	21553
874.335	21770
874.464	21960
874.593	21854
874.722	21663
874.851	21804
874.979	21964
875.108	21937
875.237	21793
875.365	21762
875.494	21884
875.623	21998
875.751	21701
875.88	21831
876.008	21865
876.136	22120
876.265	22204
876.393	22432
876.521	22272
876.65	22284
876.778	22253
876.906	22181
877.034	22287
877.162	22215
877.29	22112
877.418	22143
877.546	22154
877.674	22162
877.802	22131
877.93	22246
878.058	22135
878.185	22150
878.313	22135
878.441	22169
878.568	22139
878.696	22147
878.824	22234
878.951	22249
879.079	22402
879.206	22466
879.333	22402
879.461	22150
879.588	22253
879.715	22360
879.842	22436
879.97	22303
880.097	22010
880.224	22013
880.351	22131
880.478	21956
880.605	21975
880.732	21983
880.859	22185
880.986	22074
881.112	21937
881.239	21819
881.366	21831
881.493	21553
881.619	21492
881.746	21656
881.872	21610
881.999	21618
882.125	21580
882.252	21625
882.378	21599
882.505	21648
882.631	21428
882.757	21359
882.883	21431
883.01	21363
883.136	21249
883.262	21252
883.388	21062
883.514	21306
883.64	21291
883.766	21184
883.892	21074
884.018	21203
884.143	21264
884.269	21294
884.395	20963
884.52	20914
884.646	20914
884.772	20887
884.897	20804
885.023	21005
885.148	20944
885.274	21089
885.399	21036
885.524	20857
885.65	20975
885.775	21043
885.9	20933
886.025	20979
886.15	21005
886.275	20944
886.4	20800
886.525	20982
886.65	20895
886.775	20872
886.9	21070
887.025	21043
887.149	20944
887.274	20716
887.399	20625
887.523	20720
887.648	20686
887.773	20556
887.897	20811
888.021	20735
888.146	20549
888.27	20899
888.395	20701
888.519	20727
888.643	20667
888.767	20781
888.891	20640
889.015	20446
889.139	20522
889.263	20499
889.387	20648
889.511	20632
889.635	20625
889.759	20473
889.883	20495
890.006	20511
890.13	20720
890.254	20461
890.377	20461
890.501	20355
890.624	20142
890.748	20225
890.871	20126
890.995	20096
891.118	19902
891.241	20050
891.364	20096
891.488	20153
891.611	20088
891.734	20107
891.857	20103
891.98	20202
892.103	20065
892.226	20016
892.349	20157
892.471	19738
892.594	19986
892.717	20012
892.839	19978
892.962	19974
893.085	20065
893.207	19947
893.33	19898
893.452	20005
893.575	19974
893.697	19936
893.819	20153
893.941	20046
894.064	20100
894.186	19947
894.308	19864
894.43	20024
894.552	20153
894.674	20161
894.796	19906
894.918	19963
895.04	20005
895.161	20035
895.283	20100
895.405	19898
895.526	19921
895.648	19887
895.769	19986
895.891	19849
896.012	20084
896.134	20012
896.255	19906
896.376	19841
896.498	20081
896.619	19982
896.74	19959
896.861	20153
896.982	20256
897.103	20355
897.224	20115
897.345	20153
897.466	20142
897.587	20157
897.708	20275
897.828	20252
897.949	20149
898.07	20043
898.19	20218
898.311	20317
898.431	20218
898.552	20218
898.672	20275
898.792	20309
898.913	20259
899.033	20149
899.153	20043
899.273	19864
899.393	19902
899.513	19978
899.633	19986
899.753	20001
899.873	19822
899.993	20016
900.113	19791
900.232	19986
900.352	19860
900.472	19791
900.591	19731
900.711	19822
900.83	19719
900.95	19856
901.069	19917
901.189	19605
901.308	19373
901.427	19274
901.546	19411
901.665	19445
901.784	19335
901.904	19270
902.023	19050
902.141	19004
902.26	18901
902.379	18973
902.498	19000
902.617	18821
902.735	18916
902.854	18795
902.973	18703
903.091	18525
903.21	18574
903.328	18448
903.446	18448
903.565	18304
903.683	18441
903.801	18155
903.919	18159
904.038	18186
904.156	18190
904.274	18205
904.392	18106
904.51	17988
904.627	18091
904.745	18106
904.863	18140
904.981	17897
905.098	17798
905.216	17767
905.334	17783
905.451	17779
905.569	17714
905.686	17703
905.803	17748
905.921	17539
906.038	17726
906.155	17581
906.272	17448
906.389	17376
906.506	17227
906.623	17379
906.74	17193
906.857	17181
906.974	17124
907.091	17322
907.208	17391
907.324	17368
907.441	17197
907.557	17090
907.674	16942
907.79	17045
907.907	17052
908.023	17067
908.139	17033
908.256	17025
908.372	16919
908.488	16873
908.604	16828
908.72	16725
908.836	16748
908.952	16611
909.068	16793
909.184	16816
909.3	16672
909.415	16729
909.531	16649
909.647	16599
909.762	16440
909.878	16421
909.993	16390
910.108	16352
910.224	16424
910.339	16390
910.454	16318
910.57	16181
910.685	16204
910.8	16333
910.915	16409
911.03	16185
911.145	16124
911.259	16059
911.374	15964
911.489	15892
911.604	15903
911.718	15736
911.833	15835
911.947	15584
912.062	15622
912.176	15766
912.291	15709
912.405	15751
912.519	15884
912.633	15895
912.748	15785
912.862	15770
912.976	15553
913.09	15450
913.204	15572
913.318	15557
913.431	15698
913.545	15637
913.659	15713
913.772	15572
913.886	15428
914	15405
914.113	15351
914.226	15504
914.34	15511
914.453	15252
914.566	15405
914.68	15313
914.793	15260
914.906	15036
915.019	15005
915.132	14994
915.245	15001
915.358	15009
915.47	15081
915.583	15066
915.696	15051
915.809	15074
915.921	15104
916.034	14986
916.146	14883
916.259	14834
916.371	14952
916.483	14891
916.595	14899
916.708	14823
916.82	14792
916.932	14826
917.044	14868
917.156	14743
917.268	14610
917.38	14686
917.491	14705
917.603	14636
917.715	14663
917.826	14598
917.938	14575
918.049	14522
918.161	14590
918.272	14758
918.384	14754
918.495	14598
918.606	14393
918.717	14366
918.828	14522
918.939	14442
919.05	14328
919.161	14484
919.272	14168
919.383	14275
919.494	14476
919.604	14678
919.715	14400
919.826	14294
919.936	14324
920.047	14530
920.157	14473
920.267	14598
920.378	14389
920.488	14294
920.598	14549
920.708	14636
920.818	14492
920.928	14507
921.038	14602
921.148	14678
921.258	14434
921.368	14256
921.477	14202
921.587	14046
921.697	13944
921.806	14157
921.916	14005
922.025	13833
922.134	13788
922.244	13734
922.353	13852
922.462	13712
922.571	13567
922.68	13407
922.789	13396
922.898	13293
923.007	13346
923.116	13411
923.224	13335
923.333	13339
923.442	13308
923.55	13339
923.659	13365
923.767	13297
923.876	13137
923.984	13396
924.092	13122
924.201	13160
924.309	13152
924.417	13095
924.525	13031
924.633	13171
924.741	13909
924.849	12939
924.956	12996
925.064	12878
925.172	12783
925.279	12806
925.387	12814
925.494	12837
925.602	12977
925.709	12882
925.816	12817
925.924	12749
926.031	12852
926.138	12844
926.245	12806
926.352	12681
926.459	12837
926.566	12749
926.673	12635
926.779	12635
926.886	12483
926.993	12350
927.099	12437
927.206	12380
927.312	12330
927.419	12498
927.525	12399
927.631	12441
927.737	12437
927.843	12296
927.95	12182
928.056	12251
928.162	12289
928.267	12224
928.373	12840
928.479	12311
928.585	12091
928.69	12228
928.796	12209
928.901	12110
929.007	11980
929.112	12102
929.218	12087
929.323	12019
929.428	11897
929.533	12049
929.638	11923
929.743	12015
929.848	11946
929.953	11893
930.058	11767
930.163	11619
930.267	11680
930.372	11832
930.477	11623
930.581	11893
930.685	11676
930.79	11471
930.894	11520
930.998	11497
931.103	11646
931.207	11299
931.311	11239
931.415	11170
931.519	10980
931.623	10854
