Data from test_V78500241_122.txt Node
Date: Fri Mar 25 15:10:42 CST 2022
User: usil
Spectrometer: V785-0024
Trigger mode: 0
Integration Time (sec): 4.000000E-1
Scans to average: 1
Nonlinearity correction enabled: false
Boxcar width: 0
Storing dark spectrum: false
XAxis mode: Wavelengths
Number of Pixels in Spectrum: 1024
>>>>>Begin Spectral Data<<<<<
801.071	28204
801.214	27945
801.356	27991
801.499	27922
801.641	27580
801.783	27705
801.926	27599
802.068	27667
802.211	27469
802.353	27603
802.496	27298
802.638	27344
802.78	27195
802.923	27150
803.065	27157
803.208	27188
803.35	27169
803.492	27370
803.635	27439
803.777	27154
803.919	27340
804.061	27644
804.204	27530
804.346	27214
804.488	27283
804.63	27226
804.773	27138
804.915	27302
805.057	27355
805.199	27348
805.341	27370
805.483	27485
805.626	27431
805.768	27344
805.91	27348
806.052	27454
806.194	27287
806.336	27515
806.478	27355
806.62	27370
806.762	27500
806.904	27553
807.046	27876
807.188	27854
807.33	27698
807.472	27739
807.614	27671
807.756	27781
807.898	27450
808.04	27424
808.182	27443
808.324	27580
808.465	27496
808.607	27800
808.749	27861
808.891	27926
809.033	28010
809.174	27876
809.316	27949
809.458	27895
809.6	27937
809.741	28025
809.883	27941
810.025	28013
810.166	28120
810.308	28051
810.45	28131
810.591	28166
810.733	27873
810.875	27755
811.016	27816
811.158	27800
811.299	27797
811.441	27838
811.582	27865
811.724	27770
811.865	27595
812.007	27797
812.148	27698
812.29	27934
812.431	28082
812.573	28169
812.714	28242
812.855	28325
812.997	28535
813.138	28626
813.279	28356
813.421	28428
813.562	28287
813.703	28036
813.845	28048
813.986	27732
814.127	27561
814.268	27542
814.41	27473
814.551	27412
814.692	27542
814.833	27393
814.974	27416
815.115	27355
815.256	27306
815.397	27237
815.539	27233
815.68	27108
815.821	27138
815.962	27260
816.103	27256
816.244	26986
816.385	26956
816.526	26754
816.666	26636
816.807	26590
816.948	26830
817.089	26678
817.23	26587
817.371	26659
817.512	26522
817.653	26598
817.793	26530
817.934	26495
818.075	26583
818.216	26552
818.356	26499
818.497	26229
818.638	26336
818.778	26294
818.919	26328
819.06	26389
819.2	26423
819.341	26480
819.481	26431
819.622	26632
819.762	26773
819.903	26659
820.043	26583
820.184	26602
820.324	26537
820.465	26598
820.605	26648
820.746	26514
820.886	26358
821.026	26598
821.167	26568
821.307	26533
821.447	26476
821.588	26404
821.728	26195
821.868	26115
822.008	25966
822.149	25902
822.289	25890
822.429	25628
822.569	25689
822.709	25662
822.849	25613
822.99	25441
823.13	25392
823.27	25339
823.41	25304
823.55	25050
823.69	25114
823.83	25308
823.97	25213
824.11	24958
824.25	24954
824.389	24951
824.529	25038
824.669	25145
824.809	25190
824.949	25034
825.089	25164
825.228	24977
825.368	24844
825.508	24779
825.648	24787
825.787	24810
825.927	24779
826.067	24844
826.206	24867
826.346	24878
826.485	24875
826.625	24920
826.765	24985
826.904	24909
827.044	24582
827.183	24547
827.323	24369
827.462	24658
827.601	24593
827.741	24544
827.88	24559
828.02	24433
828.159	24414
828.298	24494
828.437	24498
828.577	24372
828.716	24486
828.855	24429
828.994	24254
829.134	24323
829.273	24228
829.412	24018
829.551	24262
829.69	24220
829.829	24197
829.968	24266
830.107	24239
830.246	24098
830.385	24060
830.524	24133
830.663	23843
830.802	23813
830.941	23729
831.08	23672
831.219	23863
831.357	23840
831.496	24003
831.635	23710
831.774	23665
831.913	23764
832.051	23501
832.19	23452
832.329	23501
832.467	23345
832.606	23288
832.744	23296
832.883	23391
833.022	23372
833.16	23368
833.299	23417
833.437	23459
833.576	23520
833.714	23360
833.852	23478
833.991	23376
834.129	23433
834.267	23406
834.406	23246
834.544	23436
834.682	23429
834.821	23425
834.959	23452
835.097	23345
835.235	23482
835.373	23383
835.511	23376
835.65	23311
835.788	23178
835.926	23124
836.064	22953
836.202	23094
836.34	23044
836.478	23311
836.615	23235
836.753	23208
836.891	23284
837.029	23337
837.167	23121
837.305	23159
837.443	23006
837.58	23044
837.718	23060
837.856	23018
837.993	23029
838.131	22961
838.269	22972
838.406	22927
838.544	22911
838.681	22710
838.819	22599
838.956	22508
839.094	22481
839.231	22550
839.369	22641
839.506	23010
839.643	22740
839.781	22577
839.918	22500
840.055	22466
840.193	22272
840.33	22329
840.467	22447
840.604	22455
840.742	22710
840.879	22143
841.016	22318
841.153	22238
841.29	22554
841.427	22356
841.564	22314
841.701	22382
841.838	22284
841.975	22238
842.112	22261
842.249	22093
842.385	22105
842.522	22310
842.659	22120
842.796	22032
842.933	22173
843.069	22036
843.206	22082
843.343	22093
843.479	22158
843.616	22082
843.752	21880
843.889	21949
844.025	21930
844.162	21759
844.298	21983
844.435	21728
844.571	21823
844.708	21823
844.844	22040
844.98	21922
845.117	21895
845.253	21850
845.389	21656
845.525	21789
845.661	21618
845.798	21629
845.934	21515
846.07	21534
846.206	21561
846.342	21793
846.478	21652
846.614	21344
846.75	21336
846.886	21199
847.022	21450
847.158	21435
847.294	21424
847.429	21214
847.565	21245
847.701	21454
847.837	21062
847.972	20994
848.108	21165
848.244	21119
848.379	20800
848.515	20811
848.65	20891
848.786	20880
848.921	20902
849.057	21058
849.192	20986
849.328	20994
849.463	20895
849.598	20807
849.734	20868
849.869	20693
850.004	20492
850.14	20697
850.275	20678
850.41	20568
850.545	20629
850.68	20568
850.815	20727
850.95	20644
851.085	20788
851.22	20693
851.355	20659
851.49	20545
851.625	20575
851.76	20594
851.895	20514
852.03	20442
852.165	20590
852.299	20670
852.434	20689
852.569	20659
852.703	20549
852.838	20457
852.973	20670
853.107	20754
853.242	20495
853.376	20396
853.511	20240
853.645	20412
853.78	20412
853.914	20518
854.048	20412
854.183	20218
854.317	20427
854.451	20541
854.585	20362
854.72	20434
854.854	20499
854.988	20423
855.122	20328
855.256	20214
855.39	20259
855.524	20442
855.658	20480
855.792	20286
855.926	20347
856.06	20446
856.194	20503
856.327	20476
856.461	20408
856.595	20275
856.729	20324
856.862	20473
856.996	20427
857.13	20339
857.263	20434
857.397	20385
857.53	20488
857.664	20366
857.797	20473
857.931	20408
858.064	20377
858.197	20370
858.331	20164
858.464	20336
858.597	20298
858.731	20187
858.864	20320
858.997	20400
859.13	20282
859.263	20351
859.396	20560
859.529	20343
859.662	20244
859.795	20275
859.928	20366
860.061	20415
860.194	20533
860.327	20450
860.46	20259
860.592	20476
860.725	20465
860.858	20480
860.99	20358
861.123	20142
861.256	20267
861.388	20438
861.521	21062
861.653	20172
861.786	20130
861.918	20225
862.05	20374
862.183	20267
862.315	20339
862.447	20389
862.58	20377
862.712	20012
862.844	20062
862.976	20126
863.108	20100
863.24	20568
863.372	20043
863.504	20039
863.636	20039
863.768	20130
863.9	20043
864.032	19917
864.164	20065
864.296	20092
864.428	20126
864.559	20035
864.691	20096
864.823	20008
864.954	20122
865.086	20069
865.217	19944
865.349	19887
865.48	19970
865.612	20058
865.743	20050
865.875	20005
866.006	19807
866.137	19963
866.269	19970
866.4	19917
866.531	19807
866.662	19925
866.793	19849
866.924	19856
867.055	19928
867.186	19860
867.317	19917
867.448	19871
867.579	19849
867.71	19776
867.841	19723
867.972	19822
868.103	19757
868.233	19860
868.364	19776
868.495	19993
868.625	20164
868.756	20157
868.886	20058
869.017	20145
869.147	20206
869.278	20164
869.408	20073
869.539	20134
869.669	20191
869.799	20012
869.929	20252
870.06	20191
870.19	20457
870.32	20366
870.45	20393
870.58	20400
870.71	20514
870.84	20564
870.97	20575
871.1	20514
871.23	20636
871.36	20564
871.489	20693
871.619	20651
871.749	20629
871.879	20575
872.008	20754
872.138	20594
872.267	20590
872.397	20552
872.526	20431
872.656	20442
872.785	20457
872.915	20746
873.044	20746
873.173	20750
873.303	20720
873.432	20807
873.561	20762
873.69	20750
873.819	20731
873.948	20746
874.077	20785
874.206	20720
874.335	20693
874.464	20807
874.593	21013
874.722	20910
874.851	20998
874.979	21066
875.108	20921
875.237	20891
875.365	20823
875.494	20899
875.623	20929
875.751	20849
875.88	20895
876.008	21077
876.136	21043
876.265	21382
876.393	21485
876.521	21583
876.65	21439
876.778	21435
876.906	21405
877.034	21370
877.162	21340
877.29	21310
877.418	21363
877.546	21199
877.674	21332
877.802	21336
877.93	21138
878.058	21264
878.185	21169
878.313	21188
878.441	21313
878.568	21279
878.696	21195
878.824	21298
878.951	21481
879.079	21496
879.206	21549
879.333	21523
879.461	21332
879.588	21488
879.715	21488
879.842	21614
879.97	21336
880.097	21138
880.224	21081
880.351	21123
880.478	21100
880.605	21146
880.732	21119
880.859	21386
880.986	21157
881.112	21157
881.239	21051
881.366	20777
881.493	20830
881.619	20773
881.746	20883
881.872	20788
881.999	20655
882.125	20678
882.252	20883
882.378	20823
882.505	20857
882.631	20575
882.757	20476
882.883	20598
883.01	20549
883.136	20423
883.262	20393
883.388	20229
883.514	20499
883.64	20545
883.766	20396
883.892	20267
884.018	20157
884.143	20343
884.269	20503
884.395	20164
884.52	20122
884.646	20100
884.772	20145
884.897	19997
885.023	20206
885.148	20199
885.274	20305
885.399	20122
885.524	20073
885.65	20176
885.775	20054
885.9	20168
886.025	20248
886.15	20145
886.275	20046
886.4	19989
886.525	20069
886.65	20050
886.775	19993
886.9	20294
887.025	20206
887.149	20142
887.274	19921
887.399	19982
887.523	19894
887.648	19811
887.773	19788
887.897	19925
888.021	19928
888.146	19799
888.27	19970
888.395	20062
888.519	19951
888.643	19902
888.767	19849
888.891	19776
889.015	19639
889.139	19727
889.263	19662
889.387	19727
889.511	19845
889.635	19830
889.759	19643
889.883	19616
890.006	19609
890.13	19818
890.254	19506
890.377	19616
890.501	19388
890.624	19453
890.748	19537
890.871	19293
890.995	19384
891.118	19213
891.241	19141
891.364	19221
891.488	19400
891.611	19251
891.734	19274
891.857	19247
891.98	19270
892.103	19270
892.226	19236
892.349	19240
892.471	18958
892.594	19274
892.717	19259
892.839	19194
892.962	19137
893.085	19187
893.207	19095
893.33	19095
893.452	19069
893.575	19285
893.697	19145
893.819	19293
893.941	19438
894.064	19312
894.186	19012
894.308	19110
894.43	19251
894.552	19373
894.674	19179
894.796	19080
894.918	19266
895.04	19228
895.161	19350
895.283	19247
895.405	19129
895.526	19266
895.648	19232
895.769	19232
895.891	19171
896.012	19304
896.134	19278
896.255	19137
896.376	19194
896.498	19156
896.619	19255
896.74	19285
896.861	19274
896.982	19696
897.103	19632
897.224	19457
897.345	19521
897.466	19312
897.587	19480
897.708	19529
897.828	19548
897.949	19419
898.07	19274
898.19	19438
898.311	19597
898.431	19415
898.552	19468
898.672	19354
898.792	19499
898.913	19221
899.033	19274
899.153	19308
899.273	19129
899.393	19145
899.513	19141
899.633	19156
899.753	19141
899.873	19015
899.993	19198
900.113	19088
900.232	19148
900.352	19129
900.472	19057
900.591	18947
900.711	19004
900.83	18951
900.95	19042
901.069	18996
901.189	18973
901.308	18665
901.427	18635
901.546	18486
901.665	18582
901.784	18635
901.904	18388
902.023	18380
902.141	18106
902.26	18095
902.379	18167
902.498	18095
902.617	17954
902.735	18057
902.854	18079
902.973	17939
903.091	17783
903.21	17737
903.328	17817
903.446	17726
903.565	17551
903.683	17627
903.801	17463
903.919	17589
904.038	17509
904.156	17356
904.274	17315
904.392	17315
904.51	17330
904.627	17311
904.745	17398
904.863	17349
904.981	17075
905.098	16999
905.216	16961
905.334	17018
905.451	17003
905.569	16946
905.686	17045
905.803	17025
905.921	16759
906.038	16900
906.155	16881
906.272	16694
906.389	16687
906.506	16485
906.623	16481
906.74	16447
906.857	16329
906.974	16394
907.091	16519
907.208	16618
907.324	16554
907.441	16455
907.557	16253
907.674	16169
907.79	16124
907.907	16166
908.023	16162
908.139	16299
908.256	16204
908.372	16025
908.488	15975
908.604	15941
908.72	15865
908.836	15880
908.952	15895
909.068	15903
909.184	16040
909.3	15880
909.415	15941
909.531	15956
909.647	15603
909.762	15778
909.878	15652
909.993	15618
910.108	15538
910.224	15637
910.339	15641
910.454	15564
910.57	15405
910.685	15408
910.8	15690
910.915	15466
911.03	15393
911.145	15302
911.259	15195
911.374	15237
911.489	15233
911.604	15066
911.718	14914
911.833	14948
911.947	14880
912.062	14746
912.176	14937
912.291	14952
912.405	14979
912.519	15116
912.633	15146
912.748	14967
912.862	15043
912.976	14720
913.09	14670
913.204	14762
913.318	14746
913.431	14853
913.545	14899
913.659	14834
913.772	14682
913.886	14556
914	14549
914.113	14708
914.226	14743
914.34	14670
914.453	14522
914.566	14617
914.68	14545
914.793	14438
914.906	14347
915.019	14290
915.132	14263
915.245	14263
915.358	14313
915.47	14263
915.583	14267
915.696	14263
915.809	14434
915.921	14377
916.034	14237
916.146	14164
916.259	14176
916.371	14320
916.483	14225
916.595	14111
916.708	14069
916.82	14145
916.932	14111
917.044	14024
917.156	14069
917.268	13894
917.38	13967
917.491	13871
917.603	13970
917.715	13909
917.826	13940
917.938	13826
918.049	13689
918.161	13890
918.272	13944
918.384	14077
918.495	13803
918.606	13666
918.717	13666
918.828	13772
918.939	13761
919.05	13556
919.161	13578
919.272	13563
919.383	13510
919.494	13753
919.604	13738
919.715	13620
919.826	13575
919.936	13666
920.047	13746
920.157	13605
920.267	13845
920.378	13624
920.488	13521
920.598	13788
920.708	13913
920.818	13788
920.928	13803
921.038	13868
921.148	14027
921.258	13613
921.368	13590
921.477	13445
921.587	13320
921.697	13263
921.806	13373
921.916	13335
922.025	13053
922.134	12996
922.244	13046
922.353	13061
922.462	12916
922.571	12791
922.68	12673
922.789	12700
922.898	12776
923.007	12608
923.116	12703
923.224	12703
923.333	12623
923.442	12559
923.55	12502
923.659	12540
923.767	12631
923.876	12498
923.984	12574
924.092	12353
924.201	12445
924.309	12448
924.417	12437
924.525	12399
924.633	12422
924.741	13145
924.849	12205
924.956	12372
925.064	12117
925.172	12117
925.279	12030
925.387	12140
925.494	12220
925.602	12273
925.709	12171
925.816	12007
925.924	12152
926.031	12201
926.138	12072
926.245	12148
926.352	12038
926.459	12167
926.566	12136
926.673	12022
926.779	11916
926.886	11908
926.993	11775
927.099	11745
927.206	11714
927.312	11707
927.419	11756
927.525	11710
927.631	11771
927.737	11665
927.843	11528
927.95	11463
928.056	11520
928.162	11585
928.267	11589
928.373	12152
928.479	11688
928.585	11433
928.69	11547
928.796	11554
928.901	11410
929.007	11303
929.112	11452
929.218	11398
929.323	11299
929.428	11239
929.533	11414
929.638	11239
929.743	11280
929.848	11288
929.953	11334
930.058	11181
930.163	11014
930.267	10972
930.372	11193
930.477	10972
930.581	11231
930.685	10961
930.79	10908
930.894	10968
930.998	10862
931.103	10980
931.207	10615
931.311	10561
931.415	10538
931.519	10291
931.623	10268
