Data from test_V78500241_3146.txt Node
Date: Fri Mar 25 15:31:46 CST 2022
User: usil
Spectrometer: V785-0024
Trigger mode: 0
Integration Time (sec): 4.000000E-1
Scans to average: 1
Nonlinearity correction enabled: false
Boxcar width: 0
Storing dark spectrum: false
XAxis mode: Wavelengths
Number of Pixels in Spectrum: 1024
>>>>>Begin Spectral Data<<<<<
801.071	27317
801.214	27116
801.356	26994
801.499	26944
801.641	26842
801.783	26842
801.926	26754
802.068	26857
802.211	26750
802.353	26743
802.496	26343
802.638	26537
802.78	26377
802.923	26256
803.065	26278
803.208	26320
803.35	26461
803.492	26552
803.635	26644
803.777	26412
803.919	26473
804.061	26887
804.204	26556
804.346	26526
804.488	26507
804.63	26469
804.773	26473
804.915	26663
805.057	26636
805.199	26419
805.341	26480
805.483	26667
805.626	26769
805.768	26746
805.91	26731
806.052	26636
806.194	26731
806.336	26883
806.478	26602
806.62	26686
806.762	26670
806.904	26887
807.046	27070
807.188	27062
807.33	27017
807.472	27085
807.614	27081
807.756	27112
807.898	26902
808.04	26834
808.182	26887
808.324	26891
808.465	26918
808.607	26998
808.749	27249
808.891	27355
809.033	27389
809.174	27306
809.316	27176
809.458	27237
809.6	27203
809.741	27408
809.883	27393
810.025	27614
810.166	27367
810.308	27488
810.45	27393
810.591	27458
810.733	27287
810.875	27321
811.016	27291
811.158	27150
811.299	27272
811.441	27458
811.582	27420
811.724	27302
811.865	27241
812.007	27104
812.148	27173
812.29	27329
812.431	27401
812.573	27587
812.714	27580
812.855	27743
812.997	27812
813.138	28006
813.279	27797
813.421	27747
813.562	27648
813.703	27473
813.845	27435
813.986	27199
814.127	27043
814.268	26940
814.41	26807
814.551	26883
814.692	26925
814.833	26929
814.974	26826
815.115	26872
815.256	26853
815.397	26834
815.539	26861
815.68	26773
815.821	26674
815.962	26758
816.103	26663
816.244	26571
816.385	26575
816.526	26404
816.666	26389
816.807	26229
816.948	26115
817.089	26202
817.23	26218
817.371	26210
817.512	26176
817.653	26050
817.793	26252
817.934	26084
818.075	26233
818.216	26142
818.356	26157
818.497	26153
818.638	25761
818.778	26062
818.919	25883
819.06	26073
819.2	26081
819.341	26035
819.481	26107
819.622	26229
819.762	26457
819.903	26385
820.043	26183
820.184	26286
820.324	26225
820.465	26218
820.605	26191
820.746	26115
820.886	26092
821.026	26164
821.167	26180
821.307	26324
821.447	26362
821.588	26027
821.728	26035
821.868	25803
822.008	25578
822.149	25552
822.289	25624
822.429	25468
822.569	25145
822.709	25297
822.849	25156
822.99	25107
823.13	25122
823.27	24981
823.41	25000
823.55	24711
823.69	24875
823.83	24973
823.97	24916
824.11	24707
824.25	24817
824.389	24798
824.529	24875
824.669	24700
824.809	24741
824.949	24840
825.089	24779
825.228	24764
825.368	24639
825.508	24601
825.648	24555
825.787	24616
825.927	24578
826.067	24547
826.206	24589
826.346	24688
826.485	24696
826.625	24760
826.765	24669
826.904	24779
827.044	24483
827.183	24418
827.323	24437
827.462	24433
827.601	24365
827.741	24304
827.88	24266
828.02	24254
828.159	24308
828.298	24384
828.437	24277
828.577	24247
828.716	24452
828.855	24372
828.994	24125
829.134	24030
829.273	23901
829.412	23977
829.551	23935
829.69	24060
829.829	24155
829.968	24148
830.107	24022
830.246	23973
830.385	23939
830.524	23931
830.663	23748
830.802	23817
830.941	23653
831.08	23714
831.219	23714
831.357	23695
831.496	23863
831.635	23691
831.774	23486
831.913	23440
832.051	23448
832.19	23452
832.329	23467
832.467	23463
832.606	23341
832.744	23102
832.883	23372
833.022	23337
833.16	23288
833.299	23395
833.437	23356
833.576	23444
833.714	23387
833.852	23539
833.991	23524
834.129	23372
834.267	23356
834.406	23421
834.544	23223
834.682	23417
834.821	23334
834.959	23474
835.097	23280
835.235	23360
835.373	23360
835.511	23303
835.65	23364
835.788	23258
835.926	23261
836.064	23067
836.202	23212
836.34	23288
836.478	23364
836.615	23075
836.753	23280
836.891	23417
837.029	23197
837.167	23083
837.305	23090
837.443	23155
837.58	23143
837.718	23239
837.856	23181
837.993	23029
838.131	23185
838.269	22889
838.406	23014
838.544	22847
838.681	22793
838.819	22664
838.956	22573
839.094	22489
839.231	22702
839.369	22740
839.506	22957
839.643	22778
839.781	22527
839.918	22592
840.055	22531
840.193	22519
840.33	22417
840.467	22531
840.604	22561
840.742	22782
840.879	22299
841.016	22402
841.153	22344
841.29	22592
841.427	22424
841.564	22451
841.701	22443
841.838	22459
841.975	22466
842.112	22409
842.249	22337
842.385	22291
842.522	22531
842.659	22371
842.796	22223
842.933	22200
843.069	22188
843.206	22215
843.343	22280
843.479	22185
843.616	22314
843.752	22063
843.889	22093
844.025	22196
844.162	22021
844.298	22177
844.435	22090
844.571	22006
844.708	22143
844.844	22185
844.98	22116
845.117	22109
845.253	21922
845.389	21880
845.525	21892
845.661	22013
845.798	21705
845.934	21819
846.07	21770
846.206	21694
846.342	21888
846.478	21686
846.614	21572
846.75	21534
846.886	21408
847.022	21648
847.158	21599
847.294	21507
847.429	21572
847.565	21428
847.701	21759
847.837	21313
847.972	21176
848.108	21233
848.244	21287
848.379	21119
848.515	21138
848.65	21089
848.786	21157
848.921	21051
849.057	21066
849.192	21116
849.328	21039
849.463	21005
849.598	21112
849.734	20967
849.869	20948
850.004	20899
850.14	20944
850.275	20819
850.41	20750
850.545	20899
850.68	20788
850.815	21009
850.95	20838
851.085	21028
851.22	20918
851.355	20815
851.49	20815
851.625	20876
851.76	20906
851.895	20800
852.03	20678
852.165	20902
852.299	21001
852.434	20979
852.569	20868
852.703	20788
852.838	20857
852.973	20914
853.107	20914
853.242	20743
853.376	20781
853.511	20606
853.645	20712
853.78	20724
853.914	20731
854.048	20606
854.183	20655
854.317	20785
854.451	20937
854.585	20781
854.72	20731
854.854	20686
854.988	20606
855.122	20670
855.256	20526
855.39	20602
855.524	20724
855.658	20636
855.792	20697
855.926	20716
856.06	20762
856.194	20811
856.327	20613
856.461	20545
856.595	20549
856.729	20594
856.862	20842
856.996	20807
857.13	20781
857.263	20796
857.397	20899
857.53	20800
857.664	20712
857.797	20727
857.931	20883
858.064	20705
858.197	20902
858.331	20674
858.464	20617
858.597	20617
858.731	20724
858.864	20674
858.997	20659
859.13	20636
859.263	20602
859.396	20857
859.529	20590
859.662	20735
859.795	20594
859.928	20705
860.061	20788
860.194	20857
860.327	20708
860.46	20674
860.592	20754
860.725	20853
860.858	20834
860.99	20743
861.123	20545
861.256	20617
861.388	20693
861.521	21332
861.653	20427
861.786	20514
861.918	20476
862.05	20613
862.183	20663
862.315	20701
862.447	20602
862.58	20526
862.712	20423
862.844	20370
862.976	20549
863.108	20579
863.24	20758
863.372	20389
863.504	20450
863.636	20343
863.768	20442
863.9	20415
864.032	20229
864.164	20396
864.296	20305
864.428	20473
864.559	20503
864.691	20431
864.823	20381
864.954	20248
865.086	20465
865.217	20396
865.349	20366
865.48	20240
865.612	20320
865.743	20396
865.875	20233
866.006	20240
866.137	20248
866.269	20282
866.4	20286
866.531	20385
866.662	20206
866.793	20282
866.924	20290
867.055	20252
867.186	20214
867.317	20103
867.448	20225
867.579	20267
867.71	20103
867.841	20240
867.972	20366
868.103	20153
868.233	20210
868.364	20229
868.495	20381
868.625	20473
868.756	20590
868.886	20454
869.017	20514
869.147	20495
869.278	20598
869.408	20434
869.539	20499
869.669	20533
869.799	20617
869.929	20613
870.06	20518
870.19	20819
870.32	20758
870.45	20781
870.58	20906
870.71	20994
870.84	20975
870.97	20963
871.1	21051
871.23	21173
871.36	21112
871.489	20998
871.619	21112
871.749	21100
871.879	21169
872.008	21188
872.138	21161
872.267	21058
872.397	20899
872.526	20857
872.656	20941
872.785	20876
872.915	20971
873.044	21138
873.173	21116
873.303	21165
873.432	21157
873.561	21173
873.69	21100
873.819	21112
873.948	21256
874.077	21195
874.206	21093
874.335	21077
874.464	21226
874.593	21416
874.722	21272
874.851	21260
874.979	21363
875.108	21515
875.237	21416
875.365	21359
875.494	21363
875.623	21336
875.751	21321
875.88	21363
876.008	21523
876.136	21511
876.265	21717
876.393	21823
876.521	21808
876.65	21918
876.778	21747
876.906	21747
877.034	21705
877.162	21770
877.29	21603
877.418	21717
877.546	21774
877.674	21637
877.802	21766
877.93	21686
878.058	21614
878.185	21580
878.313	21534
878.441	21652
878.568	21511
878.696	21663
878.824	21778
878.951	21880
879.079	21778
879.206	21899
879.333	21857
879.461	21842
879.588	21873
879.715	21918
879.842	21991
879.97	21812
880.097	21549
880.224	21542
880.351	21576
880.478	21519
880.605	21435
880.732	21545
880.859	21778
880.986	21515
881.112	21549
881.239	21458
881.366	21283
881.493	21165
881.619	21070
881.746	21260
881.872	21032
881.999	21188
882.125	21119
882.252	21039
882.378	21096
882.505	21108
882.631	21039
882.757	20807
882.883	21001
883.01	20785
883.136	20800
883.262	20686
883.388	20746
883.514	20826
883.64	20933
883.766	20819
883.892	20602
884.018	20705
884.143	20712
884.269	20834
884.395	20518
884.52	20457
884.646	20469
884.772	20442
884.897	20457
885.023	20560
885.148	20480
885.274	20602
885.399	20583
885.524	20617
885.65	20484
885.775	20476
885.9	20518
886.025	20545
886.15	20351
886.275	20393
886.4	20317
886.525	20499
886.65	20374
886.775	20328
886.9	20545
887.025	20606
887.149	20533
887.274	20271
887.399	20237
887.523	20248
887.648	20248
887.773	20164
887.897	20294
888.021	20244
888.146	20221
888.27	20225
888.395	20282
888.519	20328
888.643	20434
888.767	20225
888.891	20206
889.015	20065
889.139	20161
889.263	20046
889.387	20202
889.511	20271
889.635	20290
889.759	20092
889.883	20096
890.006	20024
890.13	20084
890.254	20073
890.377	19925
890.501	19894
890.624	19715
890.748	19890
890.871	19655
890.995	19662
891.118	19563
891.241	19578
891.364	19658
891.488	19723
891.611	19491
891.734	19689
891.857	19674
891.98	19609
892.103	19651
892.226	19651
892.349	19613
892.471	19419
892.594	19537
892.717	19556
892.839	19510
892.962	19571
893.085	19514
893.207	19483
893.33	19514
893.452	19525
893.575	19514
893.697	19491
893.819	19670
893.941	19746
894.064	19708
894.186	19495
894.308	19407
894.43	19571
894.552	19784
894.674	19651
894.796	19354
894.918	19544
895.04	19499
895.161	19616
895.283	19666
895.405	19403
895.526	19472
895.648	19601
895.769	19567
895.891	19655
896.012	19609
896.134	19670
896.255	19506
896.376	19529
896.498	19499
896.619	19655
896.74	19613
896.861	19597
896.982	19788
897.103	20062
897.224	19849
897.345	19742
897.466	19696
897.587	19693
897.708	19803
897.828	19868
897.949	19708
898.07	19624
898.19	19738
898.311	19860
898.431	19753
898.552	19833
898.672	19799
898.792	19852
898.913	19875
899.033	19666
899.153	19647
899.273	19521
899.393	19502
899.513	19616
899.633	19670
899.753	19616
899.873	19476
899.993	19567
900.113	19392
900.232	19628
900.352	19453
900.472	19373
900.591	19282
900.711	19297
900.83	19221
900.95	19392
901.069	19426
901.189	19194
901.308	19046
901.427	18890
901.546	19004
901.665	18920
901.784	18913
901.904	18715
902.023	18658
902.141	18585
902.26	18445
902.379	18471
902.498	18429
902.617	18395
902.735	18410
902.854	18479
902.973	18410
903.091	18057
903.21	17931
903.328	18019
903.446	17965
903.565	17901
903.683	17889
903.801	17790
903.919	17931
904.038	17802
904.156	17733
904.274	17775
904.392	17668
904.51	17604
904.627	17596
904.745	17733
904.863	17790
904.981	17421
905.098	17406
905.216	17368
905.334	17524
905.451	17322
905.569	17421
905.686	17349
905.803	17440
905.921	17227
906.038	17288
906.155	17204
906.272	17094
906.389	17098
906.506	16965
906.623	17029
906.74	16847
906.857	16713
906.974	16755
907.091	16987
907.208	17041
907.324	16930
907.441	16828
907.557	16672
907.674	16668
907.79	16489
907.907	16618
908.023	16622
908.139	16607
908.256	16542
908.372	16436
908.488	16577
908.604	16436
908.72	16337
908.836	16322
908.952	16276
909.068	16390
909.184	16443
909.3	16341
909.415	16360
909.531	16341
909.647	16097
909.762	16017
909.878	16025
909.993	16059
910.108	15972
910.224	16032
910.339	16010
910.454	15880
910.57	15854
910.685	15854
910.8	16135
910.915	16063
911.03	15823
911.145	15709
911.259	15652
911.374	15728
911.489	15652
911.604	15534
911.718	15466
911.833	15431
911.947	15374
912.062	15298
912.176	15519
912.291	15538
912.405	15431
912.519	15614
912.633	15637
912.748	15477
912.862	15450
912.976	15272
913.09	15195
913.204	15211
913.318	15256
913.431	15325
913.545	15321
913.659	15374
913.772	15298
913.886	15058
914	15001
914.113	15150
914.226	15169
914.34	15150
914.453	14925
914.566	15081
914.68	14925
914.793	14880
914.906	14739
915.019	14667
915.132	14629
915.245	14667
915.358	14731
915.47	14689
915.583	14625
915.696	14686
915.809	14788
915.921	14720
916.034	14727
916.146	14560
916.259	14575
916.371	14716
916.483	14621
916.595	14457
916.708	14530
916.82	14495
916.932	14484
917.044	14511
917.156	14454
917.268	14332
917.38	14339
917.491	14343
917.603	14419
917.715	14393
917.826	14442
917.938	14278
918.049	14153
918.161	14301
918.272	14450
918.384	14366
918.495	14358
918.606	14153
918.717	14065
918.828	14103
918.939	14103
919.05	14065
919.161	14024
919.272	13845
919.383	13898
919.494	14161
919.604	14278
919.715	14115
919.826	13989
919.936	14043
920.047	14157
920.157	14054
920.267	14256
920.378	14065
920.488	13978
920.598	14233
920.708	14347
920.818	14206
920.928	14149
921.038	14374
921.148	14294
921.258	13989
921.368	13883
921.477	13833
921.587	13841
921.697	13727
921.806	13780
921.916	13719
922.025	13540
922.134	13556
922.244	13400
922.353	13556
922.462	13350
922.571	13381
922.68	13198
922.789	13122
922.898	13110
923.007	13069
923.116	13141
923.224	13110
923.333	13080
923.442	12970
923.55	12878
923.659	12966
923.767	13084
923.876	12928
923.984	13065
924.092	12840
924.201	12867
924.309	12806
924.417	12802
924.525	12814
924.633	12859
924.741	13708
924.849	12578
924.956	12722
925.064	12650
925.172	12525
925.279	12566
925.387	12517
925.494	12593
925.602	12521
925.709	12574
925.816	12513
925.924	12551
926.031	12566
926.138	12525
926.245	12467
926.352	12403
926.459	12597
926.566	12570
926.673	12456
926.779	12346
926.886	12338
926.993	12205
927.099	12106
927.206	12136
927.312	12019
927.419	12155
927.525	12220
927.631	12190
927.737	12026
927.843	12003
927.95	11840
928.056	11965
928.162	11942
928.267	11980
928.373	12688
928.479	12026
928.585	11882
928.69	11882
928.796	11935
928.901	11958
929.007	11680
929.112	11813
929.218	11741
929.323	11710
929.428	11767
929.533	11786
929.638	11615
929.743	11600
929.848	11767
929.953	11672
930.058	11581
930.163	11395
930.267	11372
930.372	11512
930.477	11341
930.581	11532
930.685	11406
930.79	11318
930.894	11376
930.998	11330
931.103	11433
931.207	11166
931.311	10961
931.415	10885
931.519	10679
931.623	10698
