Data from test_V78500241_1674.txt Node
Date: Fri Mar 25 15:21:30 CST 2022
User: usil
Spectrometer: V785-0024
Trigger mode: 0
Integration Time (sec): 4.000000E-1
Scans to average: 1
Nonlinearity correction enabled: false
Boxcar width: 0
Storing dark spectrum: false
XAxis mode: Wavelengths
Number of Pixels in Spectrum: 1024
>>>>>Begin Spectral Data<<<<<
801.071	28097
801.214	27854
801.356	27838
801.499	27564
801.641	27542
801.783	27477
801.926	27397
802.068	27549
802.211	27405
802.353	27378
802.496	27211
802.638	27176
802.78	27230
802.923	27138
803.065	27135
803.208	27127
803.35	27062
803.492	27260
803.635	27469
803.777	27256
803.919	27298
804.061	27808
804.204	27523
804.346	27504
804.488	27431
804.63	27473
804.773	27351
804.915	27412
805.057	27435
805.199	27348
805.341	27519
805.483	27443
805.626	27488
805.768	27462
805.91	27519
806.052	27485
806.194	27348
806.336	27713
806.478	27663
806.62	27504
806.762	27656
806.904	27751
807.046	27949
807.188	27876
807.33	27941
807.472	27873
807.614	27816
807.756	27953
807.898	27873
808.04	27751
808.182	27709
808.324	27846
808.465	27865
808.607	28044
808.749	28219
808.891	28196
809.033	28325
809.174	28306
809.316	28135
809.458	28101
809.6	28055
809.741	28200
809.883	28291
810.025	28462
810.166	28512
810.308	28386
810.45	28428
810.591	28390
810.733	28196
810.875	28135
811.016	27964
811.158	28215
811.299	28211
811.441	28200
811.582	28394
811.724	28253
811.865	28188
812.007	28280
812.148	28299
812.29	28253
812.431	28356
812.573	28500
812.714	28588
812.855	28573
812.997	28755
813.138	28888
813.279	28752
813.421	28653
813.562	28557
813.703	28611
813.845	28325
813.986	28177
814.127	28021
814.268	27831
814.41	27960
814.551	27641
814.692	27975
814.833	27827
814.974	27953
815.115	27934
815.256	27751
815.397	27831
815.539	27629
815.68	27698
815.821	27679
815.962	27717
816.103	27709
816.244	27675
816.385	27431
816.526	27435
816.666	27264
816.807	27260
816.948	27207
817.089	27203
817.23	27043
817.371	27233
817.512	27135
817.653	27241
817.793	27070
817.934	27237
818.075	27096
818.216	27203
818.356	27112
818.497	26937
818.638	26921
818.778	27051
818.919	27028
819.06	26891
819.2	27077
819.341	27203
819.481	27214
819.622	27340
819.762	27416
819.903	27359
820.043	27306
820.184	27108
820.324	27207
820.465	27340
820.605	27207
820.746	27325
820.886	27218
821.026	27165
821.167	27279
821.307	27344
821.447	27222
821.588	26887
821.728	26986
821.868	26762
822.008	26560
822.149	26667
822.289	26598
822.429	26438
822.569	26286
822.709	26206
822.849	26092
822.99	26164
823.13	26062
823.27	26168
823.41	26043
823.55	25898
823.69	25917
823.83	26016
823.97	25864
824.11	25712
824.25	25761
824.389	25795
824.529	25951
824.669	25712
824.809	26024
824.949	25860
825.089	25887
825.228	25693
825.368	25681
825.508	25575
825.648	25578
825.787	25750
825.927	25757
826.067	25578
826.206	25647
826.346	25753
826.485	25643
826.625	25655
826.765	25845
826.904	25677
827.044	25453
827.183	25552
827.323	25381
827.462	25396
827.601	25449
827.741	25358
827.88	25369
828.02	25285
828.159	25289
828.298	25320
828.437	25266
828.577	25339
828.716	25594
828.855	25270
828.994	25183
829.134	25084
829.273	24996
829.412	25148
829.551	24935
829.69	25137
829.829	25080
829.968	25156
830.107	25091
830.246	25076
830.385	24920
830.524	25008
830.663	24970
830.802	24829
830.941	24639
831.08	24650
831.219	24776
831.357	24798
831.496	24901
831.635	24753
831.774	24601
831.913	24566
832.051	24384
832.19	24490
832.329	24460
832.467	24327
832.606	24395
832.744	24186
832.883	24433
833.022	24384
833.16	24380
833.299	24410
833.437	24456
833.576	24448
833.714	24494
833.852	24426
833.991	24448
834.129	24456
834.267	24494
834.406	24410
834.544	24426
834.682	24502
834.821	24357
834.959	24585
835.097	24273
835.235	24403
835.373	24228
835.511	24551
835.65	24285
835.788	24289
835.926	24095
836.064	24079
836.202	24049
836.34	24216
836.478	24346
836.615	24247
836.753	24384
836.891	24323
837.029	24270
837.167	24182
837.305	24114
837.443	24155
837.58	24110
837.718	24148
837.856	24076
837.993	24034
838.131	24102
838.269	23977
838.406	24057
838.544	23866
838.681	23779
838.819	23760
838.956	23543
839.094	23452
839.231	23634
839.369	23703
839.506	23904
839.643	23855
839.781	23516
839.918	23486
840.055	23516
840.193	23547
840.33	23433
840.467	23379
840.604	23360
840.742	23748
840.879	23414
841.016	23258
841.153	23296
841.29	23604
841.427	23490
841.564	23619
841.701	23436
841.838	23383
841.975	23341
842.112	23414
842.249	23223
842.385	23311
842.522	23482
842.659	23406
842.796	23117
842.933	23261
843.069	23128
843.206	23113
843.343	23288
843.479	23288
843.616	23189
843.752	23010
843.889	23037
844.025	23254
844.162	22999
844.298	23048
844.435	23079
844.571	22812
844.708	22999
844.844	23075
844.98	23140
845.117	23178
845.253	22824
845.389	23006
845.525	22885
845.661	22801
845.798	22694
845.934	22771
846.07	22812
846.206	22717
846.342	22843
846.478	22763
846.614	22577
846.75	22409
846.886	22443
847.022	22569
847.158	22356
847.294	22516
847.429	22519
847.565	22542
847.701	22599
847.837	22200
847.972	22162
848.108	22333
848.244	22276
848.379	22112
848.515	22025
848.65	22074
848.786	22082
848.921	22090
849.057	22124
849.192	22181
849.328	22090
849.463	22040
849.598	21956
849.734	21922
849.869	21949
850.004	21899
850.14	21835
850.275	21781
850.41	21785
850.545	21759
850.68	21831
850.815	21861
850.95	21774
851.085	21941
851.22	21926
851.355	21888
851.49	21808
851.625	21884
851.76	21816
851.895	21751
852.03	21800
852.165	21819
852.299	21854
852.434	21846
852.569	21804
852.703	21926
852.838	21854
852.973	21972
853.107	21975
853.242	21759
853.376	21648
853.511	21583
853.645	21663
853.78	21732
853.914	21610
854.048	21671
854.183	21606
854.317	21823
854.451	21819
854.585	21652
854.72	21606
854.854	21751
854.988	21599
855.122	21679
855.256	21477
855.39	21644
855.524	21812
855.658	21648
855.792	21591
855.926	21671
856.06	21679
856.194	21690
856.327	21739
856.461	21530
856.595	21466
856.729	21610
856.862	21827
856.996	21739
857.13	21663
857.263	21774
857.397	21667
857.53	21660
857.664	21618
857.797	21739
857.931	21774
858.064	21641
858.197	21587
858.331	21530
858.464	21633
858.597	21473
858.731	21606
858.864	21614
858.997	21576
859.13	21561
859.263	21572
859.396	21888
859.529	21660
859.662	21488
859.795	21523
859.928	21603
860.061	21800
860.194	21835
860.327	21842
860.46	21637
860.592	21747
860.725	21819
860.858	21762
860.99	21667
861.123	21538
861.256	21580
861.388	21709
861.521	22356
861.653	21450
861.786	21405
861.918	21466
862.05	21614
862.183	21606
862.315	21580
862.447	21739
862.58	21583
862.712	21389
862.844	21363
862.976	21374
863.108	21355
863.24	21937
863.372	21310
863.504	21313
863.636	21348
863.768	21340
863.9	21344
864.032	21370
864.164	21317
864.296	21344
864.428	21408
864.559	21393
864.691	21435
864.823	21226
864.954	21272
865.086	21355
865.217	21199
865.349	21184
865.48	21291
865.612	21165
865.743	21386
865.875	21165
866.006	21230
866.137	21298
866.269	21226
866.4	21241
866.531	21146
866.662	21214
866.793	21188
866.924	21199
867.055	21169
867.186	21100
867.317	21089
867.448	21157
867.579	21074
867.71	21024
867.841	21051
867.972	21222
868.103	21100
868.233	21123
868.364	21169
868.495	21272
868.625	21386
868.756	21515
868.886	21256
869.017	21408
869.147	21397
869.278	21405
869.408	21283
869.539	21439
869.669	21500
869.799	21462
869.929	21523
870.06	21469
870.19	21781
870.32	21770
870.45	21743
870.58	21819
870.71	21850
870.84	21968
870.97	21766
871.1	21720
871.23	22017
871.36	22040
871.489	21899
871.619	21835
871.749	21922
871.879	21956
872.008	22177
872.138	21991
872.267	22105
872.397	21804
872.526	21880
872.656	21762
872.785	21857
872.915	21953
873.044	21968
873.173	21953
873.303	22078
873.432	22147
873.561	22162
873.69	22036
873.819	21991
873.948	22074
874.077	22063
874.206	21987
874.335	21998
874.464	22086
874.593	22196
874.722	22268
874.851	22314
874.979	22226
875.108	22261
875.237	22242
875.365	22158
875.494	22158
875.623	22230
875.751	22147
875.88	22284
876.008	22322
876.136	22523
876.265	22691
876.393	22637
876.521	22717
876.65	22702
876.778	22660
876.906	22561
877.034	22519
877.162	22523
877.29	22554
877.418	22569
877.546	22607
877.674	22546
877.802	22733
877.93	22653
878.058	22493
878.185	22478
878.313	22451
878.441	22607
878.568	22421
878.696	22478
878.824	22577
878.951	22679
879.079	22820
879.206	22847
879.333	22744
879.461	22618
879.588	22645
879.715	22736
879.842	22858
879.97	22668
880.097	22428
880.224	22432
880.351	22417
880.478	22394
880.605	22371
880.732	22196
880.859	22634
880.986	22508
881.112	22405
881.239	22249
881.366	22086
881.493	22143
881.619	21983
881.746	22090
881.872	22002
881.999	21930
882.125	21781
882.252	22010
882.378	22013
882.505	22017
882.631	21861
882.757	21751
882.883	21816
883.01	21682
883.136	21686
883.262	21587
883.388	21504
883.514	21713
883.64	21648
883.766	21599
883.892	21530
884.018	21515
884.143	21530
884.269	21671
884.395	21359
884.52	21291
884.646	21287
884.772	21195
884.897	21211
885.023	21302
885.148	21393
885.274	21447
885.399	21325
885.524	21291
885.65	21374
885.775	21348
885.9	21325
886.025	21504
886.15	21401
886.275	21135
886.4	21142
886.525	21332
886.65	21252
886.775	21279
886.9	21504
887.025	21496
887.149	21195
887.274	21150
887.399	21127
887.523	21032
887.648	20944
887.773	20952
887.897	21112
888.021	21146
888.146	21009
888.27	21218
888.395	21165
888.519	21119
888.643	21138
888.767	21199
888.891	21036
889.015	20906
889.139	21020
889.263	20861
889.387	20929
889.511	21093
889.635	20849
889.759	20777
889.883	20864
890.006	20853
890.13	21066
890.254	20823
890.377	20785
890.501	20636
890.624	20556
890.748	20705
890.871	20476
890.995	20473
891.118	20328
891.241	20370
891.364	20484
891.488	20746
891.611	20412
891.734	20442
891.857	20533
891.98	20480
892.103	20465
892.226	20427
892.349	20438
892.471	20256
892.594	20343
892.717	20400
892.839	20446
892.962	20427
893.085	20389
893.207	20343
893.33	20176
893.452	20275
893.575	20294
893.697	20385
893.819	20362
893.941	20404
894.064	20408
894.186	20355
894.308	20183
894.43	20469
894.552	20423
894.674	20434
894.796	20195
894.918	20328
895.04	20199
895.161	20419
895.283	20298
895.405	20275
895.526	20385
895.648	20309
895.769	20434
895.891	20358
896.012	20461
896.134	20434
896.255	20374
896.376	20324
896.498	20278
896.619	20415
896.74	20412
896.861	20492
896.982	20636
897.103	20568
897.224	20560
897.345	20530
897.466	20537
897.587	20568
897.708	20629
897.828	20541
897.949	20507
898.07	20408
898.19	20450
898.311	20613
898.431	20434
898.552	20507
898.672	20575
898.792	20613
898.913	20530
899.033	20499
899.153	20404
899.273	20180
899.393	20332
899.513	20275
899.633	20180
899.753	20313
899.873	20248
899.993	20324
900.113	20210
900.232	20347
900.352	20168
900.472	20107
900.591	19944
900.711	20119
900.83	20005
900.95	20206
901.069	20122
901.189	19997
901.308	19696
901.427	19628
901.546	19563
901.665	19670
901.784	19715
901.904	19510
902.023	19407
902.141	19156
902.26	19057
902.379	19152
902.498	19175
902.617	19012
902.735	19251
902.854	19202
902.973	19023
903.091	18829
903.21	18878
903.328	18791
903.446	18642
903.565	18730
903.683	18726
903.801	18525
903.919	18544
904.038	18597
904.156	18418
904.274	18456
904.392	18330
904.51	18213
904.627	18391
904.745	18407
904.863	18391
904.981	18194
905.098	18098
905.216	18060
905.334	18174
905.451	18106
905.569	18034
905.686	18098
905.803	17965
905.921	17908
906.038	17912
906.155	17783
906.272	17691
906.389	17760
906.506	17684
906.623	17661
906.74	17543
906.857	17592
906.974	17493
907.091	17608
907.208	17760
907.324	17619
907.441	17417
907.557	17307
907.674	17254
907.79	17318
907.907	17326
908.023	17425
908.139	17334
908.256	17242
908.372	17143
908.488	17193
908.604	17086
908.72	17094
908.836	17018
908.952	17052
909.068	17124
909.184	17258
909.3	17067
909.415	17033
909.531	16995
909.647	16869
909.762	16717
909.878	16694
909.993	16618
910.108	16668
910.224	16675
910.339	16603
910.454	16645
910.57	16561
910.685	16550
910.8	16782
910.915	16721
911.03	16470
911.145	16382
911.259	16303
911.374	16303
911.489	16246
911.604	16158
911.718	16082
911.833	16128
911.947	15934
912.062	15888
912.176	16010
912.291	15975
912.405	16025
912.519	16249
912.633	16177
912.748	16196
912.862	15994
912.976	15854
913.09	15778
913.204	15911
913.318	15953
913.431	15827
913.545	15930
913.659	15953
913.772	15778
913.886	15793
914	15644
914.113	15766
914.226	15827
914.34	15793
914.453	15622
914.566	15701
914.68	15614
914.793	15507
914.906	15287
915.019	15294
915.132	15245
915.245	15332
915.358	15169
915.47	15226
915.583	15260
915.696	15260
915.809	15310
915.921	15397
916.034	15207
916.146	15199
916.259	15184
916.371	15272
916.483	15279
916.595	15062
916.708	15142
916.82	15112
916.932	15043
917.044	15024
917.156	15043
917.268	14963
917.38	15009
917.491	14891
917.603	14842
917.715	14998
917.826	14986
917.938	14830
918.049	14731
918.161	14861
918.272	15085
918.384	14937
918.495	14853
918.606	14640
918.717	14617
918.828	14731
918.939	14785
919.05	14613
919.161	14708
919.272	14488
919.383	14511
919.494	14724
919.604	14796
919.715	14716
919.826	14587
919.936	14530
920.047	14705
920.157	14648
920.267	14807
920.378	14762
920.488	14617
920.598	14746
920.708	14925
920.818	14777
920.928	14781
921.038	14952
921.148	14823
921.258	14651
921.368	14564
921.477	14336
921.587	14301
921.697	14282
921.806	14412
921.916	14263
922.025	14054
922.134	13974
922.244	13925
922.353	14043
922.462	13898
922.571	13734
922.68	13693
922.789	13655
922.898	13616
923.007	13552
923.116	13662
923.224	13563
923.333	13670
923.442	13552
923.55	13483
923.659	13552
923.767	13544
923.876	13365
923.984	13510
924.092	13350
924.201	13381
924.309	13358
924.417	13400
924.525	13324
924.633	13335
924.741	14123
924.849	13046
924.956	13206
925.064	13179
925.172	12977
925.279	13046
925.387	13168
925.494	13126
925.602	13164
925.709	13088
925.816	13000
925.924	12932
926.031	13065
926.138	12966
926.245	12989
926.352	12924
926.459	13072
926.566	12977
926.673	12795
926.779	12779
926.886	12814
926.993	12677
927.099	12665
927.206	12623
927.312	12536
927.419	12688
927.525	12490
927.631	12681
927.737	12509
927.843	12566
927.95	12395
928.056	12350
928.162	12445
928.267	12494
928.373	13095
928.479	12559
928.585	12281
928.69	12433
928.796	12399
928.901	12292
929.007	12228
929.112	12353
929.218	12205
929.323	12277
929.428	12167
929.533	12258
929.638	12121
929.743	12060
929.848	12102
929.953	12087
930.058	11912
930.163	11859
930.267	11817
930.372	11999
930.477	11904
930.581	12011
930.685	11859
930.79	11729
930.894	11760
930.998	11707
931.103	11813
931.207	11493
931.311	11398
931.415	11303
931.519	11083
931.623	11178
