Data from test_V78500241_2527.txt Node
Date: Fri Mar 25 15:27:27 CST 2022
User: usil
Spectrometer: V785-0024
Trigger mode: 0
Integration Time (sec): 4.000000E-1
Scans to average: 1
Nonlinearity correction enabled: false
Boxcar width: 0
Storing dark spectrum: false
XAxis mode: Wavelengths
Number of Pixels in Spectrum: 1024
>>>>>Begin Spectral Data<<<<<
801.071	27108
801.214	27058
801.356	26849
801.499	26788
801.641	26651
801.783	26670
801.926	26629
802.068	26621
802.211	26651
802.353	26511
802.496	26389
802.638	26358
802.78	26282
802.923	26305
803.065	26199
803.208	26142
803.35	26282
803.492	26431
803.635	26476
803.777	26309
803.919	26549
804.061	26788
804.204	26434
804.346	26442
804.488	26328
804.63	26514
804.773	26298
804.915	26461
805.057	26495
805.199	26362
805.341	26473
805.483	26727
805.626	26431
805.768	26632
805.91	26609
806.052	26552
806.194	26377
806.336	26701
806.478	26530
806.62	26564
806.762	26705
806.904	26804
807.046	26933
807.188	26925
807.33	26910
807.472	26876
807.614	26952
807.756	26838
807.898	26762
808.04	26708
808.182	26708
808.324	26800
808.465	26845
808.607	27017
808.749	27135
808.891	27154
809.033	27207
809.174	27161
809.316	27058
809.458	27138
809.6	26998
809.741	27264
809.883	27123
810.025	27439
810.166	27298
810.308	27542
810.45	27329
810.591	27370
810.733	27135
810.875	27062
811.016	26956
811.158	27051
811.299	27252
811.441	27256
811.582	27302
811.724	27188
811.865	27146
812.007	26986
812.148	27131
812.29	27154
812.431	27283
812.573	27401
812.714	27439
812.855	27679
812.997	27713
813.138	27724
813.279	27603
813.421	27644
813.562	27538
813.703	27332
813.845	27332
813.986	27096
814.127	26906
814.268	26712
814.41	26689
814.551	26731
814.692	26792
814.833	26758
814.974	26887
815.115	26857
815.256	26792
815.397	26746
815.539	26659
815.68	26579
815.821	26522
815.962	26488
816.103	26404
816.244	26412
816.385	26366
816.526	26313
816.666	26263
816.807	26092
816.948	26168
817.089	26149
817.23	26107
817.371	25993
817.512	26027
817.653	25940
817.793	25913
817.934	25936
818.075	26088
818.216	25970
818.356	26084
818.497	25940
818.638	25761
818.778	25830
818.919	25769
819.06	25871
819.2	25868
819.341	26054
819.481	26005
819.622	26195
819.762	26187
819.903	26214
820.043	26107
820.184	26180
820.324	26168
820.465	26142
820.605	26183
820.746	26191
820.886	26069
821.026	26084
821.167	26096
821.307	26088
821.447	26206
821.588	25826
821.728	25803
821.868	25780
822.008	25514
822.149	25575
822.289	25384
822.429	25331
822.569	25187
822.709	25183
822.849	25015
822.99	24996
823.13	25031
823.27	25008
823.41	24882
823.55	24700
823.69	24791
823.83	24772
823.97	24791
824.11	24646
824.25	24764
824.389	24700
824.529	24783
824.669	24639
824.809	24848
824.949	24677
825.089	24639
825.228	24677
825.368	24620
825.508	24490
825.648	24570
825.787	24639
825.927	24479
826.067	24555
826.206	24536
826.346	24669
826.485	24669
826.625	24566
826.765	24681
826.904	24593
827.044	24258
827.183	24395
827.323	24334
827.462	24254
827.601	24235
827.741	24167
827.88	24232
828.02	24319
828.159	24247
828.298	24342
828.437	24239
828.577	24216
828.716	24277
828.855	24076
828.994	24015
829.134	23977
829.273	23912
829.412	23897
829.551	23942
829.69	23878
829.829	23999
829.968	24068
830.107	23988
830.246	24007
830.385	23901
830.524	23912
830.663	23783
830.802	23649
830.941	23608
831.08	23520
831.219	23604
831.357	23695
831.496	23794
831.635	23600
831.774	23535
831.913	23444
832.051	23433
832.19	23280
832.329	23448
832.467	23326
832.606	23391
832.744	23220
832.883	23227
833.022	23193
833.16	23318
833.299	23235
833.437	23174
833.576	23318
833.714	23322
833.852	23379
833.991	23292
834.129	23429
834.267	23459
834.406	23398
834.544	23337
834.682	23436
834.821	23296
834.959	23490
835.097	23242
835.235	23417
835.373	23349
835.511	23292
835.65	23254
835.788	23315
835.926	23174
836.064	23048
836.202	23083
836.34	23204
836.478	23200
836.615	23147
836.753	23140
836.891	23280
837.029	23212
837.167	23178
837.305	23006
837.443	22987
837.58	22972
837.718	23113
837.856	23060
837.993	22961
838.131	22927
838.269	22938
838.406	22949
838.544	22831
838.681	22713
838.819	22645
838.956	22561
839.094	22478
839.231	22557
839.369	22687
839.506	23044
839.643	22839
839.781	22504
839.918	22443
840.055	22577
840.193	22379
840.33	22451
840.467	22550
840.604	22577
840.742	22812
840.879	22329
841.016	22402
841.153	22447
841.29	22535
841.427	22386
841.564	22424
841.701	22402
841.838	22287
841.975	22325
842.112	22451
842.249	22299
842.385	22211
842.522	22478
842.659	22272
842.796	22177
842.933	22124
843.069	22101
843.206	22219
843.343	22329
843.479	22185
843.616	22295
843.752	21899
843.889	22048
844.025	22044
844.162	21937
844.298	22177
844.435	21960
844.571	21903
844.708	22048
844.844	22063
844.98	22074
845.117	22036
845.253	21895
845.389	21842
845.525	21884
845.661	21865
845.798	21880
845.934	21785
846.07	21648
846.206	21713
846.342	21755
846.478	21690
846.614	21564
846.75	21408
846.886	21420
847.022	21454
847.158	21416
847.294	21405
847.429	21469
847.565	21469
847.701	21705
847.837	21218
847.972	21188
848.108	21192
848.244	21233
848.379	21070
848.515	21020
848.65	20921
848.786	21070
848.921	21108
849.057	21161
849.192	21093
849.328	21089
849.463	21222
849.598	20948
849.734	20994
849.869	21017
850.004	20765
850.14	20758
850.275	20815
850.41	20674
850.545	20838
850.68	20838
850.815	20902
850.95	20826
851.085	21032
851.22	20963
851.355	20937
851.49	20830
851.625	20777
851.76	20762
851.895	20606
852.03	20720
852.165	20842
852.299	20872
852.434	20929
852.569	20735
852.703	20826
852.838	20937
852.973	20975
853.107	20952
853.242	20697
853.376	20560
853.511	20518
853.645	20705
853.78	20785
853.914	20583
854.048	20499
854.183	20720
854.317	20716
854.451	20781
854.585	20674
854.72	20689
854.854	20746
854.988	20564
855.122	20606
855.256	20541
855.39	20625
855.524	20727
855.658	20686
855.792	20689
855.926	20575
856.06	20807
856.194	20640
856.327	20587
856.461	20587
856.595	20674
856.729	20511
856.862	20712
856.996	20640
857.13	20708
857.263	20830
857.397	20765
857.53	20670
857.664	20689
857.797	20807
857.931	20762
858.064	20655
858.197	20648
858.331	20583
858.464	20526
858.597	20598
858.731	20549
858.864	20602
858.997	20583
859.13	20602
859.263	20598
859.396	20861
859.529	20693
859.662	20549
859.795	20655
859.928	20602
860.061	20716
860.194	20830
860.327	20735
860.46	20739
860.592	20777
860.725	20838
860.858	20773
860.99	20712
861.123	20663
861.256	20632
861.388	20594
861.521	21416
861.653	20461
861.786	20370
861.918	20358
862.05	20446
862.183	20484
862.315	20549
862.447	20598
862.58	20549
862.712	20374
862.844	20301
862.976	20461
863.108	20484
863.24	20864
863.372	20328
863.504	20389
863.636	20309
863.768	20412
863.9	20324
864.032	20263
864.164	20328
864.296	20454
864.428	20480
864.559	20377
864.691	20450
864.823	20484
864.954	20396
865.086	20358
865.217	20294
865.349	20172
865.48	20317
865.612	20229
865.743	20400
865.875	20233
866.006	20161
866.137	20286
866.269	20263
866.4	20282
866.531	20172
866.662	20183
866.793	20233
866.924	20214
867.055	20339
867.186	20210
867.317	20202
867.448	20134
867.579	20172
867.71	20157
867.841	20164
867.972	20157
868.103	20130
868.233	20199
868.364	20202
868.495	20206
868.625	20415
868.756	20446
868.886	20461
869.017	20385
869.147	20514
869.278	20541
869.408	20457
869.539	20438
869.669	20503
869.799	20556
869.929	20648
870.06	20461
870.19	20689
870.32	20705
870.45	20735
870.58	20811
870.71	20986
870.84	20895
870.97	20929
871.1	20880
871.23	20933
871.36	21108
871.489	20933
871.619	20967
871.749	20994
871.879	21127
872.008	21096
872.138	21024
872.267	21043
872.397	20895
872.526	20933
872.656	20792
872.785	20880
872.915	21089
873.044	21146
873.173	21089
873.303	21173
873.432	21157
873.561	21165
873.69	21024
873.819	21043
873.948	21108
874.077	21039
874.206	21066
874.335	21062
874.464	21176
874.593	21420
874.722	21348
874.851	21462
874.979	21230
875.108	21496
875.237	21241
875.365	21207
875.494	21348
875.623	21348
875.751	21211
875.88	21382
876.008	21485
876.136	21450
876.265	21701
876.393	21888
876.521	21838
876.65	21797
876.778	21797
876.906	21580
877.034	21583
877.162	21644
877.29	21618
877.418	21667
877.546	21690
877.674	21663
877.802	21724
877.93	21599
878.058	21568
878.185	21599
878.313	21610
878.441	21694
878.568	21454
878.696	21542
878.824	21751
878.951	21743
879.079	21804
879.206	22002
879.333	21759
879.461	21603
879.588	21842
879.715	21797
879.842	21842
879.97	21705
880.097	21420
880.224	21443
880.351	21568
880.478	21382
880.605	21454
880.732	21492
880.859	21808
880.986	21344
881.112	21557
881.239	21504
881.366	21313
881.493	21211
881.619	21142
881.746	21157
881.872	21150
881.999	21009
882.125	21009
882.252	21154
882.378	21066
882.505	21245
882.631	20967
882.757	20830
882.883	20944
883.01	20796
883.136	20781
883.262	20625
883.388	20583
883.514	20746
883.64	20826
883.766	20830
883.892	20518
884.018	20530
884.143	20762
884.269	20853
884.395	20469
884.52	20461
884.646	20446
884.772	20393
884.897	20324
885.023	20552
885.148	20571
885.274	20530
885.399	20503
885.524	20457
885.65	20408
885.775	20396
885.9	20396
886.025	20571
886.15	20602
886.275	20343
886.4	20290
886.525	20461
886.65	20328
886.775	20332
886.9	20507
887.025	20602
887.149	20404
887.274	20214
887.399	20294
887.523	20221
887.648	20077
887.773	20183
887.897	20248
888.021	20195
888.146	20130
888.27	20343
888.395	20324
888.519	20267
888.643	20267
888.767	20199
888.891	20183
889.015	19993
889.139	20111
889.263	19932
889.387	20103
889.511	20229
889.635	20142
889.759	19997
889.883	20065
890.006	20020
890.13	20107
890.254	19936
890.377	20005
890.501	19677
890.624	19658
890.748	19849
890.871	19704
890.995	19521
891.118	19616
891.241	19715
891.364	19578
891.488	19761
891.611	19548
891.734	19647
891.857	19647
891.98	19578
892.103	19715
892.226	19563
892.349	19544
892.471	19499
892.594	19578
892.717	19514
892.839	19514
892.962	19563
893.085	19658
893.207	19476
893.33	19365
893.452	19426
893.575	19601
893.697	19540
893.819	19655
893.941	19647
894.064	19578
894.186	19537
894.308	19369
894.43	19472
894.552	19666
894.674	19578
894.796	19559
894.918	19331
895.04	19411
895.161	19635
895.283	19559
895.405	19426
895.526	19537
895.648	19483
895.769	19586
895.891	19613
896.012	19601
896.134	19594
896.255	19518
896.376	19434
896.498	19483
896.619	19632
896.74	19480
896.861	19563
896.982	19715
897.103	20008
897.224	19791
897.345	19757
897.466	19628
897.587	19757
897.708	19822
897.828	19769
897.949	19609
898.07	19571
898.19	19578
898.311	19788
898.431	19696
898.552	19727
898.672	19807
898.792	19879
898.913	19704
899.033	19674
899.153	19540
899.273	19415
899.393	19525
899.513	19502
899.633	19487
899.753	19483
899.873	19457
899.993	19556
900.113	19476
900.232	19510
900.352	19381
900.472	19327
900.591	19194
900.711	19308
900.83	19285
900.95	19457
901.069	19377
901.189	19194
901.308	19008
901.427	18859
901.546	18871
901.665	18814
901.784	18947
901.904	18795
902.023	18616
902.141	18467
902.26	18471
902.379	18521
902.498	18403
902.617	18353
902.735	18467
902.854	18304
902.973	18300
903.091	18091
903.21	18041
903.328	17939
903.446	18064
903.565	17908
903.683	17935
903.801	17821
903.919	17824
904.038	17813
904.156	17657
904.274	17687
904.392	17577
904.51	17592
904.627	17638
904.745	17710
904.863	17604
904.981	17490
905.098	17265
905.216	17280
905.334	17334
905.451	17398
905.569	17296
905.686	17318
905.803	17341
905.921	17208
906.038	17254
906.155	17155
906.272	17060
906.389	17113
906.506	16927
906.623	16835
906.74	16896
906.857	16736
906.974	16786
907.091	16957
907.208	16984
907.324	16885
907.441	16801
907.557	16599
907.674	16618
907.79	16565
907.907	16611
908.023	16683
908.139	16630
908.256	16474
908.372	16451
908.488	16500
908.604	16284
908.72	16211
908.836	16356
908.952	16314
909.068	16398
909.184	16497
909.3	16322
909.415	16341
909.531	16265
909.647	16082
909.762	16097
909.878	15930
909.993	16082
910.108	15994
910.224	15930
910.339	16036
910.454	15937
910.57	15804
910.685	15679
910.8	16010
910.915	16071
911.03	15899
911.145	15747
911.259	15679
911.374	15743
911.489	15576
911.604	15496
911.718	15386
911.833	15519
911.947	15306
912.062	15332
912.176	15428
912.291	15534
912.405	15481
912.519	15606
912.633	15644
912.748	15454
912.862	15363
912.976	15291
913.09	15058
913.204	15100
913.318	15135
913.431	15275
913.545	15245
913.659	15294
913.772	15188
913.886	15116
914	15051
914.113	15013
914.226	15176
914.34	15135
914.453	14868
914.566	15017
914.68	14937
914.793	14811
914.906	14644
915.019	14564
915.132	14617
915.245	14659
915.358	14693
915.47	14667
915.583	14670
915.696	14720
915.809	14746
915.921	14906
916.034	14674
916.146	14545
916.259	14450
916.371	14594
916.483	14655
916.595	14480
916.708	14412
916.82	14560
916.932	14495
917.044	14412
917.156	14351
917.268	14298
917.38	14351
917.491	14286
917.603	14237
917.715	14423
917.826	14374
917.938	14275
918.049	14180
918.161	14256
918.272	14366
918.384	14332
918.495	14286
918.606	14088
918.717	13951
918.828	14092
918.939	14130
919.05	13997
919.161	14043
919.272	13841
919.383	13909
919.494	14115
919.604	14244
919.715	13993
919.826	14001
919.936	13936
920.047	14142
920.157	13997
920.267	14294
920.378	14008
920.488	13936
920.598	14149
920.708	14313
920.818	14199
920.928	14210
921.038	14278
921.148	14267
921.258	14054
921.368	13921
921.477	13746
921.587	13830
921.697	13655
921.806	13845
921.916	13727
922.025	13491
922.134	13540
922.244	13495
922.353	13438
922.462	13320
922.571	13304
922.68	13084
922.789	13118
922.898	13141
923.007	13088
923.116	13084
923.224	13137
923.333	13027
923.442	12951
923.55	12954
923.659	13004
923.767	13004
923.876	12829
923.984	12913
924.092	12875
924.201	12871
924.309	12859
924.417	12951
924.525	12829
924.633	12810
924.741	13658
924.849	12582
924.956	12703
925.064	12540
925.172	12441
925.279	12521
925.387	12544
925.494	12471
925.602	12620
925.709	12528
925.816	12460
925.924	12441
926.031	12639
926.138	12471
926.245	12551
926.352	12407
926.459	12536
926.566	12517
926.673	12448
926.779	12330
926.886	12228
926.993	12140
927.099	12171
927.206	12011
927.312	12125
927.419	12178
927.525	12136
927.631	12167
927.737	12015
927.843	11939
927.95	11870
928.056	11973
928.162	11935
928.267	11950
928.373	12601
928.479	12060
928.585	11824
928.69	11821
928.796	11923
928.901	11843
929.007	11741
929.112	11809
929.218	11722
929.323	11646
929.428	11615
929.533	11821
929.638	11642
929.743	11657
929.848	11672
929.953	11592
930.058	11516
930.163	11318
930.267	11391
930.372	11482
930.477	11379
930.581	11573
930.685	11459
930.79	11208
930.894	11311
930.998	11315
931.103	11372
931.207	11041
931.311	10930
931.415	10927
931.519	10672
931.623	10630
