Data from test_V78500241_2866.txt Node
Date: Fri Mar 25 15:29:49 CST 2022
User: usil
Spectrometer: V785-0024
Trigger mode: 0
Integration Time (sec): 4.000000E-1
Scans to average: 1
Nonlinearity correction enabled: false
Boxcar width: 0
Storing dark spectrum: false
XAxis mode: Wavelengths
Number of Pixels in Spectrum: 1024
>>>>>Begin Spectral Data<<<<<
801.071	27226
801.214	27222
801.356	26868
801.499	26899
801.641	26762
801.783	26629
801.926	26602
802.068	26724
802.211	26549
802.353	26431
802.496	26503
802.638	26499
802.78	26305
802.923	26351
803.065	26278
803.208	26282
803.35	26366
803.492	26415
803.635	26511
803.777	26461
803.919	26613
804.061	26750
804.204	26423
804.346	26400
804.488	26343
804.63	26556
804.773	26434
804.915	26564
805.057	26613
805.199	26438
805.341	26495
805.483	26682
805.626	26663
805.768	26492
805.91	26693
806.052	26568
806.194	26412
806.336	26807
806.478	26629
806.62	26575
806.762	26644
806.904	26876
807.046	27032
807.188	26998
807.33	27028
807.472	27089
807.614	26902
807.756	26933
807.898	26762
808.04	26868
808.182	26815
808.324	26986
808.465	26830
808.607	27005
808.749	27203
808.891	27256
809.033	27393
809.174	27249
809.316	27291
809.458	27211
809.6	27150
809.741	27195
809.883	27332
810.025	27454
810.166	27450
810.308	27469
810.45	27389
810.591	27302
810.733	27207
810.875	27188
811.016	27142
811.158	27127
811.299	27302
811.441	27313
811.582	27405
811.724	27096
811.865	27173
812.007	27066
812.148	27222
812.29	27233
812.431	27378
812.573	27450
812.714	27534
812.855	27534
812.997	27705
813.138	27831
813.279	27747
813.421	27679
813.562	27462
813.703	27538
813.845	27405
813.986	27089
814.127	27096
814.268	26899
814.41	26906
814.551	26937
814.692	26899
814.833	26826
814.974	26697
815.115	26804
815.256	26750
815.397	26724
815.539	26689
815.68	26617
815.821	26590
815.962	26750
816.103	26492
816.244	26537
816.385	26351
816.526	26347
816.666	26161
816.807	26077
816.948	26214
817.089	26111
817.23	26256
817.371	26157
817.512	26100
817.653	26149
817.793	26183
817.934	26046
818.075	26142
818.216	26092
818.356	26119
818.497	25955
818.638	25841
818.778	25780
818.919	25883
819.06	25928
819.2	26035
819.341	26012
819.481	26012
819.622	26149
819.762	26294
819.903	26244
820.043	26358
820.184	26183
820.324	26275
820.465	26370
820.605	26275
820.746	26103
820.886	26020
821.026	26191
821.167	26183
821.307	26370
821.447	26100
821.588	26088
821.728	25879
821.868	25746
822.008	25563
822.149	25643
822.289	25464
822.429	25441
822.569	25422
822.709	25209
822.849	25072
822.99	25057
823.13	24992
823.27	25042
823.41	24760
823.55	24867
823.69	24859
823.83	24856
823.97	24791
824.11	24700
824.25	24642
824.389	24582
824.529	24700
824.669	24738
824.809	24745
824.949	24825
825.089	24719
825.228	24711
825.368	24559
825.508	24631
825.648	24498
825.787	24669
825.927	24608
826.067	24574
826.206	24513
826.346	24551
826.485	24574
826.625	24513
826.765	24661
826.904	24551
827.044	24357
827.183	24205
827.323	24167
827.462	24277
827.601	24270
827.741	24304
827.88	24315
828.02	24079
828.159	24216
828.298	24273
828.437	24228
828.577	24327
828.716	24209
828.855	24285
828.994	24106
829.134	23847
829.273	24060
829.412	23927
829.551	23809
829.69	23931
829.829	23969
829.968	24041
830.107	23923
830.246	23980
830.385	23840
830.524	23802
830.663	23836
830.802	23707
830.941	23661
831.08	23440
831.219	23627
831.357	23687
831.496	23745
831.635	23554
831.774	23471
831.913	23455
832.051	23337
832.19	23273
832.329	23318
832.467	23273
832.606	23170
832.744	23109
832.883	23128
833.022	23132
833.16	23250
833.299	23292
833.437	23318
833.576	23341
833.714	23288
833.852	23368
833.991	23398
834.129	23589
834.267	23368
834.406	23330
834.544	23414
834.682	23284
834.821	23235
834.959	23436
835.097	23284
835.235	23318
835.373	23193
835.511	23273
835.65	23223
835.788	23250
835.926	22949
836.064	22953
836.202	22984
836.34	23094
836.478	23178
836.615	23090
836.753	23094
836.891	23204
837.029	23124
837.167	23086
837.305	23052
837.443	22889
837.58	22972
837.718	22892
837.856	23033
837.993	22911
838.131	22968
838.269	22953
838.406	22805
838.544	22778
838.681	22561
838.819	22432
838.956	22462
839.094	22447
839.231	22474
839.369	22504
839.506	22771
839.643	22706
839.781	22470
839.918	22337
840.055	22519
840.193	22417
840.33	22382
840.467	22421
840.604	22561
840.742	22740
840.879	22265
841.016	22246
841.153	22341
841.29	22618
841.427	22291
841.564	22402
841.701	22390
841.838	22135
841.975	22219
842.112	22379
842.249	22341
842.385	22185
842.522	22386
842.659	22192
842.796	22097
842.933	22124
843.069	22090
843.206	22101
843.343	22265
843.479	22101
843.616	22070
843.752	21922
843.889	21907
844.025	21945
844.162	21903
844.298	21911
844.435	21835
844.571	21907
844.708	21934
844.844	22002
844.98	21972
845.117	22059
845.253	21785
845.389	21747
845.525	21823
845.661	21759
845.798	21580
845.934	21751
846.07	21603
846.206	21713
846.342	21671
846.478	21591
846.614	21519
846.75	21207
846.886	21526
847.022	21485
847.158	21344
847.294	21420
847.429	21313
847.565	21340
847.701	21603
847.837	21104
847.972	21142
848.108	21165
848.244	21112
848.379	20986
848.515	21001
848.65	20933
848.786	21089
848.921	20906
849.057	21074
849.192	21028
849.328	21028
849.463	21058
849.598	20982
849.734	20891
849.869	20762
850.004	20750
850.14	20724
850.275	20807
850.41	20644
850.545	20758
850.68	20807
850.815	20735
850.95	20689
851.085	21051
851.22	20929
851.355	20663
851.49	20811
851.625	20826
851.76	20716
851.895	20587
852.03	20598
852.165	20708
852.299	20697
852.434	20785
852.569	20842
852.703	20849
852.838	20777
852.973	20952
853.107	20720
853.242	20720
853.376	20549
853.511	20423
853.645	20454
853.78	20674
853.914	20590
854.048	20473
854.183	20473
854.317	20556
854.451	20689
854.585	20571
854.72	20465
854.854	20636
854.988	20564
855.122	20579
855.256	20533
855.39	20613
855.524	20682
855.658	20545
855.792	20655
855.926	20609
856.06	20621
856.194	20602
856.327	20632
856.461	20454
856.595	20571
856.729	20473
856.862	20693
856.996	20541
857.13	20587
857.263	20609
857.397	20590
857.53	20530
857.664	20594
857.797	20701
857.931	20686
858.064	20541
858.197	20651
858.331	20518
858.464	20514
858.597	20507
858.731	20571
858.864	20461
858.997	20568
859.13	20587
859.263	20583
859.396	20686
859.529	20530
859.662	20469
859.795	20492
859.928	20629
860.061	20648
860.194	20697
860.327	20606
860.46	20530
860.592	20682
860.725	20651
860.858	20682
860.99	20617
861.123	20484
861.256	20514
861.388	20659
861.521	21195
861.653	20355
861.786	20370
861.918	20419
862.05	20362
862.183	20446
862.315	20537
862.447	20560
862.58	20488
862.712	20393
862.844	20195
862.976	20336
863.108	20195
863.24	20845
863.372	20191
863.504	20415
863.636	20317
863.768	20336
863.9	20294
864.032	20229
864.164	20317
864.296	20275
864.428	20423
864.559	20309
864.691	20355
864.823	20130
864.954	20259
865.086	20301
865.217	20206
865.349	20024
865.48	20214
865.612	20043
865.743	20244
865.875	20210
866.006	20252
866.137	20237
866.269	20206
866.4	20081
866.531	20161
866.662	20115
866.793	20157
866.924	20130
867.055	20240
867.186	20096
867.317	20172
867.448	20103
867.579	20115
867.71	20103
867.841	20111
867.972	20187
868.103	20005
868.233	20157
868.364	20210
868.495	20187
868.625	20385
868.756	20465
868.886	20229
869.017	20396
869.147	20461
869.278	20454
869.408	20408
869.539	20370
869.669	20442
869.799	20438
869.929	20415
870.06	20446
870.19	20659
870.32	20659
870.45	20785
870.58	20826
870.71	20845
870.84	20887
870.97	20746
871.1	20670
871.23	20849
871.36	20998
871.489	20845
871.619	20857
871.749	20971
871.879	20956
872.008	21157
872.138	20967
872.267	20979
872.397	20868
872.526	20826
872.656	20830
872.785	20792
872.915	20963
873.044	21093
873.173	20910
873.303	21123
873.432	21077
873.561	21096
873.69	21055
873.819	21070
873.948	21032
874.077	21093
874.206	20910
874.335	21013
874.464	21062
874.593	21214
874.722	21199
874.851	21169
874.979	21249
875.108	21275
875.237	21192
875.365	21180
875.494	21222
875.623	21355
875.751	21135
875.88	21321
876.008	21336
876.136	21492
876.265	21641
876.393	21785
876.521	21785
876.65	21679
876.778	21793
876.906	21526
877.034	21454
877.162	21606
877.29	21591
877.418	21526
877.546	21545
877.674	21580
877.802	21583
877.93	21603
878.058	21530
878.185	21450
878.313	21504
878.441	21507
878.568	21382
878.696	21564
878.824	21648
878.951	21713
879.079	21812
879.206	21808
879.333	21705
879.461	21652
879.588	21679
879.715	21739
879.842	21892
879.97	21785
880.097	21485
880.224	21450
880.351	21405
880.478	21447
880.605	21393
880.732	21405
880.859	21652
880.986	21447
881.112	21523
881.239	21264
881.366	21180
881.493	21070
881.619	21047
881.746	20963
881.872	20918
881.999	20941
882.125	20906
882.252	20998
882.378	21036
882.505	21146
882.631	20769
882.757	20667
882.883	20838
883.01	20838
883.136	20598
883.262	20648
883.388	20495
883.514	20758
883.64	20708
883.766	20457
883.892	20450
884.018	20533
884.143	20644
884.269	20826
884.395	20393
884.52	20298
884.646	20374
884.772	20278
884.897	20214
885.023	20385
885.148	20431
885.274	20530
885.399	20332
885.524	20248
885.65	20362
885.775	20469
885.9	20313
886.025	20370
886.15	20446
886.275	20267
886.4	20244
886.525	20366
886.65	20240
886.775	20343
886.9	20374
887.025	20522
887.149	20324
887.274	20214
887.399	19997
887.523	20252
887.648	20119
887.773	20077
887.897	20145
888.021	20199
888.146	20016
888.27	20016
888.395	20294
888.519	20233
888.643	20107
888.767	20214
888.891	19970
889.015	19913
889.139	19978
889.263	19989
889.387	20073
889.511	20107
889.635	20031
889.759	19963
889.883	19906
890.006	20058
890.13	19890
890.254	19890
890.377	19860
890.501	19742
890.624	19639
890.748	19788
890.871	19559
890.995	19563
891.118	19400
891.241	19632
891.364	19491
891.488	19655
891.611	19514
891.734	19556
891.857	19476
891.98	19483
892.103	19384
892.226	19487
892.349	19457
892.471	19308
892.594	19434
892.717	19514
892.839	19381
892.962	19480
893.085	19457
893.207	19441
893.33	19335
893.452	19289
893.575	19415
893.697	19369
893.819	19635
893.941	19590
894.064	19624
894.186	19449
894.308	19335
894.43	19525
894.552	19540
894.674	19601
894.796	19263
894.918	19411
895.04	19381
895.161	19533
895.283	19518
895.405	19483
895.526	19453
895.648	19388
895.769	19430
895.891	19548
896.012	19533
896.134	19441
896.255	19365
896.376	19434
896.498	19419
896.619	19540
896.74	19453
896.861	19533
896.982	19715
897.103	19970
897.224	19597
897.345	19643
897.466	19704
897.587	19719
897.708	19757
897.828	19677
897.949	19628
898.07	19658
898.19	19521
898.311	19868
898.431	19647
898.552	19655
898.672	19784
898.792	19670
898.913	19674
899.033	19677
899.153	19445
899.273	19343
899.393	19510
899.513	19365
899.633	19476
899.753	19422
899.873	19377
899.993	19544
900.113	19335
900.232	19514
900.352	19331
900.472	19392
900.591	19251
900.711	19240
900.83	19187
900.95	19327
901.069	19266
901.189	19080
901.308	18882
901.427	18764
901.546	18798
901.665	18886
901.784	18890
901.904	18757
902.023	18627
902.141	18395
902.26	18384
902.379	18422
902.498	18391
902.617	18224
902.735	18414
902.854	18342
902.973	18251
903.091	18060
903.21	18022
903.328	18045
903.446	17988
903.565	17843
903.683	17901
903.801	17741
903.919	17745
904.038	17786
904.156	17604
904.274	17638
904.392	17566
904.51	17509
904.627	17543
904.745	17532
904.863	17733
904.981	17402
905.098	17410
905.216	17364
905.334	17341
905.451	17379
905.569	17216
905.686	17277
905.803	17341
905.921	17086
906.038	17181
906.155	17060
906.272	16915
906.389	16987
906.506	16755
906.623	16797
906.74	16877
906.857	16702
906.974	16729
907.091	16843
907.208	17018
907.324	16873
907.441	16805
907.557	16584
907.674	16569
907.79	16519
907.907	16523
908.023	16550
908.139	16538
908.256	16516
908.372	16500
908.488	16348
908.604	16280
908.72	16299
908.836	16284
908.952	16291
909.068	16295
909.184	16379
909.3	16234
909.415	16249
909.531	16284
909.647	15953
909.762	15960
909.878	16021
909.993	15956
910.108	15979
910.224	15861
910.339	15934
910.454	15907
910.57	15739
910.685	15751
910.8	15934
910.915	15861
911.03	15861
911.145	15564
911.259	15549
911.374	15538
911.489	15485
911.604	15530
911.718	15283
911.833	15374
911.947	15203
912.062	15260
912.176	15332
912.291	15374
912.405	15344
912.519	15523
912.633	15454
912.748	15340
912.862	15310
912.976	15150
913.09	15066
913.204	15093
913.318	15176
913.431	15192
913.545	15291
913.659	15264
913.772	14982
913.886	15119
914	14929
914.113	15112
914.226	15131
914.34	15066
914.453	14853
914.566	15017
914.68	14811
914.793	14815
914.906	14739
915.019	14648
915.132	14556
915.245	14564
915.358	14651
915.47	14533
915.583	14537
915.696	14537
915.809	14739
915.921	14731
916.034	14583
916.146	14457
916.259	14377
916.371	14526
916.483	14533
916.595	14408
916.708	14381
916.82	14423
916.932	14313
917.044	14473
917.156	14396
917.268	14282
917.38	14309
917.491	14153
917.603	14309
917.715	14294
917.826	14328
917.938	14191
918.049	14111
918.161	14233
918.272	14389
918.384	14267
918.495	14233
918.606	14031
918.717	13967
918.828	14138
918.939	14065
919.05	13932
919.161	14020
919.272	13852
919.383	13982
919.494	14008
919.604	14275
919.715	14027
919.826	13875
919.936	13959
920.047	14092
920.157	13993
920.267	14218
920.378	14031
920.488	13982
920.598	14157
920.708	14301
920.818	14130
920.928	14138
921.038	14320
921.148	14294
921.258	13944
921.368	13814
921.477	13712
921.587	13750
921.697	13700
921.806	13807
921.916	13685
922.025	13415
922.134	13400
922.244	13419
922.353	13403
922.462	13259
922.571	13255
922.68	13103
922.789	13034
922.898	13072
923.007	13053
923.116	13069
923.224	13012
923.333	13042
923.442	12993
923.55	12920
923.659	12916
923.767	13042
923.876	12806
923.984	12913
924.092	12791
924.201	12829
924.309	12730
924.417	12856
924.525	12662
924.633	12700
924.741	13731
924.849	12566
924.956	12688
925.064	12513
925.172	12494
925.279	12460
925.387	12544
925.494	12464
925.602	12612
925.709	12544
925.816	12384
925.924	12445
926.031	12551
926.138	12410
926.245	12509
926.352	12342
926.459	12506
926.566	12536
926.673	12380
926.779	12289
926.886	12232
926.993	12194
927.099	12125
927.206	12053
927.312	12049
927.419	12095
927.525	12015
927.631	12091
927.737	11958
927.843	11996
927.95	11851
928.056	12011
928.162	11935
928.267	11977
928.373	12551
928.479	11920
928.585	11722
928.69	11828
928.796	11836
928.901	11737
929.007	11600
929.112	11802
929.218	11760
929.323	11733
929.428	11627
929.533	11680
929.638	11551
929.743	11551
929.848	11668
929.953	11547
930.058	11562
930.163	11391
930.267	11315
930.372	11406
930.477	11349
930.581	11596
930.685	11360
930.79	11318
930.894	11223
930.998	11189
931.103	11356
931.207	10987
931.311	10866
931.415	10809
931.519	10725
931.623	10656
