Data from test_V78500241_2174.txt Node
Date: Fri Mar 25 15:24:59 CST 2022
User: usil
Spectrometer: V785-0024
Trigger mode: 0
Integration Time (sec): 4.000000E-1
Scans to average: 1
Nonlinearity correction enabled: false
Boxcar width: 0
Storing dark spectrum: false
XAxis mode: Wavelengths
Number of Pixels in Spectrum: 1024
>>>>>Begin Spectral Data<<<<<
801.071	27789
801.214	27823
801.356	27408
801.499	27397
801.641	27306
801.783	27272
801.926	27378
802.068	27241
802.211	27283
802.353	27287
802.496	26998
802.638	27028
802.78	26819
802.923	26765
803.065	26880
803.208	26910
803.35	26857
803.492	27104
803.635	27081
803.777	27009
803.919	27100
804.061	27340
804.204	27256
804.346	27005
804.488	27150
804.63	27127
804.773	27127
804.915	27123
805.057	27241
805.199	27089
805.341	27211
805.483	27329
805.626	27321
805.768	27230
805.91	27279
806.052	27207
806.194	27184
806.336	27405
806.478	27313
806.62	27245
806.762	27279
806.904	27587
807.046	27766
807.188	27774
807.33	27770
807.472	27781
807.614	27549
807.756	27686
807.898	27629
808.04	27568
808.182	27629
808.324	27679
808.465	27557
808.607	27846
808.749	27953
808.891	27816
809.033	28074
809.174	27964
809.316	27873
809.458	27934
809.6	27823
809.741	28002
809.883	28112
810.025	28086
810.166	27941
810.308	28215
810.45	28032
810.591	28188
810.733	27793
810.875	27880
811.016	27713
811.158	27755
811.299	28040
811.441	27964
811.582	28010
811.724	27854
811.865	28090
812.007	27953
812.148	27854
812.29	28143
812.431	28109
812.573	28124
812.714	28295
812.855	28398
812.997	28607
813.138	28717
813.279	28535
813.421	28398
813.562	28306
813.703	28253
813.845	28086
813.986	27880
814.127	27717
814.268	27587
814.41	27804
814.551	27485
814.692	27732
814.833	27477
814.974	27606
815.115	27747
815.256	27496
815.397	27370
815.539	27542
815.68	27469
815.821	27207
815.962	27336
816.103	27275
816.244	27264
816.385	27230
816.526	27119
816.666	27081
816.807	26823
816.948	26963
817.089	26982
817.23	26804
817.371	26899
817.512	26815
817.653	26830
817.793	26678
817.934	26861
818.075	26830
818.216	26979
818.356	26750
818.497	26701
818.638	26598
818.778	26514
818.919	26636
819.06	26590
819.2	26804
819.341	26940
819.481	26773
819.622	26990
819.762	27321
819.903	27070
820.043	27013
820.184	27058
820.324	26781
820.465	26971
820.605	26982
820.746	27005
820.886	26948
821.026	27009
821.167	26929
821.307	27020
821.447	26994
821.588	26914
821.728	26648
821.868	26396
822.008	26218
822.149	26450
822.289	26237
822.429	26069
822.569	26092
822.709	26024
822.849	25868
822.99	25772
823.13	25928
823.27	25769
823.41	25757
823.55	25620
823.69	25746
823.83	25620
823.97	25635
824.11	25491
824.25	25377
824.389	25392
824.529	25506
824.669	25548
824.809	25628
824.949	25472
825.089	25537
825.228	25689
825.368	25350
825.508	25381
825.648	25327
825.787	25396
825.927	25445
826.067	25293
826.206	25358
826.346	25392
826.485	25297
826.625	25240
826.765	25422
826.904	25426
827.044	25031
827.183	25103
827.323	24966
827.462	25084
827.601	24981
827.741	25061
827.88	25114
828.02	24973
828.159	24996
828.298	25069
828.437	25080
828.577	25000
828.716	25053
828.855	24943
828.994	24753
829.134	24787
829.273	24817
829.412	24631
829.551	24646
829.69	24741
829.829	24574
829.968	24760
830.107	24623
830.246	24669
830.385	24760
830.524	24582
830.663	24642
830.802	24403
830.941	24410
831.08	24319
831.219	24429
831.357	24433
831.496	24635
831.635	24388
831.774	24224
831.913	24247
832.051	24087
832.19	24079
832.329	24136
832.467	24053
832.606	23950
832.744	23794
832.883	24064
833.022	23832
833.16	23954
833.299	24053
833.437	23946
833.576	24140
833.714	23961
833.852	24220
833.991	24125
834.129	24087
834.267	24018
834.406	24045
834.544	24106
834.682	24117
834.821	23950
834.959	24220
835.097	24026
835.235	24117
835.373	23961
835.511	24011
835.65	23889
835.788	23847
835.926	23718
836.064	23707
836.202	23752
836.34	23897
836.478	23939
836.615	23920
836.753	23927
836.891	23901
837.029	24003
837.167	23779
837.305	23790
837.443	23843
837.58	23805
837.718	23855
837.856	23733
837.993	23691
838.131	23646
838.269	23531
838.406	23608
838.544	23600
838.681	23440
838.819	23356
838.956	23204
839.094	23284
839.231	23094
839.369	23322
839.506	23497
839.643	23269
839.781	23197
839.918	23246
840.055	23189
840.193	23296
840.33	23143
840.467	23075
840.604	23132
840.742	23345
840.879	22946
841.016	23071
841.153	22984
841.29	23185
841.427	23056
841.564	23250
841.701	23239
841.838	22972
841.975	22965
842.112	23090
842.249	22778
842.385	22828
842.522	22968
842.659	22991
842.796	22889
842.933	22980
843.069	22763
843.206	22908
843.343	22938
843.479	22748
843.616	22831
843.752	22691
843.889	22615
844.025	22740
844.162	22725
844.298	22744
844.435	22538
844.571	22664
844.708	22812
844.844	22706
844.98	22710
845.117	22675
845.253	22546
845.389	22504
845.525	22493
845.661	22394
845.798	22280
845.934	22550
846.07	22234
846.206	22348
846.342	22584
846.478	22356
846.614	22173
846.75	21994
846.886	22124
847.022	22082
847.158	22120
847.294	22059
847.429	22120
847.565	21994
847.701	22382
847.837	21873
847.972	21762
848.108	21880
848.244	21873
848.379	21770
848.515	21663
848.65	21603
848.786	21682
848.921	21667
849.057	21728
849.192	21720
849.328	21694
849.463	21682
849.598	21743
849.734	21515
849.869	21587
850.004	21408
850.14	21443
850.275	21564
850.41	21302
850.545	21329
850.68	21424
850.815	21511
850.95	21454
851.085	21622
851.22	21530
851.355	21393
851.49	21534
851.625	21412
851.76	21355
851.895	21359
852.03	21397
852.165	21515
852.299	21523
852.434	21511
852.569	21587
852.703	21534
852.838	21561
852.973	21610
853.107	21637
853.242	21481
853.376	21382
853.511	21214
853.645	21180
853.78	21439
853.914	21298
854.048	21279
854.183	21348
854.317	21165
854.451	21412
854.585	21313
854.72	21275
854.854	21321
854.988	21127
855.122	21256
855.256	21241
855.39	21173
855.524	21348
855.658	21302
855.792	21412
855.926	21393
856.06	21412
856.194	21313
856.327	21226
856.461	21188
856.595	21252
856.729	21188
856.862	21477
856.996	21317
857.13	21310
857.263	21389
857.397	21424
857.53	21089
857.664	21321
857.797	21363
857.931	21370
858.064	21226
858.197	21454
858.331	21260
858.464	21116
858.597	21131
858.731	21256
858.864	21325
858.997	21329
859.13	21287
859.263	21355
859.396	21458
859.529	21222
859.662	21226
859.795	21192
859.928	21408
860.061	21431
860.194	21557
860.327	21325
860.46	21203
860.592	21291
860.725	21458
860.858	21473
860.99	21313
861.123	21252
861.256	21252
861.388	21211
861.521	21949
861.653	21138
861.786	21138
861.918	21119
862.05	21192
862.183	21298
862.315	21165
862.447	21203
862.58	21195
862.712	20975
862.844	20899
862.976	21104
863.108	20975
863.24	21466
863.372	20929
863.504	20990
863.636	20887
863.768	21032
863.9	21028
864.032	20929
864.164	21108
864.296	21024
864.428	21138
864.559	21013
864.691	21020
864.823	21005
864.954	21020
865.086	20921
865.217	20982
865.349	20960
865.48	20921
865.612	20891
865.743	21020
865.875	20941
866.006	20864
866.137	20785
866.269	20838
866.4	20933
866.531	20834
866.662	20781
866.793	20834
866.924	20887
867.055	20773
867.186	20823
867.317	20819
867.448	20731
867.579	20891
867.71	20765
867.841	20765
867.972	20887
868.103	20773
868.233	20849
868.364	20887
868.495	20891
868.625	21081
868.756	21100
868.886	21058
869.017	20994
869.147	21180
869.278	21180
869.408	21203
869.539	21230
869.669	21055
869.799	21112
869.929	21135
870.06	21173
870.19	21336
870.32	21302
870.45	21382
870.58	21526
870.71	21580
870.84	21663
870.97	21435
871.1	21481
871.23	21568
871.36	21694
871.489	21606
871.619	21720
871.749	21759
871.879	21682
872.008	21789
872.138	21637
872.267	21660
872.397	21542
872.526	21511
872.656	21450
872.785	21534
872.915	21720
873.044	21808
873.173	21709
873.303	21808
873.432	21709
873.561	21755
873.69	21774
873.819	21804
873.948	21774
874.077	21732
874.206	21686
874.335	21667
874.464	21823
874.593	21778
874.722	21899
874.851	21861
874.979	22017
875.108	21819
875.237	21778
875.365	21846
875.494	22002
875.623	22074
875.751	21831
875.88	21892
876.008	22116
876.136	22078
876.265	22348
876.393	22386
876.521	22386
876.65	22398
876.778	22249
876.906	22200
877.034	22169
877.162	22382
877.29	22181
877.418	22280
877.546	22124
877.674	22177
877.802	22322
877.93	22234
878.058	22169
878.185	22173
878.313	22131
878.441	22230
878.568	21979
878.696	22169
878.824	22234
878.951	22261
879.079	22402
879.206	22455
879.333	22360
879.461	22352
879.588	22341
879.715	22504
879.842	22611
879.97	22181
880.097	22120
880.224	22013
880.351	22139
880.478	22158
880.605	22059
880.732	22090
880.859	22280
880.986	22215
881.112	22143
881.239	22006
881.366	21956
881.493	21709
881.619	21682
881.746	21686
881.872	21785
881.999	21675
882.125	21561
882.252	21679
882.378	21660
882.505	21743
882.631	21507
882.757	21298
882.883	21435
883.01	21420
883.136	21336
883.262	21195
883.388	21245
883.514	21412
883.64	21245
883.766	21287
883.892	21028
884.018	21146
884.143	21260
884.269	21302
884.395	21024
884.52	20910
884.646	21157
884.772	20948
884.897	20918
885.023	21123
885.148	21123
885.274	21135
885.399	21066
885.524	20986
885.65	20982
885.775	20895
885.9	20933
886.025	20982
886.15	20975
886.275	20956
886.4	20758
886.525	21020
886.65	20910
886.775	20834
886.9	20982
887.025	21317
887.149	20853
887.274	20880
887.399	20769
887.523	20705
887.648	20735
887.773	20762
887.897	20823
888.021	20864
888.146	20746
888.27	20830
888.395	20781
888.519	20720
888.643	20838
888.767	20815
888.891	20682
889.015	20518
889.139	20777
889.263	20465
889.387	20609
889.511	20727
889.635	20689
889.759	20518
889.883	20556
890.006	20587
890.13	20670
890.254	20522
890.377	20431
890.501	20275
890.624	20195
890.748	20271
890.871	20134
890.995	20107
891.118	20069
891.241	20172
891.364	20168
891.488	20210
891.611	20077
891.734	20043
891.857	20176
891.98	20142
892.103	20157
892.226	20130
892.349	20065
892.471	19906
892.594	20130
892.717	20088
892.839	20020
892.962	20024
893.085	20111
893.207	19928
893.33	19906
893.452	19944
893.575	20202
893.697	19879
893.819	20187
893.941	20256
894.064	20119
894.186	20122
894.308	19940
894.43	20084
894.552	20100
894.674	20069
894.796	19883
894.918	19978
895.04	20001
895.161	20092
895.283	20027
895.405	20077
895.526	20035
895.648	19856
895.769	20054
895.891	20088
896.012	20119
896.134	20142
896.255	20073
896.376	20012
896.498	20065
896.619	20054
896.74	20020
896.861	20130
896.982	20298
897.103	20404
897.224	20180
897.345	20252
897.466	20206
897.587	20214
897.708	20480
897.828	20324
897.949	20263
898.07	20039
898.19	20073
898.311	20290
898.431	20221
898.552	20240
898.672	20305
898.792	20301
898.913	20339
899.033	20065
899.153	20164
899.273	19883
899.393	20020
899.513	20024
899.633	20020
899.753	20062
899.873	19967
899.993	19955
900.113	19837
900.232	19887
900.352	19852
900.472	19826
900.591	19833
900.711	19913
900.83	19689
900.95	19723
901.069	19864
901.189	19670
901.308	19388
901.427	19301
901.546	19392
901.665	19430
901.784	19335
901.904	19217
902.023	19156
902.141	18954
902.26	18886
902.379	19072
902.498	18886
902.617	18779
902.735	18966
902.854	18802
902.973	18688
903.091	18608
903.21	18635
903.328	18555
903.446	18441
903.565	18418
903.683	18422
903.801	18251
903.919	18384
904.038	18384
904.156	18148
904.274	18167
904.392	18003
904.51	18114
904.627	18174
904.745	18186
904.863	18152
904.981	18072
905.098	17802
905.216	17699
905.334	17779
905.451	17824
905.569	17790
905.686	17897
905.803	17745
905.921	17577
906.038	17589
906.155	17570
906.272	17482
906.389	17630
906.506	17334
906.623	17341
906.74	17349
906.857	17208
906.974	17261
907.091	17486
907.208	17440
907.324	17326
907.441	17242
907.557	17029
907.674	17060
907.79	17159
907.907	16987
908.023	17045
908.139	17075
908.256	16957
908.372	16900
908.488	16869
908.604	16778
908.72	16710
908.836	16828
908.952	16771
909.068	16759
909.184	16847
909.3	16782
909.415	16767
909.531	16801
909.647	16588
909.762	16546
909.878	16417
909.993	16542
910.108	16523
910.224	16436
910.339	16348
910.454	16341
910.57	16344
910.685	16238
910.8	16497
910.915	16363
911.03	16363
911.145	16029
911.259	16093
911.374	16029
911.489	16032
911.604	15979
911.718	15705
911.833	15842
911.947	15751
912.062	15542
912.176	15842
912.291	15831
912.405	15785
912.519	15911
912.633	16071
912.748	15899
912.862	15667
912.976	15572
913.09	15481
913.204	15572
913.318	15625
913.431	15709
913.545	15660
913.659	15694
913.772	15526
913.886	15504
914	15507
914.113	15412
914.226	15557
914.34	15545
914.453	15336
914.566	15485
914.68	15386
914.793	15313
914.906	15089
915.019	15055
915.132	15024
915.245	15043
915.358	15032
915.47	14979
915.583	15081
915.696	14982
915.809	15032
915.921	15184
916.034	14960
916.146	14876
916.259	14880
916.371	14982
916.483	14956
916.595	14872
916.708	14868
916.82	14834
916.932	14838
917.044	14815
917.156	14815
917.268	14727
917.38	14826
917.491	14769
917.603	14640
917.715	14667
917.826	14731
917.938	14598
918.049	14541
918.161	14621
918.272	14811
918.384	14648
918.495	14640
918.606	14571
918.717	14374
918.828	14393
918.939	14415
919.05	14317
919.161	14377
919.272	14256
919.383	14313
919.494	14454
919.604	14594
919.715	14324
919.826	14347
919.936	14446
920.047	14526
920.157	14358
920.267	14568
920.378	14358
920.488	14404
920.598	14533
920.708	14686
920.818	14602
920.928	14541
921.038	14746
921.148	14583
921.258	14427
921.368	14343
921.477	14229
921.587	14115
921.697	14008
921.806	14172
921.916	13986
922.025	13841
922.134	13803
922.244	13833
922.353	13818
922.462	13814
922.571	13529
922.68	13453
922.789	13457
922.898	13449
923.007	13373
923.116	13521
923.224	13415
923.333	13377
923.442	13297
923.55	13266
923.659	13316
923.767	13320
923.876	13308
923.984	13293
924.092	13244
924.201	13247
924.309	13247
924.417	13164
924.525	13008
924.633	13110
924.741	13883
924.849	12935
924.956	12985
925.064	12913
925.172	12798
925.279	12913
925.387	12920
925.494	12795
925.602	13038
925.709	12871
925.816	12886
925.924	12817
926.031	12867
926.138	12810
926.245	12837
926.352	12768
926.459	12871
926.566	12821
926.673	12662
926.779	12551
926.886	12593
926.993	12490
927.099	12422
927.206	12445
927.312	12273
927.419	12445
927.525	12460
927.631	12391
927.737	12292
927.843	12330
927.95	12148
928.056	12201
928.162	12262
928.267	12357
928.373	12905
928.479	12300
928.585	12152
928.69	12186
928.796	12232
928.901	12121
929.007	11980
929.112	12129
929.218	12125
929.323	12019
929.428	11935
929.533	12144
929.638	11859
929.743	11954
929.848	11946
929.953	11832
930.058	11756
930.163	11627
930.267	11668
930.372	11802
930.477	11596
930.581	11885
930.685	11745
930.79	11478
930.894	11596
930.998	11509
931.103	11672
931.207	11318
931.311	11223
931.415	11178
931.519	10904
931.623	10881
