Data from test_V78500241_1720.txt Node
Date: Fri Mar 25 15:21:50 CST 2022
User: usil
Spectrometer: V785-0024
Trigger mode: 0
Integration Time (sec): 4.000000E-1
Scans to average: 1
Nonlinearity correction enabled: false
Boxcar width: 0
Storing dark spectrum: false
XAxis mode: Wavelengths
Number of Pixels in Spectrum: 1024
>>>>>Begin Spectral Data<<<<<
801.071	27953
801.214	27816
801.356	27599
801.499	27526
801.641	27370
801.783	27367
801.926	27340
802.068	27374
802.211	27294
802.353	27226
802.496	27142
802.638	27157
802.78	26921
802.923	26906
803.065	26876
803.208	26937
803.35	26967
803.492	27116
803.635	27108
803.777	27047
803.919	27230
804.061	27420
804.204	27272
804.346	27074
804.488	27085
804.63	27275
804.773	27108
804.915	27272
805.057	27313
805.199	27180
805.341	27142
805.483	27431
805.626	27382
805.768	27237
805.91	27397
806.052	27313
806.194	27173
806.336	27424
806.478	27332
806.62	27294
806.762	27340
806.904	27538
807.046	27778
807.188	27838
807.33	27736
807.472	27800
807.614	27660
807.756	27618
807.898	27507
808.04	27526
808.182	27572
808.324	27675
808.465	27682
808.607	27941
808.749	27876
808.891	27907
809.033	28063
809.174	28067
809.316	27911
809.458	27979
809.6	28021
809.741	27960
809.883	28120
810.025	28226
810.166	28299
810.308	28306
810.45	28143
810.591	28215
810.733	28067
810.875	28097
811.016	27835
811.158	27880
811.299	28010
811.441	27998
811.582	28166
811.724	27907
811.865	27972
812.007	27930
812.148	27968
812.29	27949
812.431	28055
812.573	28257
812.714	28325
812.855	28527
812.997	28569
813.138	28687
813.279	28588
813.421	28538
813.562	28424
813.703	28394
813.845	28268
813.986	27888
814.127	27903
814.268	27599
814.41	27637
814.551	27507
814.692	27736
814.833	27603
814.974	27648
815.115	27618
815.256	27576
815.397	27595
815.539	27568
815.68	27427
815.821	27420
815.962	27507
816.103	27348
816.244	27256
816.385	27135
816.526	27100
816.666	26998
816.807	26876
816.948	27024
817.089	27070
817.23	26895
817.371	27028
817.512	26849
817.653	26925
817.793	26804
817.934	26902
818.075	26956
818.216	26944
818.356	26982
818.497	26838
818.638	26777
818.778	26667
818.919	26724
819.06	26750
819.2	26765
819.341	26834
819.481	26967
819.622	27047
819.762	27157
819.903	27207
820.043	27104
820.184	27024
820.324	27047
820.465	27077
820.605	26921
820.746	26975
820.886	26857
821.026	26914
821.167	26864
821.307	26990
821.447	26899
821.588	26834
821.728	26758
821.868	26495
822.008	26431
822.149	26522
822.289	26362
822.429	26142
822.569	26107
822.709	26020
822.849	25951
822.99	25966
823.13	25780
823.27	25898
823.41	25651
823.55	25624
823.69	25712
823.83	25674
823.97	25719
824.11	25472
824.25	25540
824.389	25674
824.529	25635
824.669	25613
824.809	25708
824.949	25662
825.089	25613
825.228	25491
825.368	25464
825.508	25499
825.648	25354
825.787	25422
825.927	25487
826.067	25392
826.206	25510
826.346	25343
826.485	25529
826.625	25369
826.765	25453
826.904	25449
827.044	25225
827.183	25263
827.323	25053
827.462	25061
827.601	25232
827.741	25107
827.88	25145
828.02	25145
828.159	25137
828.298	25156
828.437	25114
828.577	25091
828.716	25236
828.855	24977
828.994	24928
829.134	25004
829.273	24913
829.412	24916
829.551	24711
829.69	24856
829.829	24787
829.968	24947
830.107	24935
830.246	24825
830.385	24741
830.524	24688
830.663	24684
830.802	24658
830.941	24536
831.08	24418
831.219	24433
831.357	24551
831.496	24631
831.635	24540
831.774	24517
831.913	24357
832.051	24342
832.19	24342
832.329	24289
832.467	24117
832.606	24205
832.744	24197
832.883	24167
833.022	24057
833.16	24228
833.299	24110
833.437	24247
833.576	24060
833.714	24155
833.852	24270
833.991	24323
834.129	24319
834.267	24182
834.406	24178
834.544	24327
834.682	24254
834.821	24235
834.959	24376
835.097	24148
835.235	24342
835.373	24285
835.511	24281
835.65	24091
835.788	23980
835.926	23832
836.064	23882
836.202	24079
836.34	23969
836.478	24254
836.615	24064
836.753	24083
836.891	24171
837.029	24038
837.167	24018
837.305	23893
837.443	23897
837.58	23775
837.718	23897
837.856	23832
837.993	23813
838.131	23965
838.269	23665
838.406	23813
838.544	23665
838.681	23623
838.819	23653
838.956	23364
839.094	23372
839.231	23463
839.369	23668
839.506	23802
839.643	23577
839.781	23417
839.918	23322
840.055	23349
840.193	23383
840.33	23337
840.467	23398
840.604	23379
840.742	23539
840.879	23094
841.016	23235
841.153	23136
841.29	23436
841.427	23406
841.564	23368
841.701	23261
841.838	23178
841.975	23212
842.112	23193
842.249	23105
842.385	22938
842.522	23193
842.659	23147
842.796	23056
842.933	23117
843.069	23071
843.206	23018
843.343	23079
843.479	23098
843.616	23003
843.752	22797
843.889	22835
844.025	22999
844.162	22873
844.298	22980
844.435	22839
844.571	22771
844.708	22793
844.844	23018
844.98	23014
845.117	22919
845.253	22835
845.389	22763
845.525	22752
845.661	22588
845.798	22470
845.934	22702
846.07	22546
846.206	22561
846.342	22740
846.478	22557
846.614	22287
846.75	22215
846.886	22242
847.022	22329
847.158	22318
847.294	22291
847.429	22428
847.565	22109
847.701	22611
847.837	22029
847.972	22051
848.108	22120
848.244	22074
848.379	21991
848.515	21888
848.65	21854
848.786	21880
848.921	21903
849.057	22040
849.192	21987
849.328	22063
849.463	21865
849.598	21720
849.734	21743
849.869	21846
850.004	21728
850.14	21686
850.275	21739
850.41	21671
850.545	21523
850.68	21656
850.815	21728
850.95	21614
851.085	21854
851.22	21743
851.355	21694
851.49	21599
851.625	21568
851.76	21698
851.895	21599
852.03	21523
852.165	21549
852.299	21751
852.434	21686
852.569	21671
852.703	21656
852.838	21663
852.973	21831
853.107	21759
853.242	21610
853.376	21428
853.511	21447
853.645	21420
853.78	21587
853.914	21523
854.048	21576
854.183	21359
854.317	21542
854.451	21739
854.585	21382
854.72	21492
854.854	21538
854.988	21382
855.122	21523
855.256	21355
855.39	21538
855.524	21542
855.658	21637
855.792	21412
855.926	21538
856.06	21420
856.194	21500
856.327	21386
856.461	21287
856.595	21397
856.729	21450
856.862	21580
856.996	21591
857.13	21591
857.263	21564
857.397	21492
857.53	21504
857.664	21523
857.797	21507
857.931	21564
858.064	21462
858.197	21580
858.331	21412
858.464	21428
858.597	21439
858.731	21374
858.864	21473
858.997	21469
859.13	21469
859.263	21469
859.396	21603
859.529	21431
859.662	21545
859.795	21370
859.928	21477
860.061	21576
860.194	21690
860.327	21496
860.46	21545
860.592	21545
860.725	21549
860.858	21739
860.99	21485
861.123	21473
861.256	21374
861.388	21477
861.521	22211
861.653	21310
861.786	21260
861.918	21344
862.05	21294
862.183	21469
862.315	21340
862.447	21526
862.58	21466
862.712	21169
862.844	21161
862.976	21218
863.108	21192
863.24	21511
863.372	21108
863.504	21112
863.636	21169
863.768	21169
863.9	21146
864.032	21032
864.164	21066
864.296	21264
864.428	21306
864.559	21188
864.691	21218
864.823	21142
864.954	21077
865.086	21150
865.217	21047
865.349	21104
865.48	21062
865.612	21116
865.743	21214
865.875	21116
866.006	21005
866.137	21001
866.269	20994
866.4	21062
866.531	20956
866.662	20868
866.793	20872
866.924	21081
867.055	20979
867.186	21020
867.317	20990
867.448	20914
867.579	20857
867.71	20963
867.841	20880
867.972	20963
868.103	20975
868.233	21028
868.364	20960
868.495	21089
868.625	21188
868.756	21485
868.886	21268
869.017	21192
869.147	21435
869.278	21351
869.408	21321
869.539	21252
869.669	21370
869.799	21245
869.929	21329
870.06	21363
870.19	21644
870.32	21709
870.45	21606
870.58	21606
870.71	21774
870.84	21682
870.97	21603
871.1	21694
871.23	21778
871.36	21869
871.489	21644
871.619	21831
871.749	21770
871.879	21907
872.008	21903
872.138	21831
872.267	21876
872.397	21713
872.526	21545
872.656	21599
872.785	21690
872.915	21823
873.044	22010
873.173	21876
873.303	21915
873.432	21949
873.561	21968
873.69	21979
873.819	21854
873.948	21903
874.077	21983
874.206	21854
874.335	21907
874.464	21968
874.593	22211
874.722	22112
874.851	22078
874.979	22074
875.108	22177
875.237	22093
875.365	22048
875.494	22013
875.623	22188
875.751	22215
875.88	22105
876.008	22074
876.136	22261
876.265	22481
876.393	22649
876.521	22432
876.65	22622
876.778	22451
876.906	22451
877.034	22451
877.162	22436
877.29	22291
877.418	22417
877.546	22550
877.674	22443
877.802	22470
877.93	22405
878.058	22379
878.185	22356
878.313	22363
878.441	22398
878.568	22135
878.696	22367
878.824	22561
878.951	22402
879.079	22542
879.206	22713
879.333	22641
879.461	22413
879.588	22462
879.715	22470
879.842	22733
879.97	22516
880.097	22291
880.224	22268
880.351	22318
880.478	22287
880.605	22234
880.732	22268
880.859	22481
880.986	22238
881.112	22356
881.239	22139
881.366	21964
881.493	21755
881.619	21861
881.746	21846
881.872	21743
881.999	21778
882.125	21739
882.252	21892
882.378	21759
882.505	21903
882.631	21713
882.757	21610
882.883	21644
883.01	21481
883.136	21450
883.262	21359
883.388	21340
883.514	21542
883.64	21580
883.766	21389
883.892	21230
884.018	21351
884.143	21348
884.269	21542
884.395	21374
884.52	21013
884.646	21165
884.772	21108
884.897	21131
885.023	21123
885.148	21275
885.274	21287
885.399	21351
885.524	21268
885.65	21237
885.775	21165
885.9	21161
886.025	21370
886.15	21260
886.275	21089
886.4	21036
886.525	21207
886.65	21116
886.775	21142
886.9	21203
887.025	21378
887.149	21154
887.274	20929
887.399	20880
887.523	20990
887.648	20963
887.773	20826
887.897	20971
888.021	21024
888.146	20785
888.27	20910
888.395	21024
888.519	20876
888.643	21043
888.767	20944
888.891	20781
889.015	20724
889.139	20834
889.263	20727
889.387	20902
889.511	20921
889.635	20910
889.759	20651
889.883	20625
890.006	20785
890.13	20864
890.254	20663
890.377	20552
890.501	20461
890.624	20507
890.748	20541
890.871	20454
890.995	20305
891.118	20298
891.241	20347
891.364	20385
891.488	20396
891.611	20339
891.734	20244
891.857	20347
891.98	20305
892.103	20294
892.226	20187
892.349	20343
892.471	20161
892.594	20199
892.717	20336
892.839	20267
892.962	20278
893.085	20221
893.207	20218
893.33	20096
893.452	20225
893.575	20252
893.697	20202
893.819	20381
893.941	20396
894.064	20290
894.186	20088
894.308	20024
894.43	20309
894.552	20415
894.674	20301
894.796	20115
894.918	20183
895.04	20248
895.161	20320
895.283	20271
895.405	20069
895.526	20180
895.648	20111
895.769	20221
895.891	20073
896.012	20240
896.134	20252
896.255	20256
896.376	20164
896.498	20229
896.619	20210
896.74	20218
896.861	20317
896.982	20617
897.103	20587
897.224	20457
897.345	20556
897.466	20210
897.587	20290
897.708	20533
897.828	20320
897.949	20358
898.07	20183
898.19	20290
898.311	20419
898.431	20454
898.552	20301
898.672	20499
898.792	20522
898.913	20309
899.033	20248
899.153	20092
899.273	20088
899.393	20035
899.513	20301
899.633	20142
899.753	20119
899.873	20096
899.993	20294
900.113	20062
900.232	20111
900.352	20050
900.472	20031
900.591	19925
900.711	19883
900.83	19871
900.95	19974
901.069	20054
901.189	19814
901.308	19502
901.427	19502
901.546	19552
901.665	19377
901.784	19487
901.904	19464
902.023	19289
902.141	18973
902.26	19034
902.379	19069
902.498	19015
902.617	18985
902.735	19038
902.854	18954
902.973	19034
903.091	18760
903.21	18726
903.328	18764
903.446	18597
903.565	18422
903.683	18460
903.801	18384
903.919	18353
904.038	18391
904.156	18342
904.274	18304
904.392	18235
904.51	18144
904.627	18254
904.745	18296
904.863	18330
904.981	18091
905.098	17855
905.216	17958
905.334	17977
905.451	17927
905.569	17908
905.686	17904
905.803	17843
905.921	17729
906.038	17790
906.155	17733
906.272	17634
906.389	17680
906.506	17474
906.623	17467
906.74	17455
906.857	17391
906.974	17364
907.091	17436
907.208	17699
907.324	17543
907.441	17349
907.557	17246
907.674	17140
907.79	17071
907.907	17109
908.023	17258
908.139	17170
908.256	17151
908.372	17086
908.488	17014
908.604	16927
908.72	16915
908.836	16915
908.952	16892
909.068	16972
909.184	16934
909.3	16908
909.415	16927
909.531	16858
909.647	16729
909.762	16694
909.878	16535
909.993	16626
910.108	16702
910.224	16428
910.339	16538
910.454	16565
910.57	16402
910.685	16325
910.8	16561
910.915	16500
911.03	16413
911.145	16200
911.259	16177
911.374	16181
911.489	16105
911.604	16078
911.718	15918
911.833	15968
911.947	15934
912.062	15766
912.176	15972
912.291	15884
912.405	15918
912.519	16067
912.633	16120
912.748	16090
912.862	15926
912.976	15755
913.09	15724
913.204	15686
913.318	15713
913.431	15884
913.545	15732
913.659	15785
913.772	15686
913.886	15637
914	15507
914.113	15663
914.226	15660
914.34	15618
914.453	15488
914.566	15580
914.68	15450
914.793	15397
914.906	15256
915.019	15199
915.132	15180
915.245	15112
915.358	15230
915.47	15123
915.583	15180
915.696	15161
915.809	15302
915.921	15431
916.034	15154
916.146	15020
916.259	15001
916.371	15077
916.483	15077
916.595	14998
916.708	14937
916.82	14986
916.932	14921
917.044	15009
917.156	14895
917.268	14838
917.38	14857
917.491	14739
917.603	14891
917.715	14826
917.826	14948
917.938	14743
918.049	14621
918.161	14762
918.272	14929
918.384	14868
918.495	14682
918.606	14689
918.717	14495
918.828	14537
918.939	14682
919.05	14457
919.161	14606
919.272	14454
919.383	14370
919.494	14594
919.604	14849
919.715	14594
919.826	14518
919.936	14450
920.047	14598
920.157	14552
920.267	14693
920.378	14571
920.488	14393
920.598	14594
920.708	14823
920.818	14583
920.928	14571
921.038	14853
921.148	14724
921.258	14507
921.368	14370
921.477	14351
921.587	14240
921.697	14218
921.806	14214
921.916	14111
922.025	13963
922.134	13974
922.244	13841
922.353	13909
922.462	13833
922.571	13696
922.68	13571
922.789	13487
922.898	13613
923.007	13563
923.116	13616
923.224	13529
923.333	13445
923.442	13388
923.55	13411
923.659	13434
923.767	13445
923.876	13362
923.984	13407
924.092	13278
924.201	13358
924.309	13217
924.417	13244
924.525	13209
924.633	13187
924.741	13959
924.849	13076
924.956	13175
925.064	12943
925.172	12878
925.279	12977
925.387	13080
925.494	12985
925.602	13065
925.709	13031
925.816	12939
925.924	12958
926.031	12905
926.138	12901
926.245	12863
926.352	12810
926.459	12932
926.566	12973
926.673	12913
926.779	12719
926.886	12658
926.993	12536
927.099	12608
927.206	12441
927.312	12380
927.419	12715
927.525	12460
927.631	12604
927.737	12426
927.843	12350
927.95	12247
928.056	12399
928.162	12296
928.267	12365
928.373	13023
928.479	12399
928.585	12216
928.69	12232
928.796	12338
928.901	12144
929.007	12003
929.112	12144
929.218	12163
929.323	12098
929.428	12095
929.533	12182
929.638	11961
929.743	11965
929.848	12098
929.953	12007
930.058	11916
930.163	11748
930.267	11745
930.372	11870
930.477	11718
930.581	11996
930.685	11824
930.79	11684
930.894	11699
930.998	11668
931.103	11741
931.207	11421
931.311	11349
931.415	11208
931.519	11037
931.623	10946
