Data from test_V78500241_1048.txt Node
Date: Fri Mar 25 15:17:09 CST 2022
User: usil
Spectrometer: V785-0024
Trigger mode: 0
Integration Time (sec): 4.000000E-1
Scans to average: 1
Nonlinearity correction enabled: false
Boxcar width: 0
Storing dark spectrum: false
XAxis mode: Wavelengths
Number of Pixels in Spectrum: 1024
>>>>>Begin Spectral Data<<<<<
801.071	28291
801.214	28280
801.356	28082
801.499	27922
801.641	27930
801.783	27846
801.926	27979
802.068	27880
802.211	27842
802.353	27717
802.496	27637
802.638	27462
802.78	27587
802.923	27538
803.065	27317
803.208	27454
803.35	27629
803.492	27606
803.635	27648
803.777	27641
803.919	27774
804.061	28124
804.204	27804
804.346	27774
804.488	27660
804.63	27907
804.773	27557
804.915	27736
805.057	27987
805.199	27808
805.341	27854
805.483	27895
805.626	27800
805.768	27778
805.91	27960
806.052	27869
806.194	27816
806.336	28067
806.478	27994
806.62	27888
806.762	28067
806.904	28169
807.046	28356
807.188	28462
807.33	28371
807.472	28303
807.614	28249
807.756	28265
807.898	28181
808.04	28063
808.182	28143
808.324	28207
808.465	28253
808.607	28481
808.749	28546
808.891	28588
809.033	28622
809.174	28603
809.316	28478
809.458	28531
809.6	28538
809.741	28580
809.883	28755
810.025	28710
810.166	28862
810.308	28687
810.45	28649
810.591	28698
810.733	28637
810.875	28493
811.016	28535
811.158	28382
811.299	28580
811.441	28664
811.582	28649
811.724	28440
811.865	28584
812.007	28626
812.148	28580
812.29	28664
812.431	28736
812.573	28725
812.714	28923
812.855	29083
812.997	29216
813.138	29345
813.279	29425
813.421	29246
813.562	28984
813.703	28850
813.845	28763
813.986	28660
814.127	28409
814.268	28303
814.41	28440
814.551	28242
814.692	28234
814.833	28314
814.974	28207
815.115	28196
815.256	28230
815.397	28185
815.539	28188
815.68	28044
815.821	28006
815.962	28074
816.103	28131
816.244	27918
816.385	27854
816.526	27846
816.666	27713
816.807	27625
816.948	27644
817.089	27789
817.23	27698
817.371	27637
817.512	27686
817.653	27644
817.793	27587
817.934	27572
818.075	27823
818.216	27610
818.356	27534
818.497	27466
818.638	27298
818.778	27359
818.919	27275
819.06	27431
819.2	27405
819.341	27534
819.481	27595
819.622	27732
819.762	27918
819.903	27949
820.043	27823
820.184	27808
820.324	27759
820.465	27895
820.605	27637
820.746	27743
820.886	27564
821.026	27751
821.167	27644
821.307	27686
821.447	27622
821.588	27519
821.728	27427
821.868	27226
822.008	27116
822.149	27173
822.289	27116
822.429	26788
822.569	26853
822.709	26773
822.849	26560
822.99	26533
823.13	26575
823.27	26415
823.41	26423
823.55	26282
823.69	26438
823.83	26484
823.97	26294
824.11	26263
824.25	26183
824.389	26290
824.529	26320
824.669	26214
824.809	26294
824.949	26320
825.089	26355
825.228	26370
825.368	26073
825.508	26164
825.648	26191
825.787	26172
825.927	26237
826.067	26065
826.206	26210
826.346	26244
826.485	26206
826.625	26176
826.765	26164
826.904	26043
827.044	25989
827.183	25898
827.323	25871
827.462	25906
827.601	25883
827.741	25940
827.88	25993
828.02	25852
828.159	25791
828.298	25864
828.437	25845
828.577	25746
828.716	25947
828.855	25719
828.994	25578
829.134	25681
829.273	25563
829.412	25624
829.551	25472
829.69	25635
829.829	25643
829.968	25609
830.107	25647
830.246	25556
830.385	25510
830.524	25438
830.663	25396
830.802	25240
830.941	25270
831.08	25183
831.219	25190
831.357	25209
831.496	25422
831.635	25160
831.774	25046
831.913	25065
832.051	24992
832.19	25114
832.329	25027
832.467	24913
832.606	24894
832.744	24856
832.883	24916
833.022	24749
833.16	24939
833.299	24947
833.437	24886
833.576	24985
833.714	24932
833.852	24996
833.991	25031
834.129	24996
834.267	25107
834.406	25004
834.544	25042
834.682	24970
834.821	24913
834.959	25194
835.097	24871
835.235	25076
835.373	24871
835.511	24947
835.65	24867
835.788	24684
835.926	24646
836.064	24578
836.202	24639
836.34	24760
836.478	24913
836.615	24741
836.753	24798
836.891	24833
837.029	24840
837.167	24821
837.305	24661
837.443	24768
837.58	24532
837.718	24677
837.856	24684
837.993	24669
838.131	24532
838.269	24528
838.406	24505
838.544	24353
838.681	24281
838.819	24323
838.956	24079
839.094	24178
839.231	24144
839.369	24258
839.506	24414
839.643	24254
839.781	24064
839.918	24064
840.055	24163
840.193	24076
840.33	24041
840.467	24095
840.604	23980
840.742	24239
840.879	23863
841.016	24030
841.153	23893
841.29	24163
841.427	23821
841.564	24060
841.701	23980
841.838	23931
841.975	23958
842.112	23817
842.249	23904
842.385	23809
842.522	23992
842.659	23859
842.796	23809
842.933	23707
843.069	23737
843.206	23707
843.343	23794
843.479	23634
843.616	23783
843.752	23520
843.889	23577
844.025	23467
844.162	23509
844.298	23471
844.435	23520
844.571	23630
844.708	23611
844.844	23646
844.98	23630
845.117	23649
845.253	23604
845.389	23417
845.525	23448
845.661	23459
845.798	23303
845.934	23330
846.07	23132
846.206	23330
846.342	23524
846.478	23185
846.614	23113
846.75	22972
846.886	22927
847.022	22968
847.158	22987
847.294	22999
847.429	23044
847.565	22965
847.701	23185
847.837	22717
847.972	22740
848.108	22797
848.244	22889
848.379	22694
848.515	22500
848.65	22527
848.786	22615
848.921	22660
849.057	22771
849.192	22569
849.328	22675
849.463	22538
849.598	22466
849.734	22447
849.869	22417
850.004	22363
850.14	22337
850.275	22382
850.41	22337
850.545	22295
850.68	22226
850.815	22451
850.95	22356
851.085	22569
851.22	22436
851.355	22234
851.49	22443
851.625	22276
851.76	22428
851.895	22219
852.03	22257
852.165	22386
852.299	22436
852.434	22382
852.569	22432
852.703	22398
852.838	22447
852.973	22470
853.107	22474
853.242	22280
853.376	22150
853.511	22078
853.645	22055
853.78	22261
853.914	22154
854.048	22150
854.183	22116
854.317	22249
854.451	22360
854.585	22211
854.72	21979
854.854	22322
854.988	22070
855.122	22067
855.256	21991
855.39	22246
855.524	22306
855.658	22124
855.792	22230
855.926	22215
856.06	22246
856.194	22223
856.327	22169
856.461	22090
856.595	22078
856.729	22226
856.862	22154
856.996	22238
857.13	22211
857.263	22169
857.397	22261
857.53	22196
857.664	22192
857.797	22314
857.931	22276
858.064	22169
858.197	22249
858.331	22128
858.464	22196
858.597	22055
858.731	22147
858.864	22021
858.997	22128
859.13	22169
859.263	22177
859.396	22230
859.529	22223
859.662	22143
859.795	22131
859.928	22181
860.061	22303
860.194	22333
860.327	22219
860.46	22196
860.592	22306
860.725	22363
860.858	22234
860.99	22074
861.123	22226
861.256	22093
861.388	22238
861.521	22816
861.653	21949
861.786	21983
861.918	21892
862.05	22006
862.183	22002
862.315	22059
862.447	22192
862.58	22032
862.712	21854
862.844	21907
862.976	21941
863.108	22013
863.24	22379
863.372	21770
863.504	21755
863.636	21804
863.768	21899
863.9	21892
864.032	21804
864.164	21949
864.296	21846
864.428	21854
864.559	22013
864.691	21857
864.823	21857
864.954	21823
865.086	21831
865.217	21705
865.349	21644
865.48	21785
865.612	21797
865.743	21895
865.875	21690
866.006	21690
866.137	21781
866.269	21736
866.4	21800
866.531	21633
866.662	21603
866.793	21648
866.924	21564
867.055	21690
867.186	21648
867.317	21679
867.448	21641
867.579	21595
867.71	21698
867.841	21511
867.972	21701
868.103	21595
868.233	21701
868.364	21751
868.495	21774
868.625	21873
868.756	22082
868.886	21895
869.017	21846
869.147	21941
869.278	21926
869.408	21895
869.539	21937
869.669	22017
869.799	21979
869.929	22150
870.06	22032
870.19	22223
870.32	22272
870.45	22242
870.58	22253
870.71	22421
870.84	22379
870.97	22246
871.1	22253
871.23	22386
871.36	22409
871.489	22314
871.619	22489
871.749	22466
871.879	22561
872.008	22675
872.138	22497
872.267	22538
872.397	22443
872.526	22379
872.656	22329
872.785	22246
872.915	22519
873.044	22577
873.173	22470
873.303	22599
873.432	22542
873.561	22527
873.69	22573
873.819	22527
873.948	22672
874.077	22436
874.206	22516
874.335	22615
874.464	22596
874.593	22683
874.722	22557
874.851	22763
874.979	22672
875.108	22820
875.237	22694
875.365	22641
875.494	22668
875.623	22645
875.751	22725
875.88	22721
876.008	22881
876.136	22885
876.265	23075
876.393	23254
876.521	23117
876.65	23140
876.778	23098
876.906	23003
877.034	23147
877.162	23056
877.29	23029
877.418	23067
877.546	23048
877.674	23090
877.802	23018
877.93	23014
878.058	22995
878.185	22999
878.313	23025
878.441	23014
878.568	22862
878.696	22953
878.824	23014
878.951	23098
879.079	23174
879.206	23383
879.333	23242
879.461	23086
879.588	23235
879.715	23204
879.842	23391
879.97	23185
880.097	22968
880.224	22915
880.351	22850
880.478	22831
880.605	22812
880.732	23003
880.859	23037
880.986	22892
881.112	23029
881.239	22721
881.366	22713
881.493	22497
881.619	22451
881.746	22421
881.872	22527
881.999	22451
882.125	22443
882.252	22424
882.378	22413
882.505	22508
882.631	22356
882.757	22082
882.883	22215
883.01	22200
883.136	22128
883.262	22021
883.388	21949
883.514	22063
883.64	22112
883.766	22139
883.892	21880
884.018	22128
884.143	22036
884.269	22147
884.395	21960
884.52	21682
884.646	21732
884.772	21751
884.897	21694
885.023	21743
885.148	21778
885.274	21953
885.399	21941
885.524	21789
885.65	21717
885.775	21789
885.9	21747
886.025	21907
886.15	21759
886.275	21770
886.4	21641
886.525	21915
886.65	21637
886.775	21663
886.9	21831
887.025	21968
887.149	21827
887.274	21576
887.399	21583
887.523	21568
887.648	21523
887.773	21507
887.897	21766
888.021	21564
888.146	21549
888.27	21622
888.395	21572
888.519	21496
888.643	21542
888.767	21618
888.891	21420
889.015	21283
889.139	21294
889.263	21291
889.387	21443
889.511	21557
889.635	21450
889.759	21313
889.883	21294
890.006	21355
890.13	21405
890.254	21184
890.377	21241
890.501	21211
890.624	21100
890.748	21180
890.871	20883
890.995	20861
891.118	20876
891.241	20906
891.364	20952
891.488	21043
891.611	20845
891.734	20861
891.857	20819
891.98	20887
892.103	20857
892.226	20842
892.349	20659
892.471	20712
892.594	20731
892.717	20705
892.839	20796
892.962	20788
893.085	20895
893.207	20811
893.33	20625
893.452	20811
893.575	20899
893.697	20773
893.819	20963
893.941	20944
894.064	20842
894.186	20629
894.308	20697
894.43	20941
894.552	20880
894.674	20876
894.796	20674
894.918	20743
895.04	20667
895.161	20716
895.283	20785
895.405	20754
895.526	20674
895.648	20857
895.769	20807
895.891	20724
896.012	20796
896.134	20807
896.255	20712
896.376	20765
896.498	20560
896.619	20800
896.74	20750
896.861	20796
896.982	21085
897.103	21214
897.224	20937
897.345	20944
897.466	20880
897.587	21081
897.708	21043
897.828	21013
897.949	20857
898.07	20849
898.19	20933
898.311	20956
898.431	20861
898.552	20872
898.672	21005
898.792	21070
898.913	20971
899.033	20724
899.153	20724
899.273	20739
899.393	20598
899.513	20769
899.633	20743
899.753	20724
899.873	20598
899.993	20701
900.113	20644
900.232	20686
900.352	20530
900.472	20385
900.591	20396
900.711	20450
900.83	20393
900.95	20552
901.069	20484
901.189	20366
901.308	20172
901.427	20012
901.546	20122
901.665	19989
901.784	19913
901.904	19849
902.023	19753
902.141	19662
902.26	19407
902.379	19525
902.498	19548
902.617	19597
902.735	19510
902.854	19563
902.973	19457
903.091	19289
903.21	19202
903.328	19213
903.446	19168
903.565	19057
903.683	18951
903.801	18932
903.919	18951
904.038	18943
904.156	18726
904.274	18795
904.392	18760
904.51	18760
904.627	18715
904.745	18787
904.863	18719
904.981	18521
905.098	18547
905.216	18452
905.334	18422
905.451	18563
905.569	18403
905.686	18551
905.803	18460
905.921	18228
906.038	18281
906.155	18232
906.272	17969
906.389	18159
906.506	17999
906.623	18011
906.74	17897
906.857	17874
906.974	17882
907.091	17999
907.208	18026
907.324	17977
907.441	17889
907.557	17684
907.674	17665
907.79	17615
907.907	17733
908.023	17638
908.139	17699
908.256	17528
908.372	17547
908.488	17512
908.604	17349
908.72	17444
908.836	17410
908.952	17387
909.068	17337
909.184	17459
909.3	17398
909.415	17398
909.531	17387
909.647	17174
909.762	17075
909.878	17117
909.993	17140
910.108	17178
910.224	17102
910.339	17052
910.454	17071
910.57	16873
910.685	16885
910.8	17117
910.915	16980
911.03	16862
911.145	16687
911.259	16683
911.374	16645
911.489	16569
911.604	16523
911.718	16451
911.833	16527
911.947	16166
912.062	16314
912.176	16421
912.291	16344
912.405	16333
912.519	16603
912.633	16546
912.748	16584
912.862	16379
912.976	16261
913.09	16082
913.204	16230
913.318	16246
913.431	16211
913.545	16200
913.659	16329
913.772	16097
913.886	16154
914	16040
914.113	16082
914.226	16074
914.34	16177
914.453	15960
914.566	16025
914.68	15994
914.793	15861
914.906	15709
915.019	15568
915.132	15530
915.245	15667
915.358	15637
915.47	15530
915.583	15561
915.696	15641
915.809	15720
915.921	15648
916.034	15557
916.146	15511
916.259	15439
916.371	15580
916.483	15523
916.595	15439
916.708	15523
916.82	15450
916.932	15363
917.044	15416
917.156	15336
917.268	15233
917.38	15272
917.491	15188
917.603	15142
917.715	15351
917.826	15294
917.938	15138
918.049	14975
918.161	15154
918.272	15298
918.384	15325
918.495	15169
918.606	15032
918.717	14963
918.828	15024
918.939	14948
919.05	14887
919.161	15009
919.272	14788
919.383	14849
919.494	15066
919.604	15154
919.715	15024
919.826	14849
919.936	15032
920.047	15032
920.157	15005
920.267	15154
920.378	14941
920.488	15005
920.598	15192
920.708	15146
920.818	15070
920.928	15024
921.038	15154
921.148	15192
921.258	14838
921.368	14792
921.477	14720
921.587	14727
921.697	14514
921.806	14640
921.916	14503
922.025	14355
922.134	14324
922.244	14233
922.353	14256
922.462	14229
922.571	14153
922.68	14084
922.789	13879
922.898	13955
923.007	13860
923.116	13909
923.224	13883
923.333	13986
923.442	13772
923.55	13708
923.659	13772
923.767	13902
923.876	13708
923.984	13799
924.092	13655
924.201	13715
924.309	13750
924.417	13628
924.525	13529
924.633	13700
924.741	14545
924.849	13457
924.956	13544
925.064	13430
925.172	13251
925.279	13381
925.387	13365
925.494	13377
925.602	13514
925.709	13331
925.816	13221
925.924	13213
926.031	13304
926.138	13263
926.245	13339
926.352	13133
926.459	13255
926.566	13308
926.673	13122
926.779	13027
926.886	13099
926.993	12977
927.099	12848
927.206	12825
927.312	12848
927.419	12867
927.525	12795
927.631	12852
927.737	12760
927.843	12753
927.95	12707
928.056	12650
928.162	12662
928.267	12753
928.373	13198
928.479	12806
928.585	12517
928.69	12696
928.796	12589
928.901	12570
929.007	12448
929.112	12517
929.218	12467
929.323	12403
929.428	12315
929.533	12464
929.638	12334
929.743	12429
929.848	12353
929.953	12311
930.058	12228
930.163	12159
930.267	12224
930.372	12235
930.477	12068
930.581	12292
930.685	12087
930.79	11939
930.894	12041
930.998	11954
931.103	12117
931.207	11764
931.311	11684
931.415	11520
931.519	11372
931.623	11303
