Data from test_V78500241_3356.txt Node
Date: Fri Mar 25 15:33:13 CST 2022
User: usil
Spectrometer: V785-0024
Trigger mode: 0
Integration Time (sec): 4.000000E-1
Scans to average: 1
Nonlinearity correction enabled: false
Boxcar width: 0
Storing dark spectrum: false
XAxis mode: Wavelengths
Number of Pixels in Spectrum: 1024
>>>>>Begin Spectral Data<<<<<
801.071	27275
801.214	27020
801.356	26948
801.499	26876
801.641	26823
801.783	26674
801.926	26716
802.068	26720
802.211	26594
802.353	26552
802.496	26473
802.638	26396
802.78	26282
802.923	26294
803.065	26180
803.208	26210
803.35	26294
803.492	26476
803.635	26587
803.777	26408
803.919	26427
804.061	26754
804.204	26526
804.346	26370
804.488	26366
804.63	26461
804.773	26434
804.915	26419
805.057	26431
805.199	26415
805.341	26537
805.483	26644
805.626	26640
805.768	26594
805.91	26598
806.052	26632
806.194	26537
806.336	26720
806.478	26621
806.62	26476
806.762	26682
806.904	26735
807.046	27142
807.188	26979
807.33	26937
807.472	27036
807.614	26914
807.756	26899
807.898	26765
808.04	26804
808.182	26788
808.324	26765
808.465	26876
808.607	27077
808.749	27184
808.891	27336
809.033	27298
809.174	27195
809.316	27138
809.458	27081
809.6	27036
809.741	27157
809.883	27169
810.025	27488
810.166	27363
810.308	27424
810.45	27458
810.591	27351
810.733	27275
810.875	27024
811.016	26902
811.158	27108
811.299	27348
811.441	27222
811.582	27321
811.724	27112
811.865	27070
812.007	26990
812.148	27051
812.29	27165
812.431	27294
812.573	27450
812.714	27576
812.855	27625
812.997	27686
813.138	27842
813.279	27576
813.421	27778
813.562	27595
813.703	27427
813.845	27256
813.986	27119
814.127	26975
814.268	26861
814.41	26773
814.551	26845
814.692	26731
814.833	26720
814.974	26708
815.115	26785
815.256	26811
815.397	26663
815.539	26648
815.68	26522
815.821	26579
815.962	26484
816.103	26526
816.244	26385
816.385	26313
816.526	26298
816.666	26206
816.807	25928
816.948	26024
817.089	26218
817.23	26020
817.371	26100
817.512	26008
817.653	26031
817.793	25993
817.934	26012
818.075	26092
818.216	26020
818.356	25940
818.497	25814
818.638	25689
818.778	25753
818.919	25791
819.06	25963
819.2	25906
819.341	26039
819.481	25970
819.622	26122
819.762	26347
819.903	26259
820.043	26214
820.184	26153
820.324	26202
820.465	26191
820.605	26180
820.746	26035
820.886	25887
821.026	25986
821.167	26043
821.307	26130
821.447	25989
821.588	26008
821.728	25822
821.868	25689
822.008	25575
822.149	25422
822.289	25502
822.429	25225
822.569	25076
822.709	25084
822.849	25015
822.99	25034
823.13	24920
823.27	24939
823.41	24730
823.55	24745
823.69	24882
823.83	24764
823.97	24760
824.11	24593
824.25	24544
824.389	24730
824.529	24726
824.669	24639
824.809	24867
824.949	24715
825.089	24806
825.228	24700
825.368	24407
825.508	24521
825.648	24479
825.787	24403
825.927	24547
826.067	24502
826.206	24471
826.346	24551
826.485	24563
826.625	24589
826.765	24589
826.904	24563
827.044	24228
827.183	24205
827.323	24095
827.462	24224
827.601	24247
827.741	24213
827.88	24167
828.02	24133
828.159	24285
828.298	24277
828.437	24277
828.577	24144
828.716	24289
828.855	24220
828.994	24121
829.134	23958
829.273	23988
829.412	23840
829.551	23897
829.69	23920
829.829	24018
829.968	23969
830.107	24015
830.246	23923
830.385	23828
830.524	23927
830.663	23786
830.802	23695
830.941	23608
831.08	23623
831.219	23668
831.357	23573
831.496	23821
831.635	23520
831.774	23543
831.913	23478
832.051	23376
832.19	23349
832.329	23299
832.467	23273
832.606	23147
832.744	23147
832.883	23140
833.022	23109
833.16	23345
833.299	23406
833.437	23364
833.576	23387
833.714	23322
833.852	23292
833.991	23482
834.129	23433
834.267	23387
834.406	23326
834.544	23227
834.682	23474
834.821	23178
834.959	23337
835.097	23258
835.235	23288
835.373	23292
835.511	23185
835.65	23155
835.788	23136
835.926	23037
836.064	22957
836.202	23041
836.34	23147
836.478	23189
836.615	23151
836.753	23083
836.891	23242
837.029	23155
837.167	23071
837.305	23037
837.443	23079
837.58	22881
837.718	23105
837.856	23029
837.993	22908
838.131	23098
838.269	22869
838.406	22831
838.544	22938
838.681	22736
838.819	22790
838.956	22577
839.094	22527
839.231	22538
839.369	22653
839.506	22908
839.643	22736
839.781	22500
839.918	22466
840.055	22413
840.193	22470
840.33	22447
840.467	22360
840.604	22512
840.742	22664
840.879	22421
841.016	22363
841.153	22303
841.29	22455
841.427	22424
841.564	22299
841.701	22348
841.838	22344
841.975	22276
842.112	22382
842.249	22204
842.385	22166
842.522	22516
842.659	22135
842.796	22120
842.933	22207
843.069	22158
843.206	22169
843.343	22249
843.479	22356
843.616	22192
843.752	22063
843.889	21960
844.025	22200
844.162	21949
844.298	21975
844.435	21945
844.571	21945
844.708	21964
844.844	22158
844.98	21991
845.117	22036
845.253	21911
845.389	21850
845.525	21937
845.661	21816
845.798	21774
845.934	21751
846.07	21591
846.206	21667
846.342	21842
846.478	21762
846.614	21549
846.75	21382
846.886	21367
847.022	21473
847.158	21507
847.294	21370
847.429	21538
847.565	21469
847.701	21709
847.837	21127
847.972	21036
848.108	21203
848.244	21317
848.379	21116
848.515	21013
848.65	21062
848.786	21093
848.921	21108
849.057	21241
849.192	21150
849.328	21028
849.463	21062
849.598	20921
849.734	20899
849.869	20891
850.004	20845
850.14	20853
850.275	20880
850.41	20849
850.545	20735
850.68	20758
850.815	20853
850.95	20857
851.085	20956
851.22	20830
851.355	20914
851.49	20792
851.625	20765
851.76	20686
851.895	20667
852.03	20807
852.165	20701
852.299	20876
852.434	20891
852.569	20910
852.703	20876
852.838	20834
852.973	20921
853.107	20956
853.242	20804
853.376	20682
853.511	20533
853.645	20579
853.78	20609
853.914	20739
854.048	20587
854.183	20579
854.317	20678
854.451	20792
854.585	20587
854.72	20663
854.854	20697
854.988	20552
855.122	20686
855.256	20560
855.39	20568
855.524	20743
855.658	20636
855.792	20674
855.926	20583
856.06	20629
856.194	20613
856.327	20701
856.461	20393
856.595	20632
856.729	20526
856.862	20651
856.996	20636
857.13	20697
857.263	20609
857.397	20724
857.53	20644
857.664	20697
857.797	20712
857.931	20781
858.064	20697
858.197	20651
858.331	20587
858.464	20427
858.597	20408
858.731	20549
858.864	20541
858.997	20602
859.13	20609
859.263	20621
859.396	20743
859.529	20556
859.662	20484
859.795	20594
859.928	20648
860.061	20773
860.194	20754
860.327	20720
860.46	20667
860.592	20712
860.725	20705
860.858	20674
860.99	20632
861.123	20590
861.256	20587
861.388	20598
861.521	21359
861.653	20526
861.786	20412
861.918	20480
862.05	20625
862.183	20541
862.315	20499
862.447	20655
862.58	20526
862.712	20347
862.844	20275
862.976	20434
863.108	20461
863.24	20644
863.372	20351
863.504	20305
863.636	20275
863.768	20400
863.9	20351
864.032	20282
864.164	20233
864.296	20286
864.428	20419
864.559	20336
864.691	20328
864.823	20294
864.954	20404
865.086	20351
865.217	20332
865.349	20218
865.48	20313
865.612	20199
865.743	20381
865.875	20309
866.006	20210
866.137	20248
866.269	20210
866.4	20183
866.531	20221
866.662	20161
866.793	20153
866.924	20256
867.055	20267
867.186	20145
867.317	20202
867.448	20092
867.579	20195
867.71	20096
867.841	20088
867.972	20294
868.103	20206
868.233	20157
868.364	20180
868.495	20206
868.625	20473
868.756	20514
868.886	20298
869.017	20423
869.147	20446
869.278	20469
869.408	20446
869.539	20461
869.669	20530
869.799	20503
869.929	20507
870.06	20469
870.19	20731
870.32	20682
870.45	20724
870.58	20792
870.71	20906
870.84	20979
870.97	20777
871.1	20819
871.23	21070
871.36	21058
871.489	20842
871.619	21093
871.749	21020
871.879	21066
872.008	21036
872.138	21013
872.267	21047
872.397	20994
872.526	20864
872.656	20853
872.785	20800
872.915	21081
873.044	21188
873.173	20933
873.303	21173
873.432	21154
873.561	21089
873.69	21058
873.819	20971
873.948	21066
874.077	21074
874.206	21047
874.335	21062
874.464	21230
874.593	21367
874.722	21146
874.851	21272
874.979	21443
875.108	21382
875.237	21283
875.365	21249
875.494	21321
875.623	21363
875.751	21279
875.88	21332
876.008	21481
876.136	21378
876.265	21770
876.393	21831
876.521	21827
876.65	21854
876.778	21747
876.906	21705
877.034	21644
877.162	21747
877.29	21591
877.418	21660
877.546	21732
877.674	21538
877.802	21785
877.93	21614
878.058	21671
878.185	21561
878.313	21515
878.441	21690
878.568	21405
878.696	21583
878.824	21641
878.951	21774
879.079	21895
879.206	21911
879.333	21899
879.461	21690
879.588	21819
879.715	21747
879.842	21865
879.97	21698
880.097	21507
880.224	21545
880.351	21519
880.478	21428
880.605	21530
880.732	21549
880.859	21595
880.986	21504
881.112	21576
881.239	21310
881.366	21154
881.493	21192
881.619	21058
881.746	21157
881.872	21112
881.999	21005
882.125	21009
882.252	21081
882.378	21066
882.505	21157
882.631	20838
882.757	20724
882.883	20857
883.01	20773
883.136	20701
883.262	20659
883.388	20609
883.514	20773
883.64	20781
883.766	20796
883.892	20442
884.018	20594
884.143	20705
884.269	20853
884.395	20552
884.52	20499
884.646	20389
884.772	20328
884.897	20336
885.023	20465
885.148	20503
885.274	20526
885.399	20571
885.524	20415
885.65	20400
885.775	20522
885.9	20408
886.025	20579
886.15	20446
886.275	20320
886.4	20473
886.525	20271
886.65	20183
886.775	20381
886.9	20674
887.025	20571
887.149	20446
887.274	20282
887.399	20176
887.523	20259
887.648	20161
887.773	20183
887.897	20263
888.021	20164
888.146	20149
888.27	20256
888.395	20332
888.519	20301
888.643	20244
888.767	20244
888.891	20119
889.015	20005
889.139	20134
889.263	19986
889.387	20073
889.511	20149
889.635	20016
889.759	19917
889.883	19951
890.006	19986
890.13	20134
890.254	19875
890.377	19856
890.501	19685
890.624	19708
890.748	19849
890.871	19635
890.995	19658
891.118	19590
891.241	19586
891.364	19571
891.488	19578
891.611	19521
891.734	19670
891.857	19605
891.98	19502
892.103	19696
892.226	19476
892.349	19556
892.471	19419
892.594	19506
892.717	19537
892.839	19510
892.962	19472
893.085	19594
893.207	19449
893.33	19373
893.452	19480
893.575	19529
893.697	19499
893.819	19605
893.941	19791
894.064	19742
894.186	19419
894.308	19533
894.43	19601
894.552	19753
894.674	19655
894.796	19460
894.918	19453
895.04	19521
895.161	19559
895.283	19441
895.405	19480
895.526	19552
895.648	19430
895.769	19495
895.891	19628
896.012	19670
896.134	19502
896.255	19563
896.376	19472
896.498	19453
896.619	19460
896.74	19601
896.861	19586
896.982	19750
897.103	20039
897.224	19700
897.345	19696
897.466	19609
897.587	19677
897.708	19814
897.828	19765
897.949	19670
898.07	19635
898.19	19601
898.311	19807
898.431	19765
898.552	19693
898.672	19879
898.792	19731
898.913	19628
899.033	19643
899.153	19582
899.273	19438
899.393	19537
899.513	19605
899.633	19563
899.753	19491
899.873	19457
899.993	19407
900.113	19403
900.232	19502
900.352	19308
900.472	19255
900.591	19175
900.711	19255
900.83	19175
900.95	19354
901.069	19365
901.189	19046
901.308	18837
901.427	18871
901.546	18844
901.665	18795
901.784	19008
901.904	18669
902.023	18620
902.141	18399
902.26	18380
902.379	18532
902.498	18384
902.617	18289
902.735	18357
902.854	18247
902.973	18216
903.091	18041
903.21	18083
903.328	18091
903.446	17965
903.565	17927
903.683	17851
903.801	17813
903.919	17847
904.038	17859
904.156	17604
904.274	17714
904.392	17657
904.51	17630
904.627	17630
904.745	17790
904.863	17722
904.981	17436
905.098	17284
905.216	17307
905.334	17433
905.451	17383
905.569	17239
905.686	17292
905.803	17246
905.921	17109
906.038	17105
906.155	17185
906.272	17018
906.389	16965
906.506	16774
906.623	16816
906.74	16752
906.857	16782
906.974	16786
907.091	16866
907.208	16911
907.324	16919
907.441	16748
907.557	16626
907.674	16588
907.79	16580
907.907	16656
908.023	16645
908.139	16489
908.256	16607
908.372	16459
908.488	16447
908.604	16352
908.72	16147
908.836	16367
908.952	16291
909.068	16329
909.184	16310
909.3	16276
909.415	16188
909.531	16284
909.647	16093
909.762	16044
909.878	15972
909.993	16105
910.108	15945
910.224	16021
910.339	16010
910.454	15876
910.57	15895
910.685	15823
910.8	16120
910.915	16025
911.03	15808
911.145	15584
911.259	15603
911.374	15584
911.489	15557
911.604	15557
911.718	15359
911.833	15367
911.947	15188
912.062	15256
912.176	15378
912.291	15264
912.405	15420
912.519	15587
912.633	15485
912.748	15481
912.862	15321
912.976	15135
913.09	15157
913.204	15176
913.318	15176
913.431	15230
913.545	15321
913.659	15287
913.772	15154
913.886	15062
914	14891
914.113	15127
914.226	15161
914.34	15043
914.453	14819
914.566	15001
914.68	14956
914.793	14872
914.906	14701
915.019	14613
915.132	14568
915.245	14621
915.358	14636
915.47	14667
915.583	14636
915.696	14693
915.809	14727
915.921	14750
916.034	14541
916.146	14526
916.259	14438
916.371	14571
916.483	14587
916.595	14446
916.708	14484
916.82	14492
916.932	14427
917.044	14473
917.156	14381
917.268	14347
917.38	14415
917.491	14252
917.603	14343
917.715	14450
917.826	14370
917.938	14259
918.049	14172
918.161	14282
918.272	14427
918.384	14366
918.495	14202
918.606	14130
918.717	14073
918.828	14077
918.939	14100
919.05	13909
919.161	14084
919.272	13818
919.383	13909
919.494	14130
919.604	14267
919.715	14138
919.826	13997
919.936	14065
920.047	14168
920.157	14035
920.267	14248
920.378	14020
920.488	14005
920.598	14263
920.708	14278
920.818	14237
920.928	14244
921.038	14294
921.148	14195
921.258	14069
921.368	13879
921.477	13883
921.587	13807
921.697	13609
921.806	13734
921.916	13643
922.025	13525
922.134	13388
922.244	13339
922.353	13533
922.462	13251
922.571	13232
922.68	13145
922.789	13057
922.898	13023
923.007	13057
923.116	13088
923.224	13122
923.333	13050
923.442	12951
923.55	12909
923.659	12973
923.767	13008
923.876	12947
923.984	12951
924.092	12848
924.201	12837
924.309	12837
924.417	12753
924.525	12700
924.633	12776
924.741	13746
924.849	12604
924.956	12715
925.064	12566
925.172	12494
925.279	12464
925.387	12502
925.494	12521
925.602	12509
925.709	12532
925.816	12433
925.924	12475
926.031	12585
926.138	12475
926.245	12494
926.352	12311
926.459	12486
926.566	12536
926.673	12441
926.779	12289
926.886	12251
926.993	12125
927.099	12213
927.206	12140
927.312	12034
927.419	12003
927.525	12121
927.631	12167
927.737	12053
927.843	11946
927.95	11786
928.056	11923
928.162	11977
928.267	11946
928.373	12517
928.479	12011
928.585	11764
928.69	11790
928.796	11893
928.901	11870
929.007	11551
929.112	11836
929.218	11752
929.323	11638
929.428	11672
929.533	11813
929.638	11680
929.743	11638
929.848	11589
929.953	11733
930.058	11463
930.163	11482
930.267	11398
930.372	11436
930.477	11341
930.581	11471
930.685	11417
930.79	11311
930.894	11280
930.998	11193
931.103	11448
931.207	10991
931.311	10972
931.415	10847
931.519	10653
931.623	10573
