Data from test_V78500241_1673.txt Node
Date: Fri Mar 25 15:21:30 CST 2022
User: usil
Spectrometer: V785-0024
Trigger mode: 0
Integration Time (sec): 4.000000E-1
Scans to average: 1
Nonlinearity correction enabled: false
Boxcar width: 0
Storing dark spectrum: false
XAxis mode: Wavelengths
Number of Pixels in Spectrum: 1024
>>>>>Begin Spectral Data<<<<<
801.071	28120
801.214	27930
801.356	27709
801.499	27675
801.641	27412
801.783	27481
801.926	27595
802.068	27454
802.211	27561
802.353	27397
802.496	27306
802.638	27222
802.78	27154
802.923	27108
803.065	27039
803.208	26994
803.35	27100
803.492	27294
803.635	27587
803.777	27321
803.919	27492
804.061	27739
804.204	27393
804.346	27348
804.488	27492
804.63	27344
804.773	27393
804.915	27416
805.057	27485
805.199	27294
805.341	27462
805.483	27534
805.626	27545
805.768	27416
805.91	27523
806.052	27564
806.194	27526
806.336	27743
806.478	27564
806.62	27656
806.762	27660
806.904	27781
807.046	27975
807.188	27987
807.33	27930
807.472	28074
807.614	27827
807.756	27854
807.898	27816
808.04	27762
808.182	27705
808.324	27652
808.465	27838
808.607	28036
808.749	28211
808.891	28348
809.033	28280
809.174	28268
809.316	28177
809.458	28219
809.6	28143
809.741	28173
809.883	28177
810.025	28360
810.166	28379
810.308	28459
810.45	28500
810.591	28284
810.733	28272
810.875	28090
811.016	28078
811.158	28006
811.299	28211
811.441	28230
811.582	28242
811.724	28322
811.865	28105
812.007	28226
812.148	28169
812.29	28226
812.431	28337
812.573	28459
812.714	28622
812.855	28618
812.997	28759
813.138	28987
813.279	28713
813.421	28843
813.562	28710
813.703	28459
813.845	28424
813.986	28169
814.127	27941
814.268	27960
814.41	27968
814.551	27698
814.692	27907
814.833	27827
814.974	27751
815.115	27827
815.256	27778
815.397	27800
815.539	27755
815.68	27595
815.821	27648
815.962	27663
816.103	27614
816.244	27386
816.385	27435
816.526	27420
816.666	27237
816.807	27154
816.948	27203
817.089	27283
817.23	27135
817.371	27211
817.512	27074
817.653	27161
817.793	27165
817.934	27100
818.075	27131
818.216	27173
818.356	27169
818.497	26963
818.638	27009
818.778	27001
818.919	26963
819.06	26994
819.2	27058
819.341	27214
819.481	27195
819.622	27313
819.762	27466
819.903	27389
820.043	27351
820.184	27348
820.324	27283
820.465	27424
820.605	27127
820.746	27325
820.886	27142
821.026	27233
821.167	27165
821.307	27226
821.447	27138
821.588	27058
821.728	26864
821.868	26868
822.008	26602
822.149	26629
822.289	26640
822.429	26313
822.569	26305
822.709	26351
822.849	26031
822.99	26050
823.13	26043
823.27	26039
823.41	25966
823.55	25875
823.69	25982
823.83	25932
823.97	25963
824.11	25852
824.25	25818
824.389	25715
824.529	25845
824.669	25727
824.809	25959
824.949	25890
825.089	25731
825.228	25940
825.368	25647
825.508	25548
825.648	25537
825.787	25727
825.927	25776
826.067	25594
826.206	25624
826.346	25616
826.485	25734
826.625	25666
826.765	25864
826.904	25704
827.044	25411
827.183	25358
827.323	25365
827.462	25350
827.601	25358
827.741	25225
827.88	25415
828.02	25228
828.159	25308
828.298	25316
828.437	25381
828.577	25327
828.716	25483
828.855	25335
828.994	25164
829.134	25080
829.273	25012
829.412	24992
829.551	25004
829.69	25095
829.829	24996
829.968	25198
830.107	25175
830.246	25080
830.385	24916
830.524	24913
830.663	24920
830.802	24821
830.941	24551
831.08	24707
831.219	24620
831.357	24772
831.496	24901
831.635	24757
831.774	24559
831.913	24563
832.051	24418
832.19	24494
832.329	24566
832.467	24570
832.606	24308
832.744	24201
832.883	24228
833.022	24334
833.16	24311
833.299	24342
833.437	24346
833.576	24479
833.714	24429
833.852	24384
833.991	24604
834.129	24498
834.267	24407
834.406	24372
834.544	24445
834.682	24582
834.821	24456
834.959	24570
835.097	24369
835.235	24471
835.373	24399
835.511	24319
835.65	24224
835.788	24334
835.926	24152
836.064	24144
836.202	24095
836.34	24167
836.478	24182
836.615	24182
836.753	24049
836.891	24372
837.029	24213
837.167	24254
837.305	24011
837.443	24076
837.58	24015
837.718	24167
837.856	23946
837.993	24018
838.131	24018
838.269	23969
838.406	24034
838.544	23984
838.681	23722
838.819	23805
838.956	23551
839.094	23474
839.231	23558
839.369	23722
839.506	23961
839.643	23840
839.781	23581
839.918	23402
840.055	23505
840.193	23520
840.33	23512
840.467	23471
840.604	23463
840.742	23809
840.879	23197
841.016	23444
841.153	23273
841.29	23493
841.427	23414
841.564	23414
841.701	23417
841.838	23406
841.975	23341
842.112	23383
842.249	23334
842.385	23151
842.522	23330
842.659	23258
842.796	23254
842.933	23307
843.069	23140
843.206	23269
843.343	23250
843.479	23193
843.616	23269
843.752	23064
843.889	22885
844.025	23086
844.162	22991
844.298	23079
844.435	22923
844.571	22873
844.708	23006
844.844	23170
844.98	23193
845.117	23003
845.253	23018
845.389	22767
845.525	23044
845.661	22930
845.798	22809
845.934	22816
846.07	22694
846.206	22767
846.342	22805
846.478	22599
846.614	22485
846.75	22474
846.886	22489
847.022	22470
847.158	22500
847.294	22402
847.429	22577
847.565	22329
847.701	22618
847.837	22185
847.972	22135
848.108	22322
848.244	22230
848.379	22166
848.515	22002
848.65	22120
848.786	22017
848.921	21964
849.057	22139
849.192	22192
849.328	22162
849.463	22059
849.598	22006
849.734	22044
849.869	21880
850.004	21907
850.14	21926
850.275	21816
850.41	21663
850.545	21717
850.68	21785
850.815	21770
850.95	21873
851.085	21934
851.22	21991
851.355	21926
851.49	21759
851.625	21819
851.76	21755
851.895	21675
852.03	21713
852.165	21774
852.299	21812
852.434	21895
852.569	21797
852.703	21823
852.838	21869
852.973	21857
853.107	21983
853.242	21861
853.376	21618
853.511	21462
853.645	21595
853.78	21778
853.914	21652
854.048	21561
854.183	21538
854.317	21587
854.451	21751
854.585	21561
854.72	21679
854.854	21785
854.988	21614
855.122	21633
855.256	21504
855.39	21686
855.524	21804
855.658	21595
855.792	21625
855.926	21641
856.06	21656
856.194	21698
856.327	21568
856.461	21656
856.595	21633
856.729	21705
856.862	21625
856.996	21713
857.13	21675
857.263	21572
857.397	21789
857.53	21549
857.664	21682
857.797	21671
857.931	21770
858.064	21709
858.197	21778
858.331	21591
858.464	21557
858.597	21606
858.731	21622
858.864	21519
858.997	21511
859.13	21610
859.263	21549
859.396	21667
859.529	21534
859.662	21515
859.795	21652
859.928	21644
860.061	21804
860.194	21838
860.327	21675
860.46	21713
860.592	21724
860.725	21865
860.858	21724
860.99	21610
861.123	21557
861.256	21663
861.388	21694
861.521	22303
861.653	21549
861.786	21511
861.918	21538
862.05	21507
862.183	21538
862.315	21641
862.447	21572
862.58	21523
862.712	21458
862.844	21218
862.976	21374
863.108	21348
863.24	21755
863.372	21310
863.504	21260
863.636	21367
863.768	21374
863.9	21386
864.032	21135
864.164	21237
864.296	21389
864.428	21477
864.559	21317
864.691	21386
864.823	21237
864.954	21450
865.086	21241
865.217	21233
865.349	21161
865.48	21241
865.612	21199
865.743	21374
865.875	21222
866.006	21226
866.137	21294
866.269	21119
866.4	21211
866.531	21161
866.662	21062
866.793	21119
866.924	21093
867.055	21252
867.186	21169
867.317	21142
867.448	21089
867.579	21157
867.71	21074
867.841	21039
867.972	21184
868.103	21214
868.233	21180
868.364	21203
868.495	21222
868.625	21317
868.756	21488
868.886	21363
869.017	21401
869.147	21473
869.278	21526
869.408	21336
869.539	21374
869.669	21412
869.799	21511
869.929	21557
870.06	21534
870.19	21705
870.32	21644
870.45	21827
870.58	21816
870.71	21899
870.84	21941
870.97	21831
871.1	21720
871.23	21972
871.36	21899
871.489	21808
871.619	21930
871.749	21975
871.879	21979
872.008	22188
872.138	21907
872.267	21964
872.397	21895
872.526	21709
872.656	21937
872.785	21873
872.915	22093
873.044	22086
873.173	22006
873.303	22128
873.432	22021
873.561	22112
873.69	22010
873.819	22074
873.948	22101
874.077	21979
874.206	21918
874.335	21918
874.464	22192
874.593	22211
874.722	22265
874.851	22215
874.979	22226
875.108	22299
875.237	22265
875.365	22112
875.494	22226
875.623	22207
875.751	22223
875.88	22284
876.008	22333
876.136	22428
876.265	22637
876.393	22645
876.521	22797
876.65	22698
876.778	22607
876.906	22634
877.034	22622
877.162	22645
877.29	22645
877.418	22588
877.546	22622
877.674	22615
877.802	22622
877.93	22584
878.058	22554
878.185	22481
878.313	22500
878.441	22535
878.568	22246
878.696	22493
878.824	22694
878.951	22599
879.079	22721
879.206	22759
879.333	22637
879.461	22569
879.588	22577
879.715	22668
879.842	22908
879.97	22577
880.097	22386
880.224	22337
880.351	22489
880.478	22455
880.605	22314
880.732	22424
880.859	22679
880.986	22424
881.112	22352
881.239	22284
881.366	21979
881.493	22010
881.619	21972
881.746	22036
881.872	22055
881.999	21838
882.125	22074
882.252	21895
882.378	21869
882.505	22051
882.631	21793
882.757	21766
882.883	21682
883.01	21686
883.136	21644
883.262	21747
883.388	21663
883.514	21705
883.64	21739
883.766	21454
883.892	21397
884.018	21405
884.143	21603
884.269	21625
884.395	21317
884.52	21192
884.646	21294
884.772	21351
884.897	21252
885.023	21211
885.148	21397
885.274	21466
885.399	21389
885.524	21218
885.65	21317
885.775	21302
885.9	21241
886.025	21424
886.15	21367
886.275	21214
886.4	21192
886.525	21264
886.65	21283
886.775	21154
886.9	21359
887.025	21370
887.149	21298
887.274	21085
887.399	20975
887.523	21001
887.648	21055
887.773	20994
887.897	21127
888.021	21051
888.146	20910
888.27	21100
888.395	21051
888.519	21089
888.643	21005
888.767	21157
888.891	21032
889.015	20857
889.139	20895
889.263	20785
889.387	21013
889.511	21032
889.635	20948
889.759	20739
889.883	20906
890.006	20921
890.13	21013
890.254	20937
890.377	20773
890.501	20594
890.624	20541
890.748	20636
890.871	20568
890.995	20377
891.118	20358
891.241	20366
891.364	20313
891.488	20465
891.611	20499
891.734	20450
891.857	20564
891.98	20434
892.103	20564
892.226	20336
892.349	20385
892.471	20214
892.594	20358
892.717	20377
892.839	20282
892.962	20324
893.085	20377
893.207	20301
893.33	20282
893.452	20161
893.575	20324
893.697	20294
893.819	20396
893.941	20476
894.064	20393
894.186	20206
894.308	20130
894.43	20381
894.552	20442
894.674	20438
894.796	20138
894.918	20393
895.04	20164
895.161	20446
895.283	20370
895.405	20320
895.526	20298
895.648	20343
895.769	20385
895.891	20328
896.012	20427
896.134	20446
896.255	20305
896.376	20275
896.498	20400
896.619	20218
896.74	20259
896.861	20438
896.982	20602
897.103	20735
897.224	20556
897.345	20560
897.466	20400
897.587	20609
897.708	20667
897.828	20594
897.949	20575
898.07	20385
898.19	20461
898.311	20644
898.431	20480
898.552	20480
898.672	20655
898.792	20689
898.913	20526
899.033	20332
899.153	20328
899.273	20267
899.393	20298
899.513	20214
899.633	20294
899.753	20267
899.873	20324
899.993	20419
900.113	20221
900.232	20214
900.352	20043
900.472	20107
900.591	19932
900.711	19997
900.83	20069
900.95	20221
901.069	20176
901.189	19967
901.308	19723
901.427	19605
901.546	19613
901.665	19624
901.784	19628
901.904	19502
902.023	19426
902.141	19282
902.26	19175
902.379	19244
902.498	19122
902.617	19069
902.735	19164
902.854	19129
902.973	19114
903.091	18943
903.21	18779
903.328	18814
903.446	18703
903.565	18741
903.683	18631
903.801	18479
903.919	18486
904.038	18479
904.156	18384
904.274	18391
904.392	18350
904.51	18407
904.627	18460
904.745	18346
904.863	18315
904.981	18228
905.098	18022
905.216	18049
905.334	17992
905.451	18064
905.569	17980
905.686	17954
905.803	17984
905.921	17786
906.038	17889
906.155	17878
906.272	17752
906.389	17760
906.506	17600
906.623	17657
906.74	17512
906.857	17402
906.974	17474
907.091	17661
907.208	17611
907.324	17585
907.441	17417
907.557	17258
907.674	17345
907.79	17227
907.907	17284
908.023	17303
908.139	17246
908.256	17303
908.372	17170
908.488	17166
908.604	17140
908.72	16968
908.836	16957
908.952	17022
909.068	17033
909.184	17086
909.3	17014
909.415	17018
909.531	17064
909.647	16725
909.762	16828
909.878	16763
909.993	16691
910.108	16672
910.224	16645
910.339	16660
910.454	16500
910.57	16493
910.685	16554
910.8	16645
910.915	16637
911.03	16493
911.145	16447
911.259	16394
911.374	16268
911.489	16287
911.604	16207
911.718	16101
911.833	16029
911.947	15945
912.062	15884
912.176	16112
912.291	15998
912.405	15994
912.519	16185
912.633	16166
912.748	16082
912.862	16040
912.976	15762
913.09	15755
913.204	15759
913.318	15884
913.431	15850
913.545	15869
913.659	16006
913.772	15793
913.886	15747
914	15618
914.113	15770
914.226	15827
914.34	15652
914.453	15507
914.566	15770
914.68	15530
914.793	15584
914.906	15424
915.019	15256
915.132	15264
915.245	15230
915.358	15294
915.47	15332
915.583	15252
915.696	15203
915.809	15332
915.921	15344
916.034	15188
916.146	15077
916.259	15184
916.371	15321
916.483	15256
916.595	15077
916.708	15009
916.82	15100
916.932	15089
917.044	15013
917.156	14994
917.268	14986
917.38	14906
917.491	14785
917.603	14941
917.715	14914
917.826	15032
917.938	14872
918.049	14788
918.161	14899
918.272	15062
918.384	15074
918.495	14857
918.606	14701
918.717	14651
918.828	14682
918.939	14701
919.05	14621
919.161	14739
919.272	14408
919.383	14556
919.494	14739
919.604	14929
919.715	14663
919.826	14537
919.936	14575
920.047	14720
920.157	14648
920.267	14800
920.378	14663
920.488	14526
920.598	14765
920.708	15013
920.818	14754
920.928	14883
921.038	15013
921.148	14845
921.258	14579
921.368	14522
921.477	14393
921.587	14332
921.697	14343
921.806	14400
921.916	14286
922.025	14084
922.134	14065
922.244	13951
922.353	14012
922.462	13932
922.571	13944
922.68	13681
922.789	13666
922.898	13670
923.007	13651
923.116	13666
923.224	13674
923.333	13639
923.442	13571
923.55	13639
923.659	13540
923.767	13647
923.876	13510
923.984	13495
924.092	13430
924.201	13506
924.309	13430
924.417	13411
924.525	13499
924.633	13407
924.741	14142
924.849	13137
924.956	13179
925.064	12993
925.172	13179
925.279	13072
925.387	13061
925.494	13080
925.602	13225
925.709	13164
925.816	12871
925.924	13031
926.031	13126
926.138	12962
926.245	13149
926.352	13004
926.459	13080
926.566	13072
926.673	12856
926.779	12859
926.886	12825
926.993	12711
927.099	12669
927.206	12681
927.312	12665
927.419	12757
927.525	12627
927.631	12715
927.737	12506
927.843	12517
927.95	12445
928.056	12407
928.162	12483
928.267	12521
928.373	13076
928.479	12525
928.585	12228
928.69	12433
928.796	12407
928.901	12311
929.007	12171
929.112	12300
929.218	12384
929.323	12197
929.428	12136
929.533	12247
929.638	12152
929.743	12167
929.848	12262
929.953	12102
930.058	11984
930.163	11798
930.267	11927
930.372	12057
930.477	11786
930.581	12114
930.685	11950
930.79	11756
930.894	11718
930.998	11668
931.103	11855
931.207	11573
931.311	11406
931.415	11315
931.519	11121
931.623	11056
