Data from test_V78500241_936.txt Node
Date: Fri Mar 25 15:16:22 CST 2022
User: usil
Spectrometer: V785-0024
Trigger mode: 0
Integration Time (sec): 4.000000E-1
Scans to average: 1
Nonlinearity correction enabled: false
Boxcar width: 0
Storing dark spectrum: false
XAxis mode: Wavelengths
Number of Pixels in Spectrum: 1024
>>>>>Begin Spectral Data<<<<<
801.071	27591
801.214	27466
801.356	27241
801.499	27169
801.641	27028
801.783	27180
801.926	27287
802.068	27047
802.211	27013
802.353	26925
802.496	26902
802.638	26712
802.78	26891
802.923	26750
803.065	26651
803.208	26815
803.35	26632
803.492	26880
803.635	26872
803.777	26796
803.919	26982
804.061	27245
804.204	26952
804.346	26868
804.488	26815
804.63	27085
804.773	26773
804.915	26982
805.057	27032
805.199	26925
805.341	26971
805.483	27116
805.626	26910
805.768	26864
805.91	27039
806.052	27138
806.194	26864
806.336	27226
806.478	27028
806.62	27005
806.762	27161
806.904	27329
807.046	27595
807.188	27393
807.33	27344
807.472	27462
807.614	27351
807.756	27389
807.898	27386
808.04	27275
808.182	27272
808.324	27291
808.465	27321
808.607	27637
808.749	27675
808.891	27698
809.033	27778
809.174	27686
809.316	27762
809.458	27854
809.6	27576
809.741	27778
809.883	27724
810.025	27991
810.166	27975
810.308	27956
810.45	27956
810.591	27960
810.733	27812
810.875	27804
811.016	27690
811.158	27576
811.299	27728
811.441	27922
811.582	27838
811.724	27641
811.865	27538
812.007	27580
812.148	27698
812.29	27644
812.431	27842
812.573	27937
812.714	28044
812.855	28207
812.997	28196
813.138	28512
813.279	28291
813.421	28272
813.562	28044
813.703	28059
813.845	27869
813.986	27629
814.127	27439
814.268	27424
814.41	27325
814.551	27294
814.692	27355
814.833	27294
814.974	27340
815.115	27351
815.256	27119
815.397	27317
815.539	27252
815.68	27058
815.821	27165
815.962	27146
816.103	27230
816.244	27077
816.385	26910
816.526	27058
816.666	26823
816.807	26678
816.948	26659
817.089	26765
817.23	26720
817.371	26613
817.512	26568
817.653	26670
817.793	26670
817.934	26564
818.075	26697
818.216	26727
818.356	26674
818.497	26549
818.638	26389
818.778	26385
818.919	26393
819.06	26488
819.2	26579
819.341	26579
819.481	26689
819.622	26644
819.762	27017
819.903	26758
820.043	26940
820.184	26689
820.324	26807
820.465	26762
820.605	26834
820.746	26796
820.886	26583
821.026	26670
821.167	26762
821.307	26800
821.447	26712
821.588	26594
821.728	26446
821.868	26313
822.008	26157
822.149	26176
822.289	26054
822.429	25894
822.569	25750
822.709	25849
822.849	25628
822.99	25685
823.13	25563
823.27	25533
823.41	25540
823.55	25422
823.69	25430
823.83	25472
823.97	25278
824.11	25221
824.25	25308
824.389	25259
824.529	25400
824.669	25350
824.809	25430
824.949	25274
825.089	25346
825.228	25289
825.368	25095
825.508	25202
825.648	25118
825.787	25312
825.927	25228
826.067	25137
826.206	25023
826.346	25179
826.485	25126
826.625	25148
826.765	25156
826.904	25168
827.044	24947
827.183	24890
827.323	24894
827.462	24856
827.601	24852
827.741	24772
827.88	24886
828.02	24738
828.159	24928
828.298	24935
828.437	24954
828.577	24821
828.716	24947
828.855	24757
828.994	24608
829.134	24658
829.273	24658
829.412	24593
829.551	24490
829.69	24479
829.829	24559
829.968	24593
830.107	24593
830.246	24536
830.385	24559
830.524	24540
830.663	24460
830.802	24220
830.941	24209
831.08	24133
831.219	24410
831.357	24361
831.496	24528
831.635	24266
831.774	24117
831.913	24060
832.051	24038
832.19	23813
832.329	23992
832.467	23942
832.606	23843
832.744	23809
832.883	23684
833.022	23927
833.16	23920
833.299	24003
833.437	23920
833.576	23935
833.714	23969
833.852	24022
833.991	23939
834.129	24121
834.267	24007
834.406	23885
834.544	23923
834.682	24049
834.821	23843
834.959	24117
835.097	23771
835.235	24015
835.373	23996
835.511	23840
835.65	23836
835.788	23805
835.926	23589
836.064	23638
836.202	23676
836.34	23824
836.478	23885
836.615	23714
836.753	23703
836.891	23866
837.029	23767
837.167	23832
837.305	23623
837.443	23646
837.58	23592
837.718	23748
837.856	23619
837.993	23547
838.131	23680
838.269	23478
838.406	23516
838.544	23490
838.681	23246
838.819	23337
838.956	23083
839.094	23086
839.231	23178
839.369	23254
839.506	23402
839.643	23376
839.781	23181
839.918	23052
840.055	23098
840.193	23079
840.33	22911
840.467	23018
840.604	22965
840.742	23246
840.879	22847
841.016	22911
841.153	22862
841.29	22965
841.427	23075
841.564	23060
841.701	23010
841.838	22938
841.975	22927
842.112	22946
842.249	22850
842.385	22713
842.522	22961
842.659	22797
842.796	22618
842.933	22740
843.069	22512
843.206	22664
843.343	22858
843.479	22820
843.616	22900
843.752	22577
843.889	22588
844.025	22748
844.162	22546
844.298	22618
844.435	22531
844.571	22573
844.708	22542
844.844	22675
844.98	22603
845.117	22679
845.253	22440
845.389	22531
845.525	22428
845.661	22470
845.798	22333
845.934	22413
846.07	22272
846.206	22295
846.342	22310
846.478	22299
846.614	22120
846.75	21911
846.886	21983
847.022	22074
847.158	22013
847.294	21991
847.429	22082
847.565	22070
847.701	22173
847.837	21789
847.972	21667
848.108	21812
848.244	21876
848.379	21724
848.515	21618
848.65	21625
848.786	21682
848.921	21690
849.057	21770
849.192	21705
849.328	21656
849.463	21644
849.598	21545
849.734	21488
849.869	21477
850.004	21420
850.14	21420
850.275	21500
850.41	21294
850.545	21313
850.68	21378
850.815	21272
850.95	21233
851.085	21576
851.22	21450
851.355	21382
851.49	21348
851.625	21386
851.76	21374
851.895	21226
852.03	21344
852.165	21325
852.299	21367
852.434	21511
852.569	21454
852.703	21378
852.838	21469
852.973	21473
853.107	21435
853.242	21382
853.376	21279
853.511	21020
853.645	21207
853.78	21336
853.914	21188
854.048	21218
854.183	21131
854.317	21252
854.451	21302
854.585	21169
854.72	21154
854.854	21245
854.988	21123
855.122	21173
855.256	21112
855.39	21100
855.524	21180
855.658	21207
855.792	21150
855.926	21195
856.06	21188
856.194	21264
856.327	21112
856.461	21104
856.595	21252
856.729	21131
856.862	21245
856.996	21203
857.13	21317
857.263	21321
857.397	21222
857.53	21241
857.664	21230
857.797	21298
857.931	21287
858.064	21252
858.197	21355
858.331	21203
858.464	21135
858.597	21017
858.731	21154
858.864	21184
858.997	21188
859.13	21142
859.263	21214
859.396	21310
859.529	21283
859.662	21165
859.795	21127
859.928	21154
860.061	21351
860.194	21469
860.327	21241
860.46	21241
860.592	21386
860.725	21355
860.858	21321
860.99	21279
861.123	21074
861.256	21093
861.388	21237
861.521	21842
861.653	21089
861.786	20960
861.918	21055
862.05	21127
862.183	21112
862.315	21104
862.447	21176
862.58	21066
862.712	20914
862.844	20845
862.976	21028
863.108	20963
863.24	21211
863.372	20842
863.504	20876
863.636	20982
863.768	20944
863.9	20834
864.032	20765
864.164	20811
864.296	20990
864.428	20963
864.559	20994
864.691	20994
864.823	20990
864.954	20925
865.086	20880
865.217	20800
865.349	20708
865.48	20826
865.612	20800
865.743	20906
865.875	20765
866.006	20857
866.137	20754
866.269	20781
866.4	20739
866.531	20830
866.662	20750
866.793	20800
866.924	20731
867.055	20689
867.186	20686
867.317	20648
867.448	20560
867.579	20724
867.71	20720
867.841	20636
867.972	20667
868.103	20712
868.233	20663
868.364	20739
868.495	20800
868.625	20971
868.756	20952
868.886	20941
869.017	20975
869.147	21043
869.278	21047
869.408	20948
869.539	21001
869.669	21077
869.799	20895
869.929	21096
870.06	21077
870.19	21233
870.32	21260
870.45	21386
870.58	21454
870.71	21523
870.84	21469
870.97	21359
871.1	21332
871.23	21530
871.36	21576
871.489	21401
871.619	21492
871.749	21629
871.879	21633
872.008	21686
872.138	21504
872.267	21595
872.397	21443
872.526	21363
872.656	21466
872.785	21275
872.915	21603
873.044	21663
873.173	21637
873.303	21633
873.432	21564
873.561	21622
873.69	21629
873.819	21530
873.948	21728
874.077	21614
874.206	21549
874.335	21633
874.464	21671
874.593	21797
874.722	21770
874.851	21785
874.979	21911
875.108	21854
875.237	21747
875.365	21739
875.494	21774
875.623	21743
875.751	21747
875.88	21823
876.008	22010
876.136	21994
876.265	22200
876.393	22268
876.521	22272
876.65	22261
876.778	22124
876.906	22131
877.034	22246
877.162	22177
877.29	22059
877.418	22154
877.546	22230
877.674	22124
877.802	22135
877.93	22181
878.058	22192
878.185	22059
878.313	21998
878.441	22295
878.568	21903
878.696	22082
878.824	22124
878.951	22318
879.079	22272
879.206	22432
879.333	22253
879.461	22124
879.588	22352
879.715	22265
879.842	22352
879.97	22299
880.097	22006
880.224	22040
880.351	21922
880.478	21987
880.605	21888
880.732	22002
880.859	22192
880.986	21861
881.112	22059
881.239	21911
881.366	21759
881.493	21572
881.619	21641
881.746	21572
881.872	21671
881.999	21545
882.125	21412
882.252	21599
882.378	21435
882.505	21705
882.631	21344
882.757	21245
882.883	21287
883.01	21237
883.136	21310
883.262	21093
883.388	21108
883.514	21287
883.64	21340
883.766	21207
883.892	21032
884.018	21089
884.143	21207
884.269	21245
884.395	20868
884.52	20872
884.646	20887
884.772	20880
884.897	20868
885.023	20921
885.148	20933
885.274	20952
885.399	21013
885.524	20811
885.65	20948
885.775	20967
885.9	20906
886.025	20982
886.15	20971
886.275	20838
886.4	20731
886.525	20891
886.65	20781
886.775	20781
886.9	21028
887.025	21108
887.149	20918
887.274	20731
887.399	20743
887.523	20731
887.648	20674
887.773	20686
887.897	20762
888.021	20800
888.146	20705
888.27	20758
888.395	20754
888.519	20819
888.643	20621
888.767	20651
888.891	20689
889.015	20465
889.139	20590
889.263	20396
889.387	20716
889.511	20629
889.635	20617
889.759	20465
889.883	20537
890.006	20393
890.13	20598
890.254	20404
890.377	20377
890.501	20237
890.624	20214
890.748	20176
890.871	20088
890.995	19982
891.118	20001
891.241	20073
891.364	20050
891.488	20172
891.611	20024
891.734	19986
891.857	20115
891.98	19986
892.103	20077
892.226	19982
892.349	19982
892.471	19902
892.594	20039
892.717	19989
892.839	20027
892.962	20050
893.085	19974
893.207	19989
893.33	19913
893.452	19951
893.575	19963
893.697	19951
893.819	20134
893.941	20115
894.064	20031
894.186	19879
894.308	19765
894.43	20001
894.552	20081
894.674	20077
894.796	19879
894.918	19947
895.04	19909
895.161	20054
895.283	20039
895.405	19902
895.526	19986
895.648	19898
895.769	19883
895.891	19864
896.012	20092
896.134	19841
896.255	20020
896.376	19898
896.498	20054
896.619	20035
896.74	19898
896.861	20054
896.982	20229
897.103	20450
897.224	20145
897.345	20259
897.466	20225
897.587	20161
897.708	20244
897.828	20256
897.949	20126
898.07	20077
898.19	20103
898.311	20263
898.431	20050
898.552	20119
898.672	20275
898.792	20320
898.913	20252
899.033	20027
899.153	19967
899.273	20016
899.393	19841
899.513	19963
899.633	19894
899.753	19811
899.873	19864
899.993	20043
900.113	19875
900.232	19890
900.352	19795
900.472	19772
900.591	19674
900.711	19723
900.83	19666
900.95	19734
901.069	19833
901.189	19597
901.308	19358
901.427	19343
901.546	19365
901.665	19343
901.784	19282
901.904	19141
902.023	19091
902.141	18833
902.26	18837
902.379	18901
902.498	18772
902.617	18700
902.735	18795
902.854	18692
902.973	18658
903.091	18494
903.21	18513
903.328	18353
903.446	18330
903.565	18315
903.683	18376
903.801	18102
903.919	18258
904.038	18330
904.156	18060
904.274	18144
904.392	18053
904.51	18072
904.627	18049
904.745	18072
904.863	18117
904.981	17942
905.098	17733
905.216	17596
905.334	17767
905.451	17802
905.569	17703
905.686	17752
905.803	17764
905.921	17490
906.038	17649
906.155	17623
906.272	17391
906.389	17421
906.506	17368
906.623	17334
906.74	17212
906.857	17166
906.974	17117
907.091	17261
907.208	17417
907.324	17235
907.441	17220
907.557	17006
907.674	16991
907.79	16911
907.907	17018
908.023	16908
908.139	17025
908.256	16908
908.372	16885
908.488	16858
908.604	16679
908.72	16736
908.836	16733
908.952	16653
909.068	16729
909.184	16759
909.3	16603
909.415	16736
909.531	16698
909.647	16466
909.762	16375
909.878	16409
909.993	16508
910.108	16413
910.224	16386
910.339	16341
910.454	16215
910.57	16287
910.685	16185
910.8	16363
910.915	16333
911.03	16147
911.145	16013
911.259	16002
911.374	15994
911.489	16006
911.604	15876
911.718	15739
911.833	15766
911.947	15724
912.062	15561
912.176	15759
912.291	15759
912.405	15759
912.519	15930
912.633	15960
912.748	15823
912.862	15660
912.976	15545
913.09	15500
913.204	15492
913.318	15504
913.431	15622
913.545	15671
913.659	15656
913.772	15595
913.886	15443
914	15393
914.113	15428
914.226	15519
914.34	15500
914.453	15249
914.566	15412
914.68	15359
914.793	15245
914.906	15009
915.019	14925
915.132	14941
915.245	15001
915.358	14937
915.47	14895
915.583	14921
915.696	15017
915.809	15070
915.921	15169
916.034	14925
916.146	14914
916.259	14921
916.371	14902
916.483	14967
916.595	14887
916.708	14830
916.82	14823
916.932	14849
917.044	14697
917.156	14708
917.268	14636
917.38	14602
917.491	14594
917.603	14689
917.715	14686
917.826	14659
917.938	14564
918.049	14530
918.161	14659
918.272	14636
918.384	14689
918.495	14659
918.606	14400
918.717	14290
918.828	14423
918.939	14450
919.05	14263
919.161	14408
919.272	14202
919.383	14305
919.494	14484
919.604	14632
919.715	14389
919.826	14309
919.936	14286
920.047	14427
920.157	14396
920.267	14545
920.378	14423
920.488	14324
920.598	14488
920.708	14670
920.818	14579
920.928	14473
921.038	14648
921.148	14606
921.258	14294
921.368	14168
921.477	14164
921.587	14130
921.697	13932
921.806	14157
921.916	13970
922.025	13765
922.134	13772
922.244	13795
922.353	13833
922.462	13651
922.571	13616
922.68	13438
922.789	13396
922.898	13445
923.007	13335
923.116	13411
923.224	13434
923.333	13438
923.442	13308
923.55	13206
923.659	13187
923.767	13331
923.876	13145
923.984	13335
924.092	13095
924.201	13225
924.309	13187
924.417	13171
924.525	12958
924.633	13023
924.741	13967
924.849	12875
924.956	13057
925.064	12886
925.172	12848
925.279	12810
925.387	12894
925.494	12783
925.602	12958
925.709	12840
925.816	12776
925.924	12772
926.031	12894
926.138	12779
926.245	12760
926.352	12692
926.459	12798
926.566	12905
926.673	12692
926.779	12547
926.886	12502
926.993	12448
927.099	12399
927.206	12342
927.312	12391
927.419	12395
927.525	12380
927.631	12467
927.737	12311
927.843	12262
927.95	12136
928.056	12243
928.162	12213
928.267	12235
928.373	12787
928.479	12273
928.585	12072
928.69	12182
928.796	12216
928.901	12152
929.007	11927
929.112	12140
929.218	12030
929.323	11969
929.428	11935
929.533	12087
929.638	11961
929.743	11882
929.848	11969
929.953	11893
930.058	11821
930.163	11589
930.267	11638
930.372	11775
930.477	11668
930.581	11775
930.685	11695
930.79	11524
930.894	11608
930.998	11528
931.103	11653
931.207	11299
931.311	11132
931.415	11090
931.519	10923
931.623	10896
