Data from test_V78500241_3359.txt Node
Date: Fri Mar 25 15:33:15 CST 2022
User: usil
Spectrometer: V785-0024
Trigger mode: 0
Integration Time (sec): 4.000000E-1
Scans to average: 1
Nonlinearity correction enabled: false
Boxcar width: 0
Storing dark spectrum: false
XAxis mode: Wavelengths
Number of Pixels in Spectrum: 1024
>>>>>Begin Spectral Data<<<<<
801.071	27017
801.214	27100
801.356	26864
801.499	26777
801.641	26629
801.783	26678
801.926	26613
802.068	26731
802.211	26499
802.353	26644
802.496	26240
802.638	26377
802.78	26225
802.923	26183
803.065	26142
803.208	26202
803.35	26180
803.492	26377
803.635	26351
803.777	26347
803.919	26427
804.061	26724
804.204	26465
804.346	26522
804.488	26377
804.63	26400
804.773	26324
804.915	26537
805.057	26541
805.199	26412
805.341	26396
805.483	26560
805.626	26537
805.768	26404
805.91	26560
806.052	26629
806.194	26473
806.336	26682
806.478	26503
806.62	26450
806.762	26587
806.904	26804
807.046	26861
807.188	26891
807.33	26937
807.472	27032
807.614	26815
807.756	26883
807.898	26933
808.04	26731
808.182	26686
808.324	26940
808.465	26929
808.607	27001
808.749	27096
808.891	27165
809.033	27306
809.174	27272
809.316	27058
809.458	27066
809.6	27062
809.741	27340
809.883	27192
810.025	27454
810.166	27416
810.308	27344
810.45	27310
810.591	27294
810.733	27176
810.875	27237
811.016	26849
811.158	27017
811.299	27195
811.441	27317
811.582	27165
811.724	27135
811.865	27142
812.007	27062
812.148	27146
812.29	27138
812.431	27283
812.573	27378
812.714	27462
812.855	27477
812.997	27561
813.138	27770
813.279	27717
813.421	27675
813.562	27549
813.703	27447
813.845	27389
813.986	27112
814.127	26918
814.268	26693
814.41	26895
814.551	26651
814.692	26804
814.833	26708
814.974	26743
815.115	26746
815.256	26587
815.397	26461
815.539	26629
815.68	26507
815.821	26541
815.962	26476
816.103	26533
816.244	26473
816.385	26210
816.526	26225
816.666	26054
816.807	25887
816.948	25932
817.089	26248
817.23	26016
817.371	25955
817.512	25913
817.653	25989
817.793	25928
817.934	25940
818.075	25997
818.216	26058
818.356	25974
818.497	25928
818.638	25826
818.778	25613
818.919	25757
819.06	25879
819.2	25932
819.341	25921
819.481	26027
819.622	26138
819.762	26339
819.903	26202
820.043	26119
820.184	26225
820.324	26142
820.465	26069
820.605	26084
820.746	26195
820.886	25917
821.026	26043
821.167	26046
821.307	26119
821.447	26039
821.588	25795
821.728	25731
821.868	25700
822.008	25578
822.149	25556
822.289	25460
822.429	25118
822.569	25179
822.709	25206
822.849	25019
822.99	24913
823.13	24951
823.27	24848
823.41	24753
823.55	24677
823.69	24932
823.83	24935
823.97	24730
824.11	24688
824.25	24639
824.389	24505
824.529	24635
824.669	24528
824.809	24738
824.949	24677
825.089	24821
825.228	24566
825.368	24342
825.508	24464
825.648	24528
825.787	24426
825.927	24475
826.067	24513
826.206	24422
826.346	24483
826.485	24525
826.625	24483
826.765	24639
826.904	24566
827.044	24266
827.183	24315
827.323	24216
827.462	24254
827.601	24102
827.741	24152
827.88	24262
828.02	23954
828.159	24136
828.298	24251
828.437	24213
828.577	24152
828.716	24273
828.855	24083
828.994	23897
829.134	23904
829.273	24003
829.412	23783
829.551	23889
829.69	23908
829.829	23931
829.968	23988
830.107	23977
830.246	23942
830.385	23878
830.524	23767
830.663	23634
830.802	23577
830.941	23448
831.08	23486
831.219	23596
831.357	23657
831.496	23752
831.635	23512
831.774	23512
831.913	23315
832.051	23341
832.19	23353
832.329	23307
832.467	23174
832.606	23181
832.744	23181
832.883	23128
833.022	23151
833.16	23143
833.299	23296
833.437	23151
833.576	23162
833.714	23159
833.852	23220
833.991	23433
834.129	23258
834.267	23330
834.406	23136
834.544	23299
834.682	23273
834.821	23208
834.959	23345
835.097	23189
835.235	23269
835.373	23296
835.511	23223
835.65	23102
835.788	23216
835.926	23102
836.064	22911
836.202	22904
836.34	23102
836.478	23136
836.615	23128
836.753	23181
836.891	23162
837.029	23083
837.167	22965
837.305	23067
837.443	23094
837.58	22999
837.718	22942
837.856	23022
837.993	22866
838.131	22938
838.269	22790
838.406	22824
838.544	22858
838.681	22698
838.819	22691
838.956	22497
839.094	22409
839.231	22428
839.369	22615
839.506	22824
839.643	22748
839.781	22409
839.918	22398
840.055	22417
840.193	22394
840.33	22409
840.467	22405
840.604	22398
840.742	22691
840.879	22348
841.016	22436
841.153	22284
841.29	22424
841.427	22432
841.564	22409
841.701	22493
841.838	22379
841.975	22261
842.112	22276
842.249	22215
842.385	22109
842.522	22436
842.659	22044
842.796	22154
842.933	22097
843.069	22093
843.206	22112
843.343	22154
843.479	22177
843.616	22147
843.752	21937
843.889	21873
844.025	22109
844.162	21895
844.298	22059
844.435	21953
844.571	22006
844.708	21964
844.844	22173
844.98	22181
845.117	21968
845.253	21816
845.389	21778
845.525	21873
845.661	21793
845.798	21762
845.934	21713
846.07	21561
846.206	21682
846.342	21766
846.478	21728
846.614	21405
846.75	21310
846.886	21313
847.022	21469
847.158	21424
847.294	21294
847.429	21420
847.565	21405
847.701	21633
847.837	21142
847.972	21104
848.108	21199
848.244	21226
848.379	21123
848.515	21009
848.65	20963
848.786	21093
848.921	20914
849.057	21058
849.192	21123
849.328	20883
849.463	20910
849.598	20929
849.734	20918
849.869	20838
850.004	20792
850.14	20872
850.275	20758
850.41	20746
850.545	20773
850.68	20697
850.815	20796
850.95	20754
851.085	20990
851.22	20941
851.355	20819
851.49	20686
851.625	20762
851.76	20724
851.895	20739
852.03	20659
852.165	20902
852.299	20777
852.434	20838
852.569	20750
852.703	20785
852.838	20769
852.973	20921
853.107	20853
853.242	20556
853.376	20655
853.511	20514
853.645	20621
853.78	20651
853.914	20674
854.048	20549
854.183	20606
854.317	20594
854.451	20807
854.585	20442
854.72	20598
854.854	20689
854.988	20556
855.122	20526
855.256	20579
855.39	20579
855.524	20693
855.658	20629
855.792	20606
855.926	20682
856.06	20651
856.194	20625
856.327	20533
856.461	20480
856.595	20613
856.729	20629
856.862	20613
856.996	20579
857.13	20644
857.263	20598
857.397	20716
857.53	20457
857.664	20678
857.797	20697
857.931	20796
858.064	20678
858.197	20758
858.331	20632
858.464	20583
858.597	20465
858.731	20560
858.864	20526
858.997	20560
859.13	20549
859.263	20644
859.396	20629
859.529	20530
859.662	20655
859.795	20526
859.928	20648
860.061	20735
860.194	20834
860.327	20678
860.46	20560
860.592	20754
860.725	20682
860.858	20712
860.99	20632
861.123	20495
861.256	20476
861.388	20613
861.521	21169
861.653	20442
861.786	20294
861.918	20431
862.05	20507
862.183	20583
862.315	20495
862.447	20640
862.58	20484
862.712	20419
862.844	20362
862.976	20385
863.108	20351
863.24	20773
863.372	20423
863.504	20286
863.636	20381
863.768	20389
863.9	20404
864.032	20317
864.164	20237
864.296	20408
864.428	20396
864.559	20377
864.691	20427
864.823	20298
864.954	20301
865.086	20282
865.217	20214
865.349	20233
865.48	20187
865.612	20225
865.743	20347
865.875	20153
866.006	20199
866.137	20206
866.269	20343
866.4	20275
866.531	20130
866.662	20077
866.793	20187
866.924	20126
867.055	20320
867.186	20248
867.317	20187
867.448	20103
867.579	20180
867.71	20046
867.841	20065
867.972	20130
868.103	20218
868.233	20145
868.364	20240
868.495	20278
868.625	20408
868.756	20560
868.886	20282
869.017	20427
869.147	20476
869.278	20400
869.408	20461
869.539	20385
869.669	20533
869.799	20404
869.929	20514
870.06	20556
870.19	20663
870.32	20750
870.45	20731
870.58	20785
870.71	20910
870.84	20948
870.97	20785
871.1	20754
871.23	21062
871.36	20925
871.489	20918
871.619	21085
871.749	21024
871.879	21036
872.008	21154
872.138	21005
872.267	21020
872.397	20830
872.526	20807
872.656	20804
872.785	20861
872.915	21108
873.044	21131
873.173	21081
873.303	21055
873.432	21058
873.561	21180
873.69	20982
873.819	21062
873.948	21066
874.077	21017
874.206	20971
874.335	21066
874.464	21287
874.593	21199
874.722	21138
874.851	21233
874.979	21348
875.108	21374
875.237	21165
875.365	21093
875.494	21272
875.623	21344
875.751	21272
875.88	21367
876.008	21397
876.136	21450
876.265	21641
876.393	21785
876.521	21819
876.65	21728
876.778	21667
876.906	21739
877.034	21652
877.162	21614
877.29	21675
877.418	21686
877.546	21701
877.674	21557
877.802	21663
877.93	21614
878.058	21618
878.185	21485
878.313	21603
878.441	21549
878.568	21488
878.696	21625
878.824	21671
878.951	21709
879.079	21789
879.206	21960
879.333	21884
879.461	21633
879.588	21709
879.715	21797
879.842	21823
879.97	21698
880.097	21553
880.224	21466
880.351	21450
880.478	21538
880.605	21443
880.732	21450
880.859	21675
880.986	21405
881.112	21523
881.239	21317
881.366	21260
881.493	21203
881.619	20929
881.746	21005
881.872	20994
881.999	21108
882.125	21028
882.252	20979
882.378	21039
882.505	21180
882.631	20861
882.757	20857
882.883	20834
883.01	20762
883.136	20697
883.262	20617
883.388	20651
883.514	20804
883.64	20785
883.766	20689
883.892	20537
884.018	20617
884.143	20697
884.269	20804
884.395	20480
884.52	20381
884.646	20389
884.772	20263
884.897	20259
885.023	20400
885.148	20408
885.274	20450
885.399	20484
885.524	20309
885.65	20423
885.775	20362
885.9	20404
886.025	20442
886.15	20419
886.275	20366
886.4	20317
886.525	20332
886.65	20320
886.775	20210
886.9	20454
887.025	20632
887.149	20324
887.274	20153
887.399	20119
887.523	20130
887.648	20115
887.773	20073
887.897	20252
888.021	20164
888.146	20092
888.27	20195
888.395	20259
888.519	20195
888.643	20256
888.767	20199
888.891	19974
889.015	20088
889.139	19974
889.263	20035
889.387	19993
889.511	20005
889.635	20065
889.759	19997
889.883	20031
890.006	20050
890.13	20126
890.254	19932
890.377	19868
890.501	19875
890.624	19693
890.748	19734
890.871	19696
890.995	19609
891.118	19548
891.241	19559
891.364	19590
891.488	19643
891.611	19525
891.734	19457
891.857	19658
891.98	19578
892.103	19594
892.226	19620
892.349	19571
892.471	19369
892.594	19472
892.717	19499
892.839	19552
892.962	19502
893.085	19556
893.207	19468
893.33	19396
893.452	19400
893.575	19518
893.697	19430
893.819	19605
893.941	19700
894.064	19616
894.186	19362
894.308	19396
894.43	19582
894.552	19571
894.674	19575
894.796	19491
894.918	19453
895.04	19445
895.161	19620
895.283	19597
895.405	19422
895.526	19495
895.648	19449
895.769	19449
895.891	19476
896.012	19575
896.134	19514
896.255	19491
896.376	19518
896.498	19514
896.619	19483
896.74	19518
896.861	19578
896.982	19909
897.103	19898
897.224	19818
897.345	19750
897.466	19674
897.587	19757
897.708	19826
897.828	19772
897.949	19658
898.07	19556
898.19	19605
898.311	19845
898.431	19628
898.552	19700
898.672	19761
898.792	19784
898.913	19662
899.033	19696
899.153	19571
899.273	19407
899.393	19457
899.513	19472
899.633	19396
899.753	19491
899.873	19381
899.993	19502
900.113	19506
900.232	19457
900.352	19285
900.472	19285
900.591	19202
900.711	19259
900.83	19148
900.95	19301
901.069	19339
901.189	19137
901.308	18932
901.427	18829
901.546	18825
901.665	18897
901.784	18779
901.904	18787
902.023	18688
902.141	18338
902.26	18426
902.379	18509
902.498	18399
902.617	18433
902.735	18388
902.854	18311
902.973	18277
903.091	18125
903.21	18110
903.328	17984
903.446	17893
903.565	17927
903.683	17897
903.801	17703
903.919	17805
904.038	17798
904.156	17714
904.274	17707
904.392	17646
904.51	17532
904.627	17558
904.745	17695
904.863	17722
904.981	17482
905.098	17292
905.216	17277
905.334	17296
905.451	17307
905.569	17231
905.686	17349
905.803	17387
905.921	17079
906.038	17318
906.155	17166
906.272	17003
906.389	17136
906.506	16919
906.623	16923
906.74	16915
906.857	16759
906.974	16778
907.091	16805
907.208	17052
907.324	16896
907.441	16790
907.557	16599
907.674	16508
907.79	16413
907.907	16561
908.023	16523
908.139	16538
908.256	16485
908.372	16535
908.488	16440
908.604	16344
908.72	16272
908.836	16246
908.952	16238
909.068	16280
909.184	16352
909.3	16276
909.415	16379
909.531	16268
909.647	16074
909.762	16086
909.878	16025
909.993	16029
910.108	15979
910.224	15915
910.339	16071
910.454	15778
910.57	15869
910.685	15774
910.8	16036
910.915	15994
911.03	15907
911.145	15675
911.259	15526
911.374	15584
911.489	15553
911.604	15557
911.718	15454
911.833	15355
911.947	15241
912.062	15241
912.176	15416
912.291	15462
912.405	15386
912.519	15576
912.633	15584
912.748	15367
912.862	15306
912.976	15195
913.09	15070
913.204	15119
913.318	15146
913.431	15291
913.545	15363
913.659	15264
913.772	15157
913.886	15043
914	14921
914.113	15009
914.226	15085
914.34	15055
914.453	14788
914.566	15100
914.68	14921
914.793	14899
914.906	14659
915.019	14560
915.132	14530
915.245	14651
915.358	14568
915.47	14526
915.583	14530
915.696	14568
915.809	14750
915.921	14716
916.034	14621
916.146	14507
916.259	14522
916.371	14663
916.483	14495
916.595	14507
916.708	14476
916.82	14480
916.932	14450
917.044	14377
917.156	14457
917.268	14240
917.38	14263
917.491	14259
917.603	14290
917.715	14377
917.826	14393
917.938	14294
918.049	14214
918.161	14206
918.272	14377
918.384	14366
918.495	14187
918.606	14092
918.717	14035
918.828	14065
918.939	14092
919.05	14012
919.161	14107
919.272	13864
919.383	13967
919.494	14123
919.604	14275
919.715	14103
919.826	13959
919.936	13978
920.047	14001
920.157	13993
920.267	14157
920.378	14043
920.488	14016
920.598	14183
920.708	14271
920.818	14164
920.928	14092
921.038	14313
921.148	14358
921.258	14058
921.368	13932
921.477	13788
921.587	13822
921.697	13620
921.806	13811
921.916	13605
922.025	13491
922.134	13460
922.244	13350
922.353	13407
922.462	13289
922.571	13244
922.68	13046
922.789	13122
922.898	13114
923.007	12989
923.116	13072
923.224	13137
923.333	13023
923.442	12981
923.55	12920
923.659	12981
923.767	12897
923.876	12837
923.984	12981
924.092	12776
924.201	12867
924.309	12829
924.417	12852
924.525	12722
924.633	12669
924.741	13662
924.849	12521
924.956	12764
925.064	12635
925.172	12445
925.279	12532
925.387	12483
925.494	12585
925.602	12722
925.709	12570
925.816	12429
925.924	12536
926.031	12551
926.138	12486
926.245	12555
926.352	12334
926.459	12490
926.566	12525
926.673	12346
926.779	12319
926.886	12281
926.993	12144
927.099	12136
927.206	12038
927.312	12087
927.419	12148
927.525	12045
927.631	12114
927.737	12057
927.843	11958
927.95	11863
928.056	11950
928.162	11942
928.267	11958
928.373	12486
928.479	12064
928.585	11695
928.69	11912
928.796	11942
928.901	11828
929.007	11665
929.112	11809
929.218	11710
929.323	11729
929.428	11653
929.533	11733
929.638	11516
929.743	11634
929.848	11649
929.953	11684
930.058	11478
930.163	11303
930.267	11364
930.372	11429
930.477	11280
930.581	11547
930.685	11341
930.79	11220
930.894	11326
930.998	11261
931.103	11364
931.207	11037
931.311	10938
931.415	10908
931.519	10641
931.623	10641
