Data from test_V78500241_1989.txt Node
Date: Fri Mar 25 15:23:42 CST 2022
User: usil
Spectrometer: V785-0024
Trigger mode: 0
Integration Time (sec): 4.000000E-1
Scans to average: 1
Nonlinearity correction enabled: false
Boxcar width: 0
Storing dark spectrum: false
XAxis mode: Wavelengths
Number of Pixels in Spectrum: 1024
>>>>>Begin Spectral Data<<<<<
801.071	27937
801.214	27903
801.356	27724
801.499	27526
801.641	27291
801.783	27332
801.926	27424
802.068	27469
802.211	27310
802.353	27203
802.496	27176
802.638	27188
802.78	27161
802.923	27157
803.065	27005
803.208	26994
803.35	27074
803.492	27184
803.635	27332
803.777	27161
803.919	27275
804.061	27576
804.204	27123
804.346	27241
804.488	27226
804.63	27332
804.773	27226
804.915	27237
805.057	27325
805.199	27146
805.341	27340
805.483	27412
805.626	27363
805.768	27291
805.91	27302
806.052	27332
806.194	27348
806.336	27583
806.478	27306
806.62	27359
806.762	27698
806.904	27660
807.046	27869
807.188	27785
807.33	27751
807.472	27793
807.614	27804
807.756	27857
807.898	27603
808.04	27641
808.182	27576
808.324	27686
808.465	27709
808.607	27895
808.749	28051
808.891	28074
809.033	28261
809.174	28219
809.316	28048
809.458	27956
809.6	28059
809.741	28173
809.883	28219
810.025	28459
810.166	28337
810.308	28443
810.45	28253
810.591	28200
810.733	27960
810.875	27876
811.016	27991
811.158	27865
811.299	28074
811.441	28120
811.582	28002
811.724	28055
811.865	27998
812.007	27968
812.148	27956
812.29	27937
812.431	28234
812.573	28291
812.714	28523
812.855	28451
812.997	28653
813.138	28847
813.279	28596
813.421	28497
813.562	28569
813.703	28363
813.845	28169
813.986	28055
814.127	27819
814.268	27785
814.41	27656
814.551	27747
814.692	27884
814.833	27633
814.974	27603
815.115	27762
815.256	27557
815.397	27545
815.539	27595
815.68	27526
815.821	27370
815.962	27526
816.103	27553
816.244	27321
816.385	27256
816.526	27272
816.666	27066
816.807	26952
816.948	26994
817.089	27100
817.23	27062
817.371	26982
817.512	27032
817.653	27070
817.793	26929
817.934	26925
818.075	26956
818.216	26975
818.356	26975
818.497	26792
818.638	26712
818.778	26785
818.919	26682
819.06	26762
819.2	26883
819.341	26975
819.481	27020
819.622	27157
819.762	27393
819.903	27241
820.043	27154
820.184	27150
820.324	27077
820.465	27214
820.605	27146
820.746	27184
820.886	26960
821.026	27077
821.167	27127
821.307	27226
821.447	27100
821.588	26918
821.728	26705
821.868	26575
822.008	26602
822.149	26408
822.289	26476
822.429	26248
822.569	26191
822.709	26210
822.849	25917
822.99	26050
823.13	25902
823.27	25902
823.41	25856
823.55	25799
823.69	25947
823.83	25909
823.97	25753
824.11	25628
824.25	25590
824.389	25571
824.529	25822
824.669	25590
824.809	25693
824.949	25746
825.089	25719
825.228	25597
825.368	25426
825.508	25468
825.648	25552
825.787	25464
825.927	25525
826.067	25510
826.206	25578
826.346	25620
826.485	25597
826.625	25335
826.765	25613
826.904	25468
827.044	25403
827.183	25259
827.323	25308
827.462	25255
827.601	25316
827.741	25141
827.88	25179
828.02	25042
828.159	25270
828.298	25259
828.437	25354
828.577	25088
828.716	25343
828.855	25209
828.994	24859
829.134	24981
829.273	24966
829.412	24962
829.551	24928
829.69	25031
829.829	25008
829.968	25099
830.107	25023
830.246	24924
830.385	24916
830.524	24939
830.663	24814
830.802	24597
830.941	24585
831.08	24448
831.219	24570
831.357	24741
831.496	24817
831.635	24665
831.774	24479
831.913	24403
832.051	24319
832.19	24399
832.329	24338
832.467	24224
832.606	24220
832.744	24171
832.883	24346
833.022	24228
833.16	24174
833.299	24277
833.437	24186
833.576	24372
833.714	24213
833.852	24243
833.991	24334
834.129	24391
834.267	24357
834.406	24319
834.544	24262
834.682	24357
834.821	24353
834.959	24494
835.097	24353
835.235	24292
835.373	24319
835.511	24262
835.65	24060
835.788	24174
835.926	24018
836.064	23939
836.202	24053
836.34	24106
836.478	24243
836.615	24213
836.753	24098
836.891	24262
837.029	24201
837.167	24136
837.305	24114
837.443	23958
837.58	23916
837.718	24091
837.856	24011
837.993	23988
838.131	23908
838.269	23840
838.406	23855
838.544	23859
838.681	23752
838.819	23585
838.956	23474
839.094	23535
839.231	23570
839.369	23653
839.506	23908
839.643	23661
839.781	23467
839.918	23395
840.055	23471
840.193	23364
840.33	23360
840.467	23364
840.604	23406
840.742	23512
840.879	23307
841.016	23406
841.153	23235
841.29	23486
841.427	23269
841.564	23440
841.701	23292
841.838	23315
841.975	23311
842.112	23296
842.249	23284
842.385	23025
842.522	23364
842.659	23128
842.796	23220
842.933	23025
843.069	22999
843.206	23064
843.343	23318
843.479	23041
843.616	23044
843.752	23029
843.889	22927
844.025	23010
844.162	22850
844.298	22812
844.435	22854
844.571	22923
844.708	23041
844.844	23003
844.98	23010
845.117	22904
845.253	22999
845.389	22656
845.525	22774
845.661	22820
845.798	22424
845.934	22675
846.07	22645
846.206	22733
846.342	22778
846.478	22611
846.614	22481
846.75	22341
846.886	22428
847.022	22398
847.158	22478
847.294	22379
847.429	22485
847.565	22299
847.701	22569
847.837	22090
847.972	22143
848.108	22192
848.244	22124
848.379	21968
848.515	22025
848.65	21941
848.786	21991
848.921	21907
849.057	22017
849.192	21960
849.328	21926
849.463	21899
849.598	21888
849.734	21895
849.869	21861
850.004	21747
850.14	21835
850.275	21854
850.41	21751
850.545	21686
850.68	21603
850.815	21755
850.95	21648
851.085	21983
851.22	21778
851.355	21778
851.49	21705
851.625	21739
851.76	21724
851.895	21667
852.03	21583
852.165	21641
852.299	21762
852.434	21751
852.569	21701
852.703	21747
852.838	21732
852.973	21823
853.107	21724
853.242	21663
853.376	21530
853.511	21450
853.645	21492
853.78	21675
853.914	21606
854.048	21420
854.183	21542
854.317	21530
854.451	21827
854.585	21549
854.72	21496
854.854	21603
854.988	21389
855.122	21469
855.256	21367
855.39	21439
855.524	21614
855.658	21530
855.792	21496
855.926	21591
856.06	21572
856.194	21530
856.327	21458
856.461	21431
856.595	21454
856.729	21538
856.862	21622
856.996	21523
857.13	21583
857.263	21587
857.397	21667
857.53	21637
857.664	21504
857.797	21637
857.931	21656
858.064	21496
858.197	21633
858.331	21534
858.464	21542
858.597	21511
858.731	21420
858.864	21416
858.997	21583
859.13	21580
859.263	21511
859.396	21652
859.529	21447
859.662	21504
859.795	21439
859.928	21481
860.061	21720
860.194	21625
860.327	21542
860.46	21496
860.592	21720
860.725	21606
860.858	21637
860.99	21603
861.123	21336
861.256	21473
861.388	21545
861.521	22120
861.653	21389
861.786	21397
861.918	21340
862.05	21313
862.183	21450
862.315	21488
862.447	21549
862.58	21504
862.712	21359
862.844	21226
862.976	21344
863.108	21226
863.24	21580
863.372	21005
863.504	21275
863.636	21161
863.768	21264
863.9	21268
864.032	21127
864.164	21138
864.296	21188
864.428	21336
864.559	21363
864.691	21173
864.823	21184
864.954	21131
865.086	21142
865.217	21165
865.349	21070
865.48	21112
865.612	21131
865.743	21188
865.875	21020
866.006	21039
866.137	21066
866.269	21085
866.4	21142
866.531	21157
866.662	21024
866.793	21146
866.924	21135
867.055	21089
867.186	20948
867.317	21013
867.448	20883
867.579	21062
867.71	21020
867.841	21009
867.972	21096
868.103	20998
868.233	21085
868.364	21051
868.495	21195
868.625	21283
868.756	21340
868.886	21123
869.017	21306
869.147	21351
869.278	21439
869.408	21279
869.539	21245
869.669	21477
869.799	21313
869.929	21317
870.06	21420
870.19	21629
870.32	21576
870.45	21633
870.58	21682
870.71	21720
870.84	21785
870.97	21663
871.1	21827
871.23	21857
871.36	21854
871.489	21709
871.619	21903
871.749	21956
871.879	22025
872.008	21968
872.138	21979
872.267	21812
872.397	21918
872.526	21808
872.656	21713
872.785	21800
872.915	22021
873.044	22029
873.173	22082
873.303	21964
873.432	21945
873.561	21991
873.69	21922
873.819	21968
873.948	21998
874.077	21941
874.206	21953
874.335	21880
874.464	21964
874.593	22169
874.722	22063
874.851	22265
874.979	22162
875.108	22360
875.237	22124
875.365	22093
875.494	21987
875.623	22299
875.751	22055
875.88	22101
876.008	22287
876.136	22303
876.265	22409
876.393	22649
876.521	22489
876.65	22645
876.778	22584
876.906	22577
877.034	22596
877.162	22565
877.29	22436
877.418	22379
877.546	22485
877.674	22402
877.802	22440
877.93	22474
878.058	22417
878.185	22352
878.313	22413
878.441	22443
878.568	22405
878.696	22367
878.824	22588
878.951	22599
879.079	22634
879.206	22759
879.333	22725
879.461	22508
879.588	22538
879.715	22664
879.842	22820
879.97	22531
880.097	22272
880.224	22352
880.351	22234
880.478	22440
880.605	22356
880.732	22246
880.859	22577
880.986	22299
881.112	22333
881.239	22257
881.366	21964
881.493	22032
881.619	21945
881.746	21953
881.872	21819
881.999	21869
882.125	21911
882.252	21892
882.378	21778
882.505	21903
882.631	21595
882.757	21610
882.883	21625
883.01	21583
883.136	21568
883.262	21507
883.388	21439
883.514	21572
883.64	21561
883.766	21507
883.892	21401
884.018	21435
884.143	21485
884.269	21568
884.395	21306
884.52	21138
884.646	21233
884.772	21161
884.897	21116
885.023	21237
885.148	21245
885.274	21313
885.399	21256
885.524	21180
885.65	21241
885.775	21199
885.9	21283
886.025	21226
886.15	21230
886.275	21165
886.4	21089
886.525	21142
886.65	21074
886.775	21036
886.9	21313
887.025	21420
887.149	21138
887.274	21039
887.399	21013
887.523	20971
887.648	20986
887.773	20948
887.897	21013
888.021	21028
888.146	20823
888.27	21089
888.395	21138
888.519	21013
888.643	21043
888.767	20929
888.891	20887
889.015	20902
889.139	20804
889.263	20663
889.387	20883
889.511	21055
889.635	20864
889.759	20781
889.883	20811
890.006	20667
890.13	20876
890.254	20739
890.377	20785
890.501	20465
890.624	20457
890.748	20549
890.871	20317
890.995	20374
891.118	20355
891.241	20393
891.364	20290
891.488	20431
891.611	20248
891.734	20339
891.857	20404
891.98	20389
892.103	20332
892.226	20400
892.349	20244
892.471	20111
892.594	20305
892.717	20309
892.839	20218
892.962	20199
893.085	20229
893.207	20237
893.33	20050
893.452	20088
893.575	20202
893.697	20286
893.819	20347
893.941	20385
894.064	20374
894.186	20111
894.308	20164
894.43	20298
894.552	20396
894.674	20309
894.796	20126
894.918	20252
895.04	20157
895.161	20358
895.283	20225
895.405	20176
895.526	20252
895.648	20252
895.769	20370
895.891	20206
896.012	20366
896.134	20187
896.255	20161
896.376	20256
896.498	20370
896.619	20404
896.74	20073
896.861	20237
896.982	20549
897.103	20629
897.224	20514
897.345	20492
897.466	20427
897.587	20427
897.708	20533
897.828	20427
897.949	20351
898.07	20328
898.19	20343
898.311	20495
898.431	20275
898.552	20438
898.672	20556
898.792	20503
898.913	20374
899.033	20324
899.153	20313
899.273	20077
899.393	20149
899.513	20221
899.633	20157
899.753	20176
899.873	20172
899.993	20263
900.113	20119
900.232	20142
900.352	20027
900.472	19906
900.591	20001
900.711	20012
900.83	20001
900.95	19997
901.069	20081
901.189	19921
901.308	19685
901.427	19518
901.546	19487
901.665	19472
901.784	19525
901.904	19460
902.023	19354
902.141	19050
902.26	19126
902.379	19160
902.498	19034
902.617	18973
902.735	19141
902.854	18966
902.973	18989
903.091	18715
903.21	18734
903.328	18684
903.446	18639
903.565	18513
903.683	18551
903.801	18448
903.919	18418
904.038	18403
904.156	18319
904.274	18300
904.392	18327
904.51	18251
904.627	18262
904.745	18327
904.863	18308
904.981	18030
905.098	17923
905.216	18015
905.334	17977
905.451	18026
905.569	17904
905.686	17992
905.803	17965
905.921	17767
906.038	17847
906.155	17775
906.272	17680
906.389	17760
906.506	17395
906.623	17566
906.74	17501
906.857	17436
906.974	17516
907.091	17577
907.208	17543
907.324	17589
907.441	17349
907.557	17231
907.674	17258
907.79	17140
907.907	17102
908.023	17265
908.139	17280
908.256	17128
908.372	17143
908.488	17109
908.604	17064
908.72	16873
908.836	16999
908.952	16862
909.068	17109
909.184	17014
909.3	16919
909.415	16999
909.531	16839
909.647	16679
909.762	16645
909.878	16580
909.993	16622
910.108	16694
910.224	16698
910.339	16569
910.454	16447
910.57	16363
910.685	16394
910.8	16573
910.915	16512
911.03	16390
911.145	16344
911.259	16211
911.374	16173
911.489	16177
911.604	16040
911.718	16044
911.833	16017
911.947	15884
912.062	15724
912.176	15964
912.291	15956
912.405	15888
912.519	16242
912.633	16131
912.748	16021
912.862	15895
912.976	15850
913.09	15789
913.204	15739
913.318	15831
913.431	15888
913.545	15819
913.659	15911
913.772	15766
913.886	15591
914	15523
914.113	15675
914.226	15675
914.34	15603
914.453	15488
914.566	15652
914.68	15454
914.793	15500
914.906	15420
915.019	15252
915.132	15150
915.245	15173
915.358	15230
915.47	15112
915.583	15199
915.696	15146
915.809	15230
915.921	15313
916.034	15116
916.146	15112
916.259	15116
916.371	15173
916.483	15085
916.595	15036
916.708	15135
916.82	15001
916.932	15024
917.044	15017
917.156	14925
917.268	14883
917.38	14853
917.491	14845
917.603	14750
917.715	14899
917.826	14933
917.938	14823
918.049	14678
918.161	14834
918.272	14853
918.384	14864
918.495	14781
918.606	14651
918.717	14571
918.828	14568
918.939	14590
919.05	14522
919.161	14587
919.272	14412
919.383	14454
919.494	14689
919.604	14762
919.715	14644
919.826	14552
919.936	14503
920.047	14644
920.157	14579
920.267	14670
920.378	14606
920.488	14541
920.598	14667
920.708	14899
920.818	14724
920.928	14765
921.038	14785
921.148	14868
921.258	14533
921.368	14415
921.477	14275
921.587	14278
921.697	14176
921.806	14347
921.916	14111
922.025	14012
922.134	13932
922.244	13875
922.353	13898
922.462	13734
922.571	13795
922.68	13643
922.789	13651
922.898	13681
923.007	13521
923.116	13548
923.224	13491
923.333	13499
923.442	13422
923.55	13426
923.659	13495
923.767	13441
923.876	13396
923.984	13430
924.092	13270
924.201	13327
924.309	13297
924.417	13384
924.525	13221
924.633	13217
924.741	13967
924.849	13053
924.956	13149
925.064	13027
925.172	12989
925.279	12913
925.387	13015
925.494	13019
925.602	13042
925.709	13053
925.816	12916
925.924	12916
926.031	12958
926.138	12970
926.245	12890
926.352	12882
926.459	12981
926.566	12977
926.673	12916
926.779	12745
926.886	12825
926.993	12536
927.099	12483
927.206	12494
927.312	12509
927.419	12620
927.525	12593
927.631	12502
927.737	12361
927.843	12426
927.95	12254
928.056	12418
928.162	12346
928.267	12369
928.373	12993
928.479	12319
928.585	12213
928.69	12346
928.796	12289
928.901	12220
929.007	12068
929.112	12220
929.218	12273
929.323	12136
929.428	12076
929.533	12254
929.638	11973
929.743	12087
929.848	12114
929.953	12019
930.058	11908
930.163	11866
930.267	11847
930.372	11988
930.477	11775
930.581	11980
930.685	11786
930.79	11585
930.894	11756
930.998	11608
931.103	11824
931.207	11406
931.311	11391
931.415	11269
931.519	11056
931.623	11014
