Data from test_V78500241_2567.txt Node
Date: Fri Mar 25 15:27:44 CST 2022
User: usil
Spectrometer: V785-0024
Trigger mode: 0
Integration Time (sec): 4.000000E-1
Scans to average: 1
Nonlinearity correction enabled: false
Boxcar width: 0
Storing dark spectrum: false
XAxis mode: Wavelengths
Number of Pixels in Spectrum: 1024
>>>>>Begin Spectral Data<<<<<
801.071	27332
801.214	27294
801.356	27108
801.499	26842
801.641	26815
801.783	26921
801.926	26826
802.068	26819
802.211	26811
802.353	26705
802.496	26503
802.638	26598
802.78	26552
802.923	26434
803.065	26457
803.208	26476
803.35	26381
803.492	26788
803.635	26678
803.777	26469
803.919	26587
804.061	26975
804.204	26849
804.346	26556
804.488	26495
804.63	26655
804.773	26621
804.915	26636
805.057	26777
805.199	26629
805.341	26682
805.483	26933
805.626	26883
805.768	26701
805.91	26743
806.052	26735
806.194	26682
806.336	26895
806.478	26762
806.62	26754
806.762	26773
806.904	26979
807.046	27306
807.188	27233
807.33	27138
807.472	27043
807.614	27310
807.756	27024
807.898	26998
808.04	26952
808.182	26819
808.324	26986
808.465	27081
808.607	27188
808.749	27332
808.891	27435
809.033	27454
809.174	27393
809.316	27237
809.458	27424
809.6	27310
809.741	27549
809.883	27424
810.025	27648
810.166	27675
810.308	27500
810.45	27564
810.591	27454
810.733	27367
810.875	27336
811.016	27226
811.158	27302
811.299	27583
811.441	27507
811.582	27477
811.724	27359
811.865	27431
812.007	27237
812.148	27344
812.29	27214
812.431	27416
812.573	27644
812.714	27682
812.855	27911
812.997	27880
813.138	27987
813.279	27975
813.421	27732
813.562	27842
813.703	27568
813.845	27610
813.986	27150
814.127	27119
814.268	27112
814.41	26940
814.551	27127
814.692	26979
814.833	26948
814.974	26979
815.115	27017
815.256	26849
815.397	26906
815.539	26899
815.68	26762
815.821	26769
815.962	26815
816.103	26777
816.244	26609
816.385	26568
816.526	26564
816.666	26438
816.807	26256
816.948	26412
817.089	26495
817.23	26191
817.371	26069
817.512	26267
817.653	26301
817.793	26237
817.934	26343
818.075	26271
818.216	26332
818.356	26134
818.497	26164
818.638	25978
818.778	26043
818.919	26062
819.06	26134
819.2	26142
819.341	26343
819.481	26294
819.622	26469
819.762	26507
819.903	26598
820.043	26461
820.184	26332
820.324	26362
820.465	26396
820.605	26427
820.746	26336
820.886	26191
821.026	26457
821.167	26294
821.307	26374
821.447	26278
821.588	26221
821.728	26035
821.868	25902
822.008	25833
822.149	25807
822.289	25761
822.429	25559
822.569	25483
822.709	25426
822.849	25339
822.99	25187
823.13	25187
823.27	25316
823.41	25183
823.55	25015
823.69	25099
823.83	25088
823.97	25015
824.11	24882
824.25	24882
824.389	24863
824.529	25038
824.669	24977
824.809	24977
824.949	24894
825.089	25019
825.228	24848
825.368	24719
825.508	24677
825.648	24726
825.787	24833
825.927	24833
826.067	24810
826.206	24650
826.346	24935
826.485	24726
826.625	24954
826.765	24814
826.904	24753
827.044	24646
827.183	24540
827.323	24422
827.462	24582
827.601	24563
827.741	24486
827.88	24460
828.02	24544
828.159	24361
828.298	24426
828.437	24532
828.577	24388
828.716	24525
828.855	24509
828.994	24216
829.134	24167
829.273	24235
829.412	24171
829.551	24022
829.69	24140
829.829	24095
829.968	24167
830.107	24216
830.246	24194
830.385	24311
830.524	24117
830.663	23988
830.802	23775
830.941	23973
831.08	23817
831.219	23920
831.357	23927
831.496	24102
831.635	23764
831.774	23741
831.913	23634
832.051	23531
832.19	23505
832.329	23741
832.467	23482
832.606	23436
832.744	23421
832.883	23474
833.022	23387
833.16	23414
833.299	23501
833.437	23551
833.576	23528
833.714	23421
833.852	23608
833.991	23722
834.129	23623
834.267	23581
834.406	23570
834.544	23463
834.682	23505
834.821	23627
834.959	23764
835.097	23497
835.235	23581
835.373	23646
835.511	23558
835.65	23558
835.788	23509
835.926	23425
836.064	23159
836.202	23235
836.34	23421
836.478	23562
836.615	23429
836.753	23410
836.891	23463
837.029	23414
837.167	23429
837.305	23341
837.443	23341
837.58	23254
837.718	23235
837.856	23303
837.993	23117
838.131	23212
838.269	23033
838.406	23136
838.544	23117
838.681	23025
838.819	22919
838.956	22748
839.094	22797
839.231	22877
839.369	22995
839.506	23231
839.643	23056
839.781	22801
839.918	22611
840.055	22793
840.193	22713
840.33	22569
840.467	22816
840.604	22824
840.742	23086
840.879	22569
841.016	22683
841.153	22561
841.29	22733
841.427	22748
841.564	22607
841.701	22733
841.838	22596
841.975	22710
842.112	22694
842.249	22641
842.385	22573
842.522	22774
842.659	22653
842.796	22573
842.933	22409
843.069	22375
843.206	22375
843.343	22504
843.479	22440
843.616	22519
843.752	22280
843.889	22181
844.025	22428
844.162	22249
844.298	22367
844.435	22177
844.571	22177
844.708	22268
844.844	22466
844.98	22436
845.117	22394
845.253	22215
845.389	22116
845.525	22154
845.661	22219
845.798	21892
845.934	22059
846.07	21888
846.206	22021
846.342	22154
846.478	22032
846.614	21808
846.75	21774
846.886	21804
847.022	21728
847.158	21797
847.294	21736
847.429	21831
847.565	21717
847.701	21979
847.837	21477
847.972	21420
848.108	21595
848.244	21549
848.379	21408
848.515	21256
848.65	21298
848.786	21397
848.921	21218
849.057	21458
849.192	21424
849.328	21230
849.463	21374
849.598	21325
849.734	21119
849.869	21214
850.004	21066
850.14	21180
850.275	21184
850.41	20990
850.545	21116
850.68	21032
850.815	21184
850.95	21093
851.085	21264
851.22	21176
851.355	21123
851.49	21093
851.625	21062
851.76	21081
851.895	21036
852.03	20956
852.165	21131
852.299	21081
852.434	21089
852.569	21032
852.703	21096
852.838	21104
852.973	21199
853.107	21032
853.242	20914
853.376	20918
853.511	20800
853.645	20963
853.78	21039
853.914	21043
854.048	20876
854.183	20781
854.317	20895
854.451	21096
854.585	20982
854.72	20876
854.854	20906
854.988	20762
855.122	20823
855.256	20804
855.39	20910
855.524	20948
855.658	20933
855.792	20910
855.926	20929
856.06	20868
856.194	20929
856.327	20872
856.461	20807
856.595	20750
856.729	20834
856.862	21020
856.996	20849
857.13	20998
857.263	21032
857.397	20868
857.53	20910
857.664	21017
857.797	21013
857.931	20986
858.064	20998
858.197	21108
858.331	20914
858.464	20906
858.597	20705
858.731	20826
858.864	20765
858.997	20952
859.13	21017
859.263	20910
859.396	20975
859.529	20762
859.662	20952
859.795	20716
859.928	20815
860.061	21096
860.194	21138
860.327	21005
860.46	20781
860.592	20956
860.725	21032
860.858	21096
860.99	20899
861.123	20823
861.256	20823
861.388	20716
861.521	21542
861.653	20819
861.786	20720
861.918	20735
862.05	20705
862.183	20842
862.315	20727
862.447	20998
862.58	20910
862.712	20636
862.844	20632
862.976	20735
863.108	20655
863.24	21028
863.372	20492
863.504	20609
863.636	20625
863.768	20541
863.9	20537
864.032	20545
864.164	20613
864.296	20568
864.428	20781
864.559	20678
864.691	20640
864.823	20663
864.954	20575
865.086	20518
865.217	20621
865.349	20442
865.48	20549
865.612	20438
865.743	20602
865.875	20571
866.006	20374
866.137	20590
866.269	20511
866.4	20537
866.531	20488
866.662	20511
866.793	20427
866.924	20396
867.055	20537
867.186	20385
867.317	20446
867.448	20381
867.579	20404
867.71	20419
867.841	20328
867.972	20488
868.103	20431
868.233	20537
868.364	20412
868.495	20575
868.625	20629
868.756	20765
868.886	20735
869.017	20746
869.147	20739
869.278	20826
869.408	20773
869.539	20609
869.669	20785
869.799	20712
869.929	20678
870.06	20785
870.19	20952
870.32	20941
870.45	21142
870.58	21024
870.71	21146
870.84	21192
870.97	21047
871.1	21081
871.23	21344
871.36	21351
871.489	21176
871.619	21264
871.749	21310
871.879	21245
872.008	21378
872.138	21287
872.267	21332
872.397	21245
872.526	21108
872.656	21146
872.785	21009
872.915	21272
873.044	21359
873.173	21473
873.303	21386
873.432	21348
873.561	21336
873.69	21374
873.819	21256
873.948	21344
874.077	21291
874.206	21291
874.335	21272
874.464	21393
874.593	21523
874.722	21458
874.851	21564
874.979	21408
875.108	21561
875.237	21534
875.365	21317
875.494	21523
875.623	21492
875.751	21473
875.88	21530
876.008	21713
876.136	21728
876.265	21869
876.393	22082
876.521	21918
876.65	21987
876.778	21972
876.906	21949
877.034	21884
877.162	22025
877.29	21956
877.418	21926
877.546	21945
877.674	21926
877.802	21766
877.93	21937
878.058	21865
878.185	21831
878.313	21846
878.441	21941
878.568	21819
878.696	21736
878.824	21892
878.951	22063
879.079	22002
879.206	22120
879.333	22101
879.461	21949
879.588	21968
879.715	22105
879.842	22230
879.97	21907
880.097	21762
880.224	21724
880.351	21759
880.478	21800
880.605	21713
880.732	21671
880.859	21918
880.986	21736
881.112	21694
881.239	21595
881.366	21515
881.493	21439
881.619	21313
881.746	21412
881.872	21370
881.999	21359
882.125	21325
882.252	21424
882.378	21287
882.505	21298
882.631	21165
882.757	21001
882.883	21074
883.01	21173
883.136	20960
883.262	20948
883.388	20819
883.514	20956
883.64	20982
883.766	20823
883.892	20788
884.018	20800
884.143	20921
884.269	20952
884.395	20872
884.52	20746
884.646	20727
884.772	20609
884.897	20602
885.023	20655
885.148	20735
885.274	20792
885.399	20701
885.524	20765
885.65	20701
885.775	20651
885.9	20701
886.025	20815
886.15	20811
886.275	20689
886.4	20640
886.525	20594
886.65	20625
886.775	20613
886.9	20765
887.025	20689
887.149	20629
887.274	20423
887.399	20408
887.523	20457
887.648	20450
887.773	20366
887.897	20511
888.021	20560
888.146	20385
888.27	20499
888.395	20541
888.519	20446
888.643	20355
888.767	20442
888.891	20438
889.015	20229
889.139	20389
889.263	20183
889.387	20438
889.511	20419
889.635	20294
889.759	20237
889.883	20058
890.006	20256
890.13	20317
890.254	20119
890.377	20210
890.501	19982
890.624	20016
890.748	20122
890.871	19807
890.995	19833
891.118	19658
891.241	19811
891.364	19845
891.488	19989
891.611	19746
891.734	19909
891.857	19849
891.98	19788
892.103	19822
892.226	19814
892.349	19647
892.471	19674
892.594	19769
892.717	19742
892.839	19715
892.962	19898
893.085	19826
893.207	19708
893.33	19658
893.452	19613
893.575	19662
893.697	19780
893.819	19875
893.941	19879
894.064	19871
894.186	19647
894.308	19685
894.43	19784
894.552	19879
894.674	19906
894.796	19643
894.918	19594
895.04	19689
895.161	19757
895.283	19624
895.405	19830
895.526	19780
895.648	19746
895.769	19746
895.891	19807
896.012	19769
896.134	19799
896.255	19753
896.376	19696
896.498	19791
896.619	19696
896.74	19670
896.861	19803
896.982	19963
897.103	20214
897.224	20058
897.345	20020
897.466	19856
897.587	19849
897.708	20012
897.828	20100
897.949	19791
898.07	19799
898.19	19849
898.311	19947
898.431	19925
898.552	19890
898.672	20077
898.792	20027
898.913	19997
899.033	19875
899.153	19769
899.273	19590
899.393	19658
899.513	19731
899.633	19635
899.753	19674
899.873	19681
899.993	19746
900.113	19655
900.232	19719
900.352	19753
900.472	19594
900.591	19499
900.711	19480
900.83	19529
900.95	19658
901.069	19521
901.189	19365
901.308	19156
901.427	19072
901.546	19080
901.665	19190
901.784	19114
901.904	18962
902.023	18821
902.141	18696
902.26	18563
902.379	18551
902.498	18612
902.617	18570
902.735	18612
902.854	18597
902.973	18566
903.091	18273
903.21	18270
903.328	18133
903.446	18235
903.565	18155
903.683	18015
903.801	17992
903.919	17977
904.038	18034
904.156	17840
904.274	17859
904.392	17840
904.51	17824
904.627	17821
904.745	17916
904.863	17878
904.981	17695
905.098	17604
905.216	17596
905.334	17516
905.451	17592
905.569	17467
905.686	17478
905.803	17501
905.921	17254
906.038	17398
906.155	17353
906.272	17250
906.389	17280
906.506	17117
906.623	17136
906.74	17064
906.857	16896
906.974	17033
907.091	17113
907.208	17204
907.324	17064
907.441	16961
907.557	16835
907.674	16748
907.79	16656
907.907	16790
908.023	16759
908.139	16755
908.256	16698
908.372	16622
908.488	16637
908.604	16554
908.72	16451
908.836	16512
908.952	16443
909.068	16523
909.184	16508
909.3	16516
909.415	16504
909.531	16542
909.647	16310
909.762	16192
909.878	16230
909.993	16268
910.108	16109
910.224	16185
910.339	16158
910.454	16082
910.57	16071
910.685	15979
910.8	16207
910.915	16207
911.03	15941
911.145	15869
911.259	15899
911.374	15797
911.489	15751
911.604	15709
911.718	15557
911.833	15633
911.947	15542
912.062	15450
912.176	15587
912.291	15656
912.405	15629
912.519	15785
912.633	15755
912.748	15648
912.862	15504
912.976	15500
913.09	15211
913.204	15260
913.318	15332
913.431	15462
913.545	15515
913.659	15416
913.772	15245
913.886	15131
914	15176
914.113	15264
914.226	15272
914.34	15199
914.453	15077
914.566	15252
914.68	15211
914.793	15062
914.906	14819
915.019	14815
915.132	14754
915.245	14735
915.358	14849
915.47	14785
915.583	14746
915.696	14883
915.809	14925
915.921	14914
916.034	14735
916.146	14678
916.259	14686
916.371	14804
916.483	14720
916.595	14495
916.708	14613
916.82	14564
916.932	14564
917.044	14480
917.156	14556
917.268	14488
917.38	14469
917.491	14339
917.603	14476
917.715	14484
917.826	14533
917.938	14404
918.049	14332
918.161	14396
918.272	14602
918.384	14514
918.495	14374
918.606	14210
918.717	14115
918.828	14313
918.939	14206
919.05	14199
919.161	14142
919.272	13928
919.383	14111
919.494	14298
919.604	14476
919.715	14187
919.826	14172
919.936	14172
920.047	14256
920.157	14191
920.267	14366
920.378	14240
920.488	14168
920.598	14389
920.708	14514
920.818	14404
920.928	14301
921.038	14549
921.148	14454
921.258	14123
921.368	14046
921.477	13986
921.587	13932
921.697	13712
921.806	13906
921.916	13833
922.025	13628
922.134	13609
922.244	13609
922.353	13647
922.462	13544
922.571	13384
922.68	13320
922.789	13285
922.898	13183
923.007	13236
923.116	13255
923.224	13129
923.333	13202
923.442	13008
923.55	12989
923.659	13023
923.767	13171
923.876	12966
923.984	13164
924.092	12954
924.201	13137
924.309	13042
924.417	12932
924.525	12935
924.633	12913
924.741	13833
924.849	12745
924.956	12867
925.064	12757
925.172	12703
925.279	12627
925.387	12635
925.494	12662
925.602	12760
925.709	12776
925.816	12513
925.924	12635
926.031	12696
926.138	12639
926.245	12730
926.352	12467
926.459	12593
926.566	12601
926.673	12570
926.779	12460
926.886	12350
926.993	12346
927.099	12220
927.206	12224
927.312	12194
927.419	12159
927.525	12220
927.631	12201
927.737	12148
927.843	12095
927.95	12003
928.056	12098
928.162	12011
928.267	12117
928.373	12563
928.479	12114
928.585	11920
928.69	12072
928.796	12076
928.901	11935
929.007	11779
929.112	11942
929.218	11927
929.323	11832
929.428	11798
929.533	11901
929.638	11756
929.743	11798
929.848	11847
929.953	11790
930.058	11668
930.163	11539
930.267	11478
930.372	11615
930.477	11512
930.581	11691
930.685	11585
930.79	11391
930.894	11395
930.998	11337
931.103	11478
931.207	11201
931.311	11075
931.415	11045
931.519	10816
931.623	10721
