Data from test_V78500241_1742.txt Node
Date: Fri Mar 25 15:21:59 CST 2022
User: usil
Spectrometer: V785-0024
Trigger mode: 0
Integration Time (sec): 4.000000E-1
Scans to average: 1
Nonlinearity correction enabled: false
Boxcar width: 0
Storing dark spectrum: false
XAxis mode: Wavelengths
Number of Pixels in Spectrum: 1024
>>>>>Begin Spectral Data<<<<<
801.071	27739
801.214	27789
801.356	27530
801.499	27450
801.641	27279
801.783	27374
801.926	27545
802.068	27370
802.211	27374
802.353	27249
802.496	27146
802.638	26975
802.78	27051
802.923	26895
803.065	26902
803.208	27070
803.35	26963
803.492	27028
803.635	27119
803.777	26990
803.919	27131
804.061	27466
804.204	27287
804.346	27188
804.488	27009
804.63	27089
804.773	27039
804.915	27241
805.057	27313
805.199	27176
805.341	27252
805.483	27382
805.626	27264
805.768	27169
805.91	27218
806.052	27279
806.194	27165
806.336	27325
806.478	27351
806.62	27195
806.762	27454
806.904	27515
807.046	27713
807.188	27618
807.33	27736
807.472	27800
807.614	27705
807.756	27694
807.898	27557
808.04	27450
808.182	27515
808.324	27492
808.465	27637
808.607	27903
808.749	27922
808.891	28032
809.033	28105
809.174	28059
809.316	27861
809.458	27895
809.6	27705
809.741	28032
809.883	28109
810.025	28234
810.166	28204
810.308	28226
810.45	28249
810.591	28139
810.733	27819
810.875	27884
811.016	27781
811.158	27880
811.299	28044
811.441	27922
811.582	28036
811.724	27922
811.865	27835
812.007	27873
812.148	27835
812.29	27918
812.431	28055
812.573	28143
812.714	28356
812.855	28569
812.997	28596
813.138	28660
813.279	28664
813.421	28421
813.562	28531
813.703	28276
813.845	28128
813.986	27781
814.127	27713
814.268	27648
814.41	27614
814.551	27553
814.692	27717
814.833	27572
814.974	27625
815.115	27751
815.256	27450
815.397	27363
815.539	27595
815.68	27477
815.821	27329
815.962	27397
816.103	27374
816.244	27351
816.385	27298
816.526	27104
816.666	26880
816.807	26940
816.948	26937
817.089	26838
817.23	26849
817.371	26849
817.512	26773
817.653	26872
817.793	26838
817.934	26842
818.075	26906
818.216	26857
818.356	26986
818.497	26758
818.638	26621
818.778	26625
818.919	26773
819.06	26811
819.2	26823
819.341	26918
819.481	26979
819.622	26967
819.762	27195
819.903	27135
820.043	27058
820.184	27093
820.324	27161
820.465	27024
820.605	27165
820.746	26956
820.886	26887
821.026	27009
821.167	26845
821.307	26902
821.447	26921
821.588	26929
821.728	26765
821.868	26613
822.008	26362
822.149	26351
822.289	26434
822.429	26077
822.569	26020
822.709	25940
822.849	25894
822.99	25921
823.13	25852
823.27	25871
823.41	25757
823.55	25616
823.69	25696
823.83	25712
823.97	25567
824.11	25320
824.25	25426
824.389	25502
824.529	25590
824.669	25483
824.809	25594
824.949	25609
825.089	25647
825.228	25643
825.368	25426
825.508	25438
825.648	25381
825.787	25373
825.927	25499
826.067	25388
826.206	25460
826.346	25354
826.485	25400
826.625	25339
826.765	25339
826.904	25537
827.044	25183
827.183	25145
827.323	25057
827.462	25156
827.601	25183
827.741	25034
827.88	25221
828.02	24977
828.159	25034
828.298	25190
828.437	25152
828.577	24992
828.716	25152
828.855	24901
828.994	24764
829.134	24772
829.273	24867
829.412	24783
829.551	24726
829.69	24779
829.829	24795
829.968	24817
830.107	24890
830.246	24817
830.385	24722
830.524	24722
830.663	24589
830.802	24505
830.941	24475
831.08	24498
831.219	24490
831.357	24464
831.496	24620
831.635	24540
831.774	24388
831.913	24342
832.051	24308
832.19	24224
832.329	24201
832.467	24155
832.606	24140
832.744	24114
832.883	23977
833.022	24011
833.16	24133
833.299	24110
833.437	24155
833.576	24091
833.714	24182
833.852	24171
833.991	24220
834.129	24201
834.267	24304
834.406	24155
834.544	24254
834.682	24182
834.821	24114
834.959	24262
835.097	24125
835.235	24281
835.373	24114
835.511	24155
835.65	24121
835.788	24076
835.926	23855
836.064	23809
836.202	23779
836.34	24026
836.478	23973
836.615	23897
836.753	24030
836.891	24152
837.029	23996
837.167	23897
837.305	23874
837.443	23969
837.58	23843
837.718	23969
837.856	23771
837.993	23882
838.131	23847
838.269	23668
838.406	23718
838.544	23672
838.681	23509
838.819	23322
838.956	23345
839.094	23387
839.231	23471
839.369	23623
839.506	23714
839.643	23581
839.781	23337
839.918	23376
840.055	23356
840.193	23398
840.33	23208
840.467	23216
840.604	23212
840.742	23417
840.879	23086
841.016	23277
841.153	23197
841.29	23349
841.427	23292
841.564	23227
841.701	23060
841.838	23216
841.975	23193
842.112	23162
842.249	22999
842.385	22847
842.522	23060
842.659	23109
842.796	23010
842.933	23060
843.069	22911
843.206	22980
843.343	22995
843.479	23018
843.616	23079
843.752	22649
843.889	22603
844.025	22930
844.162	22736
844.298	22736
844.435	22816
844.571	22740
844.708	22843
844.844	22949
844.98	22763
845.117	22710
845.253	22622
845.389	22790
845.525	22645
845.661	22649
845.798	22497
845.934	22523
846.07	22424
846.206	22550
846.342	22504
846.478	22535
846.614	22226
846.75	22181
846.886	22272
847.022	22284
847.158	22234
847.294	22207
847.429	22329
847.565	22188
847.701	22398
847.837	22025
847.972	21994
848.108	22055
848.244	22105
848.379	22021
848.515	21789
848.65	21819
848.786	21827
848.921	21838
849.057	21827
849.192	21934
849.328	21915
849.463	21838
849.598	21739
849.734	21682
849.869	21709
850.004	21694
850.14	21682
850.275	21637
850.41	21500
850.545	21473
850.68	21542
850.815	21576
850.95	21519
851.085	21823
851.22	21724
851.355	21675
851.49	21580
851.625	21549
851.76	21526
851.895	21530
852.03	21473
852.165	21526
852.299	21625
852.434	21568
852.569	21732
852.703	21701
852.838	21641
852.973	21816
853.107	21728
853.242	21557
853.376	21458
853.511	21340
853.645	21321
853.78	21450
853.914	21507
854.048	21382
854.183	21321
854.317	21447
854.451	21523
854.585	21317
854.72	21332
854.854	21523
854.988	21291
855.122	21408
855.256	21268
855.39	21374
855.524	21469
855.658	21405
855.792	21504
855.926	21477
856.06	21447
856.194	21595
856.327	21393
856.461	21393
856.595	21431
856.729	21310
856.862	21469
856.996	21428
857.13	21447
857.263	21568
857.397	21462
857.53	21348
857.664	21450
857.797	21507
857.931	21507
858.064	21329
858.197	21561
858.331	21500
858.464	21367
858.597	21283
858.731	21431
858.864	21420
858.997	21389
859.13	21302
859.263	21450
859.396	21477
859.529	21344
859.662	21367
859.795	21538
859.928	21397
860.061	21549
860.194	21622
860.327	21481
860.46	21279
860.592	21450
860.725	21576
860.858	21485
860.99	21523
861.123	21329
861.256	21287
861.388	21382
861.521	22177
861.653	21321
861.786	21222
861.918	21222
862.05	21283
862.183	21310
862.315	21332
862.447	21538
862.58	21256
862.712	21131
862.844	21036
862.976	21024
863.108	21157
863.24	21496
863.372	21036
863.504	21074
863.636	21272
863.768	21169
863.9	21150
864.032	21165
864.164	21180
864.296	21017
864.428	21207
864.559	21218
864.691	21211
864.823	21188
864.954	21089
865.086	21089
865.217	21081
865.349	20933
865.48	20918
865.612	21001
865.743	21112
865.875	20849
866.006	21017
866.137	20975
866.269	21100
866.4	20925
866.531	20895
866.662	20895
866.793	20960
866.924	20887
867.055	20952
867.186	21093
867.317	20830
867.448	20887
867.579	20891
867.71	20941
867.841	20937
867.972	20979
868.103	20929
868.233	20960
868.364	21009
868.495	20914
868.625	21226
868.756	21268
868.886	21180
869.017	21176
869.147	21272
869.278	21302
869.408	21176
869.539	21195
869.669	21233
869.799	21058
869.929	21389
870.06	21363
870.19	21538
870.32	21496
870.45	21576
870.58	21564
870.71	21637
870.84	21625
870.97	21587
871.1	21469
871.23	21675
871.36	21774
871.489	21701
871.619	21762
871.749	21793
871.879	21842
872.008	21930
872.138	21751
872.267	21800
872.397	21747
872.526	21629
872.656	21675
872.785	21606
872.915	21895
873.044	21884
873.173	21827
873.303	21793
873.432	21899
873.561	21808
873.69	21781
873.819	21774
873.948	21884
874.077	21816
874.206	21819
874.335	21816
874.464	21907
874.593	22040
874.722	22025
874.851	22093
874.979	22078
875.108	22177
875.237	22036
875.365	22029
875.494	22002
875.623	22013
875.751	21998
875.88	22010
876.008	22219
876.136	22192
876.265	22303
876.393	22421
876.521	22546
876.65	22455
876.778	22421
876.906	22413
877.034	22310
877.162	22424
877.29	22386
877.418	22348
877.546	22466
877.674	22481
877.802	22436
877.93	22386
878.058	22356
878.185	22185
878.313	22325
878.441	22348
878.568	22272
878.696	22405
878.824	22523
878.951	22409
879.079	22577
879.206	22523
879.333	22592
879.461	22413
879.588	22527
879.715	22447
879.842	22786
879.97	22329
880.097	22272
880.224	22261
880.351	22188
880.478	22367
880.605	22051
880.732	22253
880.859	22417
880.986	22246
881.112	22143
881.239	22036
881.366	21979
881.493	21854
881.619	21816
881.746	21781
881.872	21751
881.999	21762
882.125	21838
882.252	21789
882.378	21736
882.505	21987
882.631	21705
882.757	21412
882.883	21507
883.01	21481
883.136	21447
883.262	21367
883.388	21310
883.514	21424
883.64	21523
883.766	21344
883.892	21230
884.018	21268
884.143	21538
884.269	21428
884.395	21119
884.52	21081
884.646	21127
884.772	21146
884.897	21085
885.023	21100
885.148	21043
885.274	21294
885.399	21165
885.524	21104
885.65	21081
885.775	21093
885.9	21104
886.025	21207
886.15	21195
886.275	20963
886.4	21005
886.525	21112
886.65	21146
886.775	21001
886.9	21142
887.025	21355
887.149	21131
887.274	20963
887.399	20891
887.523	20902
887.648	20853
887.773	20849
887.897	20921
888.021	20933
888.146	20708
888.27	20960
888.395	21028
888.519	20918
888.643	20914
888.767	20899
888.891	20845
889.015	20693
889.139	20739
889.263	20667
889.387	20876
889.511	20823
889.635	20857
889.759	20674
889.883	20575
890.006	20689
890.13	20705
890.254	20640
890.377	20590
890.501	20408
890.624	20442
890.748	20454
890.871	20305
890.995	20252
891.118	20161
891.241	20298
891.364	20161
891.488	20282
891.611	20332
891.734	20221
891.857	20248
891.98	20298
892.103	20351
892.226	20355
892.349	20130
892.471	20115
892.594	20077
892.717	20081
892.839	20271
892.962	20183
893.085	20130
893.207	20233
893.33	20069
893.452	20122
893.575	20229
893.697	20058
893.819	20256
893.941	20313
894.064	20355
894.186	20065
894.308	20020
894.43	20275
894.552	20298
894.674	20271
894.796	20069
894.918	20195
895.04	20138
895.161	20210
895.283	20180
895.405	20092
895.526	20073
895.648	20103
895.769	20229
895.891	20088
896.012	20218
896.134	20138
896.255	20111
896.376	20130
896.498	20233
896.619	20145
896.74	20199
896.861	20202
896.982	20412
897.103	20644
897.224	20415
897.345	20438
897.466	20351
897.587	20256
897.708	20450
897.828	20423
897.949	20370
898.07	20225
898.19	20351
898.311	20454
898.431	20317
898.552	20408
898.672	20450
898.792	20427
898.913	20377
899.033	20267
899.153	20149
899.273	20050
899.393	20187
899.513	20092
899.633	20039
899.753	20172
899.873	20069
899.993	20084
900.113	20058
900.232	20077
900.352	19993
900.472	19951
900.591	19826
900.711	19955
900.83	19784
900.95	19902
901.069	19864
901.189	19795
901.308	19544
901.427	19594
901.546	19491
901.665	19392
901.784	19377
901.904	19289
902.023	19213
902.141	19034
902.26	19099
902.379	19046
902.498	18878
902.617	18962
902.735	19072
902.854	18935
902.973	18935
903.091	18768
903.21	18726
903.328	18608
903.446	18574
903.565	18456
903.683	18509
903.801	18399
903.919	18448
904.038	18448
904.156	18224
904.274	18330
904.392	18136
904.51	18083
904.627	18254
904.745	18205
904.863	18334
904.981	18030
905.098	17901
905.216	17916
905.334	17821
905.451	17832
905.569	17954
905.686	17999
905.803	17904
905.921	17760
906.038	17805
906.155	17703
906.272	17573
906.389	17619
906.506	17414
906.623	17600
906.74	17417
906.857	17231
906.974	17433
907.091	17410
907.208	17596
907.324	17516
907.441	17395
907.557	17140
907.674	17140
907.79	17041
907.907	17155
908.023	17128
908.139	17140
908.256	17060
908.372	17048
908.488	17029
908.604	16896
908.72	16831
908.836	16930
908.952	16850
909.068	16869
909.184	16896
909.3	16748
909.415	16942
909.531	16858
909.647	16580
909.762	16607
909.878	16596
909.993	16672
910.108	16523
910.224	16478
910.339	16679
910.454	16470
910.57	16325
910.685	16402
910.8	16523
910.915	16573
911.03	16405
911.145	16306
911.259	16139
911.374	16112
911.489	16177
911.604	16078
911.718	15892
911.833	15907
911.947	15846
912.062	15762
912.176	15819
912.291	15854
912.405	15854
912.519	16086
912.633	16082
912.748	15960
912.862	15850
912.976	15759
913.09	15774
913.204	15667
913.318	15629
913.431	15835
913.545	15781
913.659	15819
913.772	15667
913.886	15568
914	15561
914.113	15644
914.226	15705
914.34	15587
914.453	15454
914.566	15629
914.68	15485
914.793	15405
914.906	15188
915.019	15218
915.132	15100
915.245	15131
915.358	15154
915.47	15135
915.583	15195
915.696	15066
915.809	15298
915.921	15260
916.034	15077
916.146	15043
916.259	15089
916.371	15165
916.483	15135
916.595	14963
916.708	15001
916.82	14944
916.932	14925
917.044	14845
917.156	14948
917.268	14823
917.38	14853
917.491	14842
917.603	14861
917.715	14819
917.826	14899
917.938	14686
918.049	14636
918.161	14686
918.272	14910
918.384	14826
918.495	14708
918.606	14575
918.717	14602
918.828	14541
918.939	14610
919.05	14530
919.161	14564
919.272	14393
919.383	14328
919.494	14606
919.604	14842
919.715	14473
919.826	14507
919.936	14537
920.047	14571
920.157	14431
920.267	14724
920.378	14552
920.488	14476
920.598	14739
920.708	14933
920.818	14632
920.928	14663
921.038	14842
921.148	14762
921.258	14495
921.368	14465
921.477	14294
921.587	14191
921.697	14088
921.806	14187
921.916	14043
922.025	13997
922.134	13902
922.244	14012
922.353	13955
922.462	13761
922.571	13795
922.68	13590
922.789	13476
922.898	13567
923.007	13468
923.116	13533
923.224	13594
923.333	13605
923.442	13354
923.55	13422
923.659	13453
923.767	13373
923.876	13365
923.984	13441
924.092	13251
924.201	13316
924.309	13430
924.417	13350
924.525	13274
924.633	13141
924.741	13932
924.849	13012
924.956	13141
925.064	12981
925.172	12928
925.279	12951
925.387	12958
925.494	12905
925.602	13072
925.709	12981
925.816	12924
925.924	12890
926.031	12966
926.138	12935
926.245	12913
926.352	12772
926.459	12970
926.566	13031
926.673	12924
926.779	12772
926.886	12722
926.993	12662
927.099	12471
927.206	12464
927.312	12441
927.419	12620
927.525	12616
927.631	12593
927.737	12452
927.843	12498
927.95	12258
928.056	12334
928.162	12350
928.267	12365
928.373	13053
928.479	12361
928.585	12205
928.69	12262
928.796	12357
928.901	12171
929.007	12026
929.112	12243
929.218	12224
929.323	12102
929.428	12026
929.533	12129
929.638	11973
929.743	12003
929.848	12026
929.953	12022
930.058	11901
930.163	11760
930.267	11904
930.372	11912
930.477	11695
930.581	11992
930.685	11809
930.79	11638
930.894	11646
930.998	11627
931.103	11805
931.207	11315
931.311	11356
931.415	11311
931.519	11094
931.623	10965
