Data from test_V78500241_242.txt Node
Date: Fri Mar 25 15:11:32 CST 2022
User: usil
Spectrometer: V785-0024
Trigger mode: 0
Integration Time (sec): 4.000000E-1
Scans to average: 1
Nonlinearity correction enabled: false
Boxcar width: 0
Storing dark spectrum: false
XAxis mode: Wavelengths
Number of Pixels in Spectrum: 1024
>>>>>Begin Spectral Data<<<<<
801.071	27994
801.214	28147
801.356	27823
801.499	27918
801.641	27553
801.783	27789
801.926	27686
802.068	27671
802.211	27701
802.353	27515
802.496	27325
802.638	27412
802.78	27374
802.923	27241
803.065	27294
803.208	27264
803.35	27268
803.492	27363
803.635	27454
803.777	27329
803.919	27443
804.061	27713
804.204	27568
804.346	27363
804.488	27374
804.63	27359
804.773	27325
804.915	27374
805.057	27431
805.199	27523
805.341	27477
805.483	27564
805.626	27481
805.768	27496
805.91	27492
806.052	27564
806.194	27386
806.336	27648
806.478	27530
806.62	27450
806.762	27614
806.904	27850
807.046	28021
807.188	27911
807.33	27922
807.472	28040
807.614	27903
807.756	27774
807.898	27694
808.04	27709
808.182	27797
808.324	27728
808.465	27804
808.607	27850
808.749	27987
808.891	28131
809.033	28386
809.174	28173
809.316	28067
809.458	27926
809.6	28101
809.741	28158
809.883	28200
810.025	28436
810.166	28394
810.308	28413
810.45	28329
810.591	28310
810.733	28059
810.875	28002
811.016	27983
811.158	27934
811.299	28135
811.441	28162
811.582	28143
811.724	27934
811.865	28090
812.007	27968
812.148	28002
812.29	28139
812.431	28120
812.573	28436
812.714	28508
812.855	28554
812.997	28706
813.138	28877
813.279	28656
813.421	28596
813.562	28531
813.703	28485
813.845	28234
813.986	28032
814.127	27880
814.268	27869
814.41	27663
814.551	27606
814.692	27682
814.833	27679
814.974	27603
815.115	27724
815.256	27458
815.397	27519
815.539	27450
815.68	27599
815.821	27336
815.962	27648
816.103	27637
816.244	27283
816.385	27367
816.526	27294
816.666	26937
816.807	27062
816.948	27081
817.089	26937
817.23	26956
817.371	26823
817.512	26899
817.653	26868
817.793	26990
817.934	26982
818.075	27009
818.216	26880
818.356	26925
818.497	26762
818.638	26518
818.778	26689
818.919	26640
819.06	26617
819.2	26891
819.341	26906
819.481	26952
819.622	27055
819.762	27188
819.903	27195
820.043	26925
820.184	26929
820.324	26960
820.465	27036
820.605	26986
820.746	27058
820.886	26762
821.026	26948
821.167	26929
821.307	27032
821.447	26891
821.588	26697
821.728	26651
821.868	26571
822.008	26362
822.149	26294
822.289	26461
822.429	26142
822.569	26046
822.709	25970
822.849	25784
822.99	25928
823.13	25700
823.27	25712
823.41	25544
823.55	25381
823.69	25635
823.83	25647
823.97	25556
824.11	25518
824.25	25518
824.389	25521
824.529	25400
824.669	25384
824.809	25453
824.949	25533
825.089	25472
825.228	25472
825.368	25301
825.508	25289
825.648	25263
825.787	25331
825.927	25213
826.067	25190
826.206	25148
826.346	25209
826.485	25346
826.625	25148
826.765	25449
826.904	25358
827.044	25057
827.183	24985
827.323	24947
827.462	25042
827.601	25019
827.741	24806
827.88	25076
828.02	24749
828.159	25027
828.298	24958
828.437	25023
828.577	24848
828.716	25088
828.855	24981
828.994	24646
829.134	24570
829.273	24722
829.412	24582
829.551	24403
829.69	24597
829.829	24688
829.968	24574
830.107	24825
830.246	24544
830.385	24620
830.524	24505
830.663	24399
830.802	24296
830.941	24270
831.08	24216
831.219	24369
831.357	24152
831.496	24410
831.635	24136
831.774	24041
831.913	24182
832.051	24003
832.19	24011
832.329	23988
832.467	23927
832.606	23866
832.744	23745
832.883	23904
833.022	23897
833.16	23889
833.299	23840
833.437	23939
833.576	23897
833.714	23946
833.852	24060
833.991	23859
834.129	23908
834.267	23904
834.406	23874
834.544	23817
834.682	23885
834.821	23798
834.959	23984
835.097	23790
835.235	23954
835.373	23847
835.511	23912
835.65	23687
835.788	23836
835.926	23543
836.064	23505
836.202	23676
836.34	23771
836.478	23927
836.615	23874
836.753	23756
836.891	23775
837.029	23729
837.167	23703
837.305	23566
837.443	23570
837.58	23501
837.718	23684
837.856	23630
837.993	23581
838.131	23562
838.269	23391
838.406	23501
838.544	23448
838.681	23311
838.819	23227
838.956	23018
839.094	22972
839.231	23109
839.369	23208
839.506	23436
839.643	23307
839.781	23079
839.918	22938
840.055	23029
840.193	22976
840.33	22987
840.467	22873
840.604	23037
840.742	23174
840.879	22759
841.016	22793
841.153	22900
841.29	23060
841.427	22869
841.564	22968
841.701	22957
841.838	22824
841.975	22755
842.112	22877
842.249	22687
842.385	22599
842.522	22839
842.659	22767
842.796	22752
842.933	22713
843.069	22683
843.206	22577
843.343	22626
843.479	22641
843.616	22660
843.752	22519
843.889	22424
844.025	22546
844.162	22379
844.298	22538
844.435	22466
844.571	22470
844.708	22535
844.844	22550
844.98	22504
845.117	22504
845.253	22413
845.389	22386
845.525	22322
845.661	22291
845.798	22238
845.934	22207
846.07	22082
846.206	22246
846.342	22253
846.478	22109
846.614	21937
846.75	21705
846.886	21876
847.022	21812
847.158	21876
847.294	21819
847.429	21968
847.565	21819
847.701	21922
847.837	21625
847.972	21526
848.108	21698
848.244	21743
848.379	21530
848.515	21530
848.65	21511
848.786	21336
848.921	21443
849.057	21477
849.192	21526
849.328	21416
849.463	21534
849.598	21397
849.734	21363
849.869	21306
850.004	21241
850.14	21214
850.275	21256
850.41	21119
850.545	21161
850.68	21256
850.815	21252
850.95	21195
851.085	21424
851.22	21439
851.355	21165
851.49	21264
851.625	21165
851.76	21230
851.895	21173
852.03	21154
852.165	21112
852.299	21173
852.434	21302
852.569	21214
852.703	21241
852.838	21138
852.973	21321
853.107	21363
853.242	21188
853.376	21017
853.511	20952
853.645	20998
853.78	21161
853.914	21127
854.048	20979
854.183	21001
854.317	21062
854.451	21268
854.585	20925
854.72	21005
854.854	21104
854.988	20792
855.122	21074
855.256	20902
855.39	20994
855.524	21013
855.658	21001
855.792	20979
855.926	21024
856.06	21123
856.194	21119
856.327	21123
856.461	20857
856.595	21043
856.729	20975
856.862	21112
856.996	21001
857.13	21093
857.263	21123
857.397	21165
857.53	20956
857.664	21188
857.797	21131
857.931	21116
858.064	21055
858.197	21237
858.331	20918
858.464	20994
858.597	20910
858.731	20880
858.864	20921
858.997	21024
859.13	21085
859.263	21001
859.396	21039
859.529	20960
859.662	20921
859.795	20925
859.928	20979
860.061	21093
860.194	21096
860.327	21081
860.46	21017
860.592	21154
860.725	21245
860.858	21157
860.99	21009
861.123	20876
861.256	20902
861.388	21039
861.521	21698
861.653	20910
861.786	20838
861.918	20914
862.05	20872
862.183	20910
862.315	20921
862.447	20944
862.58	20902
862.712	20686
862.844	20705
862.976	20811
863.108	20883
863.24	21165
863.372	20640
863.504	20636
863.636	20708
863.768	20758
863.9	20765
864.032	20594
864.164	20613
864.296	20727
864.428	20777
864.559	20773
864.691	20705
864.823	20606
864.954	20651
865.086	20655
865.217	20514
865.349	20522
865.48	20613
865.612	20629
865.743	20849
865.875	20678
866.006	20594
866.137	20636
866.269	20522
866.4	20560
866.531	20480
866.662	20446
866.793	20465
866.924	20613
867.055	20526
867.186	20488
867.317	20431
867.448	20404
867.579	20530
867.71	20396
867.841	20400
867.972	20454
868.103	20431
868.233	20488
868.364	20663
868.495	20629
868.625	20785
868.756	20864
868.886	20727
869.017	20823
869.147	20811
869.278	20921
869.408	20762
869.539	20777
869.669	20925
869.799	20815
869.929	20937
870.06	20895
870.19	21119
870.32	21135
870.45	21047
870.58	21142
870.71	21291
870.84	21268
870.97	21138
871.1	21154
871.23	21367
871.36	21275
871.489	21226
871.619	21214
871.749	21252
871.879	21382
872.008	21469
872.138	21367
872.267	21340
872.397	21180
872.526	21108
872.656	21199
872.785	21157
872.915	21374
873.044	21401
873.173	21291
873.303	21382
873.432	21477
873.561	21492
873.69	21397
873.819	21382
873.948	21447
874.077	21466
874.206	21382
874.335	21492
874.464	21637
874.593	21610
874.722	21618
874.851	21614
874.979	21618
875.108	21648
875.237	21545
875.365	21523
875.494	21622
875.623	21694
875.751	21549
875.88	21690
876.008	21732
876.136	21694
876.265	22021
876.393	22067
876.521	21953
876.65	22143
876.778	22017
876.906	21918
877.034	21937
877.162	22006
877.29	21861
877.418	21975
877.546	22040
877.674	22025
877.802	22017
877.93	21835
878.058	21956
878.185	21819
878.313	21861
878.441	22002
878.568	21823
878.696	21804
878.824	21994
878.951	22006
879.079	22192
879.206	22268
879.333	22139
879.461	22017
879.588	22051
879.715	22048
879.842	22257
879.97	22021
880.097	21789
880.224	21694
880.351	21793
880.478	21785
880.605	21568
880.732	21698
880.859	22010
880.986	21823
881.112	21808
881.239	21694
881.366	21469
881.493	21488
881.619	21313
881.746	21386
881.872	21386
881.999	21233
882.125	21386
882.252	21359
882.378	21336
882.505	21466
882.631	21291
882.757	20960
882.883	21154
883.01	21043
883.136	21074
883.262	21043
883.388	20830
883.514	21093
883.64	20986
883.766	21051
883.892	20826
884.018	20986
884.143	21112
884.269	21169
884.395	20807
884.52	20788
884.646	20720
884.772	20689
884.897	20648
885.023	20621
885.148	20670
885.274	20872
885.399	20785
885.524	20674
885.65	20606
885.775	20716
885.9	20697
886.025	20815
886.15	20899
886.275	20579
886.4	20655
886.525	20689
886.65	20636
886.775	20537
886.9	20937
887.025	20804
887.149	20667
887.274	20530
887.399	20533
887.523	20465
887.648	20396
887.773	20393
887.897	20488
888.021	20568
888.146	20408
888.27	20609
888.395	20495
888.519	20609
888.643	20454
888.767	20533
888.891	20412
889.015	20343
889.139	20438
889.263	20259
889.387	20423
889.511	20484
889.635	20355
889.759	20237
889.883	20183
890.006	20336
890.13	20347
890.254	20290
890.377	20138
890.501	20024
890.624	20073
890.748	20027
890.871	19852
890.995	19803
891.118	19868
891.241	19921
891.364	19807
891.488	19944
891.611	19788
891.734	19875
891.857	19875
891.98	19868
892.103	19936
892.226	19875
892.349	19772
892.471	19674
892.594	19769
892.717	19788
892.839	19788
892.962	19791
893.085	19799
893.207	19871
893.33	19662
893.452	19674
893.575	19818
893.697	19635
893.819	19871
893.941	19997
894.064	19818
894.186	19750
894.308	19651
894.43	19780
894.552	19887
894.674	19852
894.796	19674
894.918	19685
895.04	19685
895.161	19822
895.283	19852
895.405	19776
895.526	19807
895.648	19731
895.769	19727
895.891	19803
896.012	19712
896.134	19849
896.255	19818
896.376	19635
896.498	19734
896.619	19765
896.74	19784
896.861	19833
896.982	20073
897.103	20248
897.224	20092
897.345	19932
897.466	19902
897.587	19997
897.708	20172
897.828	20035
897.949	19997
898.07	19871
898.19	19822
898.311	19909
898.431	19887
898.552	19967
898.672	20016
898.792	20088
898.913	19894
899.033	20012
899.153	19761
899.273	19540
899.393	19677
899.513	19658
899.633	19731
899.753	19647
899.873	19575
899.993	19696
900.113	19693
900.232	19601
900.352	19609
900.472	19620
900.591	19365
900.711	19639
900.83	19472
900.95	19518
901.069	19616
901.189	19464
901.308	19213
901.427	19114
901.546	19110
901.665	19012
901.784	19164
901.904	18966
902.023	18928
902.141	18722
902.26	18646
902.379	18684
902.498	18563
902.617	18452
902.735	18635
902.854	18486
902.973	18498
903.091	18258
903.21	18330
903.328	18319
903.446	18144
903.565	18072
903.683	18174
903.801	18030
903.919	18087
904.038	17958
904.156	17851
904.274	17912
904.392	17809
904.51	17901
904.627	17817
904.745	17802
904.863	17893
904.981	17642
905.098	17524
905.216	17440
905.334	17665
905.451	17592
905.569	17570
905.686	17619
905.803	17535
905.921	17299
906.038	17505
906.155	17356
906.272	17296
906.389	17254
906.506	17067
906.623	17048
906.74	17094
906.857	16957
906.974	16908
907.091	17029
907.208	17143
907.324	17079
907.441	16984
907.557	16812
907.674	16820
907.79	16645
907.907	16755
908.023	16816
908.139	16774
908.256	16649
908.372	16645
908.488	16622
908.604	16470
908.72	16402
908.836	16462
908.952	16371
909.068	16485
909.184	16500
909.3	16436
909.415	16485
909.531	16402
909.647	16257
909.762	16150
909.878	16124
909.993	16169
910.108	16131
910.224	16116
910.339	16162
910.454	16029
910.57	16006
910.685	15930
910.8	16181
910.915	16071
911.03	15930
911.145	15808
911.259	15739
911.374	15686
911.489	15679
911.604	15648
911.718	15439
911.833	15553
911.947	15405
912.062	15348
912.176	15466
912.291	15500
912.405	15492
912.519	15644
912.633	15690
912.748	15477
912.862	15367
912.976	15283
913.09	15195
913.204	15332
913.318	15226
913.431	15306
913.545	15405
913.659	15428
913.772	15306
913.886	15218
914	15089
914.113	15203
914.226	15222
914.34	15203
914.453	14948
914.566	15161
914.68	14982
914.793	14963
914.906	14838
915.019	14746
915.132	14731
915.245	14708
915.358	14807
915.47	14640
915.583	14731
915.696	14701
915.809	14815
915.921	14861
916.034	14636
916.146	14625
916.259	14663
916.371	14800
916.483	14583
916.595	14610
916.708	14625
916.82	14511
916.932	14514
917.044	14465
917.156	14503
917.268	14374
917.38	14446
917.491	14438
917.603	14404
917.715	14511
917.826	14511
917.938	14381
918.049	14324
918.161	14396
918.272	14438
918.384	14461
918.495	14313
918.606	14278
918.717	14088
918.828	14134
918.939	14180
919.05	14050
919.161	14088
919.272	13883
919.383	14077
919.494	14161
919.604	14267
919.715	14115
919.826	14081
919.936	14046
920.047	14164
920.157	14142
920.267	14259
920.378	14134
920.488	14031
920.598	14313
920.708	14396
920.818	14275
920.928	14229
921.038	14450
921.148	14396
921.258	14161
921.368	13974
921.477	13894
921.587	13868
921.697	13677
921.806	13807
921.916	13734
922.025	13586
922.134	13559
922.244	13472
922.353	13559
922.462	13392
922.571	13274
922.68	13145
922.789	13164
922.898	13103
923.007	13061
923.116	13152
923.224	13072
923.333	13129
923.442	12977
923.55	12954
923.659	13061
923.767	13000
923.876	12916
923.984	12954
924.092	12833
924.201	12768
924.309	12920
924.417	12852
924.525	12810
924.633	12745
924.741	13586
924.849	12658
924.956	12696
925.064	12646
925.172	12547
925.279	12559
925.387	12582
925.494	12555
925.602	12791
925.709	12631
925.816	12525
925.924	12513
926.031	12620
926.138	12650
926.245	12551
926.352	12399
926.459	12547
926.566	12597
926.673	12536
926.779	12334
926.886	12376
926.993	12167
927.099	12144
927.206	12076
927.312	12117
927.419	12239
927.525	12167
927.631	12220
927.737	12068
927.843	12034
927.95	11885
928.056	12041
928.162	12079
928.267	11996
928.373	12498
928.479	12038
928.585	11847
928.69	11897
928.796	11999
928.901	11832
929.007	11661
929.112	11954
929.218	11805
929.323	11760
929.428	11722
929.533	11863
929.638	11566
929.743	11695
929.848	11794
929.953	11653
930.058	11516
930.163	11448
930.267	11452
930.372	11570
930.477	11387
930.581	11619
930.685	11459
930.79	11277
930.894	11379
930.998	11288
931.103	11471
931.207	11083
931.311	10999
931.415	10904
931.519	10736
931.623	10607
