Data from test_V78500241_2334.txt Node
Date: Fri Mar 25 15:26:06 CST 2022
User: usil
Spectrometer: V785-0024
Trigger mode: 0
Integration Time (sec): 4.000000E-1
Scans to average: 1
Nonlinearity correction enabled: false
Boxcar width: 0
Storing dark spectrum: false
XAxis mode: Wavelengths
Number of Pixels in Spectrum: 1024
>>>>>Begin Spectral Data<<<<<
801.071	27507
801.214	27591
801.356	27146
801.499	26940
801.641	26986
801.783	26918
801.926	27047
802.068	26804
802.211	26724
802.353	26777
802.496	26625
802.638	26644
802.78	26549
802.923	26632
803.065	26438
803.208	26526
803.35	26488
803.492	26682
803.635	26746
803.777	26689
803.919	26872
804.061	26971
804.204	26781
804.346	26686
804.488	26773
804.63	26735
804.773	26678
804.915	26773
805.057	26823
805.199	26689
805.341	26891
805.483	26857
805.626	26937
805.768	26857
805.91	26868
806.052	26918
806.194	26788
806.336	27032
806.478	26788
806.62	26834
806.762	26921
806.904	27169
807.046	27294
807.188	27325
807.33	27473
807.472	27306
807.614	27195
807.756	27226
807.898	27207
808.04	27169
808.182	27127
808.324	27214
808.465	27222
808.607	27370
808.749	27393
808.891	27667
809.033	27549
809.174	27610
809.316	27397
809.458	27287
809.6	27542
809.741	27599
809.883	27545
810.025	27785
810.166	27720
810.308	27797
810.45	27656
810.591	27507
810.733	27507
810.875	27469
811.016	27363
811.158	27313
811.299	27443
811.441	27656
811.582	27656
811.724	27450
811.865	27405
812.007	27530
812.148	27386
812.29	27481
812.431	27785
812.573	27808
812.714	27850
812.855	27968
812.997	28112
813.138	28029
813.279	28093
813.421	28010
813.562	28036
813.703	27854
813.845	27614
813.986	27427
814.127	27329
814.268	27081
814.41	27256
814.551	27096
814.692	27214
814.833	27230
814.974	27043
815.115	27279
815.256	26990
815.397	27009
815.539	27036
815.68	27085
815.821	26762
815.962	26880
816.103	26853
816.244	26929
816.385	26823
816.526	26648
816.666	26446
816.807	26362
816.948	26336
817.089	26594
817.23	26358
817.371	26461
817.512	26415
817.653	26301
817.793	26309
817.934	26423
818.075	26537
818.216	26503
818.356	26339
818.497	26221
818.638	26168
818.778	26206
818.919	26065
819.06	26138
819.2	26301
819.341	26317
819.481	26385
819.622	26564
819.762	26720
819.903	26708
820.043	26571
820.184	26488
820.324	26499
820.465	26686
820.605	26556
820.746	26431
820.886	26305
821.026	26617
821.167	26469
821.307	26358
821.447	26408
821.588	26221
821.728	26206
821.868	26134
822.008	25811
822.149	25887
822.289	25799
822.429	25582
822.569	25613
822.709	25594
822.849	25411
822.99	25441
823.13	25358
823.27	25377
823.41	25247
823.55	25000
823.69	25221
823.83	25141
823.97	25160
824.11	24920
824.25	25008
824.389	25046
824.529	25072
824.669	24981
824.809	25061
824.949	25065
825.089	25057
825.228	25023
825.368	24989
825.508	24757
825.648	24840
825.787	24897
825.927	24913
826.067	24825
826.206	24886
826.346	24814
826.485	24863
826.625	24875
826.765	24947
826.904	24852
827.044	24696
827.183	24646
827.323	24509
827.462	24593
827.601	24604
827.741	24585
827.88	24738
828.02	24486
828.159	24585
828.298	24673
828.437	24734
828.577	24582
828.716	24582
828.855	24525
828.994	24273
829.134	24186
829.273	24315
829.412	24296
829.551	24228
829.69	24285
829.829	24350
829.968	24319
830.107	24330
830.246	24262
830.385	24224
830.524	24117
830.663	24144
830.802	24121
830.941	23878
831.08	23832
831.219	23999
831.357	23927
831.496	24125
831.635	23954
831.774	23703
831.913	23836
832.051	23695
832.19	23653
832.329	23611
832.467	23623
832.606	23486
832.744	23493
832.883	23448
833.022	23539
833.16	23551
833.299	23592
833.437	23509
833.576	23691
833.714	23589
833.852	23619
833.991	23676
834.129	23805
834.267	23687
834.406	23528
834.544	23630
834.682	23562
834.821	23589
834.959	23790
835.097	23577
835.235	23760
835.373	23604
835.511	23558
835.65	23543
835.788	23501
835.926	23368
836.064	23288
836.202	23250
836.34	23455
836.478	23497
836.615	23379
836.753	23539
836.891	23433
837.029	23554
837.167	23414
837.305	23368
837.443	23318
837.58	23200
837.718	23330
837.856	23280
837.993	23113
838.131	23349
838.269	23280
838.406	23189
838.544	23109
838.681	22976
838.819	22949
838.956	22664
839.094	22752
839.231	22820
839.369	22949
839.506	23151
839.643	23010
839.781	22672
839.918	22713
840.055	22733
840.193	22797
840.33	22877
840.467	22656
840.604	22721
840.742	23003
840.879	22569
841.016	22622
841.153	22672
841.29	22599
841.427	22618
841.564	22733
841.701	22835
841.838	22561
841.975	22584
842.112	22546
842.249	22481
842.385	22421
842.522	22546
842.659	22402
842.796	22516
842.933	22508
843.069	22276
843.206	22409
843.343	22443
843.479	22497
843.616	22542
843.752	22253
843.889	22204
844.025	22322
844.162	22249
844.298	22394
844.435	22265
844.571	22185
844.708	22333
844.844	22382
844.98	22337
845.117	22390
845.253	22234
845.389	22002
845.525	22158
845.661	22143
845.798	21865
845.934	21998
846.07	21941
846.206	21987
846.342	21983
846.478	21949
846.614	21819
846.75	21686
846.886	21808
847.022	21747
847.158	21606
847.294	21781
847.429	21785
847.565	21762
847.701	21953
847.837	21473
847.972	21237
848.108	21488
848.244	21488
848.379	21367
848.515	21241
848.65	21332
848.786	21382
848.921	21291
849.057	21313
849.192	21412
849.328	21424
849.463	21329
849.598	21154
849.734	21199
849.869	21203
850.004	21131
850.14	21093
850.275	21062
850.41	21013
850.545	21055
850.68	21051
850.815	21043
850.95	21154
851.085	21222
851.22	21173
851.355	20948
851.49	21039
851.625	21020
851.76	21036
851.895	20914
852.03	20948
852.165	20990
852.299	21157
852.434	21051
852.569	20979
852.703	21009
852.838	21184
852.973	21119
853.107	21096
853.242	21074
853.376	20800
853.511	20914
853.645	20880
853.78	20937
853.914	20857
854.048	20838
854.183	20834
854.317	20952
854.451	21214
854.585	20864
854.72	20872
854.854	20956
854.988	20678
855.122	20887
855.256	20716
855.39	20906
855.524	20902
855.658	20906
855.792	20857
855.926	20921
856.06	20895
856.194	20883
856.327	20895
856.461	20857
856.595	20906
856.729	20830
856.862	20910
856.996	20857
857.13	20960
857.263	20998
857.397	20872
857.53	20857
857.664	20876
857.797	20990
857.931	20979
858.064	20864
858.197	20975
858.331	20925
858.464	20921
858.597	20861
858.731	20826
858.864	20872
858.997	20686
859.13	20872
859.263	20876
859.396	20925
859.529	20815
859.662	20838
859.795	20899
859.928	20918
860.061	21085
860.194	21062
860.327	20960
860.46	20952
860.592	21062
860.725	21096
860.858	20986
860.99	20921
861.123	20746
861.256	20792
861.388	20838
861.521	21439
861.653	20842
861.786	20716
861.918	20674
862.05	20689
862.183	20765
862.315	20876
862.447	20819
862.58	20697
862.712	20609
862.844	20602
862.976	20731
863.108	20629
863.24	21085
863.372	20537
863.504	20617
863.636	20568
863.768	20644
863.9	20537
864.032	20560
864.164	20537
864.296	20575
864.428	20587
864.559	20655
864.691	20602
864.823	20571
864.954	20594
865.086	20629
865.217	20450
865.349	20412
865.48	20476
865.612	20393
865.743	20480
865.875	20575
866.006	20434
866.137	20644
866.269	20457
866.4	20514
866.531	20503
866.662	20385
866.793	20511
866.924	20450
867.055	20415
867.186	20412
867.317	20507
867.448	20381
867.579	20499
867.71	20415
867.841	20259
867.972	20545
868.103	20484
868.233	20377
868.364	20423
868.495	20556
868.625	20560
868.756	20712
868.886	20571
869.017	20625
869.147	20746
869.278	20918
869.408	20670
869.539	20648
869.669	20754
869.799	20750
869.929	20857
870.06	20800
870.19	20910
870.32	20910
870.45	20956
870.58	21077
870.71	21142
870.84	21237
870.97	21077
871.1	21051
871.23	21207
871.36	21203
871.489	21188
871.619	21237
871.749	21340
871.879	21294
872.008	21283
872.138	21268
872.267	21321
872.397	21150
872.526	21131
872.656	21058
872.785	21104
872.915	21226
873.044	21363
873.173	21325
873.303	21336
873.432	21325
873.561	21313
873.69	21367
873.819	21283
873.948	21462
874.077	21233
874.206	21256
874.335	21211
874.464	21428
874.593	21504
874.722	21405
874.851	21523
874.979	21511
875.108	21542
875.237	21485
875.365	21454
875.494	21469
875.623	21614
875.751	21576
875.88	21561
876.008	21686
876.136	21747
876.265	21888
876.393	22032
876.521	21972
876.65	22093
876.778	21953
876.906	21785
877.034	21873
877.162	21892
877.29	21812
877.418	21941
877.546	21797
877.674	21854
877.802	21903
877.93	21949
878.058	21861
878.185	21873
878.313	21785
878.441	21789
878.568	21568
878.696	21736
878.824	21797
878.951	21903
879.079	21987
879.206	22181
879.333	21937
879.461	21804
879.588	21915
879.715	22131
879.842	22207
879.97	21949
880.097	21728
880.224	21850
880.351	21675
880.478	21736
880.605	21679
880.732	21675
880.859	21922
880.986	21610
881.112	21762
881.239	21564
881.366	21473
881.493	21348
881.619	21374
881.746	21313
881.872	21275
881.999	21230
882.125	21241
882.252	21367
882.378	21233
882.505	21317
882.631	21096
882.757	20982
882.883	21081
883.01	20975
883.136	21028
883.262	20895
883.388	20842
883.514	21013
883.64	21112
883.766	20914
883.892	20796
884.018	20781
884.143	20929
884.269	21005
884.395	20815
884.52	20670
884.646	20693
884.772	20511
884.897	20617
885.023	20686
885.148	20735
885.274	20731
885.399	20667
885.524	20739
885.65	20644
885.775	20613
885.9	20667
886.025	20815
886.15	20769
886.275	20560
886.4	20606
886.525	20530
886.65	20659
886.775	20632
886.9	20670
887.025	20914
887.149	20556
887.274	20419
887.399	20427
887.523	20492
887.648	20404
887.773	20294
887.897	20438
888.021	20465
888.146	20309
888.27	20549
888.395	20476
888.519	20560
888.643	20412
888.767	20476
888.891	20389
889.015	20248
889.139	20320
889.263	20210
889.387	20267
889.511	20457
889.635	20309
889.759	20214
889.883	20221
890.006	20161
890.13	20301
890.254	20088
890.377	20088
890.501	19970
890.624	19909
890.748	20077
890.871	19841
890.995	19719
891.118	19784
891.241	19898
891.364	19818
891.488	20039
891.611	19723
891.734	19776
891.857	19814
891.98	19826
892.103	19765
892.226	19746
892.349	19822
892.471	19635
892.594	19719
892.717	19841
892.839	19723
892.962	19814
893.085	19727
893.207	19731
893.33	19651
893.452	19738
893.575	19674
893.697	19662
893.819	19807
893.941	19902
894.064	19902
894.186	19738
894.308	19643
894.43	19890
894.552	19814
894.674	19746
894.796	19628
894.918	19643
895.04	19681
895.161	19708
895.283	19765
895.405	19643
895.526	19616
895.648	19567
895.769	19655
895.891	19662
896.012	19833
896.134	19731
896.255	19685
896.376	19712
896.498	19795
896.619	19837
896.74	19712
896.861	19879
896.982	20046
897.103	20142
897.224	19947
897.345	19879
897.466	19902
897.587	19932
897.708	20005
897.828	20126
897.949	19811
898.07	19776
898.19	19795
898.311	20176
898.431	19811
898.552	19894
898.672	20046
898.792	19997
898.913	20054
899.033	19757
899.153	19696
899.273	19731
899.393	19616
899.513	19715
899.633	19685
899.753	19818
899.873	19689
899.993	19799
900.113	19578
900.232	19715
900.352	19605
900.472	19575
900.591	19460
900.711	19666
900.83	19403
900.95	19533
901.069	19575
901.189	19339
901.308	19232
901.427	19095
901.546	19156
901.665	19107
901.784	19148
901.904	18996
902.023	18810
902.141	18715
902.26	18719
902.379	18711
902.498	18570
902.617	18574
902.735	18601
902.854	18483
902.973	18589
903.091	18247
903.21	18353
903.328	18281
903.446	18171
903.565	18045
903.683	18125
903.801	17973
903.919	17984
904.038	18022
904.156	17824
904.274	17882
904.392	17935
904.51	17828
904.627	17958
904.745	17893
904.863	17916
904.981	17657
905.098	17539
905.216	17467
905.334	17566
905.451	17528
905.569	17463
905.686	17657
905.803	17467
905.921	17307
906.038	17452
906.155	17383
906.272	17185
906.389	17254
906.506	17071
906.623	17022
906.74	17045
906.857	16953
906.974	17033
907.091	17079
907.208	17147
907.324	17098
907.441	16927
907.557	16820
907.674	16831
907.79	16664
907.907	16771
908.023	16786
908.139	16755
908.256	16717
908.372	16748
908.488	16626
908.604	16569
908.72	16455
908.836	16474
908.952	16535
909.068	16577
909.184	16622
909.3	16478
909.415	16569
909.531	16493
909.647	16177
909.762	16177
909.878	16219
909.993	16169
910.108	16207
910.224	16105
910.339	16185
910.454	16071
910.57	15960
910.685	16021
910.8	16166
910.915	16207
911.03	16036
911.145	15869
911.259	15865
911.374	15762
911.489	15720
911.604	15728
911.718	15450
911.833	15519
911.947	15511
912.062	15348
912.176	15405
912.291	15458
912.405	15614
912.519	15728
912.633	15785
912.748	15614
912.862	15587
912.976	15321
913.09	15287
913.204	15355
913.318	15435
913.431	15416
913.545	15496
913.659	15469
913.772	15367
913.886	15260
914	15195
914.113	15279
914.226	15252
914.34	15252
914.453	15116
914.566	15180
914.68	15165
914.793	15024
914.906	14895
915.019	14739
915.132	14800
915.245	14727
915.358	14853
915.47	14925
915.583	14746
915.696	14910
915.809	14960
915.921	14906
916.034	14762
916.146	14746
916.259	14655
916.371	14754
916.483	14724
916.595	14610
916.708	14640
916.82	14575
916.932	14617
917.044	14613
917.156	14530
917.268	14514
917.38	14488
917.491	14446
917.603	14503
917.715	14514
917.826	14598
917.938	14503
918.049	14298
918.161	14484
918.272	14568
918.384	14503
918.495	14457
918.606	14313
918.717	14157
918.828	14237
918.939	14237
919.05	14153
919.161	14134
919.272	14050
919.383	14100
919.494	14240
919.604	14412
919.715	14244
919.826	14153
919.936	14084
920.047	14259
920.157	14176
920.267	14389
920.378	14172
920.488	14062
920.598	14400
920.708	14552
920.818	14351
920.928	14355
921.038	14457
921.148	14465
921.258	14111
921.368	14031
921.477	13906
921.587	13883
921.697	13841
921.806	14001
921.916	13765
922.025	13586
922.134	13563
922.244	13563
922.353	13521
922.462	13510
922.571	13403
922.68	13274
922.789	13129
922.898	13187
923.007	13171
923.116	13297
923.224	13206
923.333	13137
923.442	13084
923.55	12989
923.659	13213
923.767	13110
923.876	13122
923.984	13156
924.092	12962
924.201	13042
924.309	12954
924.417	12962
924.525	12928
924.633	12958
924.741	13871
924.849	12608
924.956	12814
925.064	12669
925.172	12722
925.279	12601
925.387	12658
925.494	12688
925.602	12837
925.709	12768
925.816	12563
925.924	12589
926.031	12715
926.138	12620
926.245	12665
926.352	12563
926.459	12688
926.566	12707
926.673	12437
926.779	12452
926.886	12506
926.993	12258
927.099	12251
927.206	12182
927.312	12201
927.419	12262
927.525	12266
927.631	12262
927.737	12125
927.843	12125
927.95	11961
928.056	12045
928.162	12041
928.267	12133
928.373	12654
928.479	12049
928.585	11988
928.69	12038
928.796	12019
928.901	11866
929.007	11798
929.112	11908
929.218	11942
929.323	11828
929.428	11828
929.533	11923
929.638	11672
929.743	11805
929.848	11756
929.953	11745
930.058	11611
930.163	11486
930.267	11505
930.372	11619
930.477	11395
930.581	11714
930.685	11535
930.79	11356
930.894	11387
930.998	11452
931.103	11493
931.207	11181
931.311	11098
931.415	10968
931.519	10820
931.623	10672
