Data from test_V78500241_500.txt Node
Date: Fri Mar 25 15:13:20 CST 2022
User: usil
Spectrometer: V785-0024
Trigger mode: 0
Integration Time (sec): 4.000000E-1
Scans to average: 1
Nonlinearity correction enabled: false
Boxcar width: 0
Storing dark spectrum: false
XAxis mode: Wavelengths
Number of Pixels in Spectrum: 1024
>>>>>Begin Spectral Data<<<<<
801.071	27629
801.214	27507
801.356	27408
801.499	27363
801.641	27176
801.783	27062
801.926	27192
802.068	27146
802.211	27051
802.353	26929
802.496	26944
802.638	26826
802.78	26777
802.923	26731
803.065	26750
803.208	26689
803.35	26762
803.492	26823
803.635	26956
803.777	26872
803.919	26937
804.061	27245
804.204	27093
804.346	26918
804.488	26845
804.63	26979
804.773	26743
804.915	26868
805.057	27165
805.199	26876
805.341	26925
805.483	27036
805.626	26925
805.768	26998
805.91	27005
806.052	27142
806.194	26899
806.336	27180
806.478	27135
806.62	27043
806.762	27039
806.904	27500
807.046	27587
807.188	27382
807.33	27473
807.472	27462
807.614	27412
807.756	27420
807.898	27306
808.04	27199
808.182	27211
808.324	27237
808.465	27306
808.607	27561
808.749	27705
808.891	27679
809.033	27937
809.174	27625
809.316	27652
809.458	27686
809.6	27504
809.741	27778
809.883	27819
810.025	27838
810.166	27930
810.308	27926
810.45	28154
810.591	27854
810.733	27831
810.875	27694
811.016	27538
811.158	27344
811.299	27808
811.441	27850
811.582	27914
811.724	27663
811.865	27572
812.007	27743
812.148	27576
812.29	27629
812.431	27785
812.573	27857
812.714	28010
812.855	28090
812.997	28356
813.138	28504
813.279	28360
813.421	28276
813.562	28223
813.703	27937
813.845	27953
813.986	27641
814.127	27458
814.268	27344
814.41	27348
814.551	27363
814.692	27367
814.833	27211
814.974	27256
815.115	27275
815.256	27180
815.397	27233
815.539	27351
815.68	27154
815.821	27116
815.962	27001
816.103	27138
816.244	26975
816.385	26906
816.526	26887
816.666	26686
816.807	26686
816.948	26716
817.089	26872
817.23	26785
817.371	26750
817.512	26682
817.653	26674
817.793	26583
817.934	26560
818.075	26636
818.216	26693
818.356	26492
818.497	26480
818.638	26400
818.778	26298
818.919	26408
819.06	26473
819.2	26434
819.341	26659
819.481	26583
819.622	26705
819.762	26940
819.903	26872
820.043	26636
820.184	26636
820.324	26807
820.465	26842
820.605	26800
820.746	26758
820.886	26640
821.026	26693
821.167	26689
821.307	26781
821.447	26590
821.588	26537
821.728	26450
821.868	26336
822.008	26084
822.149	26035
822.289	26012
822.429	25795
822.569	25765
822.709	25788
822.849	25666
822.99	25658
823.13	25597
823.27	25567
823.41	25483
823.55	25190
823.69	25438
823.83	25301
823.97	25320
824.11	25285
824.25	25198
824.389	25164
824.529	25346
824.669	25259
824.809	25320
824.949	25381
825.089	25320
825.228	25263
825.368	25114
825.508	25080
825.648	25141
825.787	25122
825.927	25225
826.067	25038
826.206	25019
826.346	25012
826.485	25095
826.625	25114
826.765	25175
826.904	25194
827.044	24779
827.183	24817
827.323	24798
827.462	24779
827.601	24932
827.741	24825
827.88	24806
828.02	24707
828.159	24791
828.298	24837
828.437	24833
828.577	24802
828.716	24791
828.855	24738
828.994	24513
829.134	24563
829.273	24601
829.412	24422
829.551	24505
829.69	24642
829.829	24448
829.968	24642
830.107	24544
830.246	24494
830.385	24509
830.524	24395
830.663	24388
830.802	24114
830.941	24144
831.08	23980
831.219	24319
831.357	24224
831.496	24251
831.635	23980
831.774	24038
831.913	24098
832.051	23969
832.19	23923
832.329	23775
832.467	23935
832.606	23847
832.744	23756
832.883	23874
833.022	23863
833.16	23775
833.299	23927
833.437	23901
833.576	23855
833.714	23946
833.852	24007
833.991	23984
834.129	23973
834.267	23954
834.406	23904
834.544	23992
834.682	23969
834.821	23798
834.959	23923
835.097	23912
835.235	23931
835.373	23805
835.511	23794
835.65	23771
835.788	23707
835.926	23562
836.064	23501
836.202	23524
836.34	23729
836.478	23817
836.615	23798
836.753	23718
836.891	23779
837.029	23752
837.167	23718
837.305	23630
837.443	23665
837.58	23528
837.718	23676
837.856	23592
837.993	23501
838.131	23585
838.269	23482
838.406	23436
838.544	23239
838.681	23162
838.819	23231
838.956	23204
839.094	22991
839.231	23162
839.369	23292
839.506	23440
839.643	23383
839.781	23041
839.918	23052
840.055	23071
840.193	22976
840.33	22938
840.467	22873
840.604	23109
840.742	23166
840.879	22854
841.016	22885
841.153	22881
841.29	22953
841.427	22881
841.564	22850
841.701	22991
841.838	22987
841.975	22774
842.112	22790
842.249	22763
842.385	22805
842.522	22812
842.659	22828
842.796	22755
842.933	22706
843.069	22691
843.206	22683
843.343	22831
843.479	22786
843.616	22816
843.752	22569
843.889	22493
844.025	22626
844.162	22493
844.298	22599
844.435	22428
844.571	22527
844.708	22565
844.844	22656
844.98	22713
845.117	22546
845.253	22440
845.389	22394
845.525	22527
845.661	22230
845.798	22219
845.934	22363
846.07	22200
846.206	22261
846.342	22489
846.478	22219
846.614	22032
846.75	21956
846.886	21975
847.022	22128
847.158	21994
847.294	21934
847.429	21876
847.565	21895
847.701	22143
847.837	21720
847.972	21804
848.108	21778
848.244	21793
848.379	21728
848.515	21538
848.65	21526
848.786	21583
848.921	21603
849.057	21789
849.192	21694
849.328	21682
849.463	21583
849.598	21545
849.734	21458
849.869	21260
850.004	21340
850.14	21386
850.275	21348
850.41	21241
850.545	21378
850.68	21283
850.815	21363
850.95	21329
851.085	21549
851.22	21538
851.355	21389
851.49	21412
851.625	21264
851.76	21249
851.895	21165
852.03	21211
852.165	21363
852.299	21424
852.434	21367
852.569	21397
852.703	21310
852.838	21359
852.973	21393
853.107	21481
853.242	21298
853.376	21199
853.511	21096
853.645	21123
853.78	21199
853.914	21131
854.048	21150
854.183	20982
854.317	21233
854.451	21443
854.585	21214
854.72	21051
854.854	21180
854.988	21028
855.122	21127
855.256	20990
855.39	21154
855.524	21173
855.658	21245
855.792	21157
855.926	21081
856.06	21112
856.194	21218
856.327	21222
856.461	21127
856.595	21154
856.729	21138
856.862	21203
856.996	21306
857.13	21256
857.263	21249
857.397	21233
857.53	21195
857.664	21260
857.797	21203
857.931	21150
858.064	21275
858.197	21306
858.331	21135
858.464	21051
858.597	21119
858.731	21055
858.864	21146
858.997	21154
859.13	21237
859.263	21192
859.396	21150
859.529	21176
859.662	20994
859.795	21108
859.928	21108
860.061	21306
860.194	21336
860.327	21169
860.46	21074
860.592	21279
860.725	21264
860.858	21336
860.99	21070
861.123	21074
861.256	21154
861.388	21131
861.521	21861
861.653	20963
861.786	20963
861.918	20861
862.05	21070
862.183	21036
862.315	21142
862.447	21127
862.58	21039
862.712	20769
862.844	20845
862.976	20872
863.108	20914
863.24	21283
863.372	20739
863.504	20944
863.636	20933
863.768	20883
863.9	20849
864.032	20712
864.164	20701
864.296	20773
864.428	20975
864.559	20979
864.691	20834
864.823	20746
864.954	20921
865.086	20762
865.217	20781
865.349	20765
865.48	20697
865.612	20724
865.743	20853
865.875	20788
866.006	20868
866.137	20864
866.269	20689
866.4	20720
866.531	20651
866.662	20644
866.793	20754
866.924	20727
867.055	20697
867.186	20727
867.317	20697
867.448	20667
867.579	20670
867.71	20609
867.841	20568
867.972	20746
868.103	20727
868.233	20727
868.364	20716
868.495	20746
868.625	20921
868.756	21077
868.886	20811
869.017	20887
869.147	21089
869.278	21093
869.408	20891
869.539	20906
869.669	20960
869.799	20967
869.929	21096
870.06	21062
870.19	21272
870.32	21096
870.45	21363
870.58	21268
870.71	21462
870.84	21401
870.97	21279
871.1	21393
871.23	21526
871.36	21568
871.489	21386
871.619	21534
871.749	21473
871.879	21648
872.008	21717
872.138	21583
872.267	21576
872.397	21469
872.526	21310
872.656	21313
872.785	21363
872.915	21610
873.044	21595
873.173	21542
873.303	21534
873.432	21732
873.561	21576
873.69	21564
873.819	21507
873.948	21557
874.077	21538
874.206	21504
874.335	21557
874.464	21766
874.593	21941
874.722	21751
874.851	21869
874.979	21679
875.108	21808
875.237	21644
875.365	21701
875.494	21831
875.623	21808
875.751	21682
875.88	21770
876.008	21899
876.136	21960
876.265	22120
876.393	22223
876.521	22200
876.65	22177
876.778	22128
876.906	22166
877.034	22257
877.162	22181
877.29	22017
877.418	22223
877.546	22063
877.674	22162
877.802	22093
877.93	22032
878.058	22059
878.185	22040
878.313	22036
878.441	22029
878.568	21994
878.696	21945
878.824	22105
878.951	22238
879.079	22249
879.206	22523
879.333	22204
879.461	22105
879.588	22166
879.715	22333
879.842	22329
879.97	22238
880.097	21972
880.224	21987
880.351	21960
880.478	21880
880.605	21953
880.732	21975
880.859	22223
880.986	21972
881.112	22010
881.239	21903
881.366	21717
881.493	21618
881.619	21591
881.746	21667
881.872	21488
881.999	21496
882.125	21557
882.252	21576
882.378	21530
882.505	21595
882.631	21329
882.757	21344
882.883	21344
883.01	21237
883.136	21237
883.262	21127
883.388	21089
883.514	21306
883.64	21279
883.766	21195
883.892	20982
884.018	21043
884.143	21127
884.269	21287
884.395	20944
884.52	20861
884.646	20948
884.772	20678
884.897	20773
885.023	20864
885.148	20975
885.274	20963
885.399	20914
885.524	20788
885.65	20941
885.775	20804
885.9	20853
886.025	20868
886.15	21055
886.275	20857
886.4	20769
886.525	20796
886.65	20933
886.775	20819
886.9	20948
887.025	21017
887.149	20914
887.274	20674
887.399	20621
887.523	20720
887.648	20651
887.773	20632
887.897	20602
888.021	20823
888.146	20648
888.27	20796
888.395	20678
888.519	20678
888.643	20617
888.767	20735
888.891	20571
889.015	20476
889.139	20549
889.263	20427
889.387	20556
889.511	20598
889.635	20609
889.759	20408
889.883	20431
890.006	20404
890.13	20583
890.254	20328
890.377	20278
890.501	20290
890.624	20115
890.748	20218
890.871	20020
890.995	20027
891.118	19917
891.241	20054
891.364	20031
891.488	20119
891.611	20084
891.734	19944
891.857	20046
891.98	19940
892.103	20157
892.226	19970
892.349	19913
892.471	19860
892.594	19951
892.717	20168
892.839	19868
892.962	19871
893.085	20065
893.207	19940
893.33	19868
893.452	19818
893.575	19879
893.697	19868
893.819	19913
893.941	20240
894.064	20107
894.186	19814
894.308	19947
894.43	19974
894.552	20145
894.674	20069
894.796	19632
894.918	19932
895.04	19936
895.161	20001
895.283	19921
895.405	19788
895.526	19917
895.648	19921
895.769	19951
895.891	20100
896.012	20039
896.134	20005
896.255	19944
896.376	19868
896.498	19909
896.619	20031
896.74	19902
896.861	19986
896.982	20324
897.103	20408
897.224	20172
897.345	20202
897.466	20126
897.587	20229
897.708	20267
897.828	20180
897.949	20332
898.07	19936
898.19	20100
898.311	20267
898.431	20046
898.552	20069
898.672	20126
898.792	20206
898.913	20092
899.033	20145
899.153	20107
899.273	19883
899.393	19970
899.513	19986
899.633	19909
899.753	19936
899.873	19871
899.993	19890
900.113	19841
900.232	19890
900.352	19894
900.472	19837
900.591	19655
900.711	19704
900.83	19727
900.95	19746
901.069	19837
901.189	19571
901.308	19403
901.427	19247
901.546	19365
901.665	19335
901.784	19346
901.904	19152
902.023	19019
902.141	18939
902.26	18878
902.379	18935
902.498	18844
902.617	18764
902.735	18939
902.854	18779
902.973	18760
903.091	18460
903.21	18357
903.328	18494
903.446	18380
903.565	18220
903.683	18361
903.801	18102
903.919	18266
904.038	18228
904.156	18102
904.274	18201
904.392	18083
904.51	18022
904.627	17954
904.745	18053
904.863	18121
904.981	17923
905.098	17726
905.216	17661
905.334	17775
905.451	17745
905.569	17672
905.686	17680
905.803	17691
905.921	17535
906.038	17722
906.155	17558
906.272	17490
906.389	17463
906.506	17254
906.623	17265
906.74	17250
906.857	17204
906.974	17151
907.091	17315
907.208	17501
907.324	17269
907.441	17136
907.557	17037
907.674	16984
907.79	16938
907.907	16919
908.023	16934
908.139	17014
908.256	16942
908.372	16866
908.488	16790
908.604	16725
908.72	16729
908.836	16683
908.952	16668
909.068	16679
909.184	16835
909.3	16778
909.415	16706
909.531	16691
909.647	16584
909.762	16459
909.878	16440
909.993	16367
910.108	16417
910.224	16432
910.339	16367
910.454	16303
910.57	16120
910.685	16177
910.8	16470
910.915	16234
911.03	16272
911.145	16017
911.259	16082
911.374	15991
911.489	15960
911.604	15884
911.718	15751
911.833	15739
911.947	15644
912.062	15606
912.176	15705
912.291	15755
912.405	15679
912.519	15918
912.633	15850
912.748	15778
912.862	15770
912.976	15644
913.09	15447
913.204	15603
913.318	15545
913.431	15713
913.545	15675
913.659	15682
913.772	15473
913.886	15382
914	15340
914.113	15428
914.226	15435
914.34	15408
914.453	15359
914.566	15359
914.68	15351
914.793	15203
914.906	15051
915.019	15055
915.132	14971
915.245	15047
915.358	14971
915.47	15043
915.583	14948
915.696	15104
915.809	15051
915.921	15184
916.034	14948
916.146	14857
916.259	14899
916.371	14960
916.483	15039
916.595	14826
916.708	14807
916.82	14804
916.932	14769
917.044	14807
917.156	14670
917.268	14697
917.38	14796
917.491	14598
917.603	14625
917.715	14758
917.826	14686
917.938	14594
918.049	14492
918.161	14705
918.272	14686
918.384	14731
918.495	14689
918.606	14434
918.717	14301
918.828	14408
918.939	14446
919.05	14290
919.161	14347
919.272	14214
919.383	14202
919.494	14575
919.604	14636
919.715	14343
919.826	14324
919.936	14374
920.047	14522
920.157	14351
920.267	14514
920.378	14408
920.488	14377
920.598	14503
920.708	14648
920.818	14514
920.928	14526
921.038	14708
921.148	14560
921.258	14377
921.368	14298
921.477	14240
921.587	14221
921.697	14001
921.806	14119
921.916	13944
922.025	13864
922.134	13776
922.244	13597
922.353	13700
922.462	13647
922.571	13563
922.68	13460
922.789	13384
922.898	13373
923.007	13316
923.116	13331
923.224	13316
923.333	13419
923.442	13278
923.55	13304
923.659	13312
923.767	13316
923.876	13213
923.984	13293
924.092	13129
924.201	13228
924.309	13133
924.417	13168
924.525	13160
924.633	13118
924.741	13868
924.849	12829
924.956	13019
925.064	12806
925.172	12715
925.279	12878
925.387	12916
925.494	12897
925.602	12890
925.709	12840
925.816	12795
925.924	12837
926.031	12837
926.138	12738
926.245	12700
926.352	12707
926.459	12867
926.566	12856
926.673	12688
926.779	12536
926.886	12547
926.993	12418
927.099	12494
927.206	12273
927.312	12407
927.419	12437
927.525	12448
927.631	12414
927.737	12273
927.843	12270
927.95	12155
928.056	12251
928.162	12216
928.267	12194
928.373	12795
928.479	12247
928.585	12068
928.69	12270
928.796	12136
928.901	12117
929.007	11950
929.112	12038
929.218	12072
929.323	11977
929.428	11950
929.533	12102
929.638	11935
929.743	11958
929.848	11958
929.953	11882
930.058	11821
930.163	11604
930.267	11619
930.372	11764
930.477	11615
930.581	11908
930.685	11672
930.79	11528
930.894	11535
930.998	11554
931.103	11668
931.207	11292
931.311	11197
931.415	11124
931.519	10915
931.623	10915
