Data from test_V78500241_1586.txt Node
Date: Fri Mar 25 15:20:54 CST 2022
User: usil
Spectrometer: V785-0024
Trigger mode: 0
Integration Time (sec): 4.000000E-1
Scans to average: 1
Nonlinearity correction enabled: false
Boxcar width: 0
Storing dark spectrum: false
XAxis mode: Wavelengths
Number of Pixels in Spectrum: 1024
>>>>>Begin Spectral Data<<<<<
801.071	27880
801.214	27975
801.356	27641
801.499	27641
801.641	27412
801.783	27576
801.926	27591
802.068	27523
802.211	27393
802.353	27348
802.496	27218
802.638	27131
802.78	27135
802.923	27062
803.065	26975
803.208	27013
803.35	27211
803.492	27275
803.635	27298
803.777	27230
803.919	27370
804.061	27568
804.204	27332
804.346	27317
804.488	27237
804.63	27336
804.773	27173
804.915	27389
805.057	27481
805.199	27374
805.341	27348
805.483	27587
805.626	27405
805.768	27382
805.91	27530
806.052	27488
806.194	27412
806.336	27682
806.478	27367
806.62	27351
806.762	27549
806.904	27720
807.046	28013
807.188	27827
807.33	27823
807.472	27930
807.614	27808
807.756	27926
807.898	27800
808.04	27698
808.182	27728
808.324	27823
808.465	27835
808.607	27994
808.749	27918
808.891	28032
809.033	28219
809.174	28147
809.316	28059
809.458	28044
809.6	28101
809.741	28295
809.883	28238
810.025	28303
810.166	28318
810.308	28481
810.45	28226
810.591	28219
810.733	28128
810.875	28063
811.016	27918
811.158	27861
811.299	28055
811.441	28306
811.582	28188
811.724	28109
811.865	27941
812.007	28116
812.148	28112
812.29	28105
812.431	28280
812.573	28337
812.714	28615
812.855	28634
812.997	28599
813.138	28862
813.279	28843
813.421	28759
813.562	28679
813.703	28337
813.845	28249
813.986	27994
814.127	27835
814.268	27747
814.41	27797
814.551	27762
814.692	27827
814.833	27641
814.974	27663
815.115	27743
815.256	27648
815.397	27553
815.539	27656
815.68	27610
815.821	27561
815.962	27663
816.103	27530
816.244	27378
816.385	27393
816.526	27226
816.666	27142
816.807	27100
816.948	27051
817.089	27085
817.23	27093
817.371	27024
817.512	27058
817.653	26929
817.793	26876
817.934	27070
818.075	27138
818.216	27043
818.356	27055
818.497	27013
818.638	26659
818.778	26762
818.919	26952
819.06	26750
819.2	26925
819.341	26948
819.481	27058
819.622	27241
819.762	27416
819.903	27302
820.043	27211
820.184	27093
820.324	27131
820.465	27351
820.605	27142
820.746	27325
820.886	27058
821.026	27123
821.167	27096
821.307	27211
821.447	27127
821.588	26967
821.728	26796
821.868	26689
822.008	26503
822.149	26537
822.289	26587
822.429	26240
822.569	26248
822.709	26142
822.849	25955
822.99	26214
823.13	26050
823.27	26001
823.41	25902
823.55	25689
823.69	25913
823.83	25776
823.97	25727
824.11	25666
824.25	25651
824.389	25605
824.529	25757
824.669	25750
824.809	25795
824.949	25944
825.089	25765
825.228	25742
825.368	25567
825.508	25403
825.648	25514
825.787	25658
825.927	25670
826.067	25635
826.206	25483
826.346	25704
826.485	25635
826.625	25525
826.765	25795
826.904	25506
827.044	25320
827.183	25403
827.323	25217
827.462	25392
827.601	25354
827.741	25422
827.88	25335
828.02	25247
828.159	25232
828.298	25331
828.437	25282
828.577	25339
828.716	25304
828.855	25190
828.994	24992
829.134	24996
829.273	25015
829.412	24981
829.551	25038
829.69	25053
829.829	24947
829.968	25187
830.107	25012
830.246	25080
830.385	24859
830.524	24909
830.663	24882
830.802	24760
830.941	24593
831.08	24585
831.219	24642
831.357	24696
831.496	24875
831.635	24494
831.774	24536
831.913	24380
832.051	24388
832.19	24338
832.329	24460
832.467	24285
832.606	24273
832.744	24110
832.883	24171
833.022	24270
833.16	24205
833.299	24232
833.437	24380
833.576	24315
833.714	24258
833.852	24311
833.991	24258
834.129	24289
834.267	24330
834.406	24296
834.544	24418
834.682	24372
834.821	24308
834.959	24498
835.097	24209
835.235	24384
835.373	24334
835.511	24273
835.65	24235
835.788	24224
835.926	24205
836.064	23977
836.202	23942
836.34	24163
836.478	24117
836.615	24110
836.753	24148
836.891	24292
837.029	24114
837.167	24045
837.305	24232
837.443	23984
837.58	23912
837.718	23988
837.856	24057
837.993	23904
838.131	24011
838.269	23916
838.406	23828
838.544	23851
838.681	23710
838.819	23627
838.956	23512
839.094	23558
839.231	23387
839.369	23752
839.506	23836
839.643	23687
839.781	23554
839.918	23436
840.055	23425
840.193	23421
840.33	23299
840.467	23322
840.604	23379
840.742	23680
840.879	23414
841.016	23254
841.153	23303
841.29	23531
841.427	23318
841.564	23414
841.701	23364
841.838	23345
841.975	23311
842.112	23353
842.249	23216
842.385	23052
842.522	23132
842.659	23143
842.796	23067
842.933	23159
843.069	23166
843.206	22923
843.343	23166
843.479	23048
843.616	23105
843.752	22965
843.889	22946
844.025	23014
844.162	22816
844.298	22923
844.435	22889
844.571	22850
844.708	22957
844.844	23018
844.98	23010
845.117	22984
845.253	22790
845.389	22733
845.525	22740
845.661	22797
845.798	22523
845.934	22691
846.07	22622
846.206	22740
846.342	22759
846.478	22554
846.614	22455
846.75	22398
846.886	22428
847.022	22447
847.158	22421
847.294	22280
847.429	22398
847.565	22337
847.701	22542
847.837	22135
847.972	22090
848.108	22135
848.244	22086
848.379	22044
848.515	21972
848.65	22036
848.786	22036
848.921	22086
849.057	22036
849.192	21972
849.328	22021
849.463	21797
849.598	21926
849.734	21823
849.869	21766
850.004	21751
850.14	21682
850.275	21743
850.41	21568
850.545	21728
850.68	21785
850.815	21713
850.95	21648
851.085	21854
851.22	21762
851.355	21698
851.49	21690
851.625	21705
851.76	21614
851.895	21580
852.03	21557
852.165	21770
852.299	21675
852.434	21743
852.569	21797
852.703	21641
852.838	21762
852.973	21854
853.107	21770
853.242	21679
853.376	21671
853.511	21561
853.645	21580
853.78	21720
853.914	21633
854.048	21447
854.183	21500
854.317	21553
854.451	21686
854.585	21488
854.72	21507
854.854	21504
854.988	21424
855.122	21473
855.256	21462
855.39	21576
855.524	21629
855.658	21625
855.792	21583
855.926	21671
856.06	21564
856.194	21720
856.327	21435
856.461	21553
856.595	21496
856.729	21534
856.862	21587
856.996	21496
857.13	21690
857.263	21538
857.397	21557
857.53	21454
857.664	21595
857.797	21599
857.931	21595
858.064	21507
858.197	21766
858.331	21519
858.464	21515
858.597	21412
858.731	21466
858.864	21405
858.997	21633
859.13	21553
859.263	21530
859.396	21644
859.529	21526
859.662	21542
859.795	21405
859.928	21507
860.061	21656
860.194	21679
860.327	21595
860.46	21667
860.592	21671
860.725	21583
860.858	21530
860.99	21515
861.123	21515
861.256	21538
861.388	21477
861.521	22139
861.653	21332
861.786	21302
861.918	21431
862.05	21393
862.183	21500
862.315	21519
862.447	21370
862.58	21488
862.712	21249
862.844	21173
862.976	21351
863.108	21264
863.24	21500
863.372	21104
863.504	21157
863.636	21279
863.768	21226
863.9	21302
864.032	21131
864.164	21268
864.296	21298
864.428	21401
864.559	21382
864.691	21279
864.823	21089
864.954	21207
865.086	21283
865.217	21123
865.349	20979
865.48	21116
865.612	21146
865.743	21279
865.875	21127
866.006	21127
866.137	21180
866.269	21180
866.4	21089
866.531	20944
866.662	21062
866.793	21047
866.924	21047
867.055	21081
867.186	21119
867.317	21066
867.448	20986
867.579	21017
867.71	21032
867.841	20948
867.972	21039
868.103	20971
868.233	21119
868.364	21066
868.495	21112
868.625	21393
868.756	21431
868.886	21195
869.017	21287
869.147	21389
869.278	21374
869.408	21283
869.539	21416
869.669	21477
869.799	21291
869.929	21519
870.06	21397
870.19	21587
870.32	21568
870.45	21561
870.58	21663
870.71	21850
870.84	21808
870.97	21728
871.1	21743
871.23	21934
871.36	22010
871.489	21774
871.619	21869
871.749	21968
871.879	21770
872.008	21945
872.138	21823
872.267	21827
872.397	21804
872.526	21736
872.656	21652
872.785	21717
872.915	21903
873.044	22021
873.173	21842
873.303	21941
873.432	21831
873.561	21960
873.69	21907
873.819	21956
873.948	22032
874.077	21937
874.206	21869
874.335	21979
874.464	22006
874.593	22086
874.722	22082
874.851	22109
874.979	22124
875.108	22086
875.237	22105
875.365	22055
875.494	22223
875.623	22166
875.751	22120
875.88	22215
876.008	22230
876.136	22322
876.265	22424
876.393	22618
876.521	22599
876.65	22557
876.778	22565
876.906	22546
877.034	22607
877.162	22379
877.29	22500
877.418	22516
877.546	22478
877.674	22360
877.802	22504
877.93	22523
878.058	22363
878.185	22436
878.313	22489
878.441	22508
878.568	22344
878.696	22394
878.824	22508
878.951	22580
879.079	22622
879.206	22866
879.333	22569
879.461	22447
879.588	22462
879.715	22744
879.842	22710
879.97	22493
880.097	22329
880.224	22287
880.351	22363
880.478	22322
880.605	22291
880.732	22272
880.859	22634
880.986	22219
881.112	22287
881.239	22128
881.366	22010
881.493	21956
881.619	21907
881.746	21873
881.872	21823
881.999	21819
882.125	21720
882.252	21922
882.378	21857
882.505	21937
882.631	21713
882.757	21534
882.883	21629
883.01	21618
883.136	21587
883.262	21454
883.388	21428
883.514	21511
883.64	21606
883.766	21496
883.892	21382
884.018	21466
884.143	21496
884.269	21701
884.395	21260
884.52	21131
884.646	21218
884.772	21226
884.897	21013
885.023	21279
885.148	21344
885.274	21302
885.399	21306
885.524	21195
885.65	21188
885.775	21211
885.9	21199
886.025	21291
886.15	21127
886.275	21154
886.4	21116
886.525	21051
886.65	21104
886.775	21169
886.9	21310
887.025	21458
887.149	21039
887.274	20861
887.399	21062
887.523	20967
887.648	20880
887.773	20979
887.897	21146
888.021	21070
888.146	20857
888.27	20986
888.395	21039
888.519	20887
888.643	21028
888.767	21032
888.891	20895
889.015	20891
889.139	20830
889.263	20804
889.387	20830
889.511	20956
889.635	20735
889.759	20781
889.883	20746
890.006	20746
890.13	20762
890.254	20636
890.377	20587
890.501	20514
890.624	20457
890.748	20629
890.871	20400
890.995	20400
891.118	20100
891.241	20298
891.364	20267
891.488	20495
891.611	20358
891.734	20294
891.857	20362
891.98	20301
892.103	20278
892.226	20298
892.349	20336
892.471	20043
892.594	20294
892.717	20294
892.839	20180
892.962	20218
893.085	20290
893.207	20218
893.33	20176
893.452	20039
893.575	20259
893.697	20157
893.819	20377
893.941	20396
894.064	20461
894.186	20111
894.308	20107
894.43	20229
894.552	20347
894.674	20320
894.796	20058
894.918	20248
895.04	20210
895.161	20358
895.283	20244
895.405	20271
895.526	20199
895.648	20191
895.769	20202
895.891	20313
896.012	20221
896.134	20248
896.255	20362
896.376	20263
896.498	20187
896.619	20320
896.74	20286
896.861	20240
896.982	20530
897.103	20644
897.224	20511
897.345	20484
897.466	20469
897.587	20370
897.708	20598
897.828	20393
897.949	20412
898.07	20298
898.19	20233
898.311	20522
898.431	20385
898.552	20492
898.672	20469
898.792	20545
898.913	20488
899.033	20244
899.153	20393
899.273	20130
899.393	20183
899.513	20263
899.633	20164
899.753	20320
899.873	20111
899.993	20206
900.113	20126
900.232	20115
900.352	20081
900.472	19940
900.591	19875
900.711	19982
900.83	19947
900.95	20043
901.069	20005
901.189	19890
901.308	19651
901.427	19674
901.546	19476
901.665	19491
901.784	19487
901.904	19449
902.023	19274
902.141	19164
902.26	19129
902.379	19179
902.498	18909
902.617	18996
902.735	19031
902.854	19107
902.973	18977
903.091	18783
903.21	18719
903.328	18745
903.446	18677
903.565	18601
903.683	18608
903.801	18384
903.919	18502
904.038	18517
904.156	18319
904.274	18445
904.392	18281
904.51	18273
904.627	18220
904.745	18422
904.863	18334
904.981	18087
905.098	17999
905.216	17874
905.334	17958
905.451	17988
905.569	17954
905.686	17965
905.803	17977
905.921	17680
906.038	17836
906.155	17745
906.272	17596
906.389	17592
906.506	17414
906.623	17497
906.74	17524
906.857	17421
906.974	17417
907.091	17509
907.208	17486
907.324	17532
907.441	17368
907.557	17265
907.674	17086
907.79	17083
907.907	17159
908.023	17181
908.139	17235
908.256	17140
908.372	17193
908.488	17109
908.604	17010
908.72	16900
908.836	17022
908.952	16816
909.068	16972
909.184	17018
909.3	16976
909.415	16828
909.531	16885
909.647	16805
909.762	16679
909.878	16611
909.993	16660
910.108	16546
910.224	16641
910.339	16550
910.454	16500
910.57	16470
910.685	16413
910.8	16706
910.915	16649
911.03	16402
911.145	16246
911.259	16299
911.374	16185
911.489	16200
911.604	16101
911.718	16017
911.833	15979
911.947	15903
912.062	15793
912.176	15911
912.291	15949
912.405	15861
912.519	16078
912.633	16147
912.748	16025
912.862	15793
912.976	15892
913.09	15686
913.204	15720
913.318	15781
913.431	15903
913.545	15899
913.659	15895
913.772	15698
913.886	15576
914	15519
914.113	15720
914.226	15751
914.34	15625
914.453	15485
914.566	15564
914.68	15473
914.793	15378
914.906	15214
915.019	15192
915.132	15150
915.245	15108
915.358	15184
915.47	15268
915.583	15131
915.696	15211
915.809	15272
915.921	15207
916.034	15112
916.146	15112
916.259	15009
916.371	15180
916.483	15192
916.595	15013
916.708	15005
916.82	15013
916.932	14979
917.044	15062
917.156	14902
917.268	14785
917.38	14826
917.491	14864
917.603	14872
917.715	14887
917.826	14895
917.938	14826
918.049	14686
918.161	14815
918.272	14910
918.384	14956
918.495	14746
918.606	14594
918.717	14674
918.828	14511
918.939	14625
919.05	14503
919.161	14610
919.272	14377
919.383	14434
919.494	14613
919.604	14887
919.715	14644
919.826	14560
919.936	14518
920.047	14617
920.157	14473
920.267	14746
920.378	14549
920.488	14488
920.598	14788
920.708	14963
920.818	14575
920.928	14655
921.038	14861
921.148	14788
921.258	14499
921.368	14419
921.477	14408
921.587	14271
921.697	14214
921.806	14339
921.916	14172
922.025	14024
922.134	13955
922.244	13909
922.353	13970
922.462	13822
922.571	13696
922.68	13533
922.789	13639
922.898	13670
923.007	13483
923.116	13636
923.224	13518
923.333	13548
923.442	13392
923.55	13301
923.659	13388
923.767	13518
923.876	13343
923.984	13331
924.092	13324
924.201	13293
924.309	13255
924.417	13285
924.525	13308
924.633	13190
924.741	14164
924.849	13057
924.956	13088
925.064	13000
925.172	12924
925.279	12958
925.387	12954
925.494	12939
925.602	13118
925.709	13000
925.816	12844
925.924	13012
926.031	13046
926.138	12897
926.245	12985
926.352	12760
926.459	12993
926.566	12920
926.673	12882
926.779	12749
926.886	12692
926.993	12582
927.099	12566
927.206	12559
927.312	12563
927.419	12585
927.525	12506
927.631	12582
927.737	12334
927.843	12388
927.95	12296
928.056	12407
928.162	12300
928.267	12429
928.373	12996
928.479	12448
928.585	12216
928.69	12315
928.796	12327
928.901	12258
929.007	12110
929.112	12220
929.218	12243
929.323	12079
929.428	12102
929.533	12171
929.638	11992
929.743	12072
929.848	12098
929.953	12011
930.058	11904
930.163	11828
930.267	11824
930.372	11950
930.477	11764
930.581	11927
930.685	11783
930.79	11642
930.894	11710
930.998	11596
931.103	11790
931.207	11345
931.311	11410
931.415	11273
931.519	11064
931.623	11037
