Data from test_V78500241_316.txt Node
Date: Fri Mar 25 15:12:03 CST 2022
User: usil
Spectrometer: V785-0024
Trigger mode: 0
Integration Time (sec): 4.000000E-1
Scans to average: 1
Nonlinearity correction enabled: false
Boxcar width: 0
Storing dark spectrum: false
XAxis mode: Wavelengths
Number of Pixels in Spectrum: 1024
>>>>>Begin Spectral Data<<<<<
801.071	28067
801.214	27911
801.356	27675
801.499	27743
801.641	27652
801.783	27663
801.926	27736
802.068	27618
802.211	27443
802.353	27378
802.496	27169
802.638	27180
802.78	27233
802.923	27123
803.065	27154
803.208	27135
803.35	27192
803.492	27230
803.635	27443
803.777	27287
803.919	27374
804.061	27595
804.204	27382
804.346	27336
804.488	27218
804.63	27226
804.773	27169
804.915	27298
805.057	27412
805.199	27332
805.341	27386
805.483	27542
805.626	27386
805.768	27203
805.91	27321
806.052	27466
806.194	27336
806.336	27492
806.478	27416
806.62	27386
806.762	27561
806.904	27755
807.046	27994
807.188	27914
807.33	27736
807.472	27880
807.614	27770
807.756	27770
807.898	27633
808.04	27644
808.182	27538
808.324	27656
808.465	27606
808.607	27797
808.749	28013
808.891	28006
809.033	28333
809.174	28090
809.316	27972
809.458	27979
809.6	28067
809.741	28226
809.883	28029
810.025	28249
810.166	28185
810.308	28211
810.45	28265
810.591	28272
810.733	27975
810.875	28070
811.016	27785
811.158	27998
811.299	28051
811.441	28177
811.582	28230
811.724	28032
811.865	28010
812.007	28040
812.148	27964
812.29	28090
812.431	28276
812.573	28333
812.714	28489
812.855	28519
812.997	28664
813.138	28755
813.279	28531
813.421	28516
813.562	28497
813.703	28417
813.845	28253
813.986	28048
814.127	27823
814.268	27705
814.41	27637
814.551	27663
814.692	27660
814.833	27492
814.974	27709
815.115	27724
815.256	27469
815.397	27431
815.539	27568
815.68	27583
815.821	27439
815.962	27595
816.103	27348
816.244	27283
816.385	27127
816.526	27165
816.666	26998
816.807	26880
816.948	27043
817.089	26975
817.23	27093
817.371	26960
817.512	26811
817.653	26792
817.793	27043
817.934	26834
818.075	26876
818.216	27001
818.356	26750
818.497	26705
818.638	26564
818.778	26575
818.919	26587
819.06	26651
819.2	26743
819.341	26967
819.481	26788
819.622	26891
819.762	27028
819.903	27093
820.043	26956
820.184	27013
820.324	26891
820.465	27058
820.605	27070
820.746	27001
820.886	26712
821.026	26910
821.167	26910
821.307	26838
821.447	26891
821.588	26693
821.728	26727
821.868	26381
822.008	26374
822.149	26339
822.289	26450
822.429	26142
822.569	26005
822.709	26039
822.849	25719
822.99	25856
823.13	25818
823.27	25940
823.41	25491
823.55	25571
823.69	25723
823.83	25601
823.97	25510
824.11	25354
824.25	25445
824.389	25426
824.529	25544
824.669	25335
824.809	25578
824.949	25632
825.089	25514
825.228	25472
825.368	25324
825.508	25274
825.648	25354
825.787	25358
825.927	25308
826.067	25194
826.206	25122
826.346	25324
826.485	25411
826.625	25266
826.765	25559
826.904	25327
827.044	25019
827.183	25141
827.323	25023
827.462	24996
827.601	24943
827.741	25046
827.88	25053
828.02	24844
828.159	24863
828.298	24973
828.437	25057
828.577	25023
828.716	25099
828.855	24992
828.994	24627
829.134	24601
829.273	24661
829.412	24578
829.551	24616
829.69	24646
829.829	24517
829.968	24703
830.107	24692
830.246	24688
830.385	24574
830.524	24555
830.663	24475
830.802	24494
830.941	24273
831.08	24194
831.219	24350
831.357	24365
831.496	24563
831.635	24235
831.774	24171
831.913	24136
832.051	24095
832.19	24144
832.329	24232
832.467	23973
832.606	23946
832.744	23961
832.883	23893
833.022	23851
833.16	23988
833.299	23916
833.437	23885
833.576	23977
833.714	24045
833.852	24136
833.991	24041
834.129	24133
834.267	24053
834.406	24049
834.544	23954
834.682	23988
834.821	23901
834.959	24133
835.097	24011
835.235	23927
835.373	23942
835.511	23946
835.65	23843
835.788	23836
835.926	23817
836.064	23592
836.202	23748
836.34	23817
836.478	23855
836.615	23805
836.753	23851
836.891	23882
837.029	23821
837.167	23897
837.305	23600
837.443	23805
837.58	23634
837.718	23840
837.856	23741
837.993	23604
838.131	23718
838.269	23558
838.406	23558
838.544	23410
838.681	23307
838.819	23223
838.956	23086
839.094	23098
839.231	23220
839.369	23311
839.506	23531
839.643	23490
839.781	23174
839.918	23121
840.055	22976
840.193	23083
840.33	22900
840.467	23113
840.604	22991
840.742	23364
840.879	22850
841.016	23022
841.153	22892
841.29	23121
841.427	23037
841.564	22961
841.701	23037
841.838	22957
841.975	22896
842.112	22934
842.249	22736
842.385	22858
842.522	22972
842.659	22771
842.796	22858
842.933	22771
843.069	22790
843.206	22790
843.343	22877
843.479	22706
843.616	22713
843.752	22504
843.889	22592
844.025	22847
844.162	22557
844.298	22618
844.435	22538
844.571	22497
844.708	22660
844.844	22778
844.98	22691
845.117	22649
845.253	22599
845.389	22413
845.525	22421
845.661	22462
845.798	22230
845.934	22318
846.07	22238
846.206	22131
846.342	22398
846.478	22242
846.614	22044
846.75	21956
846.886	22013
847.022	22067
847.158	22097
847.294	22006
847.429	22215
847.565	21964
847.701	22177
847.837	21690
847.972	21663
848.108	21709
848.244	21717
848.379	21690
848.515	21538
848.65	21500
848.786	21644
848.921	21614
849.057	21675
849.192	21572
849.328	21675
849.463	21618
849.598	21606
849.734	21500
849.869	21351
850.004	21268
850.14	21313
850.275	21473
850.41	21119
850.545	21173
850.68	21469
850.815	21359
850.95	21405
851.085	21610
851.22	21386
851.355	21332
851.49	21393
851.625	21332
851.76	21359
851.895	21150
852.03	21192
852.165	21321
852.299	21317
852.434	21549
852.569	21393
852.703	21325
852.838	21355
852.973	21439
853.107	21344
853.242	21310
853.376	21169
853.511	20872
853.645	21131
853.78	21142
853.914	21157
854.048	21142
854.183	21138
854.317	21222
854.451	21298
854.585	21116
854.72	21180
854.854	21237
854.988	21062
855.122	21119
855.256	20990
855.39	21169
855.524	21108
855.658	21169
855.792	21047
855.926	21283
856.06	21233
856.194	21370
856.327	20982
856.461	21203
856.595	21180
856.729	21199
856.862	21287
856.996	21173
857.13	21211
857.263	21283
857.397	21169
857.53	21165
857.664	21142
857.797	21112
857.931	21089
858.064	21119
858.197	21389
858.331	21138
858.464	21100
858.597	21093
858.731	21055
858.864	20994
858.997	21127
859.13	21150
859.263	21112
859.396	21169
859.529	21146
859.662	21112
859.795	21028
859.928	21135
860.061	21287
860.194	21256
860.327	21173
860.46	21135
860.592	21157
860.725	21222
860.858	21317
860.99	21055
861.123	21032
861.256	20963
861.388	21180
861.521	21743
861.653	21001
861.786	20899
861.918	21017
862.05	21043
862.183	21108
862.315	21051
862.447	21169
862.58	20986
862.712	20899
862.844	20823
862.976	21043
863.108	20914
863.24	21249
863.372	20731
863.504	20712
863.636	20823
863.768	20853
863.9	20868
864.032	20617
864.164	20724
864.296	20720
864.428	20967
864.559	20895
864.691	20887
864.823	20864
864.954	20819
865.086	20804
865.217	20845
865.349	20705
865.48	20765
865.612	20708
865.743	20804
865.875	20773
866.006	20648
866.137	20735
866.269	20758
866.4	20644
866.531	20613
866.662	20594
866.793	20686
866.924	20575
867.055	20655
867.186	20659
867.317	20765
867.448	20461
867.579	20552
867.71	20549
867.841	20644
867.972	20674
868.103	20613
868.233	20560
868.364	20514
868.495	20606
868.625	20902
868.756	20876
868.886	20937
869.017	20902
869.147	21039
869.278	20868
869.408	20891
869.539	20861
869.669	20960
869.799	21024
869.929	21062
870.06	21032
870.19	21157
870.32	21157
870.45	21252
870.58	21264
870.71	21313
870.84	21401
870.97	21203
871.1	21389
871.23	21450
871.36	21370
871.489	21378
871.619	21424
871.749	21469
871.879	21549
872.008	21580
872.138	21439
872.267	21454
872.397	21431
872.526	21412
872.656	21298
872.785	21325
872.915	21526
873.044	21652
873.173	21511
873.303	21603
873.432	21603
873.561	21549
873.69	21580
873.819	21526
873.948	21625
874.077	21485
874.206	21439
874.335	21542
874.464	21622
874.593	21766
874.722	21724
874.851	21873
874.979	21751
875.108	21831
875.237	21785
875.365	21701
875.494	21671
875.623	21709
875.751	21671
875.88	21736
876.008	21827
876.136	21850
876.265	22246
876.393	22291
876.521	22135
876.65	22154
876.778	22192
876.906	22029
877.034	22082
877.162	22185
877.29	21979
877.418	22124
877.546	22173
877.674	22101
877.802	22097
877.93	22139
878.058	22067
878.185	21949
878.313	22128
878.441	21979
878.568	21926
878.696	21983
878.824	22059
878.951	22223
879.079	22249
879.206	22402
879.333	22211
879.461	22055
879.588	22284
879.715	22363
879.842	22440
879.97	22154
880.097	21937
880.224	21937
880.351	21903
880.478	22059
880.605	21903
880.732	21732
880.859	22055
880.986	21873
881.112	21865
881.239	21781
881.366	21564
881.493	21633
881.619	21481
881.746	21549
881.872	21428
881.999	21344
882.125	21336
882.252	21561
882.378	21458
882.505	21583
882.631	21302
882.757	21207
882.883	21298
883.01	21180
883.136	21112
883.262	21138
883.388	20933
883.514	21233
883.64	21161
883.766	21150
883.892	20967
884.018	21005
884.143	21062
884.269	21192
884.395	20967
884.52	20819
884.646	20754
884.772	20830
884.897	20758
885.023	20944
885.148	20857
885.274	21017
885.399	20899
885.524	20785
885.65	20887
885.775	20800
885.9	20842
886.025	20887
886.15	20883
886.275	20773
886.4	20670
886.525	20838
886.65	20663
886.775	20785
886.9	20883
887.025	21028
887.149	20845
887.274	20629
887.399	20708
887.523	20678
887.648	20629
887.773	20465
887.897	20781
888.021	20640
888.146	20473
888.27	20758
888.395	20758
888.519	20613
888.643	20651
888.767	20739
888.891	20564
889.015	20473
889.139	20454
889.263	20381
889.387	20488
889.511	20511
889.635	20625
889.759	20351
889.883	20347
890.006	20423
890.13	20511
890.254	20362
890.377	20438
890.501	20153
890.624	20138
890.748	20195
890.871	20035
890.995	19818
891.118	19932
891.241	19902
891.364	20016
891.488	20103
891.611	19898
891.734	20005
891.857	20020
891.98	20027
892.103	19978
892.226	20035
892.349	19963
892.471	19715
892.594	19871
892.717	19928
892.839	19906
892.962	19795
893.085	19986
893.207	19868
893.33	19689
893.452	19788
893.575	19856
893.697	19841
893.819	20043
893.941	20138
894.064	19982
894.186	19856
894.308	19788
894.43	19982
894.552	20024
894.674	19849
894.796	19807
894.918	19913
895.04	19849
895.161	19906
895.283	19906
895.405	19822
895.526	19883
895.648	19833
895.769	19879
895.891	19849
896.012	19940
896.134	19936
896.255	19860
896.376	19837
896.498	19803
896.619	19989
896.74	19921
896.861	19982
896.982	20180
897.103	20438
897.224	20107
897.345	20153
897.466	19982
897.587	20183
897.708	20210
897.828	20187
897.949	20107
898.07	19947
898.19	19989
898.311	20191
898.431	19959
898.552	20176
898.672	20092
898.792	20119
898.913	20084
899.033	20027
899.153	19925
899.273	19750
899.393	19883
899.513	19830
899.633	19814
899.753	19887
899.873	19875
899.993	19913
900.113	19757
900.232	19864
900.352	19700
900.472	19765
900.591	19651
900.711	19597
900.83	19582
900.95	19681
901.069	19632
901.189	19525
901.308	19304
901.427	19133
901.546	19129
901.665	19255
901.784	19259
901.904	19156
902.023	19027
902.141	18787
902.26	18658
902.379	18760
902.498	18696
902.617	18654
902.735	18700
902.854	18665
902.973	18593
903.091	18380
903.21	18414
903.328	18319
903.446	18281
903.565	18121
903.683	18239
903.801	18064
903.919	18076
904.038	18197
904.156	17965
904.274	17999
904.392	17950
904.51	17908
904.627	17927
904.745	18045
904.863	18072
904.981	17733
905.098	17611
905.216	17672
905.334	17668
905.451	17729
905.569	17722
905.686	17722
905.803	17562
905.921	17414
906.038	17611
906.155	17440
906.272	17254
906.389	17429
906.506	17189
906.623	17197
906.74	17246
906.857	17094
906.974	17067
907.091	17102
907.208	17273
907.324	17254
907.441	17052
907.557	16904
907.674	16854
907.79	16843
907.907	16816
908.023	16938
908.139	16942
908.256	16850
908.372	16771
908.488	16831
908.604	16565
908.72	16546
908.836	16607
908.952	16630
909.068	16573
909.184	16755
909.3	16675
909.415	16561
909.531	16649
909.647	16234
909.762	16352
909.878	16344
909.993	16238
910.108	16246
910.224	16154
910.339	16219
910.454	16166
910.57	16086
910.685	16013
910.8	16242
910.915	16276
911.03	16086
911.145	15873
911.259	15937
911.374	15922
911.489	15835
911.604	15804
911.718	15671
911.833	15671
911.947	15473
912.062	15458
912.176	15515
912.291	15690
912.405	15507
912.519	15728
912.633	15762
912.748	15690
912.862	15701
912.976	15454
913.09	15245
913.204	15462
913.318	15507
913.431	15488
913.545	15507
913.659	15469
913.772	15344
913.886	15302
914	15237
914.113	15207
914.226	15389
914.34	15408
914.453	15161
914.566	15408
914.68	15135
914.793	15108
914.906	14902
915.019	14823
915.132	14880
915.245	14807
915.358	14960
915.47	14857
915.583	14876
915.696	14925
915.809	14975
915.921	15005
916.034	14807
916.146	14743
916.259	14804
916.371	14880
916.483	14739
916.595	14701
916.708	14773
916.82	14750
916.932	14705
917.044	14571
917.156	14606
917.268	14507
917.38	14503
917.491	14556
917.603	14587
917.715	14598
917.826	14610
917.938	14465
918.049	14377
918.161	14480
918.272	14598
918.384	14560
918.495	14393
918.606	14351
918.717	14233
918.828	14355
918.939	14263
919.05	14240
919.161	14248
919.272	14172
919.383	14153
919.494	14419
919.604	14469
919.715	14282
919.826	14172
919.936	14256
920.047	14286
920.157	14290
920.267	14457
920.378	14229
920.488	14271
920.598	14465
920.708	14625
920.818	14374
920.928	14347
921.038	14552
921.148	14446
921.258	14145
921.368	14161
921.477	13997
921.587	13967
921.697	13898
921.806	14005
921.916	13852
922.025	13674
922.134	13662
922.244	13590
922.353	13620
922.462	13480
922.571	13506
922.68	13312
922.789	13293
922.898	13282
923.007	13247
923.116	13240
923.224	13259
923.333	13175
923.442	13206
923.55	13164
923.659	13160
923.767	13137
923.876	13084
923.984	13069
924.092	12954
924.201	13000
924.309	13019
924.417	13004
924.525	12985
924.633	12977
924.741	13609
924.849	12779
924.956	12829
925.064	12642
925.172	12711
925.279	12658
925.387	12764
925.494	12673
925.602	12779
925.709	12798
925.816	12604
925.924	12684
926.031	12639
926.138	12646
926.245	12688
926.352	12525
926.459	12677
926.566	12749
926.673	12604
926.779	12403
926.886	12506
926.993	12273
927.099	12334
927.206	12258
927.312	12266
927.419	12311
927.525	12213
927.631	12308
927.737	12140
927.843	12060
927.95	12030
928.056	12129
928.162	12087
928.267	12186
928.373	12768
928.479	12152
928.585	11988
928.69	12087
928.796	12007
928.901	11950
929.007	11737
929.112	11885
929.218	11927
929.323	11893
929.428	11775
929.533	11977
929.638	11733
929.743	11733
929.848	11790
929.953	11756
930.058	11638
930.163	11532
930.267	11615
930.372	11741
930.477	11520
930.581	11813
930.685	11589
930.79	11360
930.894	11429
930.998	11349
931.103	11497
931.207	11159
931.311	11136
931.415	11022
931.519	10858
931.623	10892
