Data from test_V78500241_1744.txt Node
Date: Fri Mar 25 15:22:00 CST 2022
User: usil
Spectrometer: V785-0024
Trigger mode: 0
Integration Time (sec): 4.000000E-1
Scans to average: 1
Nonlinearity correction enabled: false
Boxcar width: 0
Storing dark spectrum: false
XAxis mode: Wavelengths
Number of Pixels in Spectrum: 1024
>>>>>Begin Spectral Data<<<<<
801.071	27739
801.214	27679
801.356	27595
801.499	27458
801.641	27363
801.783	27256
801.926	27279
802.068	27275
802.211	27214
802.353	27138
802.496	26982
802.638	26990
802.78	26845
802.923	26914
803.065	26765
803.208	26842
803.35	26933
803.492	27017
803.635	27096
803.777	26891
803.919	27093
804.061	27557
804.204	27275
804.346	27093
804.488	27005
804.63	27195
804.773	26918
804.915	27127
805.057	27237
805.199	27096
805.341	27176
805.483	27291
805.626	27142
805.768	27104
805.91	27359
806.052	27275
806.194	27222
806.336	27393
806.478	27306
806.62	27359
806.762	27500
806.904	27519
807.046	27819
807.188	27667
807.33	27724
807.472	27736
807.614	27515
807.756	27572
807.898	27545
808.04	27545
808.182	27618
808.324	27519
808.465	27660
808.607	27823
808.749	27987
808.891	27960
809.033	27998
809.174	27907
809.316	27667
809.458	27926
809.6	27835
809.741	27994
809.883	28120
810.025	28120
810.166	28226
810.308	28230
810.45	28063
810.591	28120
810.733	27873
810.875	27816
811.016	27762
811.158	27751
811.299	27994
811.441	28166
811.582	28154
811.724	27922
811.865	27797
812.007	27895
812.148	27934
812.29	27846
812.431	27979
812.573	28124
812.714	28310
812.855	28398
812.997	28447
813.138	28637
813.279	28546
813.421	28238
813.562	28348
813.703	28234
813.845	28177
813.986	28032
814.127	27838
814.268	27469
814.41	27564
814.551	27644
814.692	27564
814.833	27625
814.974	27481
815.115	27595
815.256	27542
815.397	27507
815.539	27542
815.68	27294
815.821	27306
815.962	27325
816.103	27355
816.244	27275
816.385	27138
816.526	27100
816.666	27036
816.807	26819
816.948	27024
817.089	26944
817.23	26872
817.371	26948
817.512	26944
817.653	26811
817.793	26819
817.934	26788
818.075	26807
818.216	26845
818.356	26849
818.497	26670
818.638	26575
818.778	26678
818.919	26507
819.06	26731
819.2	26670
819.341	26788
819.481	26785
819.622	27062
819.762	27230
819.903	27245
820.043	27009
820.184	27032
820.324	27047
820.465	26971
820.605	26963
820.746	26963
820.886	26864
821.026	26891
821.167	26971
821.307	27089
821.447	26876
821.588	26636
821.728	26716
821.868	26484
822.008	26389
822.149	26301
822.289	26328
822.429	25993
822.569	25944
822.709	25959
822.849	25849
822.99	25906
823.13	25807
823.27	25742
823.41	25628
823.55	25544
823.69	25708
823.83	25742
823.97	25753
824.11	25362
824.25	25358
824.389	25605
824.529	25571
824.669	25575
824.809	25677
824.949	25540
825.089	25670
825.228	25483
825.368	25228
825.508	25358
825.648	25251
825.787	25514
825.927	25457
826.067	25377
826.206	25362
826.346	25426
826.485	25320
826.625	25377
826.765	25567
826.904	25457
827.044	25050
827.183	25255
827.323	24992
827.462	25160
827.601	25091
827.741	24977
827.88	25099
828.02	24894
828.159	25004
828.298	24989
828.437	25217
828.577	25042
828.716	25148
828.855	25042
828.994	24722
829.134	24814
829.273	24833
829.412	24722
829.551	24631
829.69	24837
829.829	24688
829.968	24837
830.107	24802
830.246	24848
830.385	24772
830.524	24768
830.663	24544
830.802	24513
830.941	24410
831.08	24486
831.219	24502
831.357	24426
831.496	24719
831.635	24388
831.774	24441
831.913	24327
832.051	24304
832.19	24281
832.329	24296
832.467	24163
832.606	23999
832.744	24057
832.883	23969
833.022	24053
833.16	24224
833.299	24319
833.437	23992
833.576	24201
833.714	24308
833.852	24281
833.991	24266
834.129	24224
834.267	24258
834.406	24186
834.544	24254
834.682	24152
834.821	24114
834.959	24327
835.097	24018
835.235	24155
835.373	24174
835.511	24140
835.65	24087
835.788	23992
835.926	23843
836.064	23809
836.202	23889
836.34	24117
836.478	24057
836.615	24038
836.753	23969
836.891	23980
837.029	23927
837.167	24026
837.305	23977
837.443	23942
837.58	23767
837.718	23912
837.856	23923
837.993	23760
838.131	23859
838.269	23817
838.406	23824
838.544	23668
838.681	23509
838.819	23349
838.956	23288
839.094	23280
839.231	23299
839.369	23535
839.506	23722
839.643	23577
839.781	23433
839.918	23277
840.055	23337
840.193	23337
840.33	23277
840.467	23273
840.604	23311
840.742	23497
840.879	23121
841.016	23227
841.153	23025
841.29	23402
841.427	23200
841.564	23288
841.701	23296
841.838	23170
841.975	23083
842.112	23151
842.249	22927
842.385	22812
842.522	23223
842.659	22980
842.796	23075
842.933	22980
843.069	22877
843.206	22908
843.343	23136
843.479	22991
843.616	23033
843.752	22835
843.889	22702
844.025	22850
844.162	22767
844.298	22904
844.435	22854
844.571	22698
844.708	22812
844.844	22835
844.98	22984
845.117	22763
845.253	22713
845.389	22565
845.525	22679
845.661	22519
845.798	22455
845.934	22413
846.07	22485
846.206	22493
846.342	22554
846.478	22535
846.614	22402
846.75	22226
846.886	22185
847.022	22325
847.158	22234
847.294	22207
847.429	22325
847.565	22116
847.701	22542
847.837	21937
847.972	21960
848.108	22059
848.244	21979
848.379	21873
848.515	21720
848.65	21873
848.786	21804
848.921	21759
849.057	22063
849.192	21903
849.328	21827
849.463	21915
849.598	21816
849.734	21717
849.869	21629
850.004	21595
850.14	21572
850.275	21557
850.41	21424
850.545	21500
850.68	21583
850.815	21576
850.95	21500
851.085	21781
851.22	21648
851.355	21572
851.49	21622
851.625	21534
851.76	21561
851.895	21450
852.03	21458
852.165	21549
852.299	21557
852.434	21671
852.569	21633
852.703	21553
852.838	21641
852.973	21622
853.107	21717
853.242	21553
853.376	21408
853.511	21275
853.645	21447
853.78	21515
853.914	21572
854.048	21393
854.183	21344
854.317	21561
854.451	21557
854.585	21340
854.72	21378
854.854	21408
854.988	21310
855.122	21348
855.256	21252
855.39	21287
855.524	21397
855.658	21416
855.792	21310
855.926	21450
856.06	21420
856.194	21420
856.327	21443
856.461	21386
856.595	21298
856.729	21466
856.862	21473
856.996	21500
857.13	21443
857.263	21370
857.397	21545
857.53	21329
857.664	21450
857.797	21477
857.931	21431
858.064	21431
858.197	21408
858.331	21401
858.464	21378
858.597	21119
858.731	21397
858.864	21370
858.997	21294
859.13	21458
859.263	21336
859.396	21378
859.529	21332
859.662	21207
859.795	21473
859.928	21340
860.061	21572
860.194	21599
860.327	21412
860.46	21428
860.592	21473
860.725	21443
860.858	21545
860.99	21454
861.123	21272
861.256	21211
861.388	21408
861.521	22002
861.653	21249
861.786	21180
861.918	21287
862.05	21313
862.183	21237
862.315	21230
862.447	21450
862.58	21260
862.712	21188
862.844	21005
862.976	21138
863.108	21195
863.24	21526
863.372	21116
863.504	21062
863.636	21058
863.768	21154
863.9	21093
864.032	21001
864.164	20998
864.296	21047
864.428	21165
864.559	21138
864.691	21173
864.823	21138
864.954	21074
865.086	21096
865.217	21135
865.349	20941
865.48	20986
865.612	20963
865.743	21123
865.875	21028
866.006	20868
866.137	20990
866.269	20994
866.4	20948
866.531	20971
866.662	20849
866.793	20948
866.924	20899
867.055	21005
867.186	20990
867.317	20929
867.448	20823
867.579	21036
867.71	20762
867.841	20811
867.972	20933
868.103	20899
868.233	20918
868.364	20899
868.495	21032
868.625	21123
868.756	21245
868.886	21001
869.017	21047
869.147	21336
869.278	21211
869.408	21157
869.539	21108
869.669	21230
869.799	21321
869.929	21245
870.06	21294
870.19	21473
870.32	21329
870.45	21401
870.58	21424
870.71	21633
870.84	21583
870.97	21610
871.1	21663
871.23	21736
871.36	21739
871.489	21667
871.619	21751
871.749	21732
871.879	21876
872.008	21800
872.138	21728
872.267	21797
872.397	21564
872.526	21557
872.656	21496
872.785	21610
872.915	21800
873.044	21827
873.173	21793
873.303	21823
873.432	21808
873.561	21762
873.69	21846
873.819	21797
873.948	21812
874.077	21724
874.206	21804
874.335	21823
874.464	21911
874.593	22032
874.722	22010
874.851	21991
874.979	22025
875.108	22070
875.237	21899
875.365	21991
875.494	21918
875.623	22112
875.751	22090
875.88	22124
876.008	22131
876.136	22192
876.265	22386
876.393	22538
876.521	22485
876.65	22519
876.778	22474
876.906	22299
877.034	22303
877.162	22291
877.29	22249
877.418	22261
877.546	22299
877.674	22253
877.802	22375
877.93	22314
878.058	22226
878.185	22223
878.313	22322
878.441	22344
878.568	22101
878.696	22249
878.824	22424
878.951	22402
879.079	22379
879.206	22790
879.333	22546
879.461	22447
879.588	22348
879.715	22462
879.842	22538
879.97	22527
880.097	22082
880.224	22158
880.351	22314
880.478	22154
880.605	22139
880.732	22204
880.859	22375
880.986	22238
881.112	22215
881.239	22051
881.366	22006
881.493	21778
881.619	21770
881.746	21698
881.872	21812
881.999	21823
882.125	21686
882.252	21774
882.378	21705
882.505	21926
882.631	21603
882.757	21549
882.883	21545
883.01	21504
883.136	21511
883.262	21279
883.388	21272
883.514	21378
883.64	21523
883.766	21412
883.892	21260
884.018	21294
884.143	21374
884.269	21549
884.395	21192
884.52	21161
884.646	21123
884.772	21093
884.897	20971
885.023	21081
885.148	21135
885.274	21218
885.399	21245
885.524	21066
885.65	21146
885.775	21062
885.9	21157
886.025	21222
886.15	21184
886.275	21150
886.4	20944
886.525	21135
886.65	21070
886.775	21028
886.9	21260
887.025	21306
887.149	21058
887.274	21017
887.399	20971
887.523	20887
887.648	20876
887.773	20834
887.897	20967
888.021	20937
888.146	20872
888.27	20986
888.395	21013
888.519	21005
888.643	20941
888.767	20986
888.891	20758
889.015	20705
889.139	20777
889.263	20651
889.387	20788
889.511	20906
889.635	20754
889.759	20583
889.883	20697
890.006	20712
890.13	20758
890.254	20644
890.377	20522
890.501	20556
890.624	20431
890.748	20507
890.871	20389
890.995	20218
891.118	20317
891.241	20233
891.364	20290
891.488	20404
891.611	20278
891.734	20199
891.857	20214
891.98	20298
892.103	20187
892.226	20237
892.349	20115
892.471	20081
892.594	20126
892.717	20126
892.839	20084
892.962	20073
893.085	20172
893.207	20157
893.33	20020
893.452	19940
893.575	20172
893.697	20195
893.819	20233
893.941	20328
894.064	20259
894.186	20107
894.308	20119
894.43	20100
894.552	20339
894.674	20210
894.796	20012
894.918	20081
895.04	20130
895.161	20233
895.283	20259
895.405	19970
895.526	20229
895.648	20210
895.769	20157
895.891	20084
896.012	20187
896.134	20069
896.255	20199
896.376	20122
896.498	20134
896.619	20259
896.74	20149
896.861	20138
896.982	20469
897.103	20651
897.224	20457
897.345	20355
897.466	20438
897.587	20275
897.708	20381
897.828	20347
897.949	20286
898.07	20187
898.19	20256
898.311	20423
898.431	20362
898.552	20431
898.672	20438
898.792	20522
898.913	20370
899.033	20221
899.153	20206
899.273	20020
899.393	20168
899.513	20065
899.633	20180
899.753	20084
899.873	20088
899.993	20119
900.113	20005
900.232	20115
900.352	20077
900.472	19982
900.591	19769
900.711	19940
900.83	19799
900.95	19997
901.069	19963
901.189	19826
901.308	19529
901.427	19411
901.546	19449
901.665	19460
901.784	19502
901.904	19358
902.023	19293
902.141	19141
902.26	19012
902.379	19012
902.498	18943
902.617	18791
902.735	19069
902.854	19038
902.973	19012
903.091	18681
903.21	18589
903.328	18635
903.446	18582
903.565	18414
903.683	18410
903.801	18380
903.919	18429
904.038	18414
904.156	18228
904.274	18308
904.392	18136
904.51	18136
904.627	18186
904.745	18247
904.863	18281
904.981	18007
905.098	17847
905.216	17912
905.334	17954
905.451	17832
905.569	17813
905.686	17916
905.803	17889
905.921	17619
906.038	17764
906.155	17638
906.272	17638
906.389	17634
906.506	17459
906.623	17490
906.74	17417
906.857	17326
906.974	17436
907.091	17467
907.208	17547
907.324	17379
907.441	17360
907.557	17250
907.674	17105
907.79	17159
907.907	17261
908.023	17216
908.139	17166
908.256	17060
908.372	16987
908.488	17098
908.604	16892
908.72	16793
908.836	17003
908.952	16889
909.068	16896
909.184	16987
909.3	16793
909.415	16881
909.531	16835
909.647	16569
909.762	16592
909.878	16653
909.993	16550
910.108	16558
910.224	16531
910.339	16550
910.454	16455
910.57	16485
910.685	16329
910.8	16607
910.915	16599
911.03	16348
911.145	16219
911.259	16223
911.374	16261
911.489	16025
911.604	16051
911.718	15953
911.833	15972
911.947	15804
912.062	15823
912.176	15945
912.291	15926
912.405	15816
912.519	16086
912.633	16112
912.748	15953
912.862	15854
912.976	15800
913.09	15633
913.204	15667
913.318	15789
913.431	15854
913.545	15781
913.659	15823
913.772	15675
913.886	15603
914	15515
914.113	15679
914.226	15728
914.34	15580
914.453	15370
914.566	15504
914.68	15382
914.793	15374
914.906	15173
915.019	15070
915.132	15058
915.245	15070
915.358	15195
915.47	15150
915.583	15180
915.696	15116
915.809	15097
915.921	15154
916.034	15013
916.146	15074
916.259	15051
916.371	15142
916.483	15116
916.595	14952
916.708	14998
916.82	14929
916.932	14937
917.044	14948
917.156	14826
917.268	14823
917.38	14823
917.491	14697
917.603	14765
917.715	14765
917.826	14788
917.938	14765
918.049	14613
918.161	14739
918.272	14963
918.384	14796
918.495	14693
918.606	14530
918.717	14579
918.828	14556
918.939	14488
919.05	14503
919.161	14621
919.272	14267
919.383	14393
919.494	14636
919.604	14708
919.715	14522
919.826	14469
919.936	14484
920.047	14659
920.157	14465
920.267	14689
920.378	14568
920.488	14480
920.598	14705
920.708	14739
920.818	14625
920.928	14552
921.038	14720
921.148	14705
921.258	14450
921.368	14396
921.477	14301
921.587	14286
921.697	14134
921.806	14214
921.916	14115
922.025	13887
922.134	13864
922.244	13871
922.353	13909
922.462	13753
922.571	13693
922.68	13582
922.789	13468
922.898	13590
923.007	13548
923.116	13506
923.224	13521
923.333	13468
923.442	13373
923.55	13335
923.659	13396
923.767	13464
923.876	13266
923.984	13362
924.092	13255
924.201	13324
924.309	13289
924.417	13225
924.525	13301
924.633	13160
924.741	13963
924.849	13023
924.956	13183
925.064	12973
925.172	12981
925.279	12890
925.387	12939
925.494	12913
925.602	13012
925.709	13008
925.816	12798
925.924	12859
926.031	12966
926.138	12875
926.245	13015
926.352	12783
926.459	13042
926.566	12981
926.673	12844
926.779	12677
926.886	12654
926.993	12544
927.099	12555
927.206	12475
927.312	12422
927.419	12536
927.525	12528
927.631	12525
927.737	12452
927.843	12353
927.95	12292
928.056	12330
928.162	12391
928.267	12319
928.373	12920
928.479	12407
928.585	12262
928.69	12281
928.796	12258
928.901	12186
929.007	12026
929.112	12232
929.218	12182
929.323	12155
929.428	12072
929.533	12216
929.638	11965
929.743	12068
929.848	12053
929.953	11916
930.058	11931
930.163	11699
930.267	11748
930.372	11866
930.477	11699
930.581	11984
930.685	11741
930.79	11627
930.894	11691
930.998	11611
931.103	11733
931.207	11376
931.311	11288
931.415	11239
931.519	11075
931.623	11025
