Data from test_V78500241_1425.txt Node
Date: Fri Mar 25 15:19:46 CST 2022
User: usil
Spectrometer: V785-0024
Trigger mode: 0
Integration Time (sec): 4.000000E-1
Scans to average: 1
Nonlinearity correction enabled: false
Boxcar width: 0
Storing dark spectrum: false
XAxis mode: Wavelengths
Number of Pixels in Spectrum: 1024
>>>>>Begin Spectral Data<<<<<
801.071	27934
801.214	27922
801.356	27580
801.499	27603
801.641	27447
801.783	27488
801.926	27542
802.068	27553
802.211	27614
802.353	27466
802.496	27211
802.638	27157
802.78	27138
802.923	27199
803.065	27146
803.208	27176
803.35	27188
803.492	27351
803.635	27195
803.777	27294
803.919	27374
804.061	27641
804.204	27580
804.346	27291
804.488	27313
804.63	27367
804.773	27325
804.915	27340
805.057	27576
805.199	27370
805.341	27572
805.483	27542
805.626	27477
805.768	27344
805.91	27507
806.052	27549
806.194	27545
806.336	27599
806.478	27660
806.62	27701
806.762	27656
806.904	27804
807.046	28059
807.188	28021
807.33	27884
807.472	27914
807.614	27854
807.756	27907
807.898	27823
808.04	27660
808.182	27816
808.324	27880
808.465	27918
808.607	28025
808.749	28112
808.891	28242
809.033	28333
809.174	28207
809.316	28185
809.458	28188
809.6	28105
809.741	28284
809.883	28329
810.025	28508
810.166	28485
810.308	28348
810.45	28375
810.591	28329
810.733	28192
810.875	28204
811.016	28147
811.158	28150
811.299	28223
811.441	28207
811.582	28398
811.724	28207
811.865	28074
812.007	28166
812.148	28101
812.29	28048
812.431	28375
812.573	28459
812.714	28656
812.855	28755
812.997	28820
813.138	28923
813.279	28911
813.421	28664
813.562	28763
813.703	28580
813.845	28310
813.986	28150
814.127	28025
814.268	27907
814.41	27979
814.551	27800
814.692	27926
814.833	27880
814.974	27785
815.115	27816
815.256	27804
815.397	27778
815.539	27705
815.68	27679
815.821	27641
815.962	27747
816.103	27595
816.244	27450
816.385	27408
816.526	27496
816.666	27222
816.807	27188
816.948	27230
817.089	27184
817.23	27237
817.371	27249
817.512	27195
817.653	27176
817.793	27135
817.934	27237
818.075	27127
818.216	27226
818.356	27154
818.497	27062
818.638	26880
818.778	26940
818.919	26887
819.06	26963
819.2	26990
819.341	27062
819.481	27112
819.622	27370
819.762	27507
819.903	27260
820.043	27157
820.184	27348
820.324	27283
820.465	27374
820.605	27283
820.746	27256
820.886	27131
821.026	27363
821.167	27131
821.307	27245
821.447	27119
821.588	26918
821.728	26910
821.868	26861
822.008	26686
822.149	26629
822.289	26617
822.429	26225
822.569	26408
822.709	26294
822.849	26100
822.99	26195
823.13	26054
823.27	26031
823.41	25875
823.55	25750
823.69	25993
823.83	25955
823.97	25849
824.11	25769
824.25	25719
824.389	25845
824.529	25830
824.669	25864
824.809	25818
824.949	25898
825.089	25837
825.228	25906
825.368	25746
825.508	25628
825.648	25689
825.787	25651
825.927	25670
826.067	25601
826.206	25693
826.346	25677
826.485	25693
826.625	25502
826.765	25807
826.904	25769
827.044	25438
827.183	25464
827.323	25350
827.462	25324
827.601	25510
827.741	25343
827.88	25434
828.02	25255
828.159	25331
828.298	25297
828.437	25430
828.577	25285
828.716	25434
828.855	25263
828.994	25110
829.134	24924
829.273	25103
829.412	25000
829.551	24981
829.69	24913
829.829	25042
829.968	25236
830.107	25152
830.246	25072
830.385	24951
830.524	24928
830.663	24928
830.802	24867
830.941	24544
831.08	24551
831.219	24730
831.357	24779
831.496	25015
831.635	24711
831.774	24578
831.913	24528
832.051	24528
832.19	24426
832.329	24479
832.467	24361
832.606	24323
832.744	24289
832.883	24228
833.022	24327
833.16	24338
833.299	24460
833.437	24327
833.576	24456
833.714	24505
833.852	24391
833.991	24479
834.129	24380
834.267	24551
834.406	24388
834.544	24395
834.682	24391
834.821	24304
834.959	24544
835.097	24220
835.235	24304
835.373	24346
835.511	24174
835.65	24235
835.788	24251
835.926	24064
836.064	24076
836.202	24057
836.34	24281
836.478	24258
836.615	24201
836.753	24247
836.891	24369
837.029	24285
837.167	24178
837.305	24235
837.443	24178
837.58	24072
837.718	24136
837.856	23942
837.993	24060
838.131	23969
838.269	24007
838.406	23954
838.544	23901
838.681	23661
838.819	23543
838.956	23539
839.094	23562
839.231	23493
839.369	23771
839.506	23958
839.643	23741
839.781	23577
839.918	23429
840.055	23448
840.193	23459
840.33	23307
840.467	23512
840.604	23551
840.742	23570
840.879	23197
841.016	23345
841.153	23254
841.29	23463
841.427	23368
841.564	23376
841.701	23356
841.838	23421
841.975	23414
842.112	23288
842.249	23235
842.385	23162
842.522	23391
842.659	23155
842.796	23136
842.933	23231
843.069	23162
843.206	23185
843.343	23345
843.479	23200
843.616	23124
843.752	22991
843.889	22984
844.025	23079
844.162	22820
844.298	22919
844.435	22995
844.571	22927
844.708	23113
844.844	23102
844.98	23147
845.117	23147
845.253	22854
845.389	22820
845.525	22820
845.661	22793
845.798	22603
845.934	22755
846.07	22653
846.206	22691
846.342	22828
846.478	22679
846.614	22447
846.75	22295
846.886	22421
847.022	22382
847.158	22481
847.294	22360
847.429	22618
847.565	22413
847.701	22599
847.837	22135
847.972	22158
848.108	22272
848.244	22238
848.379	21994
848.515	22013
848.65	22006
848.786	22063
848.921	22101
849.057	22059
849.192	22150
849.328	21998
849.463	22044
849.598	21888
849.734	21854
849.869	21789
850.004	21892
850.14	21812
850.275	21789
850.41	21720
850.545	21739
850.68	21819
850.815	21762
850.95	21774
851.085	21926
851.22	21922
851.355	21797
851.49	21770
851.625	21793
851.76	21762
851.895	21823
852.03	21637
852.165	21637
852.299	21800
852.434	21816
852.569	21800
852.703	21804
852.838	21781
852.973	21926
853.107	21831
853.242	21739
853.376	21564
853.511	21542
853.645	21511
853.78	21660
853.914	21526
854.048	21622
854.183	21515
854.317	21583
854.451	21778
854.585	21538
854.72	21595
854.854	21637
854.988	21492
855.122	21515
855.256	21481
855.39	21462
855.524	21564
855.658	21557
855.792	21583
855.926	21686
856.06	21637
856.194	21591
856.327	21595
856.461	21523
856.595	21641
856.729	21523
856.862	21690
856.996	21568
857.13	21720
857.263	21770
857.397	21675
857.53	21603
857.664	21686
857.797	21663
857.931	21625
858.064	21587
858.197	21633
858.331	21542
858.464	21469
858.597	21519
858.731	21618
858.864	21526
858.997	21599
859.13	21545
859.263	21641
859.396	21637
859.529	21595
859.662	21568
859.795	21641
859.928	21603
860.061	21633
860.194	21770
860.327	21519
860.46	21660
860.592	21682
860.725	21694
860.858	21686
860.99	21770
861.123	21488
861.256	21526
861.388	21443
861.521	22048
861.653	21530
861.786	21294
861.918	21363
862.05	21473
862.183	21553
862.315	21481
862.447	21519
862.58	21496
862.712	21408
862.844	21310
862.976	21416
863.108	21469
863.24	21618
863.372	21325
863.504	21367
863.636	21203
863.768	21306
863.9	21237
864.032	21226
864.164	21199
864.296	21393
864.428	21443
864.559	21340
864.691	21279
864.823	21374
864.954	21279
865.086	21272
865.217	21104
865.349	21146
865.48	21062
865.612	21176
865.743	21321
865.875	21245
866.006	21138
866.137	21161
866.269	21180
866.4	21047
866.531	21066
866.662	21176
866.793	21104
866.924	21066
867.055	21188
867.186	21127
867.317	20982
867.448	21089
867.579	21070
867.71	21070
867.841	20967
867.972	21100
868.103	21157
868.233	21051
868.364	21169
868.495	21294
868.625	21294
868.756	21523
868.886	21165
869.017	21283
869.147	21443
869.278	21492
869.408	21416
869.539	21340
869.669	21519
869.799	21428
869.929	21401
870.06	21496
870.19	21599
870.32	21709
870.45	21732
870.58	21720
870.71	21846
870.84	21808
870.97	21671
871.1	21823
871.23	21953
871.36	21949
871.489	21797
871.619	21865
871.749	21926
871.879	21994
872.008	22067
872.138	21998
872.267	21964
872.397	21766
872.526	21629
872.656	21785
872.785	21819
872.915	21979
873.044	21960
873.173	21789
873.303	22032
873.432	22086
873.561	22029
873.69	22032
873.819	21968
873.948	22124
874.077	21968
874.206	21895
874.335	21911
874.464	22097
874.593	22173
874.722	22055
874.851	22246
874.979	22291
875.108	22249
875.237	22246
875.365	21979
875.494	22181
875.623	22253
875.751	22116
875.88	22226
876.008	22238
876.136	22284
876.265	22592
876.393	22740
876.521	22637
876.65	22713
876.778	22649
876.906	22500
877.034	22497
877.162	22546
877.29	22512
877.418	22622
877.546	22538
877.674	22497
877.802	22523
877.93	22485
878.058	22447
878.185	22451
878.313	22493
878.441	22546
878.568	22329
878.696	22394
878.824	22550
878.951	22584
879.079	22767
879.206	22763
879.333	22637
879.461	22656
879.588	22519
879.715	22679
879.842	22641
879.97	22554
880.097	22337
880.224	22314
880.351	22443
880.478	22299
880.605	22409
880.732	22272
880.859	22592
880.986	22386
881.112	22379
881.239	22234
881.366	22147
881.493	21953
881.619	21934
881.746	22025
881.872	22017
881.999	21930
882.125	21827
882.252	21975
882.378	21892
882.505	22010
882.631	21762
882.757	21648
882.883	21568
883.01	21545
883.136	21534
883.262	21492
883.388	21492
883.514	21652
883.64	21599
883.766	21515
883.892	21382
884.018	21439
884.143	21580
884.269	21629
884.395	21264
884.52	21176
884.646	21306
884.772	21245
884.897	21142
885.023	21287
885.148	21310
885.274	21363
885.399	21351
885.524	21218
885.65	21249
885.775	21256
885.9	21222
886.025	21428
886.15	21237
886.275	21218
886.4	21245
886.525	21165
886.65	21233
886.775	21055
886.9	21226
887.025	21386
887.149	21173
887.274	21138
887.399	20967
887.523	20952
887.648	20937
887.773	20891
887.897	21119
888.021	21009
888.146	21062
888.27	21180
888.395	21104
888.519	21089
888.643	21058
888.767	21108
888.891	20899
889.015	20815
889.139	20902
889.263	20796
889.387	20834
889.511	21017
889.635	20990
889.759	20750
889.883	20769
890.006	20857
890.13	20838
890.254	20762
890.377	20712
890.501	20590
890.624	20488
890.748	20629
890.871	20450
890.995	20339
891.118	20461
891.241	20450
891.364	20450
891.488	20560
891.611	20446
891.734	20294
891.857	20408
891.98	20434
892.103	20473
892.226	20404
892.349	20183
892.471	20142
892.594	20157
892.717	20396
892.839	20396
892.962	20309
893.085	20248
893.207	20263
893.33	20168
893.452	20286
893.575	20343
893.697	20221
893.819	20473
893.941	20514
894.064	20370
894.186	20138
894.308	20145
894.43	20355
894.552	20469
894.674	20385
894.796	20320
894.918	20278
895.04	20180
895.161	20282
895.283	20324
895.405	20336
895.526	20214
895.648	20248
895.769	20336
895.891	20259
896.012	20434
896.134	20282
896.255	20278
896.376	20294
896.498	20301
896.619	20309
896.74	20240
896.861	20320
896.982	20450
897.103	20712
897.224	20457
897.345	20484
897.466	20438
897.587	20393
897.708	20564
897.828	20537
897.949	20434
898.07	20385
898.19	20415
898.311	20526
898.431	20427
898.552	20389
898.672	20590
898.792	20503
898.913	20461
899.033	20317
899.153	20275
899.273	20259
899.393	20214
899.513	20336
899.633	20294
899.753	20317
899.873	20183
899.993	20237
900.113	20111
900.232	20206
900.352	20081
900.472	20020
900.591	19856
900.711	20081
900.83	19951
900.95	20130
901.069	20153
901.189	19833
901.308	19734
901.427	19559
901.546	19563
901.665	19651
901.784	19632
901.904	19384
902.023	19350
902.141	19232
902.26	19148
902.379	19183
902.498	19171
902.617	19228
902.735	19069
902.854	19133
902.973	19019
903.091	18852
903.21	18745
903.328	18749
903.446	18673
903.565	18593
903.683	18642
903.801	18410
903.919	18566
904.038	18475
904.156	18388
904.274	18479
904.392	18407
904.51	18437
904.627	18319
904.745	18384
904.863	18346
904.981	18102
905.098	17950
905.216	18076
905.334	18140
905.451	18083
905.569	17965
905.686	18117
905.803	17988
905.921	17901
906.038	17882
906.155	17961
906.272	17649
906.389	17748
906.506	17532
906.623	17524
906.74	17490
906.857	17452
906.974	17402
907.091	17581
907.208	17680
907.324	17493
907.441	17395
907.557	17269
907.674	17261
907.79	17239
907.907	17166
908.023	17235
908.139	17349
908.256	17269
908.372	17128
908.488	17136
908.604	17048
908.72	16980
908.836	17010
908.952	16957
909.068	16942
909.184	17105
909.3	16953
909.415	17060
909.531	17033
909.647	16740
909.762	16740
909.878	16535
909.993	16717
910.108	16603
910.224	16641
910.339	16706
910.454	16664
910.57	16500
910.685	16402
910.8	16694
910.915	16641
911.03	16500
911.145	16322
911.259	16337
911.374	16371
911.489	16246
911.604	16086
911.718	15975
911.833	16025
911.947	15934
912.062	15766
912.176	15956
912.291	15953
912.405	15964
912.519	16143
912.633	16166
912.748	16086
912.862	15945
912.976	15884
913.09	15652
913.204	15797
913.318	15888
913.431	15918
913.545	15956
913.659	15960
913.772	15800
913.886	15633
914	15682
914.113	15580
914.226	15709
914.34	15732
914.453	15534
914.566	15682
914.68	15538
914.793	15488
914.906	15298
915.019	15336
915.132	15157
915.245	15249
915.358	15260
915.47	15348
915.583	15279
915.696	15359
915.809	15306
915.921	15287
916.034	15192
916.146	15142
916.259	15024
916.371	15161
916.483	15150
916.595	15043
916.708	15024
916.82	14929
916.932	15074
917.044	15039
917.156	15024
917.268	14895
917.38	14906
917.491	14762
917.603	14845
917.715	14956
917.826	14986
917.938	14830
918.049	14697
918.161	14883
918.272	14902
918.384	15081
918.495	14826
918.606	14640
918.717	14617
918.828	14686
918.939	14724
919.05	14587
919.161	14594
919.272	14434
919.383	14545
919.494	14693
919.604	14853
919.715	14686
919.826	14613
919.936	14541
920.047	14636
920.157	14625
920.267	14788
920.378	14598
920.488	14564
920.598	14674
920.708	14944
920.818	14739
920.928	14693
921.038	14895
921.148	14811
921.258	14423
921.368	14492
921.477	14240
921.587	14328
921.697	14195
921.806	14271
921.916	14195
922.025	14046
922.134	13986
922.244	13894
922.353	13963
922.462	13769
922.571	13700
922.68	13636
922.789	13586
922.898	13624
923.007	13544
923.116	13563
923.224	13582
923.333	13537
923.442	13426
923.55	13403
923.659	13392
923.767	13506
923.876	13327
923.984	13464
924.092	13304
924.201	13365
924.309	13335
924.417	13343
924.525	13297
924.633	13339
924.741	14069
924.849	13061
924.956	13160
925.064	13110
925.172	12932
925.279	13110
925.387	13015
925.494	13015
925.602	13187
925.709	13053
925.816	12897
925.924	12901
926.031	13065
926.138	12939
926.245	12977
926.352	12856
926.459	13099
926.566	13031
926.673	12920
926.779	12757
926.886	12844
926.993	12627
927.099	12639
927.206	12547
927.312	12585
927.419	12597
927.525	12475
927.631	12555
927.737	12506
927.843	12399
927.95	12330
928.056	12441
928.162	12456
928.267	12563
928.373	12924
928.479	12486
928.585	12220
928.69	12350
928.796	12509
928.901	12243
929.007	12136
929.112	12308
929.218	12251
929.323	12186
929.428	12083
929.533	12350
929.638	12041
929.743	12083
929.848	12148
929.953	12121
930.058	12034
930.163	11798
930.267	11908
930.372	11992
930.477	11859
930.581	12034
930.685	11882
930.79	11688
930.894	11828
930.998	11748
931.103	11851
931.207	11444
931.311	11433
931.415	11311
931.519	11147
931.623	11117
