Data from test_V78500241_313.txt Node
Date: Fri Mar 25 15:12:02 CST 2022
User: usil
Spectrometer: V785-0024
Trigger mode: 0
Integration Time (sec): 4.000000E-1
Scans to average: 1
Nonlinearity correction enabled: false
Boxcar width: 0
Storing dark spectrum: false
XAxis mode: Wavelengths
Number of Pixels in Spectrum: 1024
>>>>>Begin Spectral Data<<<<<
801.071	27781
801.214	27648
801.356	27519
801.499	27389
801.641	27378
801.783	27325
801.926	27416
802.068	27237
802.211	27192
802.353	27199
802.496	26918
802.638	26925
802.78	26933
802.923	26914
803.065	27020
803.208	27077
803.35	26853
803.492	27085
803.635	27020
803.777	27028
803.919	27131
804.061	27519
804.204	27245
804.346	26979
804.488	27051
804.63	27028
804.773	26925
804.915	27013
805.057	27062
805.199	26998
805.341	27291
805.483	27199
805.626	27169
805.768	27005
805.91	27249
806.052	27180
806.194	26986
806.336	27291
806.478	27222
806.62	27188
806.762	27306
806.904	27458
807.046	27816
807.188	27549
807.33	27614
807.472	27686
807.614	27644
807.756	27526
807.898	27481
808.04	27332
808.182	27363
808.324	27306
808.465	27393
808.607	27538
808.749	27755
808.891	27713
809.033	27823
809.174	27922
809.316	27800
809.458	27781
809.6	27637
809.741	27793
809.883	27793
810.025	28169
810.166	28097
810.308	27926
810.45	27937
810.591	27937
810.733	27713
810.875	27663
811.016	27759
811.158	27660
811.299	27793
811.441	27888
811.582	27747
811.724	27747
811.865	27690
812.007	27682
812.148	27766
812.29	27717
812.431	27873
812.573	28120
812.714	28067
812.855	28329
812.997	28337
813.138	28459
813.279	28329
813.421	28280
813.562	28299
813.703	28063
813.845	27922
813.986	27656
814.127	27637
814.268	27435
814.41	27367
814.551	27378
814.692	27355
814.833	27294
814.974	27275
815.115	27389
815.256	27275
815.397	27230
815.539	27348
815.68	27180
815.821	27233
815.962	27279
816.103	27150
816.244	27127
816.385	26868
816.526	26834
816.666	26708
816.807	26629
816.948	26659
817.089	26746
817.23	26689
817.371	26765
817.512	26560
817.653	26621
817.793	26484
817.934	26746
818.075	26613
818.216	26606
818.356	26655
818.497	26347
818.638	26332
818.778	26294
818.919	26492
819.06	26400
819.2	26450
819.341	26571
819.481	26495
819.622	26644
819.762	26857
819.903	26838
820.043	26689
820.184	26727
820.324	26853
820.465	26868
820.605	26663
820.746	26724
820.886	26594
821.026	26731
821.167	26670
821.307	26769
821.447	26674
821.588	26469
821.728	26313
821.868	26237
822.008	26039
822.149	26126
822.289	26119
822.429	25814
822.569	25712
822.709	25693
822.849	25605
822.99	25571
823.13	25533
823.27	25514
823.41	25285
823.55	25164
823.69	25312
823.83	25392
823.97	25285
824.11	25145
824.25	25072
824.389	25061
824.529	25316
824.669	25133
824.809	25236
824.949	25202
825.089	25335
825.228	25141
825.368	25042
825.508	24977
825.648	24954
825.787	24973
825.927	24970
826.067	25034
826.206	24905
826.346	25023
826.485	24966
826.625	24920
826.765	25080
826.904	25061
827.044	24715
827.183	24665
827.323	24703
827.462	24722
827.601	24707
827.741	24528
827.88	24703
828.02	24597
828.159	24726
828.298	24707
828.437	24776
828.577	24528
828.716	24764
828.855	24639
828.994	24486
829.134	24521
829.273	24570
829.412	24441
829.551	24456
829.69	24414
829.829	24372
829.968	24483
830.107	24483
830.246	24502
830.385	24232
830.524	24235
830.663	24273
830.802	24095
830.941	23973
831.08	23958
831.219	24201
831.357	24015
831.496	24239
831.635	24011
831.774	23946
831.913	23840
832.051	23824
832.19	23668
832.329	23714
832.467	23661
832.606	23558
832.744	23566
832.883	23653
833.022	23615
833.16	23714
833.299	23752
833.437	23790
833.576	23672
833.714	23547
833.852	23790
833.991	23767
834.129	23851
834.267	23756
834.406	23691
834.544	23703
834.682	23745
834.821	23630
834.959	23821
835.097	23703
835.235	23718
835.373	23680
835.511	23638
835.65	23615
835.788	23566
835.926	23501
836.064	23391
836.202	23474
836.34	23516
836.478	23551
836.615	23539
836.753	23596
836.891	23687
837.029	23551
837.167	23452
837.305	23535
837.443	23410
837.58	23391
837.718	23474
837.856	23474
837.993	23334
838.131	23490
838.269	23292
838.406	23204
838.544	23189
838.681	23075
838.819	22968
838.956	22930
839.094	22786
839.231	22911
839.369	22961
839.506	23200
839.643	23067
839.781	22801
839.918	22736
840.055	22835
840.193	22729
840.33	22729
840.467	22774
840.604	22816
840.742	22987
840.879	22641
841.016	22588
841.153	22721
841.29	22748
841.427	22801
841.564	22752
841.701	22816
841.838	22736
841.975	22683
842.112	22668
842.249	22485
842.385	22550
842.522	22717
842.659	22554
842.796	22573
842.933	22580
843.069	22360
843.206	22474
843.343	22603
843.479	22447
843.616	22481
843.752	22276
843.889	22299
844.025	22405
844.162	22211
844.298	22371
844.435	22295
844.571	22196
844.708	22497
844.844	22405
844.98	22447
845.117	22390
845.253	22192
845.389	22105
845.525	22223
845.661	22166
845.798	22025
845.934	22021
846.07	21926
846.206	22036
846.342	22082
846.478	21903
846.614	21827
846.75	21690
846.886	21781
847.022	21873
847.158	21709
847.294	21762
847.429	21732
847.565	21606
847.701	21892
847.837	21564
847.972	21363
848.108	21568
848.244	21466
848.379	21374
848.515	21275
848.65	21344
848.786	21287
848.921	21249
849.057	21389
849.192	21504
849.328	21416
849.463	21408
849.598	21192
849.734	21157
849.869	21192
850.004	21096
850.14	21119
850.275	21233
850.41	21017
850.545	21051
850.68	20998
850.815	21100
850.95	21020
851.085	21203
851.22	21135
851.355	21047
851.49	21028
851.625	20876
851.76	20990
851.895	20807
852.03	20929
852.165	21058
852.299	21279
852.434	21146
852.569	21032
852.703	21165
852.838	21142
852.973	21184
853.107	21135
853.242	20967
853.376	20834
853.511	20750
853.645	20902
853.78	20990
853.914	20834
854.048	20842
854.183	20807
854.317	20899
854.451	20990
854.585	20921
854.72	20857
854.854	20906
854.988	20823
855.122	20773
855.256	20693
855.39	20834
855.524	20788
855.658	20826
855.792	20933
855.926	20918
856.06	20853
856.194	20925
856.327	20811
856.461	20842
856.595	20899
856.729	20796
856.862	21009
856.996	20982
857.13	21009
857.263	20941
857.397	20918
857.53	20872
857.664	20975
857.797	20944
857.931	20914
858.064	20834
858.197	20826
858.331	20826
858.464	20739
858.597	20815
858.731	20811
858.864	20849
858.997	20842
859.13	20796
859.263	20918
859.396	20994
859.529	20769
859.662	20804
859.795	20746
859.928	20868
860.061	21017
860.194	21051
860.327	20906
860.46	20921
860.592	20967
860.725	20914
860.858	21028
860.99	20815
861.123	20746
861.256	20693
861.388	20838
861.521	21428
861.653	20823
861.786	20579
861.918	20769
862.05	20689
862.183	20811
862.315	20800
862.447	20910
862.58	20686
862.712	20621
862.844	20594
862.976	20571
863.108	20667
863.24	20975
863.372	20492
863.504	20514
863.636	20514
863.768	20507
863.9	20598
864.032	20492
864.164	20575
864.296	20632
864.428	20480
864.559	20663
864.691	20648
864.823	20480
864.954	20511
865.086	20415
865.217	20484
865.349	20290
865.48	20522
865.612	20522
865.743	20678
865.875	20423
866.006	20351
866.137	20419
866.269	20427
866.4	20385
866.531	20355
866.662	20385
866.793	20290
866.924	20370
867.055	20423
867.186	20267
867.317	20412
867.448	20278
867.579	20328
867.71	20210
867.841	20294
867.972	20324
868.103	20343
868.233	20526
868.364	20503
868.495	20396
868.625	20617
868.756	20609
868.886	20492
869.017	20617
869.147	20708
869.278	20857
869.408	20659
869.539	20678
869.669	20762
869.799	20769
869.929	20693
870.06	20754
870.19	20864
870.32	20921
870.45	20998
870.58	20906
870.71	21173
870.84	21028
870.97	21028
871.1	21081
871.23	21146
871.36	21093
871.489	21089
871.619	21237
871.749	21165
871.879	21214
872.008	21450
872.138	21230
872.267	21207
872.397	20960
872.526	21020
872.656	21096
872.785	21070
872.915	21230
873.044	21416
873.173	21188
873.303	21275
873.432	21310
873.561	21313
873.69	21283
873.819	21218
873.948	21363
874.077	21306
874.206	21169
874.335	21336
874.464	21462
874.593	21500
874.722	21439
874.851	21561
874.979	21553
875.108	21542
875.237	21488
875.365	21397
875.494	21439
875.623	21545
875.751	21542
875.88	21591
876.008	21667
876.136	21694
876.265	21869
876.393	22010
876.521	21903
876.65	21911
876.778	21816
876.906	21797
877.034	21857
877.162	21842
877.29	21831
877.418	21854
877.546	21964
877.674	21842
877.802	21831
877.93	21850
878.058	21785
878.185	21720
878.313	21854
878.441	21804
878.568	21682
878.696	21850
878.824	21899
878.951	21838
879.079	22139
879.206	22177
879.333	21854
879.461	21884
879.588	21918
879.715	21876
879.842	22120
879.97	21762
880.097	21606
880.224	21553
880.351	21660
880.478	21641
880.605	21682
880.732	21713
880.859	21907
880.986	21713
881.112	21747
881.239	21545
881.366	21511
881.493	21386
881.619	21370
881.746	21203
881.872	21275
881.999	21252
882.125	21112
882.252	21222
882.378	21214
882.505	21340
882.631	21146
882.757	20952
882.883	21013
883.01	20914
883.136	20918
883.262	20815
883.388	20826
883.514	20948
883.64	20918
883.766	20842
883.892	20640
884.018	20674
884.143	20921
884.269	20994
884.395	20689
884.52	20609
884.646	20632
884.772	20476
884.897	20454
885.023	20621
885.148	20644
885.274	20727
885.399	20773
885.524	20617
885.65	20701
885.775	20701
885.9	20514
886.025	20674
886.15	20663
886.275	20549
886.4	20514
886.525	20678
886.65	20613
886.775	20560
886.9	20693
887.025	20788
887.149	20602
887.274	20484
887.399	20336
887.523	20415
887.648	20347
887.773	20271
887.897	20385
888.021	20381
888.146	20278
888.27	20404
888.395	20530
888.519	20328
888.643	20415
888.767	20347
888.891	20214
889.015	20267
889.139	20355
889.263	20202
889.387	20389
889.511	20484
889.635	20324
889.759	20103
889.883	20168
890.006	20157
890.13	20320
890.254	20176
890.377	20016
890.501	20046
890.624	19841
890.748	20096
890.871	19860
890.995	19696
891.118	19753
891.241	19696
891.364	19788
891.488	19849
891.611	19712
891.734	19723
891.857	19811
891.98	19765
892.103	19795
892.226	19845
892.349	19723
892.471	19575
892.594	19643
892.717	19689
892.839	19791
892.962	19734
893.085	19727
893.207	19677
893.33	19464
893.452	19632
893.575	19723
893.697	19499
893.819	19791
893.941	19841
894.064	19795
894.186	19578
894.308	19529
894.43	19704
894.552	19807
894.674	19719
894.796	19605
894.918	19635
895.04	19666
895.161	19750
895.283	19693
895.405	19567
895.526	19635
895.648	19609
895.769	19597
895.891	19696
896.012	19734
896.134	19624
896.255	19662
896.376	19647
896.498	19567
896.619	19845
896.74	19715
896.861	19757
896.982	19997
897.103	20035
897.224	19963
897.345	19906
897.466	19761
897.587	19887
897.708	19978
897.828	19993
897.949	19704
898.07	19776
898.19	19807
898.311	19978
898.431	19738
898.552	19913
898.672	19871
898.792	19841
898.913	19917
899.033	19727
899.153	19655
899.273	19548
899.393	19525
899.513	19731
899.633	19696
899.753	19575
899.873	19480
899.993	19719
900.113	19521
900.232	19575
900.352	19556
900.472	19426
900.591	19392
900.711	19346
900.83	19206
900.95	19510
901.069	19552
901.189	19339
901.308	19160
901.427	18989
901.546	18943
901.665	19076
901.784	19133
901.904	18825
902.023	18760
902.141	18506
902.26	18471
902.379	18608
902.498	18593
902.617	18475
902.735	18532
902.854	18426
902.973	18460
903.091	18117
903.21	18152
903.328	18190
903.446	18117
903.565	18034
903.683	18003
903.801	17863
903.919	17931
904.038	17939
904.156	17863
904.274	17779
904.392	17729
904.51	17748
904.627	17783
904.745	17802
904.863	17809
904.981	17573
905.098	17349
905.216	17474
905.334	17554
905.451	17543
905.569	17410
905.686	17455
905.803	17395
905.921	17223
906.038	17341
906.155	17299
906.272	17212
906.389	17204
906.506	16991
906.623	17086
906.74	17010
906.857	16942
906.974	16923
907.091	17075
907.208	17113
907.324	17090
907.441	16957
907.557	16717
907.674	16816
907.79	16588
907.907	16626
908.023	16626
908.139	16649
908.256	16607
908.372	16580
908.488	16611
908.604	16500
908.72	16409
908.836	16421
908.952	16455
909.068	16363
909.184	16531
909.3	16348
909.415	16447
909.531	16390
909.647	16211
909.762	16139
909.878	16093
909.993	16200
910.108	16048
910.224	15964
910.339	16044
910.454	16032
910.57	15892
910.685	15823
910.8	16055
910.915	15998
911.03	15876
911.145	15804
911.259	15660
911.374	15736
911.489	15644
911.604	15538
911.718	15561
911.833	15477
911.947	15382
912.062	15287
912.176	15344
912.291	15431
912.405	15466
912.519	15625
912.633	15576
912.748	15576
912.862	15405
912.976	15268
913.09	15009
913.204	15222
913.318	15264
913.431	15264
913.545	15363
913.659	15348
913.772	15272
913.886	15081
914	14986
914.113	15260
914.226	15135
914.34	15184
914.453	14998
914.566	15142
914.68	14944
914.793	14941
914.906	14883
915.019	14735
915.132	14701
915.245	14670
915.358	14739
915.47	14743
915.583	14689
915.696	14735
915.809	14773
915.921	14735
916.034	14674
916.146	14648
916.259	14571
916.371	14712
916.483	14678
916.595	14526
916.708	14499
916.82	14507
916.932	14507
917.044	14526
917.156	14469
917.268	14408
917.38	14412
917.491	14336
917.603	14317
917.715	14427
917.826	14499
917.938	14309
918.049	14161
918.161	14294
918.272	14408
918.384	14469
918.495	14298
918.606	14244
918.717	13997
918.828	14126
918.939	14111
919.05	14046
919.161	14145
919.272	13993
919.383	13986
919.494	14248
919.604	14305
919.715	14092
919.826	13967
919.936	14069
920.047	14142
920.157	14111
920.267	14225
920.378	14130
920.488	14027
920.598	14183
920.708	14404
920.818	14267
920.928	14256
921.038	14309
921.148	14248
921.258	14073
921.368	14035
921.477	13830
921.587	13898
921.697	13712
921.806	13951
921.916	13655
922.025	13445
922.134	13548
922.244	13415
922.353	13548
922.462	13403
922.571	13270
922.68	13141
922.789	13023
922.898	13084
923.007	13057
923.116	13221
923.224	13156
923.333	13107
923.442	13072
923.55	12970
923.659	12947
923.767	12970
923.876	12943
923.984	12966
924.092	12798
924.201	12821
924.309	12859
924.417	12894
924.525	12760
924.633	12970
924.741	13483
924.849	12525
924.956	12639
925.064	12544
925.172	12471
925.279	12540
925.387	12597
925.494	12570
925.602	12658
925.709	12665
925.816	12502
925.924	12490
926.031	12635
926.138	12525
926.245	12627
926.352	12452
926.459	12578
926.566	12582
926.673	12414
926.779	12239
926.886	12384
926.993	12102
927.099	12155
927.206	12114
927.312	12148
927.419	12178
927.525	12186
927.631	12079
927.737	11958
927.843	11996
927.95	11855
928.056	11923
928.162	11958
928.267	11965
928.373	12654
928.479	12003
928.585	11802
928.69	11874
928.796	12045
928.901	11779
929.007	11684
929.112	11840
929.218	11802
929.323	11813
929.428	11676
929.533	11843
929.638	11543
929.743	11642
929.848	11600
929.953	11665
930.058	11592
930.163	11337
930.267	11436
930.372	11478
930.477	11330
930.581	11600
930.685	11417
930.79	11318
930.894	11383
930.998	11341
931.103	11467
931.207	10991
931.311	10984
931.415	10885
931.519	10702
931.623	10645
