Data from test_V78500241_2154.txt Node
Date: Fri Mar 25 15:24:51 CST 2022
User: usil
Spectrometer: V785-0024
Trigger mode: 0
Integration Time (sec): 4.000000E-1
Scans to average: 1
Nonlinearity correction enabled: false
Boxcar width: 0
Storing dark spectrum: false
XAxis mode: Wavelengths
Number of Pixels in Spectrum: 1024
>>>>>Begin Spectral Data<<<<<
801.071	27774
801.214	27583
801.356	27389
801.499	27336
801.641	27344
801.783	27287
801.926	27287
802.068	27211
802.211	27176
802.353	27135
802.496	27001
802.638	26914
802.78	27043
802.923	26769
803.065	26864
803.208	26773
803.35	26925
803.492	26994
803.635	27135
803.777	26944
803.919	27074
804.061	27481
804.204	27165
804.346	27085
804.488	27154
804.63	26994
804.773	27085
804.915	27055
805.057	27085
805.199	27055
805.341	27127
805.483	27176
805.626	27195
805.768	27089
805.91	27112
806.052	27123
806.194	27256
806.336	27443
806.478	27169
806.62	27287
806.762	27424
806.904	27545
807.046	27675
807.188	27618
807.33	27519
807.472	27667
807.614	27454
807.756	27580
807.898	27561
808.04	27279
808.182	27458
808.324	27420
808.465	27637
808.607	27667
808.749	27762
808.891	27998
809.033	28021
809.174	28010
809.316	27728
809.458	27945
809.6	27831
809.741	27838
809.883	27922
810.025	28097
810.166	28185
810.308	28116
810.45	28025
810.591	28048
810.733	27854
810.875	27945
811.016	27789
811.158	27682
811.299	27895
811.441	27994
811.582	28006
811.724	27907
811.865	27690
812.007	27804
812.148	27899
812.29	27835
812.431	27960
812.573	28230
812.714	28421
812.855	28493
812.997	28455
813.138	28363
813.279	28538
813.421	28557
813.562	28318
813.703	28063
813.845	28051
813.986	27876
814.127	27587
814.268	27576
814.41	27500
814.551	27469
814.692	27660
814.833	27344
814.974	27553
815.115	27553
815.256	27458
815.397	27405
815.539	27408
815.68	27302
815.821	27294
815.962	27306
816.103	27382
816.244	27138
816.385	27020
816.526	27032
816.666	26887
816.807	26739
816.948	26918
817.089	26857
817.23	26918
817.371	26743
817.512	26861
817.653	26762
817.793	26674
817.934	26921
818.075	26762
818.216	26815
818.356	26746
818.497	26682
818.638	26492
818.778	26533
818.919	26579
819.06	26503
819.2	26758
819.341	26731
819.481	26724
819.622	26876
819.762	26986
819.903	27096
820.043	26933
820.184	26933
820.324	26788
820.465	26948
820.605	26982
820.746	26880
820.886	26826
821.026	26971
821.167	26796
821.307	26956
821.447	26785
821.588	26655
821.728	26587
821.868	26442
822.008	26263
822.149	26374
822.289	26161
822.429	26008
822.569	25845
822.709	25944
822.849	25776
822.99	25734
823.13	25715
823.27	25712
823.41	25681
823.55	25537
823.69	25491
823.83	25548
823.97	25491
824.11	25415
824.25	25384
824.389	25479
824.529	25346
824.669	25453
824.809	25403
824.949	25449
825.089	25422
825.228	25324
825.368	25088
825.508	25350
825.648	25270
825.787	25362
825.927	25365
826.067	25354
826.206	25285
826.346	25354
826.485	25228
826.625	25236
826.765	25430
826.904	25308
827.044	24932
827.183	25053
827.323	24913
827.462	25012
827.601	24992
827.741	24920
827.88	25103
828.02	24890
828.159	24970
828.298	24863
828.437	25042
828.577	24909
828.716	25027
828.855	24840
828.994	24734
829.134	24665
829.273	24814
829.412	24658
829.551	24669
829.69	24650
829.829	24517
829.968	24646
830.107	24700
830.246	24639
830.385	24700
830.524	24486
830.663	24544
830.802	24372
830.941	24285
831.08	24239
831.219	24323
831.357	24410
831.496	24532
831.635	24330
831.774	24079
831.913	24232
832.051	24026
832.19	24133
832.329	24041
832.467	23931
832.606	23920
832.744	23901
832.883	23969
833.022	23980
833.16	23996
833.299	23984
833.437	23996
833.576	24091
833.714	23904
833.852	23885
833.991	23863
834.129	24117
834.267	24087
834.406	23984
834.544	23961
834.682	24087
834.821	23927
834.959	24038
835.097	23912
835.235	23904
835.373	23745
835.511	23999
835.65	23885
835.788	23828
835.926	23729
836.064	23680
836.202	23627
836.34	23904
836.478	23882
836.615	23710
836.753	23935
836.891	23836
837.029	23817
837.167	23813
837.305	23786
837.443	23672
837.58	23585
837.718	23687
837.856	23672
837.993	23554
838.131	23596
838.269	23661
838.406	23608
838.544	23493
838.681	23379
838.819	23250
838.956	23048
839.094	23273
839.231	23204
839.369	23326
839.506	23558
839.643	23318
839.781	23140
839.918	23094
840.055	23223
840.193	23113
840.33	22995
840.467	23071
840.604	23075
840.742	23322
840.879	22919
841.016	23033
841.153	22877
841.29	23128
841.427	22999
841.564	23147
841.701	23079
841.838	23025
841.975	22889
842.112	22991
842.249	22919
842.385	22816
842.522	23037
842.659	22797
842.796	22637
842.933	22767
843.069	22908
843.206	22763
843.343	22930
843.479	22805
843.616	22797
843.752	22466
843.889	22641
844.025	22653
844.162	22596
844.298	22607
844.435	22615
844.571	22523
844.708	22645
844.844	22736
844.98	22740
845.117	22698
845.253	22500
845.389	22531
845.525	22447
845.661	22405
845.798	22295
845.934	22413
846.07	22341
846.206	22447
846.342	22584
846.478	22447
846.614	22105
846.75	21972
846.886	22029
847.022	22070
847.158	22059
847.294	22086
847.429	22112
847.565	22082
847.701	22379
847.837	21797
847.972	21850
848.108	21918
848.244	21785
848.379	21694
848.515	21576
848.65	21667
848.786	21663
848.921	21660
849.057	21808
849.192	21690
849.328	21660
849.463	21587
849.598	21686
849.734	21500
849.869	21496
850.004	21408
850.14	21523
850.275	21408
850.41	21424
850.545	21496
850.68	21382
850.815	21428
850.95	21443
851.085	21637
851.22	21568
851.355	21447
851.49	21313
851.625	21389
851.76	21367
851.895	21336
852.03	21245
852.165	21473
852.299	21389
852.434	21507
852.569	21370
852.703	21443
852.838	21382
852.973	21526
853.107	21519
853.242	21424
853.376	21214
853.511	21180
853.645	21131
853.78	21313
853.914	21325
854.048	21256
854.183	21184
854.317	21184
854.451	21332
854.585	21310
854.72	21135
854.854	21233
854.988	21146
855.122	21169
855.256	21013
855.39	21237
855.524	21268
855.658	21169
855.792	21374
855.926	21275
856.06	21237
856.194	21294
856.327	21154
856.461	21218
856.595	21226
856.729	21127
856.862	21370
856.996	21336
857.13	21272
857.263	21207
857.397	21112
857.53	21176
857.664	21192
857.797	21211
857.931	21310
858.064	21332
858.197	21313
858.331	21218
858.464	21214
858.597	21036
858.731	21062
858.864	21131
858.997	21104
859.13	21241
859.263	21230
859.396	21351
859.529	21165
859.662	21142
859.795	21108
859.928	21230
860.061	21298
860.194	21374
860.327	21332
860.46	21218
860.592	21348
860.725	21336
860.858	21287
860.99	21317
861.123	21138
861.256	21226
861.388	21344
861.521	21934
861.653	21218
861.786	20960
861.918	20933
862.05	21085
862.183	21100
862.315	21268
862.447	21195
862.58	21043
862.712	20883
862.844	20975
862.976	20944
863.108	21066
863.24	21466
863.372	20845
863.504	20868
863.636	20914
863.768	21039
863.9	20883
864.032	20872
864.164	20830
864.296	21020
864.428	20990
864.559	20937
864.691	20933
864.823	20800
864.954	20944
865.086	20914
865.217	20834
865.349	20777
865.48	20842
865.612	20838
865.743	20948
865.875	20910
866.006	20948
866.137	20845
866.269	20708
866.4	20800
866.531	20765
866.662	20724
866.793	20788
866.924	20571
867.055	20853
867.186	20746
867.317	20819
867.448	20560
867.579	20823
867.71	20743
867.841	20731
867.972	20777
868.103	20845
868.233	20735
868.364	20777
868.495	20819
868.625	20941
868.756	21036
868.886	20933
869.017	20910
869.147	21058
869.278	21108
869.408	20994
869.539	20910
869.669	20960
869.799	20952
869.929	20998
870.06	21055
870.19	21241
870.32	21283
870.45	21302
870.58	21268
870.71	21466
870.84	21492
870.97	21317
871.1	21374
871.23	21519
871.36	21625
871.489	21428
871.619	21450
871.749	21519
871.879	21572
872.008	21675
872.138	21587
872.267	21580
872.397	21492
872.526	21450
872.656	21359
872.785	21500
872.915	21564
873.044	21675
873.173	21648
873.303	21572
873.432	21591
873.561	21641
873.69	21618
873.819	21591
873.948	21652
874.077	21652
874.206	21595
874.335	21603
874.464	21675
874.593	21713
874.722	21732
874.851	21934
874.979	21895
875.108	21880
875.237	21857
875.365	21732
875.494	21698
875.623	21968
875.751	21865
875.88	21873
876.008	21937
876.136	21907
876.265	22268
876.393	22253
876.521	22375
876.65	22443
876.778	22207
876.906	22154
877.034	22128
877.162	22291
877.29	22093
877.418	22234
877.546	22284
877.674	22150
877.802	22287
877.93	22211
878.058	22223
878.185	22010
878.313	22139
878.441	22124
878.568	22067
878.696	22143
878.824	22204
878.951	22162
879.079	22268
879.206	22459
879.333	22398
879.461	22185
879.588	22196
879.715	22226
879.842	22306
879.97	22348
880.097	22070
880.224	21934
880.351	22040
880.478	21922
880.605	21873
880.732	22013
880.859	22131
880.986	22044
881.112	22070
881.239	21823
881.366	21701
881.493	21557
881.619	21629
881.746	21599
881.872	21599
881.999	21595
882.125	21500
882.252	21568
882.378	21603
882.505	21812
882.631	21454
882.757	21378
882.883	21389
883.01	21260
883.136	21321
883.262	21233
883.388	21108
883.514	21252
883.64	21222
883.766	21142
883.892	21112
884.018	21074
884.143	21157
884.269	21359
884.395	20960
884.52	20880
884.646	20944
884.772	20876
884.897	20826
885.023	20910
885.148	20921
885.274	21123
885.399	21096
885.524	20994
885.65	20994
885.775	20925
885.9	20811
886.025	20971
886.15	20956
886.275	21005
886.4	20746
886.525	20765
886.65	20792
886.775	20769
886.9	20918
887.025	21135
887.149	20876
887.274	20750
887.399	20663
887.523	20613
887.648	20629
887.773	20648
887.897	20739
888.021	20743
888.146	20678
888.27	20743
888.395	20773
888.519	20674
888.643	20651
888.767	20716
888.891	20678
889.015	20434
889.139	20564
889.263	20526
889.387	20598
889.511	20651
889.635	20697
889.759	20469
889.883	20530
890.006	20518
890.13	20659
890.254	20473
890.377	20415
890.501	20381
890.624	20210
890.748	20305
890.871	20134
890.995	19997
891.118	20050
891.241	20111
891.364	20065
891.488	20084
891.611	19993
891.734	19978
891.857	20172
891.98	20115
892.103	20039
892.226	19951
892.349	19951
892.471	19757
892.594	19902
892.717	19982
892.839	19970
892.962	19955
893.085	20054
893.207	20046
893.33	19852
893.452	19833
893.575	19928
893.697	19879
893.819	20103
893.941	20157
894.064	20164
894.186	19898
894.308	19917
894.43	20069
894.552	20138
894.674	19993
894.796	19799
894.918	20016
895.04	19974
895.161	20005
895.283	19970
895.405	19894
895.526	19967
895.648	19894
895.769	20119
895.891	19898
896.012	20039
896.134	19993
896.255	19955
896.376	19959
896.498	20024
896.619	20005
896.74	20016
896.861	20081
896.982	20164
897.103	20431
897.224	20145
897.345	20324
897.466	20107
897.587	20290
897.708	20309
897.828	20336
897.949	20107
898.07	19982
898.19	20161
898.311	20305
898.431	20077
898.552	20168
898.672	20309
898.792	20305
898.913	20229
899.033	20119
899.153	20024
899.273	19830
899.393	20050
899.513	20062
899.633	19906
899.753	19955
899.873	19894
899.993	19871
900.113	19849
900.232	19959
900.352	19700
900.472	19761
900.591	19750
900.711	19959
900.83	19784
900.95	19731
901.069	19791
901.189	19548
901.308	19411
901.427	19263
901.546	19358
901.665	19403
901.784	19320
901.904	19141
902.023	19164
902.141	18920
902.26	18817
902.379	18924
902.498	18795
902.617	18863
902.735	18757
902.854	18779
902.973	18814
903.091	18429
903.21	18506
903.328	18479
903.446	18429
903.565	18418
903.683	18391
903.801	18232
903.919	18201
904.038	18262
904.156	18216
904.274	18232
904.392	18136
904.51	18019
904.627	18049
904.745	18171
904.863	18053
904.981	17904
905.098	17767
905.216	17752
905.334	17771
905.451	17703
905.569	17687
905.686	17741
905.803	17748
905.921	17471
906.038	17585
906.155	17535
906.272	17493
906.389	17391
906.506	17311
906.623	17322
906.74	17273
906.857	17117
906.974	17147
907.091	17216
907.208	17402
907.324	17292
907.441	17170
907.557	17014
907.674	16991
907.79	16843
907.907	16949
908.023	17003
908.139	16972
908.256	16942
908.372	16843
908.488	16869
908.604	16740
908.72	16694
908.836	16755
908.952	16729
909.068	16721
909.184	16740
909.3	16687
909.415	16774
909.531	16645
909.647	16474
909.762	16386
909.878	16500
909.993	16382
910.108	16436
910.224	16352
910.339	16405
910.454	16363
910.57	16291
910.685	16105
910.8	16428
910.915	16322
911.03	16135
911.145	16082
911.259	15991
911.374	15994
911.489	15968
911.604	15876
911.718	15705
911.833	15766
911.947	15682
912.062	15519
912.176	15781
912.291	15823
912.405	15686
912.519	15941
912.633	15975
912.748	15705
912.862	15682
912.976	15553
913.09	15496
913.204	15584
913.318	15580
913.431	15633
913.545	15705
913.659	15633
913.772	15557
913.886	15382
914	15344
914.113	15515
914.226	15412
914.34	15488
914.453	15222
914.566	15420
914.68	15245
914.793	15264
914.906	15093
915.019	14963
915.132	14986
915.245	14990
915.358	15089
915.47	14982
915.583	15001
915.696	15001
915.809	15161
915.921	15089
916.034	14906
916.146	14933
916.259	14861
916.371	14933
916.483	14956
916.595	14838
916.708	14823
916.82	14781
916.932	14750
917.044	14701
917.156	14785
917.268	14648
917.38	14606
917.491	14625
917.603	14594
917.715	14651
917.826	14727
917.938	14625
918.049	14514
918.161	14655
918.272	14769
918.384	14731
918.495	14587
918.606	14450
918.717	14377
918.828	14454
918.939	14362
919.05	14305
919.161	14454
919.272	14191
919.383	14301
919.494	14431
919.604	14549
919.715	14465
919.826	14256
919.936	14298
920.047	14404
920.157	14415
920.267	14427
920.378	14499
920.488	14320
920.598	14499
920.708	14670
920.818	14454
920.928	14442
921.038	14663
921.148	14590
921.258	14393
921.368	14233
921.477	14145
921.587	14142
921.697	14005
921.806	14103
921.916	13989
922.025	13822
922.134	13719
922.244	13670
922.353	13822
922.462	13582
922.571	13575
922.68	13400
922.789	13384
922.898	13403
923.007	13327
923.116	13392
923.224	13358
923.333	13358
923.442	13217
923.55	13251
923.659	13312
923.767	13255
923.876	13190
923.984	13293
924.092	13160
924.201	13171
924.309	13091
924.417	13095
924.525	13069
924.633	13110
924.741	13795
924.849	12844
924.956	13008
925.064	12905
925.172	12753
925.279	12856
925.387	12817
925.494	12825
925.602	12894
925.709	12795
925.816	12783
925.924	12753
926.031	12852
926.138	12821
926.245	12745
926.352	12650
926.459	12833
926.566	12833
926.673	12681
926.779	12650
926.886	12597
926.993	12441
927.099	12407
927.206	12270
927.312	12304
927.419	12502
927.525	12410
927.631	12448
927.737	12338
927.843	12296
927.95	12136
928.056	12239
928.162	12251
928.267	12213
928.373	12806
928.479	12201
928.585	12038
928.69	12194
928.796	12216
928.901	12087
929.007	11950
929.112	11984
929.218	12030
929.323	11984
929.428	12019
929.533	12117
929.638	11840
929.743	11885
929.848	11946
929.953	11821
930.058	11779
930.163	11615
930.267	11653
930.372	11737
930.477	11577
930.581	11817
930.685	11642
930.79	11486
930.894	11562
930.998	11478
931.103	11661
931.207	11277
931.311	11246
931.415	11098
931.519	10858
931.623	10915
