Data from test_V78500241_1256.txt Node
Date: Fri Mar 25 15:18:36 CST 2022
User: usil
Spectrometer: V785-0024
Trigger mode: 0
Integration Time (sec): 4.000000E-1
Scans to average: 1
Nonlinearity correction enabled: false
Boxcar width: 0
Storing dark spectrum: false
XAxis mode: Wavelengths
Number of Pixels in Spectrum: 1024
>>>>>Begin Spectral Data<<<<<
801.071	28013
801.214	27960
801.356	27739
801.499	27622
801.641	27389
801.783	27458
801.926	27572
802.068	27526
802.211	27306
802.353	27237
802.496	27131
802.638	27203
802.78	27291
802.923	27017
803.065	27116
803.208	27211
803.35	27100
803.492	27291
803.635	27477
803.777	27302
803.919	27336
804.061	27827
804.204	27473
804.346	27378
804.488	27313
804.63	27431
804.773	27218
804.915	27382
805.057	27705
805.199	27313
805.341	27469
805.483	27667
805.626	27538
805.768	27431
805.91	27530
806.052	27435
806.194	27454
806.336	27781
806.478	27583
806.62	27462
806.762	27568
806.904	27793
807.046	28051
807.188	27880
807.33	27842
807.472	27857
807.614	27903
807.756	27899
807.898	27823
808.04	27770
808.182	27812
808.324	27857
808.465	27884
808.607	28036
808.749	28150
808.891	28169
809.033	28314
809.174	28230
809.316	28234
809.458	28223
809.6	28124
809.741	28299
809.883	28253
810.025	28417
810.166	28424
810.308	28474
810.45	28360
810.591	28367
810.733	28188
810.875	28124
811.016	28093
811.158	28139
811.299	28139
811.441	28223
811.582	28344
811.724	28101
811.865	28143
812.007	28135
812.148	28169
812.29	28257
812.431	28333
812.573	28470
812.714	28672
812.855	28710
812.997	28816
813.138	29010
813.279	28694
813.421	28729
813.562	28660
813.703	28561
813.845	28409
813.986	28109
814.127	27903
814.268	27705
814.41	27869
814.551	27728
814.692	27869
814.833	27846
814.974	27800
815.115	27964
815.256	27705
815.397	27823
815.539	27850
815.68	27686
815.821	27637
815.962	27637
816.103	27709
816.244	27435
816.385	27545
816.526	27359
816.666	27321
816.807	27207
816.948	27199
817.089	27294
817.23	27279
817.371	27199
817.512	27226
817.653	27085
817.793	27100
817.934	27096
818.075	27218
818.216	27241
818.356	27230
818.497	27058
818.638	26952
818.778	26895
818.919	26910
819.06	26986
819.2	27138
819.341	27154
819.481	27256
819.622	27298
819.762	27466
819.903	27519
820.043	27291
820.184	27313
820.324	27332
820.465	27317
820.605	27378
820.746	27348
820.886	27070
821.026	27252
821.167	27268
821.307	27462
821.447	27268
821.588	27184
821.728	26807
821.868	26758
822.008	26575
822.149	26625
822.289	26461
822.429	26370
822.569	26282
822.709	26336
822.849	26157
822.99	26229
823.13	26103
823.27	26035
823.41	25947
823.55	25871
823.69	25928
823.83	25974
823.97	26012
824.11	25799
824.25	25696
824.389	25795
824.529	25719
824.669	25712
824.809	25871
824.949	25909
825.089	25841
825.228	25894
825.368	25651
825.508	25643
825.648	25590
825.787	25761
825.927	25772
826.067	25651
826.206	25586
826.346	25708
826.485	25635
826.625	25712
826.765	25906
826.904	25708
827.044	25495
827.183	25457
827.323	25289
827.462	25422
827.601	25529
827.741	25388
827.88	25468
828.02	25259
828.159	25377
828.298	25312
828.437	25388
828.577	25221
828.716	25552
828.855	25263
828.994	25042
829.134	24973
829.273	25129
829.412	25057
829.551	24844
829.69	25050
829.829	25038
829.968	25228
830.107	25114
830.246	25042
830.385	25015
830.524	25164
830.663	24810
830.802	24753
830.941	24673
831.08	24642
831.219	24810
831.357	24757
831.496	24920
831.635	24642
831.774	24505
831.913	24688
832.051	24479
832.19	24528
832.329	24426
832.467	24498
832.606	24399
832.744	24353
832.883	24285
833.022	24277
833.16	24509
833.299	24422
833.437	24399
833.576	24380
833.714	24475
833.852	24483
833.991	24422
834.129	24456
834.267	24559
834.406	24384
834.544	24525
834.682	24525
834.821	24376
834.959	24616
835.097	24376
835.235	24365
835.373	24426
835.511	24308
835.65	24277
835.788	24296
835.926	24201
836.064	24098
836.202	24049
836.34	24353
836.478	24403
836.615	24327
836.753	24376
836.891	24281
837.029	24334
837.167	24273
837.305	24121
837.443	24205
837.58	24053
837.718	24232
837.856	24152
837.993	24114
838.131	24049
838.269	24018
838.406	23935
838.544	23954
838.681	23745
838.819	23726
838.956	23585
839.094	23528
839.231	23657
839.369	23745
839.506	23882
839.643	23786
839.781	23619
839.918	23539
840.055	23615
840.193	23642
840.33	23436
840.467	23440
840.604	23509
840.742	23695
840.879	23315
841.016	23467
841.153	23562
841.29	23600
841.427	23501
841.564	23627
841.701	23414
841.838	23501
841.975	23356
842.112	23455
842.249	23364
842.385	23181
842.522	23379
842.659	23368
842.796	23318
842.933	23231
843.069	23170
843.206	23136
843.343	23208
843.479	23292
843.616	23216
843.752	22999
843.889	23067
844.025	23147
844.162	22987
844.298	23102
844.435	23022
844.571	22949
844.708	23003
844.844	23208
844.98	23204
845.117	23170
845.253	22961
845.389	22915
845.525	22968
845.661	22984
845.798	22850
845.934	22778
846.07	22706
846.206	22736
846.342	22721
846.478	22748
846.614	22531
846.75	22493
846.886	22489
847.022	22634
847.158	22508
847.294	22466
847.429	22523
847.565	22538
847.701	22755
847.837	22253
847.972	22291
848.108	22402
848.244	22314
848.379	22143
848.515	22169
848.65	22055
848.786	22044
848.921	22166
849.057	22086
849.192	22116
849.328	22158
849.463	22101
849.598	22086
849.734	22051
849.869	21987
850.004	21831
850.14	21903
850.275	21884
850.41	21804
850.545	21770
850.68	21785
850.815	21937
850.95	21892
851.085	22063
851.22	21949
851.355	21884
851.49	21835
851.625	21728
851.76	21804
851.895	21667
852.03	21861
852.165	21759
852.299	21911
852.434	21816
852.569	21956
852.703	21846
852.838	21934
852.973	21972
853.107	22036
853.242	21876
853.376	21698
853.511	21606
853.645	21644
853.78	21831
853.914	21698
854.048	21500
854.183	21759
854.317	21648
854.451	21785
854.585	21561
854.72	21720
854.854	21774
854.988	21542
855.122	21690
855.256	21485
855.39	21701
855.524	21747
855.658	21762
855.792	21663
855.926	21641
856.06	21762
856.194	21747
856.327	21698
856.461	21641
856.595	21652
856.729	21652
856.862	21823
856.996	21728
857.13	21701
857.263	21686
857.397	21709
857.53	21713
857.664	21755
857.797	21751
857.931	21838
858.064	21583
858.197	21823
858.331	21648
858.464	21603
858.597	21595
858.731	21667
858.864	21652
858.997	21523
859.13	21637
859.263	21675
859.396	21614
859.529	21595
859.662	21591
859.795	21637
859.928	21690
860.061	21831
860.194	21869
860.327	21686
860.46	21736
860.592	21857
860.725	21770
860.858	21762
860.99	21720
861.123	21606
861.256	21667
861.388	21610
861.521	22265
861.653	21549
861.786	21473
861.918	21530
862.05	21526
862.183	21523
862.315	21618
862.447	21709
862.58	21572
862.712	21405
862.844	21199
862.976	21511
863.108	21458
863.24	21736
863.372	21249
863.504	21386
863.636	21378
863.768	21424
863.9	21336
864.032	21195
864.164	21386
864.296	21336
864.428	21622
864.559	21416
864.691	21329
864.823	21405
864.954	21336
865.086	21249
865.217	21226
865.349	21150
865.48	21279
865.612	21317
865.743	21458
865.875	21420
866.006	21405
866.137	21245
866.269	21249
866.4	21344
866.531	21226
866.662	21203
866.793	21195
866.924	21146
867.055	21272
867.186	21359
867.317	21077
867.448	20986
867.579	21070
867.71	21055
867.841	21074
867.972	21252
868.103	21218
868.233	21207
868.364	21154
868.495	21275
868.625	21473
868.756	21519
868.886	21408
869.017	21389
869.147	21416
869.278	21519
869.408	21344
869.539	21431
869.669	21606
869.799	21469
869.929	21564
870.06	21633
870.19	21717
870.32	21736
870.45	21831
870.58	21804
870.71	21972
870.84	21876
870.97	21838
871.1	21831
871.23	22021
871.36	22010
871.489	21937
871.619	21960
871.749	21941
871.879	21960
872.008	22120
872.138	21956
872.267	22063
872.397	21918
872.526	21956
872.656	21846
872.785	21975
872.915	22010
873.044	22173
873.173	22105
873.303	21994
873.432	22021
873.561	22021
873.69	22032
873.819	22116
873.948	22169
874.077	22048
874.206	21998
874.335	22036
874.464	22109
874.593	22211
874.722	22169
874.851	22375
874.979	22287
875.108	22398
875.237	22291
875.365	22128
875.494	22192
875.623	22409
875.751	22226
875.88	22284
876.008	22325
876.136	22481
876.265	22630
876.393	22847
876.521	22694
876.65	22782
876.778	22691
876.906	22607
877.034	22569
877.162	22603
877.29	22455
877.418	22592
877.546	22573
877.674	22634
877.802	22645
877.93	22542
878.058	22615
878.185	22417
878.313	22500
878.441	22668
878.568	22516
878.696	22542
878.824	22489
878.951	22717
879.079	22771
879.206	22927
879.333	22816
879.461	22615
879.588	22721
879.715	22725
879.842	22797
879.97	22588
880.097	22508
880.224	22542
880.351	22569
880.478	22550
880.605	22462
880.732	22432
880.859	22622
880.986	22504
881.112	22489
881.239	22215
881.366	22105
881.493	22063
881.619	22032
881.746	22074
881.872	22063
881.999	22029
882.125	21987
882.252	21930
882.378	21903
882.505	21949
882.631	21865
882.757	21694
882.883	21854
883.01	21743
883.136	21671
883.262	21618
883.388	21496
883.514	21652
883.64	21838
883.766	21679
883.892	21389
884.018	21610
884.143	21606
884.269	21671
884.395	21435
884.52	21260
884.646	21325
884.772	21298
884.897	21291
885.023	21359
885.148	21408
885.274	21496
885.399	21412
885.524	21313
885.65	21351
885.775	21374
885.9	21344
886.025	21435
886.15	21416
886.275	21249
886.4	21222
886.525	21294
886.65	21260
886.775	21275
886.9	21420
887.025	21545
887.149	21359
887.274	21211
887.399	21100
887.523	21157
887.648	20971
887.773	21055
887.897	21154
888.021	21165
888.146	20998
888.27	21036
888.395	21154
888.519	21055
888.643	21112
888.767	21135
888.891	20906
889.015	20861
889.139	20979
889.263	20834
889.387	21070
889.511	21116
889.635	20956
889.759	20857
889.883	20834
890.006	20868
890.13	21028
890.254	20864
890.377	20781
890.501	20598
890.624	20503
890.748	20686
890.871	20549
890.995	20358
891.118	20370
891.241	20526
891.364	20499
891.488	20476
891.611	20564
891.734	20503
891.857	20549
891.98	20492
892.103	20518
892.226	20442
892.349	20549
892.471	20385
892.594	20343
892.717	20465
892.839	20396
892.962	20465
893.085	20282
893.207	20290
893.33	20240
893.452	20336
893.575	20457
893.697	20431
893.819	20423
893.941	20640
894.064	20495
894.186	20336
894.308	20248
894.43	20476
894.552	20476
894.674	20393
894.796	20138
894.918	20305
895.04	20271
895.161	20476
895.283	20431
895.405	20343
895.526	20309
895.648	20328
895.769	20442
895.891	20351
896.012	20427
896.134	20358
896.255	20343
896.376	20343
896.498	20377
896.619	20412
896.74	20309
896.861	20465
896.982	20617
897.103	20640
897.224	20644
897.345	20537
897.466	20522
897.587	20507
897.708	20689
897.828	20625
897.949	20556
898.07	20351
898.19	20499
898.311	20583
898.431	20488
898.552	20549
898.672	20636
898.792	20590
898.913	20640
899.033	20412
899.153	20366
899.273	20218
899.393	20366
899.513	20278
899.633	20229
899.753	20366
899.873	20130
899.993	20294
900.113	20218
900.232	20313
900.352	20263
900.472	20084
900.591	20046
900.711	20081
900.83	20046
900.95	20252
901.069	20138
901.189	19947
901.308	19696
901.427	19681
901.546	19734
901.665	19632
901.784	19662
901.904	19521
902.023	19392
902.141	19228
902.26	19202
902.379	19156
902.498	19187
902.617	19088
902.735	19137
902.854	19133
902.973	18985
903.091	18844
903.21	18825
903.328	18844
903.446	18764
903.565	18616
903.683	18650
903.801	18471
903.919	18547
904.038	18536
904.156	18422
904.274	18616
904.392	18448
904.51	18399
904.627	18353
904.745	18460
904.863	18467
904.981	18308
905.098	18034
905.216	18072
905.334	18121
905.451	18045
905.569	18041
905.686	18121
905.803	18053
905.921	17703
906.038	17874
906.155	17874
906.272	17653
906.389	17805
906.506	17687
906.623	17524
906.74	17722
906.857	17551
906.974	17608
907.091	17592
907.208	17687
907.324	17642
907.441	17493
907.557	17368
907.674	17303
907.79	17318
907.907	17322
908.023	17315
908.139	17288
908.256	17250
908.372	17235
908.488	17128
908.604	17071
908.72	17048
908.836	17018
908.952	16919
909.068	17025
909.184	17067
909.3	17109
909.415	17090
909.531	17025
909.647	16881
909.762	16698
909.878	16664
909.993	16881
910.108	16660
910.224	16660
910.339	16675
910.454	16592
910.57	16561
910.685	16474
910.8	16752
910.915	16698
911.03	16500
911.145	16447
911.259	16325
911.374	16341
911.489	16238
911.604	16261
911.718	16029
911.833	16040
911.947	15876
912.062	15895
912.176	16067
912.291	15991
912.405	16010
912.519	16143
912.633	16268
912.748	16051
912.862	16055
912.976	15949
913.09	15797
913.204	15827
913.318	15869
913.431	15895
913.545	16025
913.659	16017
913.772	15911
913.886	15701
914	15785
914.113	15831
914.226	15781
914.34	15747
914.453	15591
914.566	15747
914.68	15618
914.793	15587
914.906	15374
915.019	15340
915.132	15275
915.245	15268
915.358	15348
915.47	15317
915.583	15298
915.696	15507
915.809	15435
915.921	15447
916.034	15302
916.146	15150
916.259	15211
916.371	15336
916.483	15184
916.595	15199
916.708	15100
916.82	15173
916.932	15085
917.044	15043
917.156	15047
917.268	14899
917.38	14967
917.491	14895
917.603	14941
917.715	14963
917.826	15001
917.938	14975
918.049	14792
918.161	14921
918.272	15005
918.384	14937
918.495	14842
918.606	14762
918.717	14602
918.828	14686
918.939	14712
919.05	14678
919.161	14682
919.272	14518
919.383	14518
919.494	14708
919.604	14861
919.715	14727
919.826	14625
919.936	14659
920.047	14689
920.157	14670
920.267	14773
920.378	14579
920.488	14568
920.598	14815
920.708	14910
920.818	14746
920.928	14788
921.038	14967
921.148	14823
921.258	14651
921.368	14469
921.477	14355
921.587	14294
921.697	14229
921.806	14366
921.916	14282
922.025	14065
922.134	13989
922.244	14065
922.353	14020
922.462	13906
922.571	13738
922.68	13689
922.789	13681
922.898	13578
923.007	13582
923.116	13704
923.224	13613
923.333	13719
923.442	13567
923.55	13567
923.659	13506
923.767	13590
923.876	13491
923.984	13453
924.092	13346
924.201	13453
924.309	13388
924.417	13426
924.525	13365
924.633	13358
924.741	14119
924.849	13236
924.956	13289
925.064	13107
925.172	13023
925.279	13110
925.387	13114
925.494	13031
925.602	13190
925.709	13133
925.816	13038
925.924	13050
926.031	13099
926.138	13050
926.245	13042
926.352	12909
926.459	13126
926.566	13076
926.673	12958
926.779	12852
926.886	12837
926.993	12612
927.099	12703
927.206	12555
927.312	12547
927.419	12703
927.525	12650
927.631	12669
927.737	12490
927.843	12399
927.95	12361
928.056	12506
928.162	12471
928.267	12589
928.373	13107
928.479	12502
928.585	12327
928.69	12426
928.796	12506
928.901	12342
929.007	12224
929.112	12292
929.218	12338
929.323	12186
929.428	12159
929.533	12308
929.638	12095
929.743	12114
929.848	12129
929.953	12079
930.058	12003
930.163	11901
930.267	11969
930.372	12041
930.477	11828
930.581	12060
930.685	11893
930.79	11771
930.894	11741
930.998	11695
931.103	11863
931.207	11509
931.311	11440
931.415	11330
931.519	11155
931.623	11090
