Data from test_V78500241_1284.txt Node
Date: Fri Mar 25 15:18:47 CST 2022
User: usil
Spectrometer: V785-0024
Trigger mode: 0
Integration Time (sec): 4.000000E-1
Scans to average: 1
Nonlinearity correction enabled: false
Boxcar width: 0
Storing dark spectrum: false
XAxis mode: Wavelengths
Number of Pixels in Spectrum: 1024
>>>>>Begin Spectral Data<<<<<
801.071	28109
801.214	27991
801.356	27728
801.499	27831
801.641	27530
801.783	27606
801.926	27717
802.068	27648
802.211	27583
802.353	27519
802.496	27294
802.638	27249
802.78	27272
802.923	27245
803.065	27249
803.208	27218
803.35	27325
803.492	27420
803.635	27450
803.777	27408
803.919	27519
804.061	27861
804.204	27637
804.346	27523
804.488	27454
804.63	27443
804.773	27469
804.915	27583
805.057	27595
805.199	27462
805.341	27618
805.483	27625
805.626	27587
805.768	27530
805.91	27625
806.052	27580
806.194	27671
806.336	27770
806.478	27671
806.62	27770
806.762	27618
806.904	27876
807.046	28067
807.188	28185
807.33	28158
807.472	28063
807.614	28017
807.756	27960
807.898	28036
808.04	27945
808.182	27827
808.324	27926
808.465	27922
808.607	28249
808.749	28360
808.891	28386
809.033	28459
809.174	28363
809.316	28398
809.458	28226
809.6	28322
809.741	28371
809.883	28291
810.025	28618
810.166	28599
810.308	28580
810.45	28599
810.591	28493
810.733	28428
810.875	28401
811.016	28253
811.158	28158
811.299	28341
811.441	28489
811.582	28478
811.724	28367
811.865	28329
812.007	28154
812.148	28436
812.29	28322
812.431	28611
812.573	28508
812.714	28725
812.855	28835
812.997	28934
813.138	29155
813.279	28984
813.421	28835
813.562	28778
813.703	28596
813.845	28637
813.986	28360
814.127	28200
814.268	28025
814.41	28200
814.551	27994
814.692	28150
814.833	27926
814.974	28036
815.115	28063
815.256	27842
815.397	27903
815.539	27956
815.68	27720
815.821	27789
815.962	27812
816.103	27892
816.244	27736
816.385	27720
816.526	27694
816.666	27313
816.807	27283
816.948	27367
817.089	27412
817.23	27553
817.371	27386
817.512	27275
817.653	27325
817.793	27344
817.934	27397
818.075	27355
818.216	27431
818.356	27363
818.497	27260
818.638	27036
818.778	27020
818.919	27100
819.06	27161
819.2	27199
819.341	27374
819.481	27272
819.622	27515
819.762	27587
819.903	27545
820.043	27606
820.184	27644
820.324	27370
820.465	27564
820.605	27526
820.746	27515
820.886	27412
821.026	27431
821.167	27386
821.307	27348
821.447	27325
821.588	27317
821.728	27055
821.868	26861
822.008	26910
822.149	26895
822.289	26811
822.429	26514
822.569	26549
822.709	26514
822.849	26275
822.99	26298
823.13	26320
823.27	26282
823.41	26111
823.55	26149
823.69	26161
823.83	26065
823.97	26096
824.11	25955
824.25	26005
824.389	25986
824.529	25925
824.669	25944
824.809	25974
824.949	26050
825.089	26237
825.228	25906
825.368	25799
825.508	25890
825.648	25951
825.787	25887
825.927	25894
826.067	25875
826.206	25784
826.346	25902
826.485	25761
826.625	25845
826.765	26005
826.904	25811
827.044	25734
827.183	25472
827.323	25540
827.462	25472
827.601	25609
827.741	25571
827.88	25658
828.02	25316
828.159	25514
828.298	25575
828.437	25670
828.577	25472
828.716	25620
828.855	25464
828.994	25285
829.134	25266
829.273	25331
829.412	25312
829.551	25110
829.69	25133
829.829	25419
829.968	25403
830.107	25274
830.246	25168
830.385	25244
830.524	25217
830.663	25065
830.802	25046
830.941	24977
831.08	24806
831.219	24894
831.357	24817
831.496	25297
831.635	24859
831.774	24821
831.913	24806
832.051	24616
832.19	24711
832.329	24658
832.467	24589
832.606	24490
832.744	24532
832.883	24475
833.022	24380
833.16	24578
833.299	24688
833.437	24673
833.576	24707
833.714	24631
833.852	24642
833.991	24620
834.129	24753
834.267	24787
834.406	24589
834.544	24711
834.682	24776
834.821	24528
834.959	24840
835.097	24593
835.235	24703
835.373	24593
835.511	24502
835.65	24544
835.788	24490
835.926	24251
836.064	24289
836.202	24228
836.34	24441
836.478	24483
836.615	24502
836.753	24304
836.891	24623
837.029	24479
837.167	24528
837.305	24342
837.443	24323
837.58	24224
837.718	24388
837.856	24304
837.993	24186
838.131	24281
838.269	24194
838.406	24201
838.544	24144
838.681	24030
838.819	23912
838.956	23805
839.094	23657
839.231	23882
839.369	23920
839.506	24095
839.643	24018
839.781	23733
839.918	23668
840.055	23836
840.193	23756
840.33	23687
840.467	23726
840.604	23760
840.742	23980
840.879	23436
841.016	23760
841.153	23558
841.29	23722
841.427	23558
841.564	23786
841.701	23634
841.838	23638
841.975	23623
842.112	23539
842.249	23452
842.385	23501
842.522	23638
842.659	23387
842.796	23429
842.933	23345
843.069	23429
843.206	23398
843.343	23497
843.479	23528
843.616	23417
843.752	23155
843.889	23288
844.025	23368
844.162	23155
844.298	23280
844.435	23220
844.571	23155
844.708	23178
844.844	23364
844.98	23436
845.117	23360
845.253	23155
845.389	23102
845.525	23113
845.661	23018
845.798	22885
845.934	22915
846.07	22858
846.206	22858
846.342	23033
846.478	22919
846.614	22630
846.75	22622
846.886	22596
847.022	22717
847.158	22687
847.294	22736
847.429	22694
847.565	22565
847.701	22778
847.837	22356
847.972	22390
848.108	22325
848.244	22462
848.379	22318
848.515	22223
848.65	22010
848.786	22257
848.921	22253
849.057	22390
849.192	22348
849.328	22322
849.463	22249
849.598	22268
849.734	22223
849.869	22116
850.004	22158
850.14	22082
850.275	22021
850.41	21892
850.545	22036
850.68	22029
850.815	21934
850.95	21888
851.085	22135
851.22	22166
851.355	22063
851.49	21968
851.625	21991
851.76	22070
851.895	21713
852.03	21850
852.165	22040
852.299	21968
852.434	22215
852.569	22074
852.703	22090
852.838	22044
852.973	22207
853.107	22093
853.242	21964
853.376	21926
853.511	21637
853.645	21835
853.78	21941
853.914	21842
854.048	21812
854.183	21846
854.317	21865
854.451	21998
854.585	21850
854.72	21831
854.854	21922
854.988	21766
855.122	21930
855.256	21694
855.39	21861
855.524	21861
855.658	21880
855.792	21903
855.926	21743
856.06	21949
856.194	21983
856.327	21838
856.461	21865
856.595	21827
856.729	21797
856.862	21857
856.996	21789
857.13	21903
857.263	22013
857.397	21846
857.53	21880
857.664	21899
857.797	21899
857.931	21975
858.064	21884
858.197	21968
858.331	21797
858.464	21876
858.597	21686
858.731	21812
858.864	21800
858.997	21781
859.13	21778
859.263	21876
859.396	21945
859.529	21827
859.662	21808
859.795	21804
859.928	21781
860.061	21987
860.194	21934
860.327	21911
860.46	21880
860.592	21956
860.725	22032
860.858	21804
860.99	21770
861.123	21854
861.256	21751
861.388	21873
861.521	22580
861.653	21698
861.786	21629
861.918	21648
862.05	21663
862.183	21629
862.315	21724
862.447	21762
862.58	21739
862.712	21488
862.844	21519
862.976	21732
863.108	21500
863.24	21823
863.372	21481
863.504	21633
863.636	21542
863.768	21515
863.9	21477
864.032	21447
864.164	21466
864.296	21610
864.428	21511
864.559	21633
864.691	21633
864.823	21523
864.954	21488
865.086	21424
865.217	21397
865.349	21443
865.48	21359
865.612	21408
865.743	21542
865.875	21412
866.006	21363
866.137	21473
866.269	21393
866.4	21382
866.531	21344
866.662	21211
866.793	21351
866.924	21348
867.055	21275
867.186	21268
867.317	21420
867.448	21226
867.579	21382
867.71	21359
867.841	21218
867.972	21302
868.103	21264
868.233	21332
868.364	21359
868.495	21424
868.625	21538
868.756	21667
868.886	21450
869.017	21504
869.147	21667
869.278	21694
869.408	21637
869.539	21576
869.669	21591
869.799	21762
869.929	21724
870.06	21656
870.19	21876
870.32	21911
870.45	21911
870.58	22078
870.71	22051
870.84	22070
870.97	22029
871.1	21941
871.23	22112
871.36	22196
871.489	22124
871.619	22150
871.749	22219
871.879	22166
872.008	22226
872.138	22200
872.267	22147
872.397	22086
872.526	21949
872.656	21968
872.785	22021
872.915	22215
873.044	22325
873.173	22242
873.303	22261
873.432	22234
873.561	22188
873.69	22188
873.819	22211
873.948	22280
874.077	22086
874.206	22257
874.335	22234
874.464	22337
874.593	22367
874.722	22386
874.851	22413
874.979	22306
875.108	22409
875.237	22341
875.365	22333
875.494	22421
875.623	22580
875.751	22333
875.88	22375
876.008	22626
876.136	22637
876.265	22938
876.393	22862
876.521	22957
876.65	22961
876.778	22740
876.906	22687
877.034	22736
877.162	22679
877.29	22801
877.418	22809
877.546	22805
877.674	22736
877.802	22824
877.93	22744
878.058	22713
878.185	22596
878.313	22618
878.441	22622
878.568	22527
878.696	22603
878.824	22725
878.951	22809
879.079	22889
879.206	23083
879.333	22774
879.461	22854
879.588	22877
879.715	23018
879.842	22991
879.97	22630
880.097	22672
880.224	22561
880.351	22660
880.478	22500
880.605	22546
880.732	22535
880.859	22759
880.986	22573
881.112	22554
881.239	22417
881.366	22356
881.493	22211
881.619	22124
881.746	22295
881.872	22086
881.999	22200
882.125	22006
882.252	22166
882.378	22090
882.505	22226
882.631	21968
882.757	21899
882.883	21983
883.01	21816
883.136	21781
883.262	21797
883.388	21732
883.514	21907
883.64	21918
883.766	21785
883.892	21534
884.018	21622
884.143	21823
884.269	21827
884.395	21633
884.52	21511
884.646	21424
884.772	21298
884.897	21401
885.023	21340
885.148	21568
885.274	21583
885.399	21492
885.524	21412
885.65	21500
885.775	21610
885.9	21359
886.025	21526
886.15	21553
886.275	21439
886.4	21363
886.525	21416
886.65	21275
886.775	21405
886.9	21633
887.025	21736
887.149	21408
887.274	21294
887.399	21211
887.523	21294
887.648	21214
887.773	21176
887.897	21329
888.021	21260
888.146	21230
888.27	21416
888.395	21401
888.519	21283
888.643	21306
888.767	21382
888.891	21142
889.015	21058
889.139	21222
889.263	21161
889.387	21055
889.511	21264
889.635	21226
889.759	21055
889.883	21032
890.006	21036
890.13	21116
890.254	20941
890.377	20994
890.501	20762
890.624	20781
890.748	20864
890.871	20678
890.995	20670
891.118	20648
891.241	20636
891.364	20750
891.488	20735
891.611	20575
891.734	20743
891.857	20583
891.98	20621
892.103	20575
892.226	20609
892.349	20503
892.471	20473
892.594	20385
892.717	20552
892.839	20514
892.962	20499
893.085	20648
893.207	20564
893.33	20450
893.452	20564
893.575	20533
893.697	20457
893.819	20636
893.941	20724
894.064	20724
894.186	20381
894.308	20552
894.43	20724
894.552	20617
894.674	20602
894.796	20324
894.918	20659
895.04	20583
895.161	20667
895.283	20522
895.405	20370
895.526	20507
895.648	20621
895.769	20568
895.891	20355
896.012	20537
896.134	20625
896.255	20530
896.376	20457
896.498	20476
896.619	20556
896.74	20484
896.861	20545
896.982	20857
897.103	20921
897.224	20826
897.345	20705
897.466	20545
897.587	20834
897.708	20868
897.828	20758
897.949	20617
898.07	20530
898.19	20686
898.311	20765
898.431	20762
898.552	20800
898.672	20754
898.792	20777
898.913	20712
899.033	20609
899.153	20492
899.273	20461
899.393	20545
899.513	20522
899.633	20503
899.753	20469
899.873	20419
899.993	20484
900.113	20362
900.232	20332
900.352	20355
900.472	20282
900.591	20103
900.711	20180
900.83	20069
900.95	20423
901.069	20343
901.189	20206
901.308	19944
901.427	19734
901.546	19807
901.665	19845
901.784	19841
901.904	19658
902.023	19540
902.141	19362
902.26	19270
902.379	19430
902.498	19312
902.617	19141
902.735	19396
902.854	19209
902.973	19255
903.091	18924
903.21	19061
903.328	18981
903.446	18829
903.565	18768
903.683	18814
903.801	18757
903.919	18768
904.038	18817
904.156	18547
904.274	18669
904.392	18483
904.51	18540
904.627	18650
904.745	18661
904.863	18574
904.981	18403
905.098	18213
905.216	18186
905.334	18235
905.451	18182
905.569	18380
905.686	18338
905.803	18254
905.921	18015
906.038	18068
906.155	18087
906.272	17828
906.389	17965
906.506	17847
906.623	17779
906.74	17634
906.857	17551
906.974	17668
907.091	17832
907.208	17878
907.324	17779
907.441	17665
907.557	17478
907.674	17501
907.79	17452
907.907	17379
908.023	17493
908.139	17505
908.256	17440
908.372	17398
908.488	17402
908.604	17254
908.72	17136
908.836	17254
908.952	17181
909.068	17166
909.184	17254
909.3	17220
909.415	17227
909.531	17200
909.647	17045
909.762	16869
909.878	16873
909.993	16854
910.108	16866
910.224	16790
910.339	16915
910.454	16736
910.57	16637
910.685	16660
910.8	16896
910.915	16797
911.03	16771
911.145	16622
911.259	16459
911.374	16516
911.489	16405
911.604	16367
911.718	16166
911.833	16173
911.947	16086
912.062	16173
912.176	16238
912.291	16226
912.405	16147
912.519	16314
912.633	16341
912.748	16333
912.862	16204
912.976	16105
913.09	15880
913.204	16021
913.318	15994
913.431	16135
913.545	16063
913.659	16139
913.772	15964
913.886	15854
914	15842
914.113	15903
914.226	15846
914.34	15850
914.453	15743
914.566	15816
914.68	15629
914.793	15622
914.906	15610
915.019	15500
915.132	15355
915.245	15454
915.358	15424
915.47	15496
915.583	15374
915.696	15439
915.809	15557
915.921	15519
916.034	15416
916.146	15348
916.259	15344
916.371	15500
916.483	15325
916.595	15325
916.708	15317
916.82	15287
916.932	15252
917.044	15195
917.156	15123
917.268	15066
917.38	15058
917.491	15055
917.603	15119
917.715	15142
917.826	15032
917.938	15039
918.049	14910
918.161	15032
918.272	15074
918.384	15089
918.495	14960
918.606	14895
918.717	14773
918.828	14830
918.939	14902
919.05	14792
919.161	14765
919.272	14522
919.383	14682
919.494	14807
919.604	15032
919.715	14800
919.826	14758
919.936	14773
920.047	14960
920.157	14754
920.267	14918
920.378	14754
920.488	14739
920.598	14891
920.708	15157
920.818	14929
920.928	14952
921.038	15001
921.148	14990
921.258	14716
921.368	14712
921.477	14476
921.587	14488
921.697	14309
921.806	14549
921.916	14400
922.025	14191
922.134	14115
922.244	14115
922.353	14206
922.462	14062
922.571	13944
922.68	13887
922.789	13826
922.898	13799
923.007	13727
923.116	13875
923.224	13772
923.333	13723
923.442	13662
923.55	13639
923.659	13544
923.767	13681
923.876	13590
923.984	13696
924.092	13563
924.201	13552
924.309	13590
924.417	13457
924.525	13362
924.633	13350
924.741	14324
924.849	13247
924.956	13369
925.064	13228
925.172	13133
925.279	13084
925.387	13301
925.494	13031
925.602	13259
925.709	13244
925.816	13118
925.924	13137
926.031	13099
926.138	13160
926.245	13187
926.352	13027
926.459	13141
926.566	13225
926.673	13019
926.779	12916
926.886	12817
926.993	12753
927.099	12738
927.206	12627
927.312	12658
927.419	12806
927.525	12707
927.631	12798
927.737	12662
927.843	12631
927.95	12475
928.056	12528
928.162	12612
928.267	12559
928.373	13190
928.479	12551
928.585	12372
928.69	12635
928.796	12570
928.901	12433
929.007	12296
929.112	12369
929.218	12311
929.323	12323
929.428	12235
929.533	12350
929.638	12140
929.743	12213
929.848	12251
929.953	12239
930.058	12064
930.163	12026
930.267	11923
930.372	12064
930.477	11996
930.581	12194
930.685	11988
930.79	11889
930.894	11942
930.998	11832
931.103	11931
931.207	11589
931.311	11429
931.415	11334
931.519	11223
931.623	11201
