Data from test_V78500241_3145.txt Node
Date: Fri Mar 25 15:31:45 CST 2022
User: usil
Spectrometer: V785-0024
Trigger mode: 0
Integration Time (sec): 4.000000E-1
Scans to average: 1
Nonlinearity correction enabled: false
Boxcar width: 0
Storing dark spectrum: false
XAxis mode: Wavelengths
Number of Pixels in Spectrum: 1024
>>>>>Begin Spectral Data<<<<<
801.071	27245
801.214	27154
801.356	26872
801.499	26689
801.641	26815
801.783	26811
801.926	26785
802.068	26804
802.211	26697
802.353	26568
802.496	26271
802.638	26393
802.78	26347
802.923	26252
803.065	26195
803.208	26267
803.35	26305
803.492	26442
803.635	26404
803.777	26393
803.919	26541
804.061	26811
804.204	26484
804.346	26381
804.488	26298
804.63	26560
804.773	26442
804.915	26473
805.057	26537
805.199	26465
805.341	26583
805.483	26511
805.626	26518
805.768	26552
805.91	26632
806.052	26651
806.194	26598
806.336	26781
806.478	26602
806.62	26629
806.762	26648
806.904	26781
807.046	27165
807.188	26979
807.33	26864
807.472	27119
807.614	26944
807.756	26952
807.898	26823
808.04	26834
808.182	26785
808.324	26925
808.465	26842
808.607	27032
808.749	27112
808.891	27260
809.033	27420
809.174	27310
809.316	27207
809.458	27081
809.6	27218
809.741	27112
809.883	27268
810.025	27458
810.166	27511
810.308	27443
810.45	27416
810.591	27348
810.733	27222
810.875	27188
811.016	27085
811.158	27036
811.299	27310
811.441	27473
811.582	27260
811.724	27176
811.865	27211
812.007	27104
812.148	27142
812.29	27226
812.431	27317
812.573	27542
812.714	27564
812.855	27698
812.997	27793
813.138	27842
813.279	27800
813.421	27732
813.562	27625
813.703	27378
813.845	27344
813.986	27165
814.127	26956
814.268	26967
814.41	26804
814.551	26804
814.692	26899
814.833	26739
814.974	26876
815.115	26868
815.256	26773
815.397	26826
815.539	26746
815.68	26625
815.821	26590
815.962	26667
816.103	26537
816.244	26568
816.385	26396
816.526	26385
816.666	26229
816.807	26092
816.948	26301
817.089	26195
817.23	26111
817.371	26142
817.512	26046
817.653	26077
817.793	26008
817.934	26130
818.075	26130
818.216	26202
818.356	26168
818.497	26043
818.638	25887
818.778	25917
818.919	25818
819.06	26001
819.2	25925
819.341	26058
819.481	26103
819.622	26138
819.762	26412
819.903	26484
820.043	26206
820.184	26157
820.324	26145
820.465	26237
820.605	26324
820.746	26240
820.886	26062
821.026	26183
821.167	26054
821.307	26214
821.447	26077
821.588	26084
821.728	25928
821.868	25811
822.008	25567
822.149	25529
822.289	25674
822.429	25312
822.569	25122
822.709	25175
822.849	25069
822.99	25179
823.13	25050
823.27	24996
823.41	24924
823.55	24661
823.69	24783
823.83	24837
823.97	24798
824.11	24730
824.25	24673
824.389	24848
824.529	24920
824.669	24783
824.809	24806
824.949	24833
825.089	24814
825.228	24913
825.368	24707
825.508	24555
825.648	24540
825.787	24715
825.927	24677
826.067	24597
826.206	24608
826.346	24563
826.485	24677
826.625	24578
826.765	24753
826.904	24639
827.044	24467
827.183	24456
827.323	24277
827.462	24289
827.601	24277
827.741	24239
827.88	24277
828.02	24083
828.159	24338
828.298	24391
828.437	24372
828.577	24300
828.716	24388
828.855	24106
828.994	23923
829.134	24197
829.273	23992
829.412	23882
829.551	23988
829.69	23988
829.829	24098
829.968	24003
830.107	24087
830.246	24064
830.385	23889
830.524	23939
830.663	23817
830.802	23733
830.941	23661
831.08	23585
831.219	23699
831.357	23680
831.496	23912
831.635	23528
831.774	23585
831.913	23433
832.051	23421
832.19	23414
832.329	23372
832.467	23318
832.606	23269
832.744	23258
832.883	23235
833.022	23216
833.16	23265
833.299	23337
833.437	23250
833.576	23258
833.714	23387
833.852	23356
833.991	23387
834.129	23421
834.267	23448
834.406	23349
834.544	23448
834.682	23318
834.821	23277
834.959	23535
835.097	23288
835.235	23463
835.373	23318
835.511	23417
835.65	23181
835.788	23269
835.926	23064
836.064	23025
836.202	23056
836.34	23117
836.478	23189
836.615	23170
836.753	23102
836.891	23311
837.029	23231
837.167	23200
837.305	22995
837.443	23128
837.58	22976
837.718	22930
837.856	23060
837.993	23014
838.131	22961
838.269	22904
838.406	22991
838.544	22900
838.681	22538
838.819	22721
838.956	22485
839.094	22584
839.231	22603
839.369	22599
839.506	22942
839.643	22729
839.781	22527
839.918	22512
840.055	22508
840.193	22546
840.33	22500
840.467	22554
840.604	22584
840.742	22713
840.879	22360
841.016	22417
841.153	22310
841.29	22683
841.427	22462
841.564	22402
841.701	22367
841.838	22428
841.975	22310
842.112	22363
842.249	22314
842.385	22238
842.522	22440
842.659	22314
842.796	22169
842.933	22185
843.069	22181
843.206	22143
843.343	22333
843.479	22154
843.616	22188
843.752	21945
843.889	22109
844.025	22135
844.162	22040
844.298	22166
844.435	21922
844.571	21926
844.708	22147
844.844	22211
844.98	22150
845.117	22101
845.253	21899
845.389	21816
845.525	21899
845.661	21895
845.798	21728
845.934	21857
846.07	21686
846.206	21785
846.342	21804
846.478	21789
846.614	21515
846.75	21450
846.886	21542
847.022	21523
847.158	21428
847.294	21542
847.429	21614
847.565	21435
847.701	21629
847.837	21138
847.972	21173
848.108	21252
848.244	21184
848.379	21077
848.515	21017
848.65	20990
848.786	21161
848.921	21161
849.057	21157
849.192	21203
849.328	21066
849.463	21070
849.598	21013
849.734	21055
849.869	20823
850.004	20788
850.14	20986
850.275	20823
850.41	20773
850.545	20750
850.68	20807
850.815	20758
850.95	20792
851.085	20899
851.22	20960
851.355	20807
851.49	20834
851.625	20796
851.76	20826
851.895	20602
852.03	20830
852.165	20906
852.299	20921
852.434	20857
852.569	20864
852.703	20804
852.838	20800
852.973	21085
853.107	20944
853.242	20804
853.376	20762
853.511	20549
853.645	20693
853.78	20720
853.914	20708
854.048	20648
854.183	20708
854.317	20716
854.451	20857
854.585	20636
854.72	20598
854.854	20727
854.988	20712
855.122	20750
855.256	20533
855.39	20579
855.524	20678
855.658	20602
855.792	20750
855.926	20609
856.06	20746
856.194	20693
856.327	20754
856.461	20674
856.595	20598
856.729	20568
856.862	20807
856.996	20720
857.13	20705
857.263	20944
857.397	20746
857.53	20648
857.664	20731
857.797	20701
857.931	20765
858.064	20670
858.197	20731
858.331	20609
858.464	20651
858.597	20625
858.731	20621
858.864	20587
858.997	20564
859.13	20587
859.263	20667
859.396	20655
859.529	20602
859.662	20644
859.795	20682
859.928	20785
860.061	20781
860.194	20834
860.327	20735
860.46	20606
860.592	20720
860.725	20815
860.858	20750
860.99	20545
861.123	20613
861.256	20632
861.388	20632
861.521	21176
861.653	20575
861.786	20450
861.918	20434
862.05	20526
862.183	20488
862.315	20670
862.447	20613
862.58	20533
862.712	20465
862.844	20415
862.976	20393
863.108	20514
863.24	20838
863.372	20275
863.504	20454
863.636	20381
863.768	20484
863.9	20343
864.032	20317
864.164	20328
864.296	20343
864.428	20442
864.559	20419
864.691	20381
864.823	20309
864.954	20442
865.086	20320
865.217	20301
865.349	20301
865.48	20240
865.612	20164
865.743	20377
865.875	20237
866.006	20248
866.137	20336
866.269	20229
866.4	20240
866.531	20180
866.662	20225
866.793	20233
866.924	20187
867.055	20317
867.186	20301
867.317	20355
867.448	20119
867.579	20134
867.71	20187
867.841	20111
867.972	20237
868.103	20168
868.233	20332
868.364	20282
868.495	20259
868.625	20530
868.756	20530
868.886	20355
869.017	20465
869.147	20461
869.278	20587
869.408	20545
869.539	20457
869.669	20571
869.799	20511
869.929	20545
870.06	20503
870.19	20876
870.32	20663
870.45	20724
870.58	20834
870.71	20941
870.84	20963
870.97	20899
871.1	20792
871.23	20975
871.36	21055
871.489	21013
871.619	21055
871.749	21036
871.879	21116
872.008	21264
872.138	21009
872.267	21096
872.397	21020
872.526	20731
872.656	20918
872.785	21013
872.915	21142
873.044	21230
873.173	21154
873.303	21116
873.432	21157
873.561	21218
873.69	21020
873.819	21203
873.948	21298
874.077	21093
874.206	20998
874.335	21146
874.464	21169
874.593	21431
874.722	21199
874.851	21332
874.979	21252
875.108	21443
875.237	21260
875.365	21393
875.494	21226
875.623	21382
875.751	21306
875.88	21424
876.008	21462
876.136	21511
876.265	21724
876.393	21774
876.521	21800
876.65	21804
876.778	21732
876.906	21660
877.034	21603
877.162	21656
877.29	21648
877.418	21694
877.546	21736
877.674	21633
877.802	21694
877.93	21720
878.058	21701
878.185	21458
878.313	21652
878.441	21622
878.568	21549
878.696	21526
878.824	21724
878.951	21861
879.079	21903
879.206	21888
879.333	21747
879.461	21873
879.588	21892
879.715	21945
879.842	21956
879.97	21873
880.097	21469
880.224	21355
880.351	21523
880.478	21454
880.605	21458
880.732	21523
880.859	21762
880.986	21530
881.112	21622
881.239	21507
881.366	21226
881.493	21226
881.619	21154
881.746	21081
881.872	21127
881.999	20918
882.125	21051
882.252	20979
882.378	20998
882.505	21116
882.631	20952
882.757	20868
882.883	20880
883.01	20754
883.136	20648
883.262	20716
883.388	20526
883.514	20720
883.64	20819
883.766	20792
883.892	20583
884.018	20617
884.143	20739
884.269	20845
884.395	20469
884.52	20336
884.646	20549
884.772	20412
884.897	20370
885.023	20488
885.148	20488
885.274	20579
885.399	20632
885.524	20423
885.65	20503
885.775	20442
885.9	20431
886.025	20556
886.15	20545
886.275	20339
886.4	20298
886.525	20454
886.65	20549
886.775	20351
886.9	20552
887.025	20708
887.149	20374
887.274	20298
887.399	20286
887.523	20248
887.648	20100
887.773	20115
887.897	20252
888.021	20233
888.146	20221
888.27	20301
888.395	20248
888.519	20259
888.643	20259
888.767	20237
888.891	20134
889.015	20001
889.139	20096
889.263	19993
889.387	20172
889.511	20233
889.635	20168
889.759	19967
889.883	19944
890.006	20043
890.13	20130
890.254	19974
890.377	20035
890.501	19913
890.624	19761
890.748	19807
890.871	19696
890.995	19605
891.118	19647
891.241	19575
891.364	19601
891.488	19727
891.611	19521
891.734	19715
891.857	19643
891.98	19693
892.103	19655
892.226	19609
892.349	19567
892.471	19464
892.594	19411
892.717	19518
892.839	19540
892.962	19578
893.085	19499
893.207	19514
893.33	19476
893.452	19480
893.575	19609
893.697	19540
893.819	19594
893.941	19666
894.064	19696
894.186	19529
894.308	19506
894.43	19681
894.552	19818
894.674	19548
894.796	19457
894.918	19499
895.04	19483
895.161	19548
895.283	19540
895.405	19578
895.526	19544
895.648	19582
895.769	19571
895.891	19575
896.012	19590
896.134	19632
896.255	19578
896.376	19495
896.498	19571
896.619	19628
896.74	19518
896.861	19628
896.982	19814
897.103	20062
897.224	19944
897.345	19814
897.466	19704
897.587	19616
897.708	19936
897.828	19811
897.949	19696
898.07	19658
898.19	19811
898.311	19875
898.431	19822
898.552	19738
898.672	19894
898.792	19879
898.913	19761
899.033	19731
899.153	19480
899.273	19483
899.393	19499
899.513	19548
899.633	19567
899.753	19552
899.873	19457
899.993	19571
900.113	19476
900.232	19495
900.352	19411
900.472	19400
900.591	19232
900.711	19278
900.83	19308
900.95	19373
901.069	19331
901.189	19175
901.308	18871
901.427	18901
901.546	18924
901.665	18894
901.784	18920
901.904	18783
902.023	18593
902.141	18456
902.26	18391
902.379	18464
902.498	18330
902.617	18327
902.735	18410
902.854	18346
902.973	18270
903.091	18129
903.21	18083
903.328	18087
903.446	17946
903.565	17980
903.683	17969
903.801	17805
903.919	17931
904.038	17908
904.156	17726
904.274	17714
904.392	17600
904.51	17703
904.627	17596
904.745	17687
904.863	17630
904.981	17452
905.098	17383
905.216	17368
905.334	17341
905.451	17341
905.569	17303
905.686	17360
905.803	17223
905.921	17147
906.038	17239
906.155	17170
906.272	17048
906.389	17018
906.506	16934
906.623	16873
906.74	16930
906.857	16683
906.974	16942
907.091	17052
907.208	16953
907.324	16946
907.441	16786
907.557	16664
907.674	16653
907.79	16622
907.907	16637
908.023	16641
908.139	16660
908.256	16478
908.372	16592
908.488	16394
908.604	16318
908.72	16379
908.836	16249
908.952	16219
909.068	16265
909.184	16542
909.3	16329
909.415	16352
909.531	16314
909.647	16071
909.762	16071
909.878	15994
909.993	16013
910.108	15994
910.224	16112
910.339	16051
910.454	15911
910.57	15861
910.685	15747
910.8	16029
910.915	16002
911.03	15968
911.145	15595
911.259	15637
911.374	15606
911.489	15553
911.604	15553
911.718	15420
911.833	15359
911.947	15405
912.062	15211
912.176	15416
912.291	15466
912.405	15386
912.519	15698
912.633	15625
912.748	15473
912.862	15351
912.976	15275
913.09	15135
913.204	15112
913.318	15195
913.431	15313
913.545	15367
913.659	15363
913.772	15138
913.886	15093
914	14933
914.113	15104
914.226	15241
914.34	15093
914.453	14971
914.566	14998
914.68	14982
914.793	14887
914.906	14701
915.019	14670
915.132	14644
915.245	14678
915.358	14754
915.47	14545
915.583	14621
915.696	14743
915.809	14811
915.921	14872
916.034	14587
916.146	14594
916.259	14526
916.371	14621
916.483	14488
916.595	14571
916.708	14457
916.82	14408
916.932	14438
917.044	14427
917.156	14412
917.268	14275
917.38	14377
917.491	14332
917.603	14172
917.715	14343
917.826	14351
917.938	14294
918.049	14164
918.161	14278
918.272	14419
918.384	14370
918.495	14248
918.606	14084
918.717	14012
918.828	14172
918.939	14084
919.05	14107
919.161	14069
919.272	13811
919.383	13909
919.494	14065
919.604	14271
919.715	14092
919.826	13940
919.936	14050
920.047	14123
920.157	14058
920.267	14195
920.378	14005
920.488	14069
920.598	14202
920.708	14374
920.818	14103
920.928	14138
921.038	14328
921.148	14324
921.258	13959
921.368	13925
921.477	13822
921.587	13856
921.697	13655
921.806	13856
921.916	13651
922.025	13575
922.134	13499
922.244	13468
922.353	13499
922.462	13266
922.571	13304
922.68	13221
922.789	13152
922.898	13141
923.007	13072
923.116	13156
923.224	13103
923.333	12962
923.442	12993
923.55	12909
923.659	12958
923.767	12977
923.876	12882
923.984	12894
924.092	12798
924.201	12943
924.309	12928
924.417	12867
924.525	12798
924.633	12768
924.741	13731
924.849	12597
924.956	12772
925.064	12585
925.172	12623
925.279	12483
925.387	12563
925.494	12665
925.602	12703
925.709	12559
925.816	12483
925.924	12566
926.031	12566
926.138	12521
926.245	12479
926.352	12475
926.459	12570
926.566	12635
926.673	12448
926.779	12296
926.886	12384
926.993	12178
927.099	12201
927.206	12152
927.312	12159
927.419	12171
927.525	12213
927.631	12186
927.737	12079
927.843	12057
927.95	11866
928.056	12049
928.162	12076
928.267	12041
928.373	12692
928.479	12110
928.585	11870
928.69	11916
928.796	12015
928.901	11824
929.007	11809
929.112	11954
929.218	11802
929.323	11832
929.428	11737
929.533	11836
929.638	11661
929.743	11684
929.848	11710
929.953	11695
930.058	11634
930.163	11516
930.267	11383
930.372	11577
930.477	11372
930.581	11600
930.685	11425
930.79	11315
930.894	11376
930.998	11216
931.103	11425
931.207	11102
931.311	11086
931.415	10938
931.519	10729
931.623	10687
