Data from test_V78500241_75.txt Node
Date: Fri Mar 25 15:10:23 CST 2022
User: usil
Spectrometer: V785-0024
Trigger mode: 0
Integration Time (sec): 4.000000E-1
Scans to average: 1
Nonlinearity correction enabled: false
Boxcar width: 0
Storing dark spectrum: false
XAxis mode: Wavelengths
Number of Pixels in Spectrum: 1024
>>>>>Begin Spectral Data<<<<<
801.071	28500
801.214	28573
801.356	28139
801.499	28207
801.641	28055
801.783	27960
801.926	28086
802.068	27964
802.211	27816
802.353	27823
802.496	27595
802.638	27538
802.78	27450
802.923	27580
803.065	27507
803.208	27572
803.35	27572
803.492	27656
803.635	27751
803.777	27568
803.919	27667
804.061	28006
804.204	27724
804.346	27595
804.488	27580
804.63	27644
804.773	27515
804.915	27759
805.057	27778
805.199	27629
805.341	27747
805.483	27732
805.626	27808
805.768	27686
805.91	27656
806.052	27800
806.194	27778
806.336	27914
806.478	27797
806.62	27747
806.762	27865
806.904	28013
807.046	28135
807.188	28017
807.33	28143
807.472	28173
807.614	28029
807.756	28090
807.898	28021
808.04	27899
808.182	27778
808.324	27937
808.465	27884
808.607	28036
808.749	28154
808.891	28265
809.033	28436
809.174	28253
809.316	28291
809.458	28303
809.6	28284
809.741	28417
809.883	28360
810.025	28367
810.166	28489
810.308	28413
810.45	28535
810.591	28344
810.733	28478
810.875	28139
811.016	28169
811.158	28067
811.299	28261
811.441	28257
811.582	28265
811.724	28211
811.865	28120
812.007	28280
812.148	28173
812.29	28246
812.431	28276
812.573	28500
812.714	28424
812.855	28656
812.997	28786
813.138	29003
813.279	28702
813.421	28561
813.562	28611
813.703	28470
813.845	28375
813.986	28036
814.127	27960
814.268	27778
814.41	27838
814.551	27785
814.692	28025
814.833	27690
814.974	27797
815.115	27778
815.256	27633
815.397	27599
815.539	27580
815.68	27507
815.821	27485
815.962	27564
816.103	27526
816.244	27359
816.385	27237
816.526	27241
816.666	27013
816.807	27039
816.948	27077
817.089	27005
817.23	27036
817.371	26998
817.512	26853
817.653	26716
817.793	26857
817.934	26769
818.075	26952
818.216	26891
818.356	26864
818.497	26762
818.638	26598
818.778	26579
818.919	26640
819.06	26583
819.2	26807
819.341	26754
819.481	26811
819.622	26979
819.762	27180
819.903	27077
820.043	26940
820.184	26986
820.324	26960
820.465	26887
820.605	26876
820.746	26960
820.886	26758
821.026	26788
821.167	26929
821.307	26834
821.447	26796
821.588	26796
821.728	26571
821.868	26370
822.008	26370
822.149	26328
822.289	26240
822.429	26020
822.569	26050
822.709	25966
822.849	25662
822.99	25700
823.13	25647
823.27	25750
823.41	25548
823.55	25445
823.69	25438
823.83	25499
823.97	25476
824.11	25362
824.25	25266
824.389	25213
824.529	25392
824.669	25285
824.809	25312
824.949	25400
825.089	25285
825.228	25293
825.368	25148
825.508	25046
825.648	25206
825.787	25145
825.927	25145
826.067	25050
826.206	25095
826.346	25160
826.485	25270
826.625	25099
826.765	25103
826.904	25160
827.044	24905
827.183	24932
827.323	24791
827.462	24798
827.601	24745
827.741	24848
827.88	24741
828.02	24677
828.159	24802
828.298	24722
828.437	24791
828.577	24745
828.716	24886
828.855	24783
828.994	24441
829.134	24467
829.273	24502
829.412	24460
829.551	24486
829.69	24350
829.829	24452
829.968	24517
830.107	24369
830.246	24395
830.385	24289
830.524	24327
830.663	24273
830.802	24186
830.941	23977
831.08	23946
831.219	24136
831.357	24110
831.496	24136
831.635	23931
831.774	23783
831.913	23908
832.051	23703
832.19	23840
832.329	23802
832.467	23646
832.606	23543
832.744	23638
832.883	23554
833.022	23710
833.16	23634
833.299	23729
833.437	23699
833.576	23653
833.714	23741
833.852	23798
833.991	23638
834.129	23756
834.267	23672
834.406	23619
834.544	23752
834.682	23684
834.821	23680
834.959	23817
835.097	23573
835.235	23581
835.373	23554
835.511	23672
835.65	23444
835.788	23459
835.926	23391
836.064	23094
836.202	23220
836.34	23459
836.478	23543
836.615	23353
836.753	23421
836.891	23490
837.029	23509
837.167	23417
837.305	23292
837.443	23334
837.58	23204
837.718	23334
837.856	23296
837.993	23235
838.131	23250
838.269	23242
838.406	23113
838.544	23140
838.681	22873
838.819	22877
838.956	22820
839.094	22694
839.231	22717
839.369	22763
839.506	23033
839.643	22896
839.781	22683
839.918	22588
840.055	22622
840.193	22615
840.33	22588
840.467	22580
840.604	22557
840.742	22736
840.879	22523
841.016	22637
841.153	22348
841.29	22706
841.427	22584
841.564	22618
841.701	22436
841.838	22379
841.975	22447
842.112	22375
842.249	22329
842.385	22325
842.522	22402
842.659	22318
842.796	22272
842.933	22333
843.069	22318
843.206	22265
843.343	22405
843.479	22360
843.616	22314
843.752	21953
843.889	22139
844.025	22112
844.162	22120
844.298	22154
844.435	21949
844.571	21922
844.708	22086
844.844	22318
844.98	22093
845.117	22044
845.253	21945
845.389	21880
845.525	22063
845.661	21949
845.798	21873
845.934	21789
846.07	21644
846.206	21793
846.342	21907
846.478	21728
846.614	21545
846.75	21488
846.886	21374
847.022	21622
847.158	21504
847.294	21515
847.429	21557
847.565	21477
847.701	21572
847.837	21146
847.972	21203
848.108	21275
848.244	21325
848.379	21047
848.515	20960
848.65	20990
848.786	21036
848.921	21127
849.057	21066
849.192	21096
849.328	20925
849.463	21074
849.598	20921
849.734	20921
849.869	20838
850.004	20842
850.14	20811
850.275	20758
850.41	20640
850.545	20765
850.68	20781
850.815	20743
850.95	20682
851.085	20921
851.22	20708
851.355	20754
851.49	20712
851.625	20648
851.76	20632
851.895	20552
852.03	20629
852.165	20735
852.299	20663
852.434	20864
852.569	20598
852.703	20777
852.838	20819
852.973	20842
853.107	21001
853.242	20754
853.376	20560
853.511	20514
853.645	20537
853.78	20781
853.914	20632
854.048	20522
854.183	20492
854.317	20480
854.451	20712
854.585	20575
854.72	20522
854.854	20640
854.988	20442
855.122	20541
855.256	20339
855.39	20480
855.524	20537
855.658	20495
855.792	20503
855.926	20693
856.06	20533
856.194	20651
856.327	20526
856.461	20507
856.595	20389
856.729	20499
856.862	20735
856.996	20575
857.13	20552
857.263	20587
857.397	20697
857.53	20598
857.664	20659
857.797	20674
857.931	20636
858.064	20533
858.197	20602
858.331	20355
858.464	20473
858.597	20374
858.731	20514
858.864	20476
858.997	20461
859.13	20400
859.263	20552
859.396	20655
859.529	20377
859.662	20438
859.795	20377
859.928	20434
860.061	20655
860.194	20564
860.327	20454
860.46	20495
860.592	20537
860.725	20522
860.858	20549
860.99	20431
861.123	20229
861.256	20434
861.388	20484
861.521	21093
861.653	20301
861.786	20400
861.918	20286
862.05	20446
862.183	20484
862.315	20492
862.447	20632
862.58	20522
862.712	20248
862.844	20054
862.976	20301
863.108	20187
863.24	20640
863.372	20069
863.504	20187
863.636	20168
863.768	20237
863.9	20119
864.032	20043
864.164	19925
864.296	20164
864.428	20206
864.559	20252
864.691	20233
864.823	20180
864.954	20130
865.086	20065
865.217	20126
865.349	19993
865.48	19967
865.612	20088
865.743	20149
865.875	19993
866.006	20024
866.137	20115
866.269	20149
866.4	20065
866.531	20005
866.662	19963
866.793	19963
866.924	20035
867.055	20039
867.186	19967
867.317	20024
867.448	19849
867.579	19913
867.71	19868
867.841	19906
867.972	20005
868.103	19909
868.233	20096
868.364	19951
868.495	20191
868.625	20271
868.756	20240
868.886	20199
869.017	20134
869.147	20355
869.278	20259
869.408	20252
869.539	20168
869.669	20263
869.799	20248
869.929	20240
870.06	20374
870.19	20450
870.32	20488
870.45	20461
870.58	20598
870.71	20693
870.84	20682
870.97	20571
871.1	20594
871.23	20689
871.36	20830
871.489	20773
871.619	20811
871.749	20807
871.879	20849
872.008	20994
872.138	20902
872.267	20815
872.397	20651
872.526	20625
872.656	20590
872.785	20621
872.915	20773
873.044	20823
873.173	20902
873.303	20872
873.432	20921
873.561	20906
873.69	20853
873.819	20834
873.948	20948
874.077	20887
874.206	20724
874.335	20785
874.464	20941
874.593	21051
874.722	21112
874.851	21100
874.979	21112
875.108	21116
875.237	20975
875.365	20998
875.494	21047
875.623	21157
875.751	21043
875.88	21001
876.008	21176
876.136	21313
876.265	21500
876.393	21564
876.521	21610
876.65	21519
876.778	21496
876.906	21382
877.034	21336
877.162	21370
877.29	21294
877.418	21466
877.546	21507
877.674	21454
877.802	21412
877.93	21481
878.058	21530
878.185	21279
878.313	21405
878.441	21359
878.568	21393
878.696	21302
878.824	21454
878.951	21599
879.079	21739
879.206	21682
879.333	21656
879.461	21355
879.588	21641
879.715	21557
879.842	21732
879.97	21393
880.097	21325
880.224	21237
880.351	21374
880.478	21382
880.605	21203
880.732	21218
880.859	21496
880.986	21207
881.112	21222
881.239	21096
881.366	20986
881.493	20929
881.619	20849
881.746	20697
881.872	20891
881.999	20815
882.125	20914
882.252	20849
882.378	20880
882.505	20941
882.631	20876
882.757	20609
882.883	20621
883.01	20556
883.136	20438
883.262	20423
883.388	20431
883.514	20533
883.64	20682
883.766	20473
883.892	20442
884.018	20259
884.143	20629
884.269	20663
884.395	20351
884.52	20286
884.646	20305
884.772	20187
884.897	20149
885.023	20168
885.148	20240
885.274	20423
885.399	20419
885.524	20176
885.65	20183
885.775	20221
885.9	20199
886.025	20370
886.15	20252
886.275	20225
886.4	20016
886.525	20157
886.65	20183
886.775	20062
886.9	20271
887.025	20415
887.149	20214
887.274	19894
887.399	19883
887.523	19936
887.648	19852
887.773	19799
887.897	19944
888.021	19944
888.146	19799
888.27	20122
888.395	20084
888.519	20088
888.643	20073
888.767	19955
888.891	19784
889.015	19719
889.139	19814
889.263	19906
889.387	19989
889.511	19997
889.635	19921
889.759	19811
889.883	19769
890.006	19750
890.13	19875
890.254	19712
890.377	19548
890.501	19483
890.624	19472
890.748	19681
890.871	19392
890.995	19316
891.118	19365
891.241	19289
891.364	19430
891.488	19544
891.611	19384
891.734	19392
891.857	19392
891.98	19354
892.103	19346
892.226	19308
892.349	19304
892.471	19141
892.594	19308
892.717	19259
892.839	19373
892.962	19217
893.085	19282
893.207	19270
893.33	19206
893.452	19160
893.575	19301
893.697	19194
893.819	19266
893.941	19529
894.064	19483
894.186	19190
894.308	19152
894.43	19396
894.552	19400
894.674	19362
894.796	19198
894.918	19270
895.04	19194
895.161	19263
895.283	19331
895.405	19312
895.526	19304
895.648	19274
895.769	19335
895.891	19392
896.012	19445
896.134	19403
896.255	19335
896.376	19285
896.498	19285
896.619	19312
896.74	19289
896.861	19396
896.982	19696
897.103	19693
897.224	19700
897.345	19480
897.466	19552
897.587	19426
897.708	19670
897.828	19616
897.949	19392
898.07	19430
898.19	19441
898.311	19578
898.431	19537
898.552	19533
898.672	19483
898.792	19502
898.913	19521
899.033	19301
899.153	19255
899.273	19179
899.393	19217
899.513	19225
899.633	19171
899.753	19297
899.873	19160
899.993	19278
900.113	19118
900.232	19179
900.352	19107
900.472	19034
900.591	19031
900.711	19023
900.83	19076
900.95	19168
901.069	19091
901.189	18894
901.308	18757
901.427	18741
901.546	18692
901.665	18753
901.784	18707
901.904	18509
902.023	18445
902.141	18144
902.26	18186
902.379	18315
902.498	18114
902.617	18114
902.735	18197
902.854	18003
902.973	17988
903.091	17836
903.21	17874
903.328	17802
903.446	17691
903.565	17684
903.683	17668
903.801	17474
903.919	17604
904.038	17592
904.156	17452
904.274	17566
904.392	17387
904.51	17353
904.627	17452
904.745	17440
904.863	17433
904.981	17231
905.098	17045
905.216	17018
905.334	17121
905.451	17109
905.569	16987
905.686	17060
905.803	17090
905.921	16801
906.038	16949
906.155	16908
906.272	16793
906.389	16828
906.506	16683
906.623	16702
906.74	16573
906.857	16504
906.974	16512
907.091	16664
907.208	16805
907.324	16561
907.441	16466
907.557	16276
907.674	16287
907.79	16226
907.907	16192
908.023	16310
908.139	16375
908.256	16333
908.372	16090
908.488	16067
908.604	16048
908.72	15884
908.836	15956
908.952	16010
909.068	15968
909.184	16109
909.3	15956
909.415	16059
909.531	15915
909.647	15644
909.762	15720
909.878	15641
909.993	15778
910.108	15660
910.224	15614
910.339	15599
910.454	15466
910.57	15523
910.685	15424
910.8	15682
910.915	15656
911.03	15443
911.145	15370
911.259	15310
911.374	15237
911.489	15226
911.604	15226
911.718	15043
911.833	14994
911.947	14899
912.062	14815
912.176	15009
912.291	15062
912.405	14941
912.519	15214
912.633	15150
912.748	15047
912.862	14944
912.976	14845
913.09	14788
913.204	14750
913.318	14857
913.431	14925
913.545	14872
913.659	14887
913.772	14823
913.886	14613
914	14651
914.113	14754
914.226	14838
914.34	14678
914.453	14560
914.566	14686
914.68	14632
914.793	14473
914.906	14450
915.019	14339
915.132	14240
915.245	14294
915.358	14320
915.47	14298
915.583	14309
915.696	14385
915.809	14389
915.921	14438
916.034	14229
916.146	14206
916.259	14176
916.371	14332
916.483	14339
916.595	14176
916.708	14138
916.82	14107
916.932	14191
917.044	14107
917.156	14149
917.268	14012
917.38	14050
917.491	13947
917.603	13940
917.715	14005
917.826	14035
917.938	13936
918.049	13689
918.161	13928
918.272	14115
918.384	14073
918.495	13898
918.606	13822
918.717	13632
918.828	13742
918.939	13776
919.05	13586
919.161	13700
919.272	13506
919.383	13567
919.494	13753
919.604	13928
919.715	13605
919.826	13712
919.936	13582
920.047	13795
920.157	13658
920.267	13841
920.378	13704
920.488	13571
920.598	13822
920.708	13944
920.818	13913
920.928	13826
921.038	13974
921.148	13902
921.258	13681
921.368	13590
921.477	13468
921.587	13422
921.697	13263
921.806	13453
921.916	13289
922.025	13179
922.134	13061
922.244	12977
922.353	13072
922.462	12916
922.571	12886
922.68	12738
922.789	12696
922.898	12650
923.007	12669
923.116	12570
923.224	12639
923.333	12570
923.442	12525
923.55	12559
923.659	12563
923.767	12669
923.876	12544
923.984	12589
924.092	12380
924.201	12623
924.309	12540
924.417	12563
924.525	12422
924.633	12353
924.741	13198
924.849	12186
924.956	12350
925.064	12281
925.172	12148
925.279	12133
925.387	12235
925.494	12251
925.602	12281
925.709	12228
925.816	12125
925.924	12209
926.031	12201
926.138	12083
926.245	12197
926.352	12041
926.459	12289
926.566	12163
926.673	12011
926.779	11973
926.886	11942
926.993	11828
927.099	11767
927.206	11684
927.312	11707
927.419	11802
927.525	11809
927.631	11802
927.737	11710
927.843	11619
927.95	11539
928.056	11516
928.162	11653
928.267	11672
928.373	12186
928.479	11707
928.585	11402
928.69	11653
928.796	11596
928.901	11478
929.007	11242
929.112	11452
929.218	11474
929.323	11349
929.428	11288
929.533	11463
929.638	11280
929.743	11353
929.848	11288
929.953	11353
930.058	11220
930.163	10980
930.267	11124
930.372	11208
930.477	10949
930.581	11162
930.685	11052
930.79	10957
930.894	10904
930.998	10927
931.103	11029
931.207	10740
931.311	10569
931.415	10466
931.519	10295
931.623	10299
