Data from test_V78500241_444.txt Node
Date: Fri Mar 25 15:12:57 CST 2022
User: usil
Spectrometer: V785-0024
Trigger mode: 0
Integration Time (sec): 4.000000E-1
Scans to average: 1
Nonlinearity correction enabled: false
Boxcar width: 0
Storing dark spectrum: false
XAxis mode: Wavelengths
Number of Pixels in Spectrum: 1024
>>>>>Begin Spectral Data<<<<<
801.071	27047
801.214	27089
801.356	26864
801.499	26842
801.641	26735
801.783	26842
801.926	26724
802.068	26609
802.211	26503
802.353	26446
802.496	26393
802.638	26324
802.78	26290
802.923	26191
803.065	26370
803.208	26305
803.35	26389
803.492	26434
803.635	26412
803.777	26332
803.919	26431
804.061	26773
804.204	26476
804.346	26351
804.488	26450
804.63	26419
804.773	26252
804.915	26473
805.057	26453
805.199	26434
805.341	26541
805.483	26530
805.626	26617
805.768	26484
805.91	26530
806.052	26598
806.194	26552
806.336	26667
806.478	26617
806.62	26708
806.762	26731
806.904	26849
807.046	27146
807.188	27070
807.33	26948
807.472	26982
807.614	27032
807.756	26891
807.898	26712
808.04	26731
808.182	26712
808.324	26754
808.465	26807
808.607	27085
808.749	27074
808.891	27180
809.033	27378
809.174	27211
809.316	27199
809.458	27146
809.6	27104
809.741	27157
809.883	27233
810.025	27298
810.166	27515
810.308	27477
810.45	27389
810.591	27538
810.733	27127
810.875	26990
811.016	26899
811.158	26891
811.299	27306
811.441	27268
811.582	27268
811.724	27051
811.865	27154
812.007	27066
812.148	27028
812.29	27252
812.431	27214
812.573	27427
812.714	27583
812.855	27648
812.997	27720
813.138	27949
813.279	27785
813.421	27606
813.562	27652
813.703	27473
813.845	27473
813.986	27070
814.127	26921
814.268	26899
814.41	26800
814.551	26796
814.692	26842
814.833	26735
814.974	26845
815.115	26800
815.256	26659
815.397	26746
815.539	26507
815.68	26655
815.821	26590
815.962	26651
816.103	26629
816.244	26374
816.385	26377
816.526	26377
816.666	26275
816.807	26214
816.948	26073
817.089	26161
817.23	26065
817.371	26065
817.512	26096
817.653	26065
817.793	26161
817.934	26069
818.075	26043
818.216	26103
818.356	25974
818.497	25966
818.638	25715
818.778	25875
818.919	25772
819.06	25856
819.2	25982
819.341	25993
819.481	26103
819.622	26374
819.762	26343
819.903	26221
820.043	26073
820.184	26206
820.324	26309
820.465	26206
820.605	26115
820.746	26126
820.886	26031
821.026	26229
821.167	26069
821.307	26229
821.447	25989
821.588	26096
821.728	25860
821.868	25639
822.008	25731
822.149	25651
822.289	25487
822.429	25369
822.569	25145
822.709	25308
822.849	25091
822.99	24954
823.13	24821
823.27	25000
823.41	24749
823.55	24837
823.69	24863
823.83	24840
823.97	24772
824.11	24601
824.25	24566
824.389	24555
824.529	24707
824.669	24673
824.809	24692
824.949	24776
825.089	24719
825.228	24741
825.368	24479
825.508	24467
825.648	24620
825.787	24486
825.927	24578
826.067	24559
826.206	24494
826.346	24475
826.485	24593
826.625	24597
826.765	24681
826.904	24688
827.044	24357
827.183	24289
827.323	24258
827.462	24315
827.601	24262
827.741	24186
827.88	24235
828.02	24171
828.159	24197
828.298	24380
828.437	24338
828.577	24216
828.716	24327
828.855	24224
828.994	23935
829.134	23988
829.273	24102
829.412	24076
829.551	23878
829.69	23931
829.829	23859
829.968	24041
830.107	24083
830.246	23916
830.385	23874
830.524	23855
830.663	23661
830.802	23668
830.941	23524
831.08	23585
831.219	23581
831.357	23714
831.496	23764
831.635	23577
831.774	23531
831.913	23501
832.051	23368
832.19	23509
832.329	23341
832.467	23288
832.606	23159
832.744	23284
832.883	23197
833.022	23117
833.16	23318
833.299	23303
833.437	23376
833.576	23368
833.714	23326
833.852	23353
833.991	23440
834.129	23402
834.267	23402
834.406	23387
834.544	23398
834.682	23280
834.821	23296
834.959	23353
835.097	23356
835.235	23288
835.373	23315
835.511	23341
835.65	23060
835.788	23140
835.926	23003
836.064	23121
836.202	23025
836.34	23166
836.478	23136
836.615	23102
836.753	23140
836.891	23303
837.029	23200
837.167	23170
837.305	23037
837.443	23064
837.58	22995
837.718	23159
837.856	23041
837.993	23086
838.131	23105
838.269	22889
838.406	22957
838.544	22885
838.681	22645
838.819	22592
838.956	22493
839.094	22607
839.231	22481
839.369	22797
839.506	22915
839.643	22763
839.781	22512
839.918	22577
840.055	22519
840.193	22421
840.33	22421
840.467	22424
840.604	22470
840.742	22755
840.879	22287
841.016	22322
841.153	22272
841.29	22557
841.427	22409
841.564	22402
841.701	22367
841.838	22299
841.975	22386
842.112	22379
842.249	22257
842.385	22147
842.522	22462
842.659	22226
842.796	22147
842.933	22120
843.069	22181
843.206	22192
843.343	22306
843.479	22211
843.616	22265
843.752	22017
843.889	22010
844.025	22101
844.162	21865
844.298	22090
844.435	21918
844.571	21876
844.708	22078
844.844	22074
844.98	21987
845.117	22036
845.253	21888
845.389	21812
845.525	21918
845.661	21819
845.798	21713
845.934	21793
846.07	21724
846.206	21675
846.342	21793
846.478	21720
846.614	21466
846.75	21336
846.886	21431
847.022	21500
847.158	21534
847.294	21447
847.429	21435
847.565	21363
847.701	21637
847.837	21104
847.972	21116
848.108	21211
848.244	21329
848.379	21085
848.515	21043
848.65	21001
848.786	21062
848.921	20929
849.057	21203
849.192	21100
849.328	21024
849.463	20960
849.598	20994
849.734	20929
849.869	20880
850.004	20849
850.14	20781
850.275	20777
850.41	20693
850.545	20777
850.68	20762
850.815	20823
850.95	20819
851.085	21024
851.22	20887
851.355	20880
851.49	20830
851.625	20785
851.76	20697
851.895	20785
852.03	20686
852.165	20823
852.299	20925
852.434	20826
852.569	20941
852.703	20918
852.838	20842
852.973	20937
853.107	20914
853.242	20701
853.376	20716
853.511	20465
853.645	20629
853.78	20746
853.914	20762
854.048	20625
854.183	20590
854.317	20667
854.451	20811
854.585	20606
854.72	20659
854.854	20686
854.988	20670
855.122	20640
855.256	20556
855.39	20735
855.524	20705
855.658	20629
855.792	20682
855.926	20697
856.06	20625
856.194	20712
856.327	20629
856.461	20590
856.595	20655
856.729	20533
856.862	20724
856.996	20625
857.13	20663
857.263	20648
857.397	20644
857.53	20602
857.664	20731
857.797	20670
857.931	20777
858.064	20689
858.197	20800
858.331	20564
858.464	20503
858.597	20545
858.731	20651
858.864	20667
858.997	20629
859.13	20606
859.263	20598
859.396	20693
859.529	20621
859.662	20579
859.795	20602
859.928	20590
860.061	20830
860.194	20876
860.327	20640
860.46	20644
860.592	20777
860.725	20743
860.858	20861
860.99	20758
861.123	20651
861.256	20663
861.388	20598
861.521	21279
861.653	20609
861.786	20355
861.918	20537
862.05	20499
862.183	20522
862.315	20541
862.447	20705
862.58	20454
862.712	20404
862.844	20305
862.976	20431
863.108	20370
863.24	20925
863.372	20244
863.504	20320
863.636	20343
863.768	20442
863.9	20317
864.032	20328
864.164	20214
864.296	20343
864.428	20393
864.559	20301
864.691	20507
864.823	20457
864.954	20408
865.086	20362
865.217	20347
865.349	20180
865.48	20210
865.612	20259
865.743	20347
865.875	20278
866.006	20233
866.137	20210
866.269	20267
866.4	20263
866.531	20142
866.662	20157
866.793	20130
866.924	20244
867.055	20294
867.186	20259
867.317	20278
867.448	20153
867.579	20233
867.71	20027
867.841	20202
867.972	20282
868.103	20233
868.233	20180
868.364	20180
868.495	20328
868.625	20450
868.756	20590
868.886	20343
869.017	20465
869.147	20530
869.278	20511
869.408	20549
869.539	20480
869.669	20640
869.799	20450
869.929	20530
870.06	20621
870.19	20750
870.32	20811
870.45	20754
870.58	20811
870.71	20975
870.84	20982
870.97	20929
871.1	20830
871.23	21032
871.36	21093
871.489	21009
871.619	20902
871.749	21089
871.879	21070
872.008	21260
872.138	21024
872.267	21142
872.397	20929
872.526	20910
872.656	20834
872.785	20902
872.915	21043
873.044	21013
873.173	21009
873.303	21039
873.432	21119
873.561	21024
873.69	21077
873.819	21085
873.948	21135
874.077	21108
874.206	20902
874.335	21074
874.464	21195
874.593	21310
874.722	21287
874.851	21389
874.979	21359
875.108	21363
875.237	21233
875.365	21150
875.494	21310
875.623	21264
875.751	21108
875.88	21389
876.008	21351
876.136	21473
876.265	21747
876.393	21831
876.521	21690
876.65	21827
876.778	21785
876.906	21583
877.034	21698
877.162	21587
877.29	21583
877.418	21686
877.546	21778
877.674	21694
877.802	21663
877.93	21675
878.058	21587
878.185	21469
878.313	21603
878.441	21553
878.568	21523
878.696	21679
878.824	21610
878.951	21755
879.079	21793
879.206	22021
879.333	21747
879.461	21713
879.588	21759
879.715	21800
879.842	22006
879.97	21705
880.097	21420
880.224	21557
880.351	21466
880.478	21447
880.605	21469
880.732	21549
880.859	21770
880.986	21576
881.112	21359
881.239	21408
881.366	21294
881.493	21138
881.619	20960
881.746	21184
881.872	21062
881.999	21032
882.125	21093
882.252	21036
882.378	21032
882.505	21188
882.631	20883
882.757	20781
882.883	20899
883.01	20872
883.136	20842
883.262	20670
883.388	20689
883.514	20834
883.64	20712
883.766	20750
883.892	20587
884.018	20545
884.143	20712
884.269	20864
884.395	20530
884.52	20469
884.646	20476
884.772	20339
884.897	20294
885.023	20412
885.148	20602
885.274	20625
885.399	20598
885.524	20389
885.65	20377
885.775	20495
885.9	20362
886.025	20469
886.15	20549
886.275	20412
886.4	20320
886.525	20457
886.65	20404
886.775	20351
886.9	20446
887.025	20609
887.149	20480
887.274	20313
887.399	20278
887.523	20271
887.648	20134
887.773	20214
887.897	20374
888.021	20267
888.146	20149
888.27	20339
888.395	20305
888.519	20240
888.643	20286
888.767	20180
888.891	20172
889.015	20164
889.139	20153
889.263	20027
889.387	20202
889.511	20187
889.635	19978
889.759	20107
889.883	20020
890.006	20168
890.13	20096
890.254	19936
890.377	19974
890.501	19708
890.624	19837
890.748	19742
890.871	19772
890.995	19548
891.118	19594
891.241	19719
891.364	19643
891.488	19772
891.611	19677
891.734	19620
891.857	19590
891.98	19723
892.103	19628
892.226	19594
892.349	19689
892.471	19491
892.594	19556
892.717	19567
892.839	19495
892.962	19628
893.085	19518
893.207	19521
893.33	19400
893.452	19441
893.575	19537
893.697	19510
893.819	19624
893.941	19609
894.064	19708
894.186	19449
894.308	19362
894.43	19605
894.552	19674
894.674	19563
894.796	19426
894.918	19491
895.04	19556
895.161	19506
895.283	19533
895.405	19563
895.526	19506
895.648	19525
895.769	19689
895.891	19384
896.012	19708
896.134	19552
896.255	19540
896.376	19525
896.498	19590
896.619	19616
896.74	19601
896.861	19632
896.982	19864
897.103	20058
897.224	19856
897.345	19769
897.466	19772
897.587	19655
897.708	19879
897.828	19765
897.949	19841
898.07	19556
898.19	19715
898.311	19791
898.431	19723
898.552	19765
898.672	19814
898.792	19776
898.913	19753
899.033	19662
899.153	19742
899.273	19362
899.393	19552
899.513	19563
899.633	19552
899.753	19620
899.873	19449
899.993	19533
900.113	19373
900.232	19552
900.352	19381
900.472	19346
900.591	19255
900.711	19289
900.83	19236
900.95	19407
901.069	19403
901.189	19183
901.308	19046
901.427	18806
901.546	18916
901.665	18859
901.784	18981
901.904	18890
902.023	18639
902.141	18513
902.26	18422
902.379	18460
902.498	18369
902.617	18399
902.735	18365
902.854	18418
902.973	18407
903.091	18136
903.21	18068
903.328	18125
903.446	18060
903.565	17817
903.683	17904
903.801	17863
903.919	17828
904.038	17855
904.156	17790
904.274	17687
904.392	17646
904.51	17699
904.627	17668
904.745	17710
904.863	17794
904.981	17490
905.098	17318
905.216	17273
905.334	17406
905.451	17398
905.569	17299
905.686	17425
905.803	17265
905.921	17189
906.038	17132
906.155	17181
906.272	17098
906.389	17117
906.506	16923
906.623	16904
906.74	16987
906.857	16790
906.974	16843
907.091	16923
907.208	17018
907.324	16816
907.441	16828
907.557	16740
907.674	16706
907.79	16630
907.907	16645
908.023	16519
908.139	16645
908.256	16516
908.372	16413
908.488	16417
908.604	16363
908.72	16398
908.836	16379
908.952	16242
909.068	16367
909.184	16527
909.3	16367
909.415	16363
909.531	16314
909.647	16112
909.762	16112
909.878	16063
909.993	16051
910.108	15994
910.224	15979
910.339	16032
910.454	15956
910.57	15869
910.685	15781
910.8	15991
910.915	15922
911.03	15884
911.145	15625
911.259	15652
911.374	15720
911.489	15614
911.604	15530
911.718	15416
911.833	15424
911.947	15195
912.062	15245
912.176	15450
912.291	15370
912.405	15378
912.519	15603
912.633	15625
912.748	15549
912.862	15367
912.976	15203
913.09	15192
913.204	15230
913.318	15135
913.431	15306
913.545	15359
913.659	15386
913.772	15157
913.886	15138
914	15036
914.113	15104
914.226	15176
914.34	15081
914.453	14998
914.566	15039
914.68	14918
914.793	14918
914.906	14826
915.019	14632
915.132	14629
915.245	14640
915.358	14697
915.47	14663
915.583	14667
915.696	14682
915.809	14777
915.921	14826
916.034	14632
916.146	14571
916.259	14674
916.371	14621
916.483	14651
916.595	14594
916.708	14503
916.82	14571
916.932	14625
917.044	14389
917.156	14457
917.268	14328
917.38	14324
917.491	14275
917.603	14358
917.715	14355
917.826	14438
917.938	14263
918.049	14244
918.161	14199
918.272	14431
918.384	14446
918.495	14320
918.606	14145
918.717	14062
918.828	14077
918.939	14191
919.05	14058
919.161	14065
919.272	13811
919.383	14062
919.494	14100
919.604	14225
919.715	14123
919.826	14062
919.936	14043
920.047	14119
920.157	14065
920.267	14290
920.378	14073
920.488	14043
920.598	14317
920.708	14400
920.818	14180
920.928	14157
921.038	14396
921.148	14343
921.258	14073
921.368	13909
921.477	13746
921.587	13830
921.697	13708
921.806	13837
921.916	13761
922.025	13483
922.134	13552
922.244	13396
922.353	13476
922.462	13396
922.571	13308
922.68	13190
922.789	13114
922.898	13145
923.007	13061
923.116	13149
923.224	13133
923.333	13107
923.442	13027
923.55	12932
923.659	12958
923.767	12970
923.876	12958
923.984	12935
924.092	12859
924.201	12886
924.309	12928
924.417	12852
924.525	12791
924.633	12707
924.741	13685
924.849	12604
924.956	12745
925.064	12559
925.172	12525
925.279	12566
925.387	12574
925.494	12517
925.602	12654
925.709	12623
925.816	12509
925.924	12513
926.031	12578
926.138	12464
926.245	12566
926.352	12441
926.459	12563
926.566	12517
926.673	12460
926.779	12338
926.886	12357
926.993	12213
927.099	12148
927.206	12041
927.312	12095
927.419	12148
927.525	12220
927.631	12155
927.737	11984
927.843	11908
927.95	11950
928.056	11942
928.162	11988
928.267	12068
928.373	12597
928.479	12015
928.585	11855
928.69	11984
928.796	11901
928.901	11874
929.007	11665
929.112	11726
929.218	11786
929.323	11767
929.428	11642
929.533	11847
929.638	11604
929.743	11589
929.848	11726
929.953	11668
930.058	11516
930.163	11330
930.267	11463
930.372	11478
930.477	11376
930.581	11600
930.685	11341
930.79	11250
930.894	11337
930.998	11212
931.103	11372
931.207	11037
931.311	10968
931.415	10911
931.519	10664
931.623	10653
