Data from test_V78500241_2074.txt Node
Date: Fri Mar 25 15:24:18 CST 2022
User: usil
Spectrometer: V785-0024
Trigger mode: 0
Integration Time (sec): 4.000000E-1
Scans to average: 1
Nonlinearity correction enabled: false
Boxcar width: 0
Storing dark spectrum: false
XAxis mode: Wavelengths
Number of Pixels in Spectrum: 1024
>>>>>Begin Spectral Data<<<<<
801.071	27618
801.214	27770
801.356	27492
801.499	27447
801.641	27291
801.783	27207
801.926	27313
802.068	27256
802.211	27351
802.353	27180
802.496	27039
802.638	26940
802.78	26940
802.923	26967
803.065	26815
803.208	26785
803.35	26868
803.492	27074
803.635	27131
803.777	27005
803.919	27146
804.061	27363
804.204	27154
804.346	27074
804.488	27131
804.63	27043
804.773	27055
804.915	27146
805.057	27074
805.199	27028
805.341	27150
805.483	27249
805.626	27355
805.768	27039
805.91	27173
806.052	27203
806.194	27100
806.336	27511
806.478	27123
806.62	27150
806.762	27226
806.904	27412
807.046	27743
807.188	27652
807.33	27633
807.472	27728
807.614	27488
807.756	27538
807.898	27466
808.04	27420
808.182	27256
808.324	27488
808.465	27561
808.607	27709
808.749	27838
808.891	27914
809.033	27991
809.174	27960
809.316	27694
809.458	27865
809.6	27743
809.741	27892
809.883	27956
810.025	28059
810.166	28131
810.308	28067
810.45	28116
810.591	27842
810.733	27816
810.875	27793
811.016	27747
811.158	27686
811.299	27751
811.441	27911
811.582	27956
811.724	27880
811.865	27785
812.007	27800
812.148	27694
812.29	27857
812.431	28090
812.573	28196
812.714	28261
812.855	28314
812.997	28550
813.138	28561
813.279	28519
813.421	28276
813.562	28371
813.703	28253
813.845	28006
813.986	27774
814.127	27618
814.268	27504
814.41	27717
814.551	27572
814.692	27469
814.833	27416
814.974	27549
815.115	27557
815.256	27405
815.397	27515
815.539	27252
815.68	27302
815.821	27332
815.962	27249
816.103	27252
816.244	27089
816.385	27043
816.526	27043
816.666	26861
816.807	26750
816.948	26910
817.089	26929
817.23	26788
817.371	26788
817.512	26693
817.653	26739
817.793	26727
817.934	26632
818.075	26773
818.216	26796
818.356	26659
818.497	26636
818.638	26514
818.778	26450
818.919	26450
819.06	26571
819.2	26659
819.341	26765
819.481	26800
819.622	26971
819.762	27123
819.903	27028
820.043	27123
820.184	26838
820.324	26868
820.465	26899
820.605	26902
820.746	26891
820.886	26758
821.026	26883
821.167	26838
821.307	26899
821.447	26792
821.588	26640
821.728	26579
821.868	26393
822.008	26244
822.149	26252
822.289	26248
822.429	26073
822.569	25959
822.709	26016
822.849	25841
822.99	25864
823.13	25795
823.27	25670
823.41	25529
823.55	25483
823.69	25464
823.83	25601
823.97	25590
824.11	25346
824.25	25350
824.389	25304
824.529	25502
824.669	25407
824.809	25624
824.949	25422
825.089	25525
825.228	25529
825.368	25335
825.508	25236
825.648	25263
825.787	25293
825.927	25301
826.067	25194
826.206	25301
826.346	25377
826.485	25278
826.625	25194
826.765	25407
826.904	25327
827.044	25103
827.183	25061
827.323	24894
827.462	25069
827.601	25004
827.741	24924
827.88	24951
828.02	24985
828.159	24996
828.298	25027
828.437	25000
828.577	24913
828.716	25228
828.855	24973
828.994	24768
829.134	24681
829.273	24722
829.412	24639
829.551	24658
829.69	24806
829.829	24741
829.968	24844
830.107	24642
830.246	24688
830.385	24684
830.524	24551
830.663	24604
830.802	24464
830.941	24365
831.08	24247
831.219	24407
831.357	24528
831.496	24414
831.635	24346
831.774	24441
831.913	24163
832.051	23999
832.19	24076
832.329	24102
832.467	24026
832.606	23882
832.744	24022
832.883	23912
833.022	23923
833.16	24102
833.299	24155
833.437	24018
833.576	24030
833.714	24076
833.852	24098
833.991	24114
834.129	24003
834.267	24068
834.406	24057
834.544	24228
834.682	24038
834.821	24129
834.959	24224
835.097	23870
835.235	24003
835.373	24011
835.511	23988
835.65	24102
835.788	23893
835.926	23745
836.064	23748
836.202	23676
836.34	23885
836.478	23840
836.615	23805
836.753	23885
836.891	23859
837.029	23843
837.167	23722
837.305	23680
837.443	23710
837.58	23729
837.718	23836
837.856	23729
837.993	23695
838.131	23676
838.269	23551
838.406	23566
838.544	23478
838.681	23372
838.819	23322
838.956	23326
839.094	23220
839.231	23235
839.369	23372
839.506	23596
839.643	23417
839.781	23140
839.918	23121
840.055	23170
840.193	23105
840.33	23151
840.467	23197
840.604	23132
840.742	23406
840.879	23083
841.016	23029
841.153	23079
841.29	23200
841.427	23094
841.564	23124
841.701	23105
841.838	23086
841.975	23067
842.112	22957
842.249	22801
842.385	22946
842.522	22976
842.659	22927
842.796	22835
842.933	22911
843.069	22767
843.206	22877
843.343	23018
843.479	22786
843.616	22828
843.752	22645
843.889	22618
844.025	22854
844.162	22641
844.298	22790
844.435	22683
844.571	22596
844.708	22679
844.844	22763
844.98	22782
845.117	22710
845.253	22508
845.389	22489
845.525	22470
845.661	22447
845.798	22337
845.934	22455
846.07	22481
846.206	22299
846.342	22584
846.478	22382
846.614	22310
846.75	21953
846.886	22082
847.022	22112
847.158	22067
847.294	22063
847.429	22086
847.565	22051
847.701	22276
847.837	21732
847.972	21819
848.108	21994
848.244	21869
848.379	21747
848.515	21781
848.65	21747
848.786	21599
848.921	21694
849.057	21857
849.192	21682
849.328	21797
849.463	21759
849.598	21595
849.734	21549
849.869	21576
850.004	21401
850.14	21424
850.275	21519
850.41	21389
850.545	21466
850.68	21458
850.815	21515
850.95	21378
851.085	21694
851.22	21610
851.355	21591
851.49	21561
851.625	21428
851.76	21439
851.895	21424
852.03	21401
852.165	21382
852.299	21374
852.434	21473
852.569	21481
852.703	21443
852.838	21526
852.973	21572
853.107	21523
853.242	21355
853.376	21298
853.511	21108
853.645	21264
853.78	21424
853.914	21340
854.048	21233
854.183	21370
854.317	21222
854.451	21466
854.585	21439
854.72	21252
854.854	21351
854.988	21154
855.122	21355
855.256	21211
855.39	21233
855.524	21340
855.658	21260
855.792	21272
855.926	21298
856.06	21348
856.194	21321
856.327	21241
856.461	21180
856.595	21298
856.729	21268
856.862	21382
856.996	21374
857.13	21367
857.263	21458
857.397	21477
857.53	21283
857.664	21325
857.797	21226
857.931	21458
858.064	21218
858.197	21420
858.331	21237
858.464	21214
858.597	21165
858.731	21233
858.864	21241
858.997	21161
859.13	21230
859.263	21180
859.396	21340
859.529	21336
859.662	21173
859.795	21207
859.928	21306
860.061	21367
860.194	21389
860.327	21340
860.46	21283
860.592	21291
860.725	21382
860.858	21424
860.99	21279
861.123	21127
861.256	21222
861.388	21332
861.521	21972
861.653	21154
861.786	21036
861.918	21096
862.05	21108
862.183	21161
862.315	21214
862.447	21336
862.58	21100
862.712	21055
862.844	20918
862.976	21081
863.108	20918
863.24	21359
863.372	20906
863.504	21066
863.636	20902
863.768	21146
863.9	20937
864.032	21028
864.164	20895
864.296	21017
864.428	21036
864.559	21017
864.691	21032
864.823	21077
864.954	20948
865.086	20845
865.217	20887
865.349	20792
865.48	20834
865.612	20906
865.743	20937
865.875	20899
866.006	20876
866.137	20853
866.269	20906
866.4	20765
866.531	20872
866.662	20750
866.793	20769
866.924	20804
867.055	20826
867.186	20872
867.317	20708
867.448	20826
867.579	20705
867.71	20792
867.841	20667
867.972	20804
868.103	20804
868.233	20849
868.364	20834
868.495	20967
868.625	21066
868.756	21188
868.886	20960
869.017	21070
869.147	21104
869.278	21173
869.408	21138
869.539	21154
869.669	21058
869.799	21058
869.929	21150
870.06	21116
870.19	21374
870.32	21332
870.45	21439
870.58	21294
870.71	21466
870.84	21553
870.97	21500
871.1	21336
871.23	21606
871.36	21736
871.489	21542
871.619	21610
871.749	21667
871.879	21679
872.008	21720
872.138	21595
872.267	21682
872.397	21515
872.526	21488
872.656	21549
872.785	21530
872.915	21682
873.044	21739
873.173	21656
873.303	21557
873.432	21709
873.561	21720
873.69	21720
873.819	21603
873.948	21732
874.077	21610
874.206	21538
874.335	21595
874.464	21785
874.593	21922
874.722	21911
874.851	21892
874.979	21873
875.108	21850
875.237	21736
875.365	21736
875.494	21926
875.623	21895
875.751	21800
875.88	21880
876.008	22105
876.136	22025
876.265	22249
876.393	22413
876.521	22352
876.65	22234
876.778	22333
876.906	22124
877.034	22154
877.162	22280
877.29	22093
877.418	22219
877.546	22196
877.674	22177
877.802	22131
877.93	22242
878.058	22139
878.185	22207
878.313	22120
878.441	22261
878.568	22006
878.696	22242
878.824	22143
878.951	22356
879.079	22360
879.206	22481
879.333	22481
879.461	22226
879.588	22253
879.715	22481
879.842	22440
879.97	22306
880.097	22105
880.224	22074
880.351	22105
880.478	22101
880.605	22143
880.732	22044
880.859	22211
880.986	22051
881.112	22025
881.239	22109
881.366	21682
881.493	21778
881.619	21679
881.746	21644
881.872	21709
881.999	21637
882.125	21576
882.252	21709
882.378	21717
882.505	21713
882.631	21485
882.757	21416
882.883	21351
883.01	21359
883.136	21287
883.262	21195
883.388	21116
883.514	21287
883.64	21416
883.766	21397
883.892	21154
884.018	21116
884.143	21317
884.269	21336
884.395	21009
884.52	20994
884.646	21047
884.772	20921
884.897	20853
885.023	21051
885.148	20967
885.274	21108
885.399	21207
885.524	20994
885.65	21051
885.775	20937
885.9	20872
886.025	20982
886.15	21062
886.275	20933
886.4	20857
886.525	20902
886.65	20895
886.775	20842
886.9	21036
887.025	21287
887.149	20994
887.274	20895
887.399	20640
887.523	20750
887.648	20590
887.773	20693
887.897	20804
888.021	20834
888.146	20667
888.27	20830
888.395	20792
888.519	20708
888.643	20845
888.767	20735
888.891	20678
889.015	20594
889.139	20587
889.263	20518
889.387	20648
889.511	20739
889.635	20746
889.759	20514
889.883	20526
890.006	20514
890.13	20693
890.254	20514
890.377	20343
890.501	20320
890.624	20298
890.748	20374
890.871	20199
890.995	20138
891.118	20081
891.241	20149
891.364	20202
891.488	20259
891.611	20145
891.734	20005
891.857	20191
891.98	20202
892.103	20081
892.226	20157
892.349	20043
892.471	19761
892.594	20088
892.717	20035
892.839	19982
892.962	20062
893.085	20176
893.207	20122
893.33	19864
893.452	19883
893.575	20024
893.697	19932
893.819	20240
893.941	20142
894.064	20096
894.186	19871
894.308	19967
894.43	20092
894.552	20168
894.674	20164
894.796	19940
894.918	19982
895.04	20073
895.161	20157
895.283	20065
895.405	20024
895.526	19947
895.648	19970
895.769	20050
895.891	20142
896.012	20172
896.134	20077
896.255	20024
896.376	19970
896.498	19959
896.619	20073
896.74	20039
896.861	20065
896.982	20298
897.103	20492
897.224	20339
897.345	20278
897.466	20214
897.587	20256
897.708	20286
897.828	20286
897.949	20221
898.07	20054
898.19	20031
898.311	20294
898.431	20313
898.552	20301
898.672	20282
898.792	20385
898.913	20214
899.033	20081
899.153	20046
899.273	19925
899.393	19967
899.513	20077
899.633	20084
899.753	20134
899.873	19970
899.993	19928
900.113	19909
900.232	19928
900.352	19917
900.472	19906
900.591	19666
900.711	19738
900.83	19765
900.95	19887
901.069	19852
901.189	19609
901.308	19491
901.427	19343
901.546	19354
901.665	19441
901.784	19400
901.904	19308
902.023	19187
902.141	18890
902.26	18966
902.379	18966
902.498	18825
902.617	18825
902.735	18848
902.854	18760
902.973	18745
903.091	18616
903.21	18528
903.328	18494
903.446	18350
903.565	18372
903.683	18296
903.801	18213
903.919	18292
904.038	18376
904.156	18102
904.274	18235
904.392	18064
904.51	18102
904.627	18045
904.745	18220
904.863	18159
904.981	17870
905.098	17824
905.216	17813
905.334	17783
905.451	17824
905.569	17710
905.686	17824
905.803	17760
905.921	17532
906.038	17737
906.155	17516
906.272	17330
906.389	17486
906.506	17258
906.623	17318
906.74	17353
906.857	17315
906.974	17200
907.091	17528
907.208	17410
907.324	17417
907.441	17265
907.557	17056
907.674	17155
907.79	16862
907.907	17098
908.023	17018
908.139	16927
908.256	16919
908.372	16953
908.488	16843
908.604	16885
908.72	16755
908.836	16854
908.952	16679
909.068	16778
909.184	16862
909.3	16752
909.415	16797
909.531	16710
909.647	16546
909.762	16519
909.878	16443
909.993	16440
910.108	16363
910.224	16390
910.339	16443
910.454	16329
910.57	16257
910.685	16211
910.8	16352
910.915	16344
911.03	16295
911.145	16112
911.259	16032
911.374	16093
911.489	15941
911.604	15953
911.718	15728
911.833	15808
911.947	15724
912.062	15618
912.176	15789
912.291	15857
912.405	15850
912.519	15835
912.633	15949
912.748	15819
912.862	15827
912.976	15732
913.09	15561
913.204	15507
913.318	15637
913.431	15622
913.545	15648
913.659	15622
913.772	15481
913.886	15511
914	15428
914.113	15424
914.226	15481
914.34	15458
914.453	15268
914.566	15542
914.68	15306
914.793	15298
914.906	15157
915.019	15081
915.132	14986
915.245	15058
915.358	15116
915.47	14944
915.583	14956
915.696	15074
915.809	15173
915.921	15222
916.034	14910
916.146	14975
916.259	14929
916.371	14960
916.483	15058
916.595	14838
916.708	14788
916.82	14891
916.932	14739
917.044	14815
917.156	14880
917.268	14682
917.38	14754
917.491	14648
917.603	14762
917.715	14708
917.826	14758
917.938	14632
918.049	14594
918.161	14663
918.272	14815
918.384	14735
918.495	14568
918.606	14454
918.717	14438
918.828	14427
918.939	14465
919.05	14427
919.161	14415
919.272	14263
919.383	14332
919.494	14507
919.604	14632
919.715	14522
919.826	14351
919.936	14396
920.047	14507
920.157	14404
920.267	14613
920.378	14377
920.488	14396
920.598	14526
920.708	14678
920.818	14518
920.928	14526
921.038	14663
921.148	14533
921.258	14355
921.368	14313
921.477	14180
921.587	14214
921.697	14050
921.806	14183
921.916	13997
922.025	13868
922.134	13791
922.244	13742
922.353	13750
922.462	13700
922.571	13628
922.68	13411
922.789	13422
922.898	13460
923.007	13320
923.116	13487
923.224	13365
923.333	13449
923.442	13247
923.55	13247
923.659	13335
923.767	13304
923.876	13236
923.984	13236
924.092	13160
924.201	13225
924.309	13194
924.417	13194
924.525	13099
924.633	13065
924.741	13849
924.849	12882
924.956	13050
925.064	12928
925.172	12886
925.279	12856
925.387	12909
925.494	12913
925.602	12939
925.709	12909
925.816	12802
925.924	12779
926.031	12905
926.138	12837
926.245	12856
926.352	12646
926.459	12829
926.566	12783
926.673	12783
926.779	12639
926.886	12650
926.993	12483
927.099	12502
927.206	12422
927.312	12422
927.419	12433
927.525	12490
927.631	12532
927.737	12319
927.843	12262
927.95	12292
928.056	12254
928.162	12243
928.267	12281
928.373	12852
928.479	12388
928.585	12106
928.69	12136
928.796	12285
928.901	12106
929.007	12022
929.112	12095
929.218	12121
929.323	11973
929.428	12011
929.533	12019
929.638	11996
929.743	11908
929.848	12041
929.953	11882
930.058	11832
930.163	11703
930.267	11745
930.372	11699
930.477	11600
930.581	11859
930.685	11668
930.79	11581
930.894	11524
930.998	11558
931.103	11783
931.207	11341
931.311	11189
931.415	11121
931.519	10999
931.623	10938
