Data from test_V78500241_2651.txt Node
Date: Fri Mar 25 15:28:19 CST 2022
User: usil
Spectrometer: V785-0024
Trigger mode: 0
Integration Time (sec): 4.000000E-1
Scans to average: 1
Nonlinearity correction enabled: false
Boxcar width: 0
Storing dark spectrum: false
XAxis mode: Wavelengths
Number of Pixels in Spectrum: 1024
>>>>>Begin Spectral Data<<<<<
801.071	27089
801.214	27032
801.356	26823
801.499	26632
801.641	26613
801.783	26621
801.926	26602
802.068	26465
802.211	26564
802.353	26396
802.496	26298
802.638	26103
802.78	26259
802.923	26050
803.065	26138
803.208	26073
803.35	26176
803.492	26347
803.635	26396
803.777	26282
803.919	26317
804.061	26640
804.204	26434
804.346	26240
804.488	26183
804.63	26290
804.773	26271
804.915	26412
805.057	26362
805.199	26389
805.341	26408
805.483	26492
805.626	26442
805.768	26389
805.91	26503
806.052	26396
806.194	26347
806.336	26552
806.478	26427
806.62	26438
806.762	26655
806.904	26788
807.046	27116
807.188	26708
807.33	26845
807.472	26834
807.614	26758
807.756	26823
807.898	26583
808.04	26571
808.182	26594
808.324	26746
808.465	26613
808.607	26944
808.749	27135
808.891	27123
809.033	27104
809.174	27184
809.316	26960
809.458	27001
809.6	27009
809.741	27070
809.883	27123
810.025	27344
810.166	27226
810.308	27268
810.45	27218
810.591	27135
810.733	27081
810.875	27013
811.016	26994
811.158	26948
811.299	27039
811.441	27279
811.582	27241
811.724	26948
811.865	26861
812.007	27055
812.148	27077
812.29	27062
812.431	27161
812.573	27302
812.714	27306
812.855	27591
812.997	27580
813.138	27705
813.279	27599
813.421	27401
813.562	27439
813.703	27233
813.845	27256
813.986	26868
814.127	26739
814.268	26697
814.41	26648
814.551	26670
814.692	26804
814.833	26594
814.974	26453
815.115	26678
815.256	26522
815.397	26476
815.539	26590
815.68	26423
815.821	26355
815.962	26339
816.103	26514
816.244	26168
816.385	26324
816.526	26149
816.666	25951
816.807	25803
816.948	25970
817.089	26020
817.23	25940
817.371	25917
817.512	25978
817.653	25921
817.793	25753
817.934	25841
818.075	25936
818.216	25932
818.356	25837
818.497	25681
818.638	25738
818.778	25582
818.919	25639
819.06	25750
819.2	25807
819.341	25928
819.481	25864
819.622	26016
819.762	26172
819.903	26081
820.043	26225
820.184	25974
820.324	26012
820.465	26142
820.605	26012
820.746	25966
820.886	25803
821.026	26043
821.167	25814
821.307	25989
821.447	25875
821.588	25727
821.728	25795
821.868	25639
822.008	25419
822.149	25316
822.289	25232
822.429	25194
822.569	25088
822.709	24970
822.849	24939
822.99	24928
823.13	24829
823.27	24768
823.41	24604
823.55	24589
823.69	24722
823.83	24646
823.97	24673
824.11	24369
824.25	24452
824.389	24559
824.529	24601
824.669	24509
824.809	24582
824.949	24681
825.089	24612
825.228	24540
825.368	24285
825.508	24216
825.648	24433
825.787	24422
825.927	24399
826.067	24315
826.206	24429
826.346	24418
826.485	24380
826.625	24304
826.765	24426
826.904	24414
827.044	24091
827.183	23996
827.323	24152
827.462	24095
827.601	24102
827.741	24049
827.88	24182
828.02	24064
828.159	24182
828.298	24038
828.437	24079
828.577	24091
828.716	24304
828.855	23980
828.994	23767
829.134	23767
829.273	23866
829.412	23767
829.551	23748
829.69	23798
829.829	23703
829.968	23649
830.107	23843
830.246	23798
830.385	23646
830.524	23649
830.663	23490
830.802	23505
830.941	23391
831.08	23273
831.219	23531
831.357	23334
831.496	23608
831.635	23280
831.774	23307
831.913	23368
832.051	23212
832.19	23258
832.329	23197
832.467	23041
832.606	23075
832.744	23025
832.883	23086
833.022	22999
833.16	23006
833.299	23064
833.437	23041
833.576	23064
833.714	23102
833.852	23216
833.991	23075
834.129	23044
834.267	23212
834.406	23159
834.544	23094
834.682	23067
834.821	23140
834.959	23258
835.097	23086
835.235	23185
835.373	23094
835.511	23041
835.65	23094
835.788	23022
835.926	22839
836.064	22820
836.202	22911
836.34	23014
836.478	23117
836.615	22953
836.753	22965
836.891	23006
837.029	22999
837.167	22980
837.305	22949
837.443	22934
837.58	22820
837.718	22816
837.856	22858
837.993	22828
838.131	22812
838.269	22744
838.406	22835
838.544	22596
838.681	22508
838.819	22527
838.956	22219
839.094	22314
839.231	22459
839.369	22523
839.506	22824
839.643	22618
839.781	22375
839.918	22238
840.055	22188
840.193	22219
840.33	22223
840.467	22299
840.604	22409
840.742	22611
840.879	22200
841.016	22261
841.153	22166
841.29	22318
841.427	22219
841.564	22272
841.701	22185
841.838	22215
841.975	22112
842.112	22158
842.249	22162
842.385	22147
842.522	22261
842.659	22086
842.796	22017
842.933	22044
843.069	21964
843.206	21857
843.343	22036
843.479	21956
843.616	22002
843.752	21800
843.889	21915
844.025	21876
844.162	21751
844.298	21895
844.435	21842
844.571	21682
844.708	21789
844.844	21987
844.98	21953
845.117	21998
845.253	21770
845.389	21618
845.525	21675
845.661	21496
845.798	21557
845.934	21473
846.07	21523
846.206	21485
846.342	21755
846.478	21496
846.614	21351
846.75	21321
846.886	21317
847.022	21420
847.158	21260
847.294	21249
847.429	21291
847.565	21348
847.701	21401
847.837	20975
847.972	20952
848.108	21043
848.244	21032
848.379	20944
848.515	20800
848.65	20842
848.786	20864
848.921	20819
849.057	20925
849.192	20990
849.328	20918
849.463	20819
849.598	20864
849.734	20834
849.869	20651
850.004	20606
850.14	20499
850.275	20625
850.41	20476
850.545	20503
850.68	20625
850.815	20663
850.95	20632
851.085	20781
851.22	20720
851.355	20598
851.49	20609
851.625	20575
851.76	20613
851.895	20613
852.03	20667
852.165	20602
852.299	20667
852.434	20712
852.569	20678
852.703	20697
852.838	20655
852.973	20777
853.107	20689
853.242	20552
853.376	20541
853.511	20339
853.645	20530
853.78	20427
853.914	20457
854.048	20400
854.183	20434
854.317	20473
854.451	20594
854.585	20480
854.72	20473
854.854	20476
854.988	20476
855.122	20431
855.256	20442
855.39	20389
855.524	20427
855.658	20457
855.792	20473
855.926	20492
856.06	20560
856.194	20476
856.327	20351
856.461	20469
856.595	20404
856.729	20423
856.862	20408
856.996	20419
857.13	20571
857.263	20552
857.397	20537
857.53	20438
857.664	20473
857.797	20533
857.931	20507
858.064	20514
858.197	20651
858.331	20404
858.464	20336
858.597	20298
858.731	20450
858.864	20507
858.997	20427
859.13	20511
859.263	20442
859.396	20495
859.529	20320
859.662	20457
859.795	20476
859.928	20587
860.061	20537
860.194	20693
860.327	20537
860.46	20465
860.592	20644
860.725	20621
860.858	20545
860.99	20469
861.123	20461
861.256	20400
861.388	20545
861.521	21017
861.653	20313
861.786	20180
861.918	20229
862.05	20324
862.183	20385
862.315	20438
862.447	20412
862.58	20377
862.712	20210
862.844	20138
862.976	20218
863.108	20275
863.24	20575
863.372	20164
863.504	20168
863.636	20100
863.768	20168
863.9	20119
864.032	20153
864.164	20119
864.296	20111
864.428	20248
864.559	20237
864.691	20298
864.823	20168
864.954	20180
865.086	20153
865.217	20081
865.349	19909
865.48	20062
865.612	20062
865.743	20180
865.875	20088
866.006	20039
866.137	19959
866.269	19986
866.4	20145
866.531	20065
866.662	20043
866.793	19963
866.924	20027
867.055	20065
867.186	20096
867.317	20149
867.448	19898
867.579	20039
867.71	19978
867.841	19928
867.972	20035
868.103	20077
868.233	20058
868.364	19944
868.495	20100
868.625	20210
868.756	20415
868.886	20263
869.017	20206
869.147	20313
869.278	20385
869.408	20309
869.539	20282
869.669	20400
869.799	20290
869.929	20431
870.06	20423
870.19	20651
870.32	20545
870.45	20648
870.58	20686
870.71	20868
870.84	20792
870.97	20583
871.1	20613
871.23	20853
871.36	20746
871.489	20796
871.619	20758
871.749	20853
871.879	20910
872.008	20906
872.138	20743
872.267	20800
872.397	20674
872.526	20735
872.656	20712
872.785	20781
872.915	20918
873.044	20944
873.173	20887
873.303	20963
873.432	20883
873.561	20971
873.69	20952
873.819	20880
873.948	20872
874.077	20868
874.206	20826
874.335	20933
874.464	20914
874.593	21127
874.722	20990
874.851	21226
874.979	21135
875.108	21150
875.237	21119
875.365	21085
875.494	21085
875.623	21214
875.751	21070
875.88	21165
876.008	21245
876.136	21374
876.265	21610
876.393	21625
876.521	21667
876.65	21595
876.778	21488
876.906	21458
877.034	21511
877.162	21496
877.29	21439
877.418	21450
877.546	21515
877.674	21408
877.802	21408
877.93	21591
878.058	21428
878.185	21378
878.313	21458
878.441	21496
878.568	21405
878.696	21450
878.824	21496
878.951	21469
879.079	21728
879.206	21728
879.333	21576
879.461	21462
879.588	21469
879.715	21641
879.842	21751
879.97	21614
880.097	21329
880.224	21214
880.351	21329
880.478	21363
880.605	21279
880.732	21340
880.859	21500
880.986	21420
881.112	21306
881.239	21142
881.366	21085
881.493	21070
881.619	20979
881.746	20937
881.872	20906
881.999	20826
882.125	20769
882.252	20998
882.378	20868
882.505	20868
882.631	20708
882.757	20583
882.883	20807
883.01	20625
883.136	20438
883.262	20507
883.388	20385
883.514	20533
883.64	20598
883.766	20469
883.892	20495
884.018	20427
884.143	20396
884.269	20606
884.395	20377
884.52	20176
884.646	20298
884.772	20221
884.897	20145
885.023	20183
885.148	20393
885.274	20343
885.399	20332
885.524	20434
885.65	20275
885.775	20366
885.9	20229
886.025	20256
886.15	20362
886.275	20271
886.4	20202
886.525	20218
886.65	20199
886.775	20138
886.9	20423
887.025	20480
887.149	20244
887.274	19963
887.399	20035
887.523	20103
887.648	20035
887.773	20005
887.897	20206
888.021	20122
888.146	20008
888.27	20084
888.395	20077
888.519	20024
888.643	20092
888.767	20111
888.891	19925
889.015	19894
889.139	19894
889.263	19689
889.387	19898
889.511	20180
889.635	19989
889.759	19772
889.883	19746
890.006	19803
890.13	19955
890.254	19765
890.377	19769
890.501	19597
890.624	19510
890.748	19765
890.871	19449
890.995	19472
891.118	19449
891.241	19441
891.364	19350
891.488	19529
891.611	19430
891.734	19396
891.857	19441
891.98	19468
892.103	19449
892.226	19457
892.349	19285
892.471	19240
892.594	19430
892.717	19369
892.839	19350
892.962	19373
893.085	19434
893.207	19354
893.33	19320
893.452	19320
893.575	19502
893.697	19282
893.819	19403
893.941	19571
894.064	19411
894.186	19419
894.308	19263
894.43	19377
894.552	19407
894.674	19362
894.796	19320
894.918	19301
895.04	19403
895.161	19407
895.283	19419
895.405	19247
895.526	19457
895.648	19365
895.769	19365
895.891	19468
896.012	19392
896.134	19407
896.255	19320
896.376	19362
896.498	19236
896.619	19396
896.74	19430
896.861	19422
896.982	19655
897.103	19776
897.224	19632
897.345	19590
897.466	19487
897.587	19643
897.708	19651
897.828	19559
897.949	19518
898.07	19514
898.19	19468
898.311	19643
898.431	19491
898.552	19620
898.672	19727
898.792	19613
898.913	19700
899.033	19438
899.153	19388
899.273	19266
899.393	19396
899.513	19407
899.633	19381
899.753	19316
899.873	19297
899.993	19419
900.113	19209
900.232	19358
900.352	19301
900.472	19274
900.591	19095
900.711	19190
900.83	19057
900.95	19183
901.069	19282
901.189	18970
901.308	18817
901.427	18798
901.546	18688
901.665	18707
901.784	18719
901.904	18597
902.023	18639
902.141	18289
902.26	18224
902.379	18380
902.498	18251
902.617	18220
902.735	18380
902.854	18292
902.973	18174
903.091	17950
903.21	17958
903.328	17893
903.446	17866
903.565	17714
903.683	17748
903.801	17570
903.919	17672
904.038	17718
904.156	17573
904.274	17707
904.392	17505
904.51	17543
904.627	17448
904.745	17558
904.863	17630
904.981	17269
905.098	17140
905.216	17223
905.334	17277
905.451	17280
905.569	17185
905.686	17208
905.803	17204
905.921	16987
906.038	16930
906.155	17086
906.272	16850
906.389	16972
906.506	16790
906.623	16748
906.74	16740
906.857	16535
906.974	16584
907.091	16828
907.208	16831
907.324	16801
907.441	16675
907.557	16569
907.674	16535
907.79	16348
907.907	16440
908.023	16535
908.139	16371
908.256	16348
908.372	16310
908.488	16291
908.604	16234
908.72	16139
908.836	16230
908.952	16166
909.068	16162
909.184	16314
909.3	16059
909.415	16253
909.531	16158
909.647	15926
909.762	15876
909.878	15987
909.993	15876
910.108	15903
910.224	15778
910.339	15880
910.454	15755
910.57	15671
910.685	15656
910.8	15876
910.915	15850
911.03	15637
911.145	15671
911.259	15572
911.374	15568
911.489	15420
911.604	15359
911.718	15123
911.833	15298
911.947	15199
912.062	15184
912.176	15416
912.291	15249
912.405	15325
912.519	15462
912.633	15393
912.748	15302
912.862	15291
912.976	15184
913.09	14967
913.204	15089
913.318	15047
913.431	15180
913.545	15146
913.659	15161
913.772	14994
913.886	14876
914	14880
914.113	14933
914.226	14963
914.34	14883
914.453	14800
914.566	14899
914.68	14769
914.793	14598
914.906	14514
915.019	14545
915.132	14419
915.245	14560
915.358	14541
915.47	14492
915.583	14518
915.696	14473
915.809	14602
915.921	14663
916.034	14408
916.146	14389
916.259	14393
916.371	14499
916.483	14469
916.595	14305
916.708	14389
916.82	14366
916.932	14278
917.044	14309
917.156	14282
917.268	14221
917.38	14225
917.491	14107
917.603	14126
917.715	14206
917.826	14320
917.938	14062
918.049	14043
918.161	14164
918.272	14214
918.384	14237
918.495	14172
918.606	13982
918.717	13890
918.828	13951
918.939	14031
919.05	13932
919.161	13967
919.272	13849
919.383	13818
919.494	14016
919.604	14142
919.715	13887
919.826	13909
919.936	13871
920.047	13974
920.157	13940
920.267	14096
920.378	13967
920.488	13849
920.598	14145
920.708	14202
920.818	14081
920.928	14027
921.038	14153
921.148	14229
921.258	13906
921.368	13921
921.477	13685
921.587	13689
921.697	13476
921.806	13746
921.916	13537
922.025	13354
922.134	13381
922.244	13327
922.353	13343
922.462	13190
922.571	13202
922.68	13027
922.789	12947
922.898	12970
923.007	12897
923.116	13053
923.224	12840
923.333	12985
923.442	12856
923.55	12795
923.659	12745
923.767	12856
923.876	12749
923.984	12863
924.092	12783
924.201	12764
924.309	12741
924.417	12741
924.525	12627
924.633	12642
924.741	13601
924.849	12490
924.956	12555
925.064	12414
925.172	12403
925.279	12452
925.387	12433
925.494	12422
925.602	12521
925.709	12490
925.816	12388
925.924	12338
926.031	12509
926.138	12338
926.245	12376
926.352	12315
926.459	12464
926.566	12486
926.673	12369
926.779	12167
926.886	12216
926.993	12072
927.099	12053
927.206	12003
927.312	11992
927.419	12072
927.525	11973
927.631	12064
927.737	11893
927.843	11832
927.95	11828
928.056	11866
928.162	11836
928.267	11840
928.373	12388
928.479	11954
928.585	11661
928.69	11798
928.796	11821
928.901	11741
929.007	11547
929.112	11672
929.218	11676
929.323	11592
929.428	11638
929.533	11684
929.638	11509
929.743	11532
929.848	11577
929.953	11478
930.058	11372
930.163	11307
930.267	11189
930.372	11440
930.477	11204
930.581	11440
930.685	11239
930.79	11151
930.894	11162
930.998	11166
931.103	11288
931.207	10949
931.311	10854
931.415	10771
931.519	10577
931.623	10573
