Data from test_V78500241_2115.txt Node
Date: Fri Mar 25 15:24:35 CST 2022
User: usil
Spectrometer: V785-0024
Trigger mode: 0
Integration Time (sec): 4.000000E-1
Scans to average: 1
Nonlinearity correction enabled: false
Boxcar width: 0
Storing dark spectrum: false
XAxis mode: Wavelengths
Number of Pixels in Spectrum: 1024
>>>>>Begin Spectral Data<<<<<
801.071	27861
801.214	27911
801.356	27583
801.499	27568
801.641	27526
801.783	27401
801.926	27393
802.068	27466
802.211	27199
802.353	27256
802.496	27047
802.638	27112
802.78	27127
802.923	27077
803.065	26940
803.208	26956
803.35	26979
803.492	27188
803.635	27291
803.777	27104
803.919	27287
804.061	27553
804.204	27294
804.346	27226
804.488	27211
804.63	27389
804.773	27203
804.915	27313
805.057	27431
805.199	27237
805.341	27435
805.483	27447
805.626	27389
805.768	27317
805.91	27485
806.052	27348
806.194	27336
806.336	27435
806.478	27439
806.62	27378
806.762	27492
806.904	27614
807.046	27903
807.188	27785
807.33	27865
807.472	27892
807.614	27724
807.756	27774
807.898	27766
808.04	27667
808.182	27656
808.324	27660
808.465	27606
808.607	27812
808.749	28082
808.891	28040
809.033	28200
809.174	27930
809.316	27884
809.458	27953
809.6	27994
809.741	28017
809.883	28128
810.025	28276
810.166	28375
810.308	28352
810.45	28226
810.591	28036
810.733	28048
810.875	27861
811.016	27899
811.158	27823
811.299	28097
811.441	28166
811.582	28105
811.724	28074
811.865	28010
812.007	28082
812.148	28040
812.29	28162
812.431	28032
812.573	28318
812.714	28462
812.855	28481
812.997	28611
813.138	28649
813.279	28634
813.421	28519
813.562	28519
813.703	28306
813.845	28234
813.986	27892
814.127	27808
814.268	27629
814.41	27732
814.551	27800
814.692	27873
814.833	27561
814.974	27652
815.115	27709
815.256	27530
815.397	27576
815.539	27591
815.68	27557
815.821	27348
815.962	27572
816.103	27340
816.244	27504
816.385	27348
816.526	27226
816.666	27036
816.807	26929
816.948	27058
817.089	27157
817.23	26994
817.371	27009
817.512	26918
817.653	26899
817.793	26925
817.934	26979
818.075	26940
818.216	26929
818.356	26902
818.497	26982
818.638	26625
818.778	26674
818.919	26804
819.06	26849
819.2	26762
819.341	26982
819.481	26921
819.622	27070
819.762	27275
819.903	27245
820.043	27180
820.184	27161
820.324	27108
820.465	27077
820.605	27161
820.746	27081
820.886	26891
821.026	27150
821.167	27039
821.307	27150
821.447	27028
821.588	26819
821.728	26743
821.868	26473
822.008	26415
822.149	26377
822.289	26377
822.429	26263
822.569	26153
822.709	26161
822.849	25928
822.99	25989
823.13	25993
823.27	25925
823.41	25696
823.55	25769
823.69	25723
823.83	25772
823.97	25757
824.11	25510
824.25	25605
824.389	25525
824.529	25738
824.669	25639
824.809	25700
824.949	25693
825.089	25715
825.228	25715
825.368	25506
825.508	25392
825.648	25499
825.787	25464
825.927	25601
826.067	25381
826.206	25369
826.346	25403
826.485	25426
826.625	25479
826.765	25460
826.904	25643
827.044	25240
827.183	25293
827.323	25152
827.462	25308
827.601	25274
827.741	25175
827.88	25168
828.02	25107
828.159	25213
828.298	25251
828.437	25209
828.577	25129
828.716	25156
828.855	25164
828.994	24951
829.134	24905
829.273	24905
829.412	24856
829.551	24817
829.69	24817
829.829	24970
829.968	25057
830.107	24920
830.246	24928
830.385	24863
830.524	24776
830.663	24726
830.802	24612
830.941	24479
831.08	24441
831.219	24582
831.357	24517
831.496	24639
831.635	24479
831.774	24315
831.913	24380
832.051	24311
832.19	24426
832.329	24323
832.467	24296
832.606	24060
832.744	24102
832.883	24167
833.022	24091
833.16	24152
833.299	24163
833.437	24144
833.576	24239
833.714	24258
833.852	24361
833.991	24209
834.129	24285
834.267	24239
834.406	24300
834.544	24289
834.682	24186
834.821	24342
834.959	24445
835.097	24182
835.235	24114
835.373	24281
835.511	24247
835.65	24064
835.788	23969
835.926	23973
836.064	23923
836.202	24034
836.34	24007
836.478	24133
836.615	23988
836.753	23996
836.891	24129
837.029	24038
837.167	23904
837.305	24011
837.443	23946
837.58	23870
837.718	23859
837.856	23889
837.993	23760
838.131	23916
838.269	23737
838.406	23821
838.544	23676
838.681	23516
838.819	23596
838.956	23311
839.094	23417
839.231	23520
839.369	23436
839.506	23828
839.643	23573
839.781	23406
839.918	23463
840.055	23398
840.193	23246
840.33	23284
840.467	23315
840.604	23193
840.742	23611
840.879	23124
841.016	23102
841.153	23166
841.29	23299
841.427	23197
841.564	23425
841.701	23189
841.838	23197
841.975	23006
842.112	23136
842.249	23117
842.385	23056
842.522	23064
842.659	23155
842.796	23029
842.933	23029
843.069	22938
843.206	22984
843.343	23140
843.479	23121
843.616	23010
843.752	22881
843.889	22869
844.025	23022
844.162	22706
844.298	22725
844.435	22771
844.571	22672
844.708	22847
844.844	22938
844.98	22881
845.117	22908
845.253	22786
845.389	22675
845.525	22687
845.661	22611
845.798	22561
845.934	22675
846.07	22447
846.206	22584
846.342	22645
846.478	22500
846.614	22219
846.75	22287
846.886	22261
847.022	22341
847.158	22310
847.294	22318
847.429	22249
847.565	22162
847.701	22470
847.837	21922
847.972	21934
848.108	22074
848.244	22109
848.379	21918
848.515	21934
848.65	21873
848.786	21838
848.921	21861
849.057	21960
849.192	21884
849.328	21895
849.463	21736
849.598	21778
849.734	21819
849.869	21667
850.004	21652
850.14	21644
850.275	21633
850.41	21580
850.545	21587
850.68	21644
850.815	21622
850.95	21500
851.085	21793
851.22	21637
851.355	21648
851.49	21637
851.625	21564
851.76	21557
851.895	21458
852.03	21545
852.165	21564
852.299	21587
852.434	21759
852.569	21656
852.703	21583
852.838	21660
852.973	21743
853.107	21690
853.242	21428
853.376	21412
853.511	21367
853.645	21336
853.78	21504
853.914	21485
854.048	21370
854.183	21401
854.317	21488
854.451	21667
854.585	21435
854.72	21378
854.854	21428
854.988	21412
855.122	21526
855.256	21298
855.39	21447
855.524	21473
855.658	21553
855.792	21389
855.926	21519
856.06	21519
856.194	21416
856.327	21367
856.461	21401
856.595	21317
856.729	21367
856.862	21610
856.996	21488
857.13	21458
857.263	21507
857.397	21473
857.53	21370
857.664	21416
857.797	21507
857.931	21481
858.064	21538
858.197	21519
858.331	21393
858.464	21351
858.597	21256
858.731	21412
858.864	21325
858.997	21382
859.13	21466
859.263	21367
859.396	21504
859.529	21389
859.662	21382
859.795	21294
859.928	21241
860.061	21519
860.194	21568
860.327	21511
860.46	21469
860.592	21428
860.725	21652
860.858	21542
860.99	21370
861.123	21332
861.256	21416
861.388	21443
861.521	22070
861.653	21226
861.786	21241
861.918	21176
862.05	21241
862.183	21351
862.315	21370
862.447	21401
862.58	21260
862.712	21207
862.844	21081
862.976	21237
863.108	21176
863.24	21564
863.372	21119
863.504	21154
863.636	21013
863.768	21249
863.9	21127
864.032	21001
864.164	21135
864.296	21161
864.428	21268
864.559	21249
864.691	21218
864.823	21104
864.954	21157
865.086	21131
865.217	20979
865.349	21028
865.48	20975
865.612	21024
865.743	21146
865.875	20952
866.006	21020
866.137	21074
866.269	20963
866.4	20975
866.531	20937
866.662	20792
866.793	20975
866.924	20826
867.055	20956
867.186	21116
867.317	20819
867.448	20838
867.579	20956
867.71	20762
867.841	20883
867.972	20963
868.103	20849
868.233	21036
868.364	20796
868.495	21085
868.625	21302
868.756	21332
868.886	21074
869.017	21184
869.147	21321
869.278	21275
869.408	21329
869.539	21173
869.669	21256
869.799	21332
869.929	21344
870.06	21294
870.19	21500
870.32	21443
870.45	21557
870.58	21530
870.71	21652
870.84	21759
870.97	21682
871.1	21564
871.23	21762
871.36	21739
871.489	21698
871.619	21690
871.749	21816
871.879	21873
872.008	21907
872.138	21789
872.267	21663
872.397	21538
872.526	21587
872.656	21644
872.785	21648
872.915	21709
873.044	21846
873.173	21819
873.303	21774
873.432	21888
873.561	21846
873.69	21766
873.819	21816
873.948	21949
874.077	21762
874.206	21755
874.335	21880
874.464	21846
874.593	22105
874.722	21949
874.851	22070
874.979	22128
875.108	22105
875.237	21953
875.365	22013
875.494	21991
875.623	22112
875.751	22010
875.88	22116
876.008	22246
876.136	22234
876.265	22440
876.393	22546
876.521	22478
876.65	22451
876.778	22382
876.906	22375
877.034	22413
877.162	22390
877.29	22398
877.418	22504
877.546	22375
877.674	22367
877.802	22413
877.93	22287
878.058	22398
878.185	22116
878.313	22348
878.441	22276
878.568	22219
878.696	22306
878.824	22303
878.951	22436
879.079	22569
879.206	22710
879.333	22634
879.461	22405
879.588	22493
879.715	22516
879.842	22596
879.97	22451
880.097	22295
880.224	22143
880.351	22280
880.478	22333
880.605	22253
880.732	22295
880.859	22417
880.986	22211
881.112	22246
881.239	22002
881.366	21941
881.493	21876
881.619	21823
881.746	21838
881.872	21648
881.999	21789
882.125	21717
882.252	21755
882.378	21823
882.505	21884
882.631	21633
882.757	21511
882.883	21599
883.01	21462
883.136	21447
883.262	21344
883.388	21351
883.514	21348
883.64	21454
883.766	21439
883.892	21287
884.018	21355
884.143	21488
884.269	21515
884.395	21260
884.52	21131
884.646	21138
884.772	21093
884.897	20876
885.023	21100
885.148	21226
885.274	21131
885.399	21272
885.524	21199
885.65	21119
885.775	21077
885.9	20868
886.025	21291
886.15	21161
886.275	21062
886.4	21017
886.525	21017
886.65	21020
886.775	21032
886.9	21173
887.025	21150
887.149	21039
887.274	20929
887.399	20838
887.523	20826
887.648	20785
887.773	20701
887.897	21005
888.021	20785
888.146	20781
888.27	20937
888.395	20902
888.519	20918
888.643	20902
888.767	20887
888.891	20796
889.015	20697
889.139	20670
889.263	20579
889.387	20712
889.511	20876
889.635	20788
889.759	20594
889.883	20724
890.006	20617
890.13	20777
890.254	20602
890.377	20575
890.501	20404
890.624	20301
890.748	20514
890.871	20309
890.995	20172
891.118	20271
891.241	20290
891.364	20237
891.488	20259
891.611	20282
891.734	20336
891.857	20278
891.98	20267
892.103	20244
892.226	20305
892.349	20191
892.471	20024
892.594	20142
892.717	20195
892.839	20088
892.962	20206
893.085	20343
893.207	20202
893.33	20069
893.452	20031
893.575	20161
893.697	20187
893.819	20271
893.941	20389
894.064	20271
894.186	20145
894.308	20122
894.43	20229
894.552	20244
894.674	20191
894.796	20024
894.918	20134
895.04	20115
895.161	20172
895.283	20077
895.405	20122
895.526	20035
895.648	20008
895.769	20191
895.891	20225
896.012	20256
896.134	20206
896.255	20107
896.376	20111
896.498	20149
896.619	20103
896.74	20035
896.861	20244
896.982	20499
897.103	20655
897.224	20480
897.345	20400
897.466	20313
897.587	20343
897.708	20530
897.828	20431
897.949	20431
898.07	20180
898.19	20408
898.311	20423
898.431	20202
898.552	20332
898.672	20427
898.792	20518
898.913	20332
899.033	20252
899.153	20248
899.273	19967
899.393	20187
899.513	20259
899.633	20153
899.753	20145
899.873	20008
899.993	20153
900.113	20046
900.232	20100
900.352	20050
900.472	19753
900.591	19890
900.711	19807
900.83	19890
900.95	19925
901.069	19967
901.189	19757
901.308	19495
901.427	19525
901.546	19396
901.665	19415
901.784	19430
901.904	19381
902.023	19301
902.141	19110
902.26	18932
902.379	19133
902.498	19046
902.617	18909
902.735	18897
902.854	18943
902.973	18871
903.091	18688
903.21	18578
903.328	18681
903.446	18597
903.565	18483
903.683	18544
903.801	18311
903.919	18460
904.038	18357
904.156	18224
904.274	18273
904.392	18224
904.51	18201
904.627	18201
904.745	18239
904.863	18209
904.981	17946
905.098	17992
905.216	17920
905.334	18011
905.451	17863
905.569	17764
905.686	17885
905.803	17840
905.921	17668
906.038	17680
906.155	17745
906.272	17524
906.389	17642
906.506	17512
906.623	17421
906.74	17349
906.857	17311
906.974	17368
907.091	17467
907.208	17490
907.324	17455
907.441	17277
907.557	17185
907.674	17189
907.79	17136
907.907	17022
908.023	17227
908.139	17170
908.256	17006
908.372	17056
908.488	17003
908.604	16957
908.72	16873
908.836	16847
908.952	16790
909.068	16930
909.184	16980
909.3	16873
909.415	16915
909.531	16824
909.647	16675
909.762	16512
909.878	16573
909.993	16592
910.108	16519
910.224	16493
910.339	16478
910.454	16493
910.57	16375
910.685	16344
910.8	16519
910.915	16637
911.03	16352
911.145	16211
911.259	16173
911.374	16097
911.489	16025
911.604	16063
911.718	15884
911.833	15915
911.947	15816
912.062	15698
912.176	15873
912.291	15816
912.405	15850
912.519	15960
912.633	16071
912.748	15854
912.862	15907
912.976	15751
913.09	15534
913.204	15736
913.318	15728
913.431	15724
913.545	15762
913.659	15857
913.772	15732
913.886	15538
914	15481
914.113	15603
914.226	15606
914.34	15580
914.453	15401
914.566	15587
914.68	15435
914.793	15321
914.906	15180
915.019	15070
915.132	15055
915.245	15066
915.358	15161
915.47	15146
915.583	14990
915.696	15230
915.809	15180
915.921	15260
916.034	15154
916.146	15051
916.259	14982
916.371	15100
916.483	15024
916.595	14994
916.708	14914
916.82	15028
916.932	14876
917.044	14979
917.156	14834
917.268	14807
917.38	14819
917.491	14735
917.603	14804
917.715	14838
917.826	14948
917.938	14674
918.049	14625
918.161	14819
918.272	14872
918.384	14849
918.495	14701
918.606	14461
918.717	14522
918.828	14583
918.939	14613
919.05	14450
919.161	14476
919.272	14267
919.383	14366
919.494	14568
919.604	14674
919.715	14507
919.826	14377
919.936	14507
920.047	14541
920.157	14480
920.267	14678
920.378	14522
920.488	14404
920.598	14571
920.708	14754
920.818	14686
920.928	14636
921.038	14746
921.148	14625
921.258	14450
921.368	14351
921.477	14248
921.587	14214
921.697	14081
921.806	14256
921.916	14050
922.025	13890
922.134	13860
922.244	13868
922.353	13894
922.462	13715
922.571	13689
922.68	13597
922.789	13449
922.898	13540
923.007	13537
923.116	13586
923.224	13487
923.333	13464
923.442	13362
923.55	13255
923.659	13335
923.767	13343
923.876	13327
923.984	13312
924.092	13312
924.201	13316
924.309	13274
924.417	13331
924.525	13213
924.633	13240
924.741	13913
924.849	12939
924.956	13114
925.064	12958
925.172	12863
925.279	12909
925.387	12924
925.494	12962
925.602	13034
925.709	12947
925.816	12932
925.924	12894
926.031	12939
926.138	12821
926.245	12905
926.352	12734
926.459	12951
926.566	13019
926.673	12798
926.779	12810
926.886	12688
926.993	12502
927.099	12547
927.206	12433
927.312	12399
927.419	12570
927.525	12502
927.631	12456
927.737	12365
927.843	12403
927.95	12251
928.056	12372
928.162	12361
928.267	12376
928.373	12897
928.479	12399
928.585	12197
928.69	12384
928.796	12205
928.901	12136
929.007	12045
929.112	12152
929.218	12209
929.323	12133
929.428	11954
929.533	12129
929.638	11882
929.743	12045
929.848	12034
929.953	11977
930.058	11927
930.163	11703
930.267	11676
930.372	11942
930.477	11737
930.581	11889
930.685	11707
930.79	11680
930.894	11623
930.998	11535
931.103	11657
931.207	11353
931.311	11296
931.415	11231
931.519	11025
931.623	11025
