Data from test_V78500241_2537.txt Node
Date: Fri Mar 25 15:27:31 CST 2022
User: usil
Spectrometer: V785-0024
Trigger mode: 0
Integration Time (sec): 4.000000E-1
Scans to average: 1
Nonlinearity correction enabled: false
Boxcar width: 0
Storing dark spectrum: false
XAxis mode: Wavelengths
Number of Pixels in Spectrum: 1024
>>>>>Begin Spectral Data<<<<<
801.071	27161
801.214	27146
801.356	26933
801.499	26788
801.641	26762
801.783	26636
801.926	26686
802.068	26625
802.211	26575
802.353	26621
802.496	26434
802.638	26396
802.78	26343
802.923	26278
803.065	26259
803.208	26176
803.35	26461
803.492	26423
803.635	26613
803.777	26328
803.919	26457
804.061	26655
804.204	26621
804.346	26457
804.488	26457
804.63	26431
804.773	26488
804.915	26393
805.057	26564
805.199	26495
805.341	26381
805.483	26568
805.626	26720
805.768	26396
805.91	26552
806.052	26625
806.194	26556
806.336	26762
806.478	26552
806.62	26560
806.762	26773
806.904	26849
807.046	27104
807.188	27165
807.33	27043
807.472	26952
807.614	26940
807.756	26929
807.898	26921
808.04	26788
808.182	26887
808.324	26948
808.465	26830
808.607	27241
808.749	27283
808.891	27279
809.033	27405
809.174	27329
809.316	27195
809.458	27066
809.6	27142
809.741	27317
809.883	27291
810.025	27466
810.166	27355
810.308	27492
810.45	27450
810.591	27393
810.733	27211
810.875	27176
811.016	27203
811.158	27157
811.299	27325
811.441	27348
811.582	27443
811.724	27226
811.865	27131
812.007	27150
812.148	27165
812.29	27291
812.431	27249
812.573	27370
812.714	27530
812.855	27606
812.997	27679
813.138	27934
813.279	27709
813.421	27622
813.562	27709
813.703	27492
813.845	27405
813.986	27032
814.127	27020
814.268	26895
814.41	26830
814.551	26716
814.692	26876
814.833	26746
814.974	26944
815.115	26902
815.256	26781
815.397	26735
815.539	26758
815.68	26583
815.821	26568
815.962	26705
816.103	26549
816.244	26476
816.385	26530
816.526	26294
816.666	26252
816.807	26046
816.948	26248
817.089	26278
817.23	26218
817.371	26130
817.512	26107
817.653	26084
817.793	26024
817.934	26145
818.075	26138
818.216	26157
818.356	26149
818.497	25856
818.638	25940
818.778	25868
818.919	25772
819.06	25890
819.2	26054
819.341	26168
819.481	26039
819.622	26142
819.762	26427
819.903	26294
820.043	26237
820.184	26256
820.324	26225
820.465	26313
820.605	26157
820.746	26027
820.886	26130
821.026	26191
821.167	26126
821.307	26259
821.447	26058
821.588	26081
821.728	25944
821.868	25803
822.008	25814
822.149	25605
822.289	25578
822.429	25426
822.569	25194
822.709	25183
822.849	25034
822.99	25171
823.13	25118
823.27	25133
823.41	24977
823.55	24852
823.69	24996
823.83	24909
823.97	24871
824.11	24806
824.25	24665
824.389	24688
824.529	24890
824.669	24696
824.809	24696
824.949	24806
825.089	24837
825.228	24688
825.368	24673
825.508	24551
825.648	24677
825.787	24669
825.927	24612
826.067	24604
826.206	24585
826.346	24650
826.485	24692
826.625	24726
826.765	24661
826.904	24696
827.044	24380
827.183	24388
827.323	24300
827.462	24228
827.601	24197
827.741	24270
827.88	24289
828.02	24133
828.159	24243
828.298	24372
828.437	24285
828.577	24270
828.716	24391
828.855	24072
828.994	23980
829.134	24098
829.273	24106
829.412	23920
829.551	23897
829.69	23973
829.829	23996
829.968	24110
830.107	24018
830.246	23973
830.385	23866
830.524	23885
830.663	23874
830.802	23756
830.941	23630
831.08	23539
831.219	23611
831.357	23611
831.496	23874
831.635	23539
831.774	23520
831.913	23512
832.051	23406
832.19	23444
832.329	23414
832.467	23379
832.606	23292
832.744	23284
832.883	23353
833.022	23299
833.16	23395
833.299	23296
833.437	23288
833.576	23410
833.714	23471
833.852	23452
833.991	23524
834.129	23539
834.267	23501
834.406	23406
834.544	23493
834.682	23326
834.821	23246
834.959	23592
835.097	23292
835.235	23379
835.373	23474
835.511	23395
835.65	23277
835.788	23277
835.926	23105
836.064	22987
836.202	22980
836.34	23189
836.478	23299
836.615	23242
836.753	23143
836.891	23246
837.029	23261
837.167	23246
837.305	23261
837.443	23204
837.58	23048
837.718	23121
837.856	23140
837.993	22995
838.131	23060
838.269	23003
838.406	22999
838.544	23071
838.681	22702
838.819	22790
838.956	22519
839.094	22599
839.231	22733
839.369	22759
839.506	23018
839.643	22835
839.781	22554
839.918	22516
840.055	22474
840.193	22569
840.33	22360
840.467	22523
840.604	22546
840.742	22831
840.879	22265
841.016	22508
841.153	22386
841.29	22611
841.427	22512
841.564	22596
841.701	22557
841.838	22413
841.975	22333
842.112	22508
842.249	22394
842.385	22272
842.522	22504
842.659	22382
842.796	22337
842.933	22325
843.069	22211
843.206	22272
843.343	22306
843.479	22306
843.616	22386
843.752	21998
843.889	22120
844.025	22067
844.162	22040
844.298	22196
844.435	22040
844.571	22044
844.708	22120
844.844	22177
844.98	22200
845.117	22109
845.253	21949
845.389	21934
845.525	21937
845.661	21915
845.798	21823
845.934	21747
846.07	21778
846.206	21713
846.342	21907
846.478	21838
846.614	21629
846.75	21428
846.886	21469
847.022	21667
847.158	21580
847.294	21561
847.429	21488
847.565	21481
847.701	21838
847.837	21416
847.972	21192
848.108	21412
848.244	21237
848.379	21203
848.515	21249
848.65	21157
848.786	21116
848.921	21070
849.057	21241
849.192	21127
849.328	21169
849.463	21116
849.598	21032
849.734	21017
849.869	20887
850.004	20834
850.14	20834
850.275	20781
850.41	20750
850.545	20708
850.68	20830
850.815	20868
850.95	20910
851.085	20986
851.22	21154
851.355	20868
851.49	20807
851.625	20849
851.76	20887
851.895	20758
852.03	20807
852.165	20910
852.299	21005
852.434	20998
852.569	20826
852.703	20765
852.838	20963
852.973	20982
853.107	21058
853.242	20891
853.376	20632
853.511	20571
853.645	20743
853.78	20857
853.914	20667
854.048	20636
854.183	20712
854.317	20693
854.451	20861
854.585	20686
854.72	20556
854.854	20758
854.988	20541
855.122	20796
855.256	20701
855.39	20697
855.524	20823
855.658	20678
855.792	20629
855.926	20708
856.06	20674
856.194	20765
856.327	20705
856.461	20583
856.595	20632
856.729	20598
856.862	20826
856.996	20663
857.13	20785
857.263	20800
857.397	20800
857.53	20617
857.664	20762
857.797	20727
857.931	20826
858.064	20788
858.197	20853
858.331	20651
858.464	20689
858.597	20549
858.731	20609
858.864	20636
858.997	20587
859.13	20686
859.263	20754
859.396	20823
859.529	20644
859.662	20720
859.795	20621
859.928	20731
860.061	20765
860.194	20826
860.327	20754
860.46	20670
860.592	20785
860.725	20739
860.858	20834
860.99	20735
861.123	20575
861.256	20674
861.388	20629
861.521	21363
861.653	20564
861.786	20526
861.918	20484
862.05	20583
862.183	20594
862.315	20564
862.447	20670
862.58	20617
862.712	20415
862.844	20431
862.976	20530
863.108	20507
863.24	20815
863.372	20358
863.504	20431
863.636	20347
863.768	20434
863.9	20412
864.032	20343
864.164	20408
864.296	20415
864.428	20522
864.559	20381
864.691	20511
864.823	20419
864.954	20396
865.086	20377
865.217	20393
865.349	20218
865.48	20298
865.612	20309
865.743	20434
865.875	20332
866.006	20355
866.137	20286
866.269	20389
866.4	20301
866.531	20294
866.662	20271
866.793	20248
866.924	20358
867.055	20320
867.186	20267
867.317	20286
867.448	20134
867.579	20199
867.71	20221
867.841	20130
867.972	20244
868.103	20210
868.233	20298
868.364	20229
868.495	20343
868.625	20568
868.756	20651
868.886	20503
869.017	20366
869.147	20518
869.278	20606
869.408	20571
869.539	20545
869.669	20568
869.799	20457
869.929	20697
870.06	20686
870.19	20743
870.32	20796
870.45	20819
870.58	20792
870.71	20975
870.84	20899
870.97	20891
871.1	20982
871.23	21032
871.36	21119
871.489	21100
871.619	21165
871.749	21112
871.879	21211
872.008	21188
872.138	21116
872.267	21047
872.397	20971
872.526	21001
872.656	20872
872.785	20967
872.915	21127
873.044	21211
873.173	21093
873.303	21226
873.432	21104
873.561	21325
873.69	21112
873.819	21169
873.948	21180
874.077	21169
874.206	21047
874.335	21024
874.464	21237
874.593	21351
874.722	21363
874.851	21447
874.979	21302
875.108	21367
875.237	21294
875.365	21310
875.494	21412
875.623	21599
875.751	21298
875.88	21332
876.008	21488
876.136	21686
876.265	21675
876.393	21907
876.521	21808
876.65	21690
876.778	21888
876.906	21591
877.034	21622
877.162	21789
877.29	21690
877.418	21800
877.546	21800
877.674	21766
877.802	21835
877.93	21743
878.058	21583
878.185	21538
878.313	21652
878.441	21576
878.568	21580
878.696	21797
878.824	21759
878.951	21808
879.079	21797
879.206	22002
879.333	21956
879.461	21835
879.588	21827
879.715	21846
879.842	22086
879.97	21778
880.097	21534
880.224	21595
880.351	21507
880.478	21564
880.605	21428
880.732	21511
880.859	21865
880.986	21599
881.112	21591
881.239	21389
881.366	21275
881.493	21291
881.619	21089
881.746	21142
881.872	21093
881.999	21096
882.125	21150
882.252	21169
882.378	21070
882.505	21138
882.631	21047
882.757	20815
882.883	20933
883.01	20785
883.136	20716
883.262	20674
883.388	20667
883.514	20834
883.64	20960
883.766	20659
883.892	20598
884.018	20590
884.143	20796
884.269	20899
884.395	20549
884.52	20454
884.646	20507
884.772	20518
884.897	20450
885.023	20476
885.148	20560
885.274	20621
885.399	20568
885.524	20484
885.65	20514
885.775	20541
885.9	20495
886.025	20537
886.15	20590
886.275	20545
886.4	20366
886.525	20526
886.65	20518
886.775	20446
886.9	20533
887.025	20739
887.149	20396
887.274	20271
887.399	20256
887.523	20149
887.648	20161
887.773	20195
887.897	20377
888.021	20343
888.146	20122
888.27	20218
888.395	20419
888.519	20199
888.643	20248
888.767	20252
888.891	20252
889.015	20058
889.139	20077
889.263	20012
889.387	20248
889.511	20336
889.635	20168
889.759	20157
889.883	20008
890.006	20103
890.13	20031
890.254	19978
890.377	20012
890.501	19780
890.624	19788
890.748	19925
890.871	19708
890.995	19582
891.118	19578
891.241	19696
891.364	19628
891.488	19674
891.611	19685
891.734	19719
891.857	19613
891.98	19651
892.103	19674
892.226	19639
892.349	19601
892.471	19457
892.594	19616
892.717	19480
892.839	19495
892.962	19571
893.085	19685
893.207	19655
893.33	19434
893.452	19487
893.575	19499
893.697	19548
893.819	19635
893.941	19769
894.064	19708
894.186	19521
894.308	19472
894.43	19734
894.552	19719
894.674	19715
894.796	19506
894.918	19464
895.04	19571
895.161	19677
895.283	19597
895.405	19400
895.526	19689
895.648	19586
895.769	19639
895.891	19548
896.012	19601
896.134	19651
896.255	19693
896.376	19495
896.498	19552
896.619	19677
896.74	19674
896.861	19700
896.982	19841
897.103	20008
897.224	19856
897.345	19715
897.466	19788
897.587	19875
897.708	19997
897.828	19814
897.949	19788
898.07	19704
898.19	19723
898.311	19875
898.431	19803
898.552	19803
898.672	19864
898.792	19974
898.913	19909
899.033	19715
899.153	19788
899.273	19521
899.393	19525
899.513	19677
899.633	19605
899.753	19643
899.873	19540
899.993	19643
900.113	19521
900.232	19597
900.352	19537
900.472	19339
900.591	19308
900.711	19407
900.83	19339
900.95	19445
901.069	19499
901.189	19206
901.308	19038
901.427	18852
901.546	19000
901.665	18958
901.784	18890
901.904	18848
902.023	18696
902.141	18532
902.26	18566
902.379	18494
902.498	18551
902.617	18471
902.735	18498
902.854	18441
902.973	18372
903.091	18205
903.21	18106
903.328	18133
903.446	18197
903.565	17973
903.683	17980
903.801	17828
903.919	17988
904.038	17832
904.156	17745
904.274	17851
904.392	17642
904.51	17684
904.627	17748
904.745	17790
904.863	17771
904.981	17623
905.098	17398
905.216	17444
905.334	17524
905.451	17490
905.569	17376
905.686	17372
905.803	17467
905.921	17216
906.038	17322
906.155	17299
906.272	17185
906.389	17147
906.506	16976
906.623	16999
906.74	16911
906.857	16839
906.974	16911
907.091	17029
907.208	17022
907.324	16957
907.441	16889
907.557	16679
907.674	16649
907.79	16641
907.907	16672
908.023	16725
908.139	16672
908.256	16656
908.372	16561
908.488	16668
908.604	16478
908.72	16367
908.836	16390
908.952	16390
909.068	16447
909.184	16504
909.3	16363
909.415	16421
909.531	16428
909.647	16246
909.762	16074
909.878	16101
909.993	16059
910.108	16051
910.224	16116
910.339	16017
910.454	15998
910.57	16124
910.685	15915
910.8	16177
910.915	16078
911.03	15842
911.145	15808
911.259	15633
911.374	15713
911.489	15663
911.604	15584
911.718	15447
911.833	15473
911.947	15466
912.062	15378
912.176	15496
912.291	15656
912.405	15564
912.519	15713
912.633	15629
912.748	15469
912.862	15386
912.976	15378
913.09	15237
913.204	15287
913.318	15302
913.431	15306
913.545	15424
913.659	15401
913.772	15252
913.886	15138
914	15154
914.113	15222
914.226	15154
914.34	15138
914.453	14979
914.566	15085
914.68	15081
914.793	14963
914.906	14785
915.019	14731
915.132	14678
915.245	14777
915.358	14724
915.47	14807
915.583	14590
915.696	14716
915.809	14826
915.921	14785
916.034	14689
916.146	14682
916.259	14610
916.371	14621
916.483	14731
916.595	14499
916.708	14552
916.82	14579
916.932	14514
917.044	14541
917.156	14495
917.268	14438
917.38	14389
917.491	14351
917.603	14351
917.715	14503
917.826	14473
917.938	14355
918.049	14138
918.161	14366
918.272	14461
918.384	14530
918.495	14412
918.606	14267
918.717	14069
918.828	14320
918.939	14206
919.05	14005
919.161	13989
919.272	13868
919.383	14050
919.494	14237
919.604	14324
919.715	14145
919.826	14039
919.936	14149
920.047	14107
920.157	14187
920.267	14366
920.378	14138
920.488	14142
920.598	14244
920.708	14320
920.818	14275
920.928	14301
921.038	14324
921.148	14317
921.258	14103
921.368	14012
921.477	13837
921.587	13757
921.697	13681
921.806	14008
921.916	13719
922.025	13609
922.134	13578
922.244	13575
922.353	13518
922.462	13396
922.571	13354
922.68	13156
922.789	13156
922.898	13198
923.007	13164
923.116	13255
923.224	13206
923.333	13038
923.442	13095
923.55	13038
923.659	12981
923.767	13050
923.876	13031
923.984	12985
924.092	12875
924.201	12916
924.309	12882
924.417	12939
924.525	12886
924.633	12791
924.741	13826
924.849	12654
924.956	12798
925.064	12631
925.172	12608
925.279	12563
925.387	12612
925.494	12582
925.602	12768
925.709	12684
925.816	12566
925.924	12426
926.031	12662
926.138	12585
926.245	12540
926.352	12433
926.459	12536
926.566	12639
926.673	12456
926.779	12350
926.886	12346
926.993	12289
927.099	12148
927.206	12152
927.312	12095
927.419	12163
927.525	12186
927.631	12148
927.737	12102
927.843	12038
927.95	12015
928.056	12038
928.162	11980
928.267	12072
928.373	12711
928.479	12087
928.585	11908
928.69	11961
928.796	12079
928.901	11942
929.007	11661
929.112	11927
929.218	11817
929.323	11794
929.428	11691
929.533	11767
929.638	11604
929.743	11684
929.848	11786
929.953	11722
930.058	11532
930.163	11444
930.267	11474
930.372	11630
930.477	11459
930.581	11604
930.685	11455
930.79	11315
930.894	11326
930.998	11280
931.103	11410
931.207	11204
931.311	10999
931.415	10869
931.519	10725
931.623	10706
