Data from test_V78500241_1548.txt Node
Date: Fri Mar 25 15:20:38 CST 2022
User: usil
Spectrometer: V785-0024
Trigger mode: 0
Integration Time (sec): 4.000000E-1
Scans to average: 1
Nonlinearity correction enabled: false
Boxcar width: 0
Storing dark spectrum: false
XAxis mode: Wavelengths
Number of Pixels in Spectrum: 1024
>>>>>Begin Spectral Data<<<<<
801.071	27774
801.214	27797
801.356	27587
801.499	27454
801.641	27313
801.783	27439
801.926	27340
802.068	27359
802.211	27351
802.353	27226
802.496	27131
802.638	27116
802.78	27017
802.923	26937
803.065	27009
803.208	26986
803.35	26979
803.492	27176
803.635	27222
803.777	26971
803.919	27344
804.061	27572
804.204	27241
804.346	27222
804.488	27081
804.63	27256
804.773	27146
804.915	27367
805.057	27291
805.199	27233
805.341	27355
805.483	27416
805.626	27355
805.768	27291
805.91	27252
806.052	27420
806.194	27119
806.336	27603
806.478	27325
806.62	27249
806.762	27424
806.904	27675
807.046	27895
807.188	27690
807.33	27892
807.472	27797
807.614	27781
807.756	27644
807.898	27397
808.04	27572
808.182	27656
808.324	27675
808.465	27705
808.607	27922
808.749	27937
808.891	28078
809.033	28139
809.174	27983
809.316	27899
809.458	27987
809.6	28082
809.741	28067
809.883	28150
810.025	28291
810.166	28242
810.308	28219
810.45	28139
810.591	28086
810.733	28097
810.875	27956
811.016	27903
811.158	27865
811.299	28128
811.441	28169
811.582	28059
811.724	27994
811.865	27884
812.007	28013
812.148	27918
812.29	27941
812.431	28059
812.573	28306
812.714	28500
812.855	28451
812.997	28596
813.138	28626
813.279	28603
813.421	28550
813.562	28447
813.703	28329
813.845	28120
813.986	27937
814.127	27736
814.268	27743
814.41	27808
814.551	27667
814.692	27720
814.833	27751
814.974	27648
815.115	27675
815.256	27557
815.397	27603
815.539	27667
815.68	27397
815.821	27313
815.962	27507
816.103	27485
816.244	27355
816.385	27173
816.526	27184
816.666	26948
816.807	26925
816.948	26952
817.089	27055
817.23	27013
817.371	26925
817.512	26956
817.653	26895
817.793	26842
817.934	27032
818.075	27024
818.216	27062
818.356	26849
818.497	26883
818.638	26712
818.778	26727
818.919	26891
819.06	26777
819.2	26765
819.341	26902
819.481	26899
819.622	27028
819.762	27393
819.903	27077
820.043	27116
820.184	27024
820.324	26967
820.465	27089
820.605	27123
820.746	26849
820.886	26975
821.026	26979
821.167	27055
821.307	27116
821.447	26982
821.588	26891
821.728	26594
821.868	26530
822.008	26473
822.149	26473
822.289	26431
822.429	26256
822.569	26065
822.709	26035
822.849	25963
822.99	25982
823.13	25883
823.27	25860
823.41	25708
823.55	25628
823.69	25693
823.83	25753
823.97	25807
824.11	25731
824.25	25441
824.389	25616
824.529	25689
824.669	25746
824.809	25712
824.949	25681
825.089	25620
825.228	25609
825.368	25430
825.508	25411
825.648	25426
825.787	25392
825.927	25548
826.067	25335
826.206	25495
826.346	25434
826.485	25441
826.625	25506
826.765	25537
826.904	25487
827.044	25160
827.183	25148
827.323	25122
827.462	25232
827.601	25202
827.741	25053
827.88	25103
828.02	25091
828.159	25209
828.298	25141
828.437	25247
828.577	25107
828.716	25244
828.855	25137
828.994	24856
829.134	24768
829.273	24844
829.412	24802
829.551	24867
829.69	24787
829.829	24894
829.968	24875
830.107	24909
830.246	24764
830.385	24863
830.524	24528
830.663	24757
830.802	24490
830.941	24490
831.08	24399
831.219	24597
831.357	24650
831.496	24673
831.635	24521
831.774	24467
831.913	24315
832.051	24140
832.19	24148
832.329	24319
832.467	24182
832.606	24095
832.744	24121
832.883	24136
833.022	24148
833.16	23980
833.299	24110
833.437	24098
833.576	24098
833.714	24125
833.852	24159
833.991	24148
834.129	24171
834.267	24296
834.406	24270
834.544	24194
834.682	24209
834.821	24117
834.959	24475
835.097	24064
835.235	24262
835.373	24167
835.511	24064
835.65	24068
835.788	23992
835.926	23961
836.064	23847
836.202	23904
836.34	23931
836.478	24106
836.615	23912
836.753	24038
836.891	24136
837.029	24011
837.167	23984
837.305	23927
837.443	23863
837.58	23847
837.718	23923
837.856	23923
837.993	23764
838.131	23882
838.269	23802
838.406	23676
838.544	23619
838.681	23611
838.819	23505
838.956	23360
839.094	23383
839.231	23368
839.369	23551
839.506	23726
839.643	23619
839.781	23269
839.918	23258
840.055	23337
840.193	23246
840.33	23239
840.467	23258
840.604	23311
840.742	23501
840.879	23140
841.016	23014
841.153	23067
841.29	23292
841.427	23124
841.564	23197
841.701	23284
841.838	23227
841.975	23079
842.112	23113
842.249	22972
842.385	23086
842.522	23113
842.659	23117
842.796	23029
842.933	23079
843.069	22881
843.206	23067
843.343	23041
843.479	23018
843.616	22980
843.752	22831
843.889	22831
844.025	22889
844.162	22725
844.298	23014
844.435	22889
844.571	22729
844.708	22706
844.844	22908
844.98	22915
845.117	22759
845.253	22866
845.389	22569
845.525	22687
845.661	22641
845.798	22527
845.934	22580
846.07	22565
846.206	22592
846.342	22550
846.478	22474
846.614	22310
846.75	22215
846.886	22200
847.022	22295
847.158	22177
847.294	22287
847.429	22272
847.565	22246
847.701	22443
847.837	21907
847.972	21804
848.108	22074
848.244	22131
848.379	21842
848.515	21720
848.65	21865
848.786	21857
848.921	21865
849.057	21964
849.192	21983
849.328	21819
849.463	21972
849.598	21819
849.734	21793
849.869	21682
850.004	21610
850.14	21576
850.275	21564
850.41	21492
850.545	21431
850.68	21416
850.815	21572
850.95	21568
851.085	21732
851.22	21759
851.355	21580
851.49	21587
851.625	21648
851.76	21549
851.895	21538
852.03	21443
852.165	21477
852.299	21549
852.434	21629
852.569	21629
852.703	21587
852.838	21686
852.973	21720
853.107	21663
853.242	21568
853.376	21485
853.511	21363
853.645	21329
853.78	21374
853.914	21374
854.048	21340
854.183	21355
854.317	21405
854.451	21526
854.585	21367
854.72	21329
854.854	21492
854.988	21397
855.122	21412
855.256	21180
855.39	21370
855.524	21515
855.658	21641
855.792	21329
855.926	21348
856.06	21321
856.194	21526
856.327	21450
856.461	21386
856.595	21344
856.729	21469
856.862	21530
856.996	21488
857.13	21580
857.263	21526
857.397	21443
857.53	21458
857.664	21431
857.797	21511
857.931	21485
858.064	21412
858.197	21542
858.331	21359
858.464	21355
858.597	21291
858.731	21363
858.864	21359
858.997	21256
859.13	21329
859.263	21344
859.396	21405
859.529	21386
859.662	21336
859.795	21302
859.928	21340
860.061	21614
860.194	21564
860.327	21469
860.46	21424
860.592	21553
860.725	21568
860.858	21492
860.99	21287
861.123	21370
861.256	21389
861.388	21302
861.521	22074
861.653	21283
861.786	21100
861.918	21222
862.05	21447
862.183	21249
862.315	21188
862.447	21389
862.58	21291
862.712	21070
862.844	21116
862.976	21237
863.108	21173
863.24	21557
863.372	21104
863.504	21104
863.636	21043
863.768	21058
863.9	21085
864.032	21104
864.164	21032
864.296	21024
864.428	21336
864.559	21207
864.691	21195
864.823	21165
864.954	21096
865.086	21085
865.217	21036
865.349	20868
865.48	20975
865.612	21074
865.743	21161
865.875	21081
866.006	20910
866.137	21020
866.269	21154
866.4	21055
866.531	20906
866.662	20937
866.793	20800
866.924	20937
867.055	20918
867.186	20979
867.317	20937
867.448	20899
867.579	20906
867.71	20880
867.841	20861
867.972	20952
868.103	20944
868.233	20971
868.364	20883
868.495	21066
868.625	21020
868.756	21325
868.886	21127
869.017	21104
869.147	21207
869.278	21272
869.408	21241
869.539	21180
869.669	21237
869.799	21313
869.929	21306
870.06	21351
870.19	21481
870.32	21576
870.45	21515
870.58	21458
870.71	21667
870.84	21599
870.97	21519
871.1	21435
871.23	21778
871.36	21869
871.489	21622
871.619	21759
871.749	21793
871.879	21812
872.008	21747
872.138	21812
872.267	21751
872.397	21667
872.526	21519
872.656	21507
872.785	21591
872.915	21743
873.044	21838
873.173	21823
873.303	21774
873.432	21937
873.561	21823
873.69	21808
873.819	21884
873.948	21774
874.077	21850
874.206	21789
874.335	21812
874.464	22032
874.593	21968
874.722	21934
874.851	21926
874.979	22086
875.108	22090
875.237	21945
875.365	21869
875.494	21907
875.623	22086
875.751	22006
875.88	21991
876.008	22158
876.136	22219
876.265	22417
876.393	22557
876.521	22462
876.65	22394
876.778	22371
876.906	22367
877.034	22287
877.162	22249
877.29	22287
877.418	22329
877.546	22356
877.674	22432
877.802	22291
877.93	22268
878.058	22268
878.185	22284
878.313	22382
878.441	22322
878.568	22246
878.696	22394
878.824	22352
878.951	22455
879.079	22485
879.206	22630
879.333	22451
879.461	22295
879.588	22402
879.715	22508
879.842	22557
879.97	22428
880.097	22265
880.224	22105
880.351	22196
880.478	22128
880.605	22166
880.732	22120
880.859	22344
880.986	22196
881.112	22200
881.239	22078
881.366	21937
881.493	21911
881.619	21869
881.746	21770
881.872	21701
881.999	21781
882.125	21694
882.252	21755
882.378	21736
882.505	21751
882.631	21667
882.757	21488
882.883	21557
883.01	21500
883.136	21443
883.262	21252
883.388	21294
883.514	21443
883.64	21450
883.766	21321
883.892	21184
884.018	21188
884.143	21458
884.269	21466
884.395	21108
884.52	21039
884.646	20990
884.772	20956
884.897	20910
885.023	21093
885.148	21089
885.274	21169
885.399	21199
885.524	21074
885.65	21157
885.775	21051
885.9	20971
886.025	21085
886.15	21116
886.275	20975
886.4	20891
886.525	21070
886.65	20990
886.775	21074
886.9	21146
887.025	21302
887.149	21146
887.274	20861
887.399	20853
887.523	20743
887.648	20724
887.773	20887
887.897	20967
888.021	20845
888.146	20735
888.27	20986
888.395	20826
888.519	20849
888.643	20994
888.767	20887
888.891	20807
889.015	20674
889.139	20674
889.263	20663
889.387	20830
889.511	20857
889.635	20727
889.759	20583
889.883	20594
890.006	20621
890.13	20815
890.254	20617
890.377	20522
890.501	20381
890.624	20495
890.748	20514
890.871	20332
890.995	20161
891.118	20210
891.241	20164
891.364	20218
891.488	20431
891.611	20142
891.734	20077
891.857	20267
891.98	20259
892.103	20218
892.226	20278
892.349	20187
892.471	20122
892.594	20149
892.717	20210
892.839	20092
892.962	20187
893.085	20103
893.207	20073
893.33	19947
893.452	20138
893.575	20164
893.697	20065
893.819	20237
893.941	20210
894.064	20176
894.186	20073
894.308	20027
894.43	20240
894.552	20187
894.674	20206
894.796	20016
894.918	20092
895.04	20103
895.161	20164
895.283	20088
895.405	20115
895.526	20138
895.648	20168
895.769	20081
895.891	20092
896.012	20240
896.134	20202
896.255	20115
896.376	20024
896.498	20077
896.619	20092
896.74	20027
896.861	20168
896.982	20480
897.103	20545
897.224	20385
897.345	20343
897.466	20263
897.587	20366
897.708	20408
897.828	20282
897.949	20298
898.07	20202
898.19	20263
898.311	20362
898.431	20191
898.552	20317
898.672	20442
898.792	20385
898.913	20320
899.033	20183
899.153	20161
899.273	20039
899.393	20115
899.513	20027
899.633	20031
899.753	20134
899.873	20020
899.993	20035
900.113	19932
900.232	20073
900.352	20027
900.472	19864
900.591	19879
900.711	19887
900.83	19753
900.95	19913
901.069	19875
901.189	19841
901.308	19533
901.427	19453
901.546	19544
901.665	19449
901.784	19422
901.904	19438
902.023	19266
902.141	19099
902.26	18966
902.379	19023
902.498	18947
902.617	18859
902.735	18973
902.854	18954
902.973	18894
903.091	18665
903.21	18582
903.328	18677
903.446	18471
903.565	18323
903.683	18464
903.801	18372
903.919	18395
904.038	18384
904.156	18186
904.274	18281
904.392	18201
904.51	18182
904.627	18270
904.745	18163
904.863	18197
904.981	17916
905.098	17790
905.216	17843
905.334	17984
905.451	17840
905.569	17828
905.686	17893
905.803	17912
905.921	17570
906.038	17687
906.155	17661
906.272	17600
906.389	17699
906.506	17402
906.623	17410
906.74	17410
906.857	17368
906.974	17345
907.091	17551
907.208	17429
907.324	17471
907.441	17337
907.557	17083
907.674	17132
907.79	17105
907.907	17033
908.023	17185
908.139	17071
908.256	17067
908.372	16911
908.488	16957
908.604	16828
908.72	16854
908.836	16862
908.952	16767
909.068	16767
909.184	16820
909.3	16790
909.415	16869
909.531	16835
909.647	16504
909.762	16550
909.878	16489
909.993	16634
910.108	16653
910.224	16508
910.339	16550
910.454	16474
910.57	16348
910.685	16299
910.8	16618
910.915	16489
911.03	16322
911.145	16116
911.259	16185
911.374	16032
911.489	16032
911.604	16044
911.718	15861
911.833	15861
911.947	15785
912.062	15568
912.176	15819
912.291	15953
912.405	15800
912.519	16048
912.633	16128
912.748	15888
912.862	15865
912.976	15682
913.09	15538
913.204	15701
913.318	15789
913.431	15804
913.545	15800
913.659	15812
913.772	15633
913.886	15580
914	15504
914.113	15557
914.226	15606
914.34	15511
914.453	15431
914.566	15397
914.68	15374
914.793	15279
914.906	15135
915.019	15077
915.132	15093
915.245	15108
915.358	15173
915.47	15108
915.583	15100
915.696	15165
915.809	15169
915.921	15256
916.034	14967
916.146	14998
916.259	14979
916.371	15104
916.483	15116
916.595	14918
916.708	14872
916.82	14895
916.932	14933
917.044	14963
917.156	14826
917.268	14735
917.38	14815
917.491	14773
917.603	14773
917.715	14849
917.826	14883
917.938	14701
918.049	14689
918.161	14686
918.272	14807
918.384	14838
918.495	14731
918.606	14613
918.717	14404
918.828	14484
918.939	14476
919.05	14450
919.161	14450
919.272	14358
919.383	14438
919.494	14533
919.604	14720
919.715	14613
919.826	14431
919.936	14434
920.047	14575
920.157	14530
920.267	14686
920.378	14393
920.488	14507
920.598	14579
920.708	14807
920.818	14541
920.928	14511
921.038	14762
921.148	14689
921.258	14450
921.368	14290
921.477	14202
921.587	14073
921.697	14050
921.806	14252
921.916	14058
922.025	14012
922.134	13753
922.244	13769
922.353	13883
922.462	13643
922.571	13750
922.68	13464
922.789	13521
922.898	13521
923.007	13403
923.116	13521
923.224	13563
923.333	13510
923.442	13388
923.55	13346
923.659	13278
923.767	13316
923.876	13293
923.984	13304
924.092	13225
924.201	13244
924.309	13346
924.417	13221
924.525	13175
924.633	13228
924.741	13902
924.849	12977
924.956	13145
925.064	12935
925.172	12901
925.279	12947
925.387	12935
925.494	12943
925.602	13088
925.709	12939
925.816	12863
925.924	12886
926.031	12935
926.138	12863
926.245	12935
926.352	12722
926.459	12932
926.566	13008
926.673	12810
926.779	12646
926.886	12730
926.993	12551
927.099	12601
927.206	12509
927.312	12407
927.419	12445
927.525	12490
927.631	12509
927.737	12464
927.843	12315
927.95	12228
928.056	12270
928.162	12311
928.267	12311
928.373	12939
928.479	12384
928.585	12083
928.69	12194
928.796	12235
928.901	12110
929.007	12034
929.112	12163
929.218	12167
929.323	12072
929.428	12019
929.533	12175
929.638	11916
929.743	11992
929.848	12030
929.953	12083
930.058	11927
930.163	11798
930.267	11802
930.372	11893
930.477	11710
930.581	11920
930.685	11779
930.79	11710
930.894	11672
930.998	11611
931.103	11783
931.207	11303
931.311	11280
931.415	11181
931.519	10972
931.623	11003
