Data from test_V78500241_1329.txt Node
Date: Fri Mar 25 15:19:06 CST 2022
User: usil
Spectrometer: V785-0024
Trigger mode: 0
Integration Time (sec): 4.000000E-1
Scans to average: 1
Nonlinearity correction enabled: false
Boxcar width: 0
Storing dark spectrum: false
XAxis mode: Wavelengths
Number of Pixels in Spectrum: 1024
>>>>>Begin Spectral Data<<<<<
801.071	27960
801.214	27991
801.356	27739
801.499	27705
801.641	27568
801.783	27477
801.926	27644
802.068	27427
802.211	27488
802.353	27526
802.496	27306
802.638	27291
802.78	27169
802.923	27039
803.065	27100
803.208	27081
803.35	27214
803.492	27321
803.635	27386
803.777	27287
803.919	27378
804.061	27705
804.204	27397
804.346	27389
804.488	27374
804.63	27336
804.773	27355
804.915	27530
805.057	27519
805.199	27496
805.341	27519
805.483	27500
805.626	27557
805.768	27435
805.91	27382
806.052	27561
806.194	27310
806.336	27747
806.478	27583
806.62	27515
806.762	27717
806.904	27709
807.046	28105
807.188	28010
807.33	27953
807.472	27876
807.614	28040
807.756	27937
807.898	27922
808.04	27888
808.182	27842
808.324	27789
808.465	27998
808.607	27987
808.749	28173
808.891	28169
809.033	28322
809.174	28097
809.316	28226
809.458	28185
809.6	28238
809.741	28329
809.883	28363
810.025	28569
810.166	28348
810.308	28421
810.45	28234
810.591	28344
810.733	28249
810.875	28188
811.016	28105
811.158	28093
811.299	28166
811.441	28337
811.582	28474
811.724	28261
811.865	28310
812.007	28249
812.148	28230
812.29	28215
812.431	28440
812.573	28550
812.714	28607
812.855	28641
812.997	28961
813.138	28965
813.279	28793
813.421	28744
813.562	28569
813.703	28588
813.845	28322
813.986	28181
814.127	28036
814.268	27949
814.41	27949
814.551	27903
814.692	27766
814.833	27690
814.974	27869
815.115	27895
815.256	27838
815.397	27614
815.539	27816
815.68	27663
815.821	27625
815.962	27637
816.103	27667
816.244	27618
816.385	27530
816.526	27644
816.666	27424
816.807	27233
816.948	27245
817.089	27351
817.23	27294
817.371	27150
817.512	27203
817.653	27131
817.793	26994
817.934	27138
818.075	27157
818.216	27268
818.356	27211
818.497	27066
818.638	26944
818.778	26781
818.919	27005
819.06	26982
819.2	26994
819.341	27142
819.481	27154
819.622	27378
819.762	27374
819.903	27351
820.043	27420
820.184	27298
820.324	27264
820.465	27336
820.605	27154
820.746	27367
820.886	27184
821.026	27203
821.167	27226
821.307	27378
821.447	27146
821.588	27047
821.728	26979
821.868	26842
822.008	26758
822.149	26621
822.289	26743
822.429	26495
822.569	26233
822.709	26210
822.849	26176
822.99	26172
823.13	26161
823.27	26065
823.41	25951
823.55	25871
823.69	25993
823.83	25947
823.97	25913
824.11	25753
824.25	25693
824.389	25769
824.529	25860
824.669	25860
824.809	25963
824.949	25849
825.089	25875
825.228	25795
825.368	25681
825.508	25765
825.648	25624
825.787	25761
825.927	25864
826.067	25586
826.206	25719
826.346	25727
826.485	25666
826.625	25487
826.765	25719
826.904	25700
827.044	25476
827.183	25502
827.323	25346
827.462	25377
827.601	25365
827.741	25434
827.88	25483
828.02	25324
828.159	25521
828.298	25422
828.437	25411
828.577	25430
828.716	25582
828.855	25187
828.994	25198
829.134	25103
829.273	25145
829.412	24985
829.551	24973
829.69	25110
829.829	25247
829.968	25171
830.107	25107
830.246	25236
830.385	25088
830.524	24973
830.663	24943
830.802	24890
830.941	24810
831.08	24620
831.219	24856
831.357	24829
831.496	24947
831.635	24681
831.774	24688
831.913	24768
832.051	24601
832.19	24559
832.329	24532
832.467	24437
832.606	24445
832.744	24509
832.883	24433
833.022	24467
833.16	24391
833.299	24505
833.437	24445
833.576	24597
833.714	24627
833.852	24471
833.991	24464
834.129	24597
834.267	24570
834.406	24445
834.544	24456
834.682	24536
834.821	24452
834.959	24555
835.097	24483
835.235	24494
835.373	24426
835.511	24483
835.65	24357
835.788	24437
835.926	24178
836.064	24121
836.202	24133
836.34	24296
836.478	24304
836.615	24232
836.753	24235
836.891	24243
837.029	24308
837.167	24247
837.305	24251
837.443	24136
837.58	24171
837.718	24254
837.856	24296
837.993	24155
838.131	24163
838.269	24060
838.406	24174
838.544	23961
838.681	23897
838.819	23821
838.956	23642
839.094	23627
839.231	23604
839.369	23802
839.506	23999
839.643	23965
839.781	23600
839.918	23619
840.055	23691
840.193	23649
840.33	23642
840.467	23592
840.604	23604
840.742	23840
840.879	23395
841.016	23414
841.153	23364
841.29	23528
841.427	23509
841.564	23623
841.701	23539
841.838	23547
841.975	23379
842.112	23341
842.249	23391
842.385	23391
842.522	23482
842.659	23284
842.796	23322
842.933	23356
843.069	23220
843.206	23296
843.343	23490
843.479	23200
843.616	23341
843.752	23071
843.889	23083
844.025	23166
844.162	23060
844.298	23117
844.435	23075
844.571	23044
844.708	23086
844.844	23151
844.98	23075
845.117	23143
845.253	23010
845.389	23025
845.525	23022
845.661	22862
845.798	22866
845.934	22824
846.07	22782
846.206	22858
846.342	22809
846.478	22835
846.614	22535
846.75	22466
846.886	22493
847.022	22641
847.158	22599
847.294	22626
847.429	22577
847.565	22535
847.701	22816
847.837	22268
847.972	22291
848.108	22390
848.244	22265
848.379	22196
848.515	22116
848.65	22048
848.786	22082
848.921	22173
849.057	22120
849.192	22291
849.328	22128
849.463	22150
849.598	22086
849.734	22074
849.869	21899
850.004	21911
850.14	21922
850.275	22006
850.41	21812
850.545	21812
850.68	21831
850.815	22006
850.95	21937
851.085	21960
851.22	22002
851.355	21911
851.49	21816
851.625	21956
851.76	21835
851.895	21747
852.03	21823
852.165	21861
852.299	21888
852.434	21991
852.569	21949
852.703	21823
852.838	21884
852.973	21956
853.107	22105
853.242	21816
853.376	21686
853.511	21724
853.645	21580
853.78	21797
853.914	21717
854.048	21698
854.183	21690
854.317	21625
854.451	21945
854.585	21759
854.72	21713
854.854	21850
854.988	21618
855.122	21736
855.256	21553
855.39	21679
855.524	21766
855.658	21701
855.792	21743
855.926	21720
856.06	21770
856.194	21770
856.327	21660
856.461	21576
856.595	21606
856.729	21656
856.862	21781
856.996	21743
857.13	21804
857.263	21926
857.397	21823
857.53	21667
857.664	21823
857.797	21778
857.931	21800
858.064	21724
858.197	21793
858.331	21724
858.464	21690
858.597	21568
858.731	21781
858.864	21724
858.997	21690
859.13	21679
859.263	21641
859.396	21648
859.529	21671
859.662	21709
859.795	21705
859.928	21545
860.061	21869
860.194	21998
860.327	21663
860.46	21732
860.592	21755
860.725	21808
860.858	21762
860.99	21701
861.123	21622
861.256	21679
861.388	21606
861.521	22265
861.653	21587
861.786	21412
861.918	21614
862.05	21557
862.183	21511
862.315	21553
862.447	21698
862.58	21751
862.712	21507
862.844	21287
862.976	21481
863.108	21389
863.24	21625
863.372	21367
863.504	21424
863.636	21405
863.768	21530
863.9	21382
864.032	21367
864.164	21340
864.296	21359
864.428	21534
864.559	21348
864.691	21523
864.823	21439
864.954	21382
865.086	21340
865.217	21294
865.349	21085
865.48	21260
865.612	21348
865.743	21568
865.875	21370
866.006	21222
866.137	21264
866.269	21306
866.4	21226
866.531	21291
866.662	21237
866.793	21245
866.924	21264
867.055	21306
867.186	21275
867.317	21135
867.448	21089
867.579	21245
867.71	21146
867.841	21081
867.972	21279
868.103	21093
868.233	21188
868.364	21211
868.495	21317
868.625	21386
868.756	21496
868.886	21306
869.017	21443
869.147	21564
869.278	21599
869.408	21545
869.539	21424
869.669	21648
869.799	21466
869.929	21561
870.06	21606
870.19	21816
870.32	21770
870.45	21800
870.58	21679
870.71	21911
870.84	21968
870.97	21869
871.1	21884
871.23	21926
871.36	22074
871.489	21854
871.619	21983
871.749	22021
871.879	22135
872.008	22101
872.138	22040
872.267	21983
872.397	21789
872.526	21869
872.656	21888
872.785	21857
872.915	21972
873.044	22166
873.173	22070
873.303	22139
873.432	22169
873.561	22177
873.69	22082
873.819	22139
873.948	22120
874.077	22010
874.206	21907
874.335	22093
874.464	22207
874.593	22356
874.722	22272
874.851	22276
874.979	22219
875.108	22314
875.237	22333
875.365	22143
875.494	22367
875.623	22402
875.751	22230
875.88	22188
876.008	22402
876.136	22489
876.265	22618
876.393	22782
876.521	22702
876.65	22812
876.778	22630
876.906	22550
877.034	22531
877.162	22630
877.29	22557
877.418	22733
877.546	22535
877.674	22573
877.802	22672
877.93	22523
878.058	22508
878.185	22592
878.313	22599
878.441	22645
878.568	22489
878.696	22630
878.824	22664
878.951	22740
879.079	22793
879.206	22987
879.333	22805
879.461	22687
879.588	22611
879.715	22672
879.842	22957
879.97	22691
880.097	22432
880.224	22462
880.351	22440
880.478	22455
880.605	22516
880.732	22314
880.859	22622
880.986	22447
881.112	22371
881.239	22215
881.366	22158
881.493	21979
881.619	22105
881.746	21937
881.872	22006
881.999	21915
882.125	21975
882.252	22109
882.378	21934
882.505	22097
882.631	21854
882.757	21785
882.883	21755
883.01	21884
883.136	21549
883.262	21644
883.388	21583
883.514	21766
883.64	21705
883.766	21701
883.892	21504
884.018	21553
884.143	21736
884.269	21766
884.395	21348
884.52	21458
884.646	21203
884.772	21260
884.897	21241
885.023	21389
885.148	21401
885.274	21507
885.399	21401
885.524	21291
885.65	21283
885.775	21408
885.9	21306
886.025	21336
886.15	21359
886.275	21329
886.4	21317
886.525	21340
886.65	21226
886.775	21173
886.9	21488
887.025	21599
887.149	21283
887.274	21226
887.399	21123
887.523	20979
887.648	21036
887.773	20918
887.897	21169
888.021	21108
888.146	21108
888.27	21188
888.395	21226
888.519	21127
888.643	21157
888.767	21093
888.891	21047
889.015	20880
889.139	20899
889.263	20952
889.387	20952
889.511	21199
889.635	21077
889.759	20834
889.883	20781
890.006	20838
890.13	21017
890.254	20781
890.377	20868
890.501	20617
890.624	20663
890.748	20746
890.871	20473
890.995	20473
891.118	20419
891.241	20507
891.364	20415
891.488	20495
891.611	20503
891.734	20465
891.857	20568
891.98	20412
892.103	20522
892.226	20419
892.349	20374
892.471	20286
892.594	20263
892.717	20465
892.839	20298
892.962	20298
893.085	20396
893.207	20434
893.33	20248
893.452	20366
893.575	20408
893.697	20469
893.819	20568
893.941	20438
894.064	20476
894.186	20218
894.308	20278
894.43	20434
894.552	20526
894.674	20457
894.796	20301
894.918	20332
895.04	20358
895.161	20366
895.283	20389
895.405	20332
895.526	20419
895.648	20282
895.769	20332
895.891	20404
896.012	20473
896.134	20408
896.255	20465
896.376	20385
896.498	20358
896.619	20465
896.74	20374
896.861	20522
896.982	20765
897.103	20746
897.224	20689
897.345	20636
897.466	20522
897.587	20655
897.708	20693
897.828	20602
897.949	20488
898.07	20484
898.19	20514
898.311	20640
898.431	20476
898.552	20522
898.672	20640
898.792	20571
898.913	20549
899.033	20549
899.153	20347
899.273	20404
899.393	20313
899.513	20442
899.633	20404
899.753	20431
899.873	20176
899.993	20267
900.113	20092
900.232	20309
900.352	20172
900.472	20172
900.591	20012
900.711	20130
900.83	20096
900.95	20244
901.069	20153
901.189	19963
901.308	19925
901.427	19769
901.546	19575
901.665	19731
901.784	19662
901.904	19559
902.023	19407
902.141	19263
902.26	19187
902.379	19232
902.498	19194
902.617	19160
902.735	19175
902.854	19240
902.973	19095
903.091	18825
903.21	18867
903.328	18821
903.446	18791
903.565	18654
903.683	18757
903.801	18627
903.919	18635
904.038	18532
904.156	18570
904.274	18452
904.392	18407
904.51	18384
904.627	18445
904.745	18494
904.863	18426
904.981	18285
905.098	18174
905.216	18136
905.334	18163
905.451	18133
905.569	18015
905.686	18110
905.803	18201
905.921	17847
906.038	18003
906.155	17863
906.272	17821
906.389	17821
906.506	17676
906.623	17699
906.74	17642
906.857	17615
906.974	17581
907.091	17672
907.208	17737
907.324	17577
907.441	17562
907.557	17387
907.674	17372
907.79	17349
907.907	17326
908.023	17315
908.139	17459
908.256	17296
908.372	17330
908.488	17269
908.604	17132
908.72	17128
908.836	17132
908.952	17094
909.068	17193
909.184	17189
909.3	17041
909.415	17140
909.531	17090
909.647	16900
909.762	16831
909.878	16767
909.993	16755
910.108	16793
910.224	16725
910.339	16725
910.454	16653
910.57	16698
910.685	16634
910.8	16755
910.915	16778
911.03	16508
911.145	16455
911.259	16352
911.374	16455
911.489	16318
911.604	16185
911.718	16116
911.833	16147
911.947	16029
912.062	15918
912.176	16010
912.291	16067
912.405	16128
912.519	16284
912.633	16360
912.748	16048
912.862	15994
912.976	16063
913.09	15804
913.204	15850
913.318	15960
913.431	16017
913.545	15991
913.659	15873
913.772	15869
913.886	15892
914	15804
914.113	15747
914.226	15797
914.34	15724
914.453	15633
914.566	15857
914.68	15644
914.793	15587
914.906	15496
915.019	15321
915.132	15367
915.245	15405
915.358	15393
915.47	15351
915.583	15317
915.696	15382
915.809	15431
915.921	15496
916.034	15199
916.146	15325
916.259	15233
916.371	15321
916.483	15382
916.595	15146
916.708	15173
916.82	15146
916.932	15097
917.044	15062
917.156	15077
917.268	15020
917.38	15024
917.491	14948
917.603	14960
917.715	15077
917.826	15047
917.938	14925
918.049	14811
918.161	14868
918.272	15154
918.384	14948
918.495	14834
918.606	14792
918.717	14712
918.828	14815
918.939	14857
919.05	14610
919.161	14708
919.272	14530
919.383	14663
919.494	14823
919.604	14937
919.715	14693
919.826	14648
919.936	14629
920.047	14724
920.157	14743
920.267	14937
920.378	14705
920.488	14594
920.598	14853
920.708	14986
920.818	14777
920.928	14826
921.038	14990
921.148	14960
921.258	14629
921.368	14518
921.477	14434
921.587	14377
921.697	14358
921.806	14419
921.916	14301
922.025	14058
922.134	14111
922.244	14016
922.353	14096
922.462	13879
922.571	13947
922.68	13780
922.789	13742
922.898	13666
923.007	13674
923.116	13734
923.224	13670
923.333	13670
923.442	13639
923.55	13575
923.659	13472
923.767	13601
923.876	13529
923.984	13510
924.092	13365
924.201	13518
924.309	13365
924.417	13384
924.525	13346
924.633	13373
924.741	14301
924.849	13164
924.956	13266
925.064	13171
925.172	13061
925.279	13110
925.387	13103
925.494	13019
925.602	13285
925.709	13190
925.816	13008
925.924	13057
926.031	13023
926.138	13065
926.245	13004
926.352	12871
926.459	13133
926.566	13175
926.673	12989
926.779	12844
926.886	12913
926.993	12768
927.099	12650
927.206	12620
927.312	12673
927.419	12688
927.525	12616
927.631	12722
927.737	12639
927.843	12509
927.95	12357
928.056	12437
928.162	12448
928.267	12475
928.373	13187
928.479	12608
928.585	12323
928.69	12365
928.796	12437
928.901	12380
929.007	12129
929.112	12353
929.218	12365
929.323	12220
929.428	12213
929.533	12338
929.638	12167
929.743	12213
929.848	12186
929.953	12064
930.058	12045
930.163	11783
930.267	11965
930.372	12068
930.477	11840
930.581	12053
930.685	11897
930.79	11714
930.894	11745
930.998	11733
931.103	11870
931.207	11532
931.311	11383
931.415	11341
931.519	11121
931.623	11113
