Data from test_V78500241_2460.txt Node
Date: Fri Mar 25 15:26:59 CST 2022
User: usil
Spectrometer: V785-0024
Trigger mode: 0
Integration Time (sec): 4.000000E-1
Scans to average: 1
Nonlinearity correction enabled: false
Boxcar width: 0
Storing dark spectrum: false
XAxis mode: Wavelengths
Number of Pixels in Spectrum: 1024
>>>>>Begin Spectral Data<<<<<
801.071	26998
801.214	26960
801.356	26667
801.499	26564
801.641	26465
801.783	26298
801.926	26552
802.068	26408
802.211	26465
802.353	26336
802.496	26088
802.638	26180
802.78	26062
802.923	26077
803.065	25947
803.208	26005
803.35	26100
803.492	26229
803.635	26225
803.777	26084
803.919	26191
804.061	26606
804.204	26362
804.346	26069
804.488	26206
804.63	26271
804.773	26168
804.915	26149
805.057	26328
805.199	26362
805.341	26336
805.483	26282
805.626	26396
805.768	26233
805.91	26210
806.052	26294
806.194	26275
806.336	26473
806.478	26317
806.62	26301
806.762	26564
806.904	26526
807.046	26902
807.188	26834
807.33	26667
807.472	26762
807.614	26724
807.756	26682
807.898	26552
808.04	26522
808.182	26492
808.324	26701
808.465	26667
808.607	26864
808.749	26971
808.891	26998
809.033	27058
809.174	26883
809.316	26933
809.458	26921
809.6	26864
809.741	27047
809.883	27009
810.025	27142
810.166	27218
810.308	27249
810.45	27066
810.591	27131
810.733	26853
810.875	26785
811.016	26880
811.158	26906
811.299	27180
811.441	27100
811.582	27131
811.724	27119
811.865	26830
812.007	26842
812.148	27096
812.29	26979
812.431	26948
812.573	27226
812.714	27192
812.855	27386
812.997	27663
813.138	27591
813.279	27549
813.421	27313
813.562	27176
813.703	27188
813.845	27055
813.986	26785
814.127	26674
814.268	26533
814.41	26499
814.551	26522
814.692	26575
814.833	26564
814.974	26473
815.115	26492
815.256	26301
815.397	26385
815.539	26240
815.68	26393
815.821	26286
815.962	26317
816.103	26256
816.244	26081
816.385	26088
816.526	26008
816.666	25750
816.807	25693
816.948	25909
817.089	25864
817.23	25818
817.371	25826
817.512	25685
817.653	25795
817.793	25571
817.934	25814
818.075	25734
818.216	25746
818.356	25712
818.497	25689
818.638	25632
818.778	25552
818.919	25499
819.06	25540
819.2	25742
819.341	25628
819.481	25597
819.622	25780
819.762	26134
819.903	26115
820.043	25951
820.184	25928
820.324	25940
820.465	25947
820.605	25868
820.746	25887
820.886	25693
821.026	25860
821.167	25830
821.307	25913
821.447	25719
821.588	25700
821.728	25666
821.868	25369
822.008	25297
822.149	25327
822.289	25263
822.429	24966
822.569	24992
822.709	24913
822.849	24779
822.99	24730
823.13	24768
823.27	24616
823.41	24582
823.55	24532
823.69	24620
823.83	24719
823.97	24585
824.11	24395
824.25	24350
824.389	24361
824.529	24346
824.669	24330
824.809	24505
824.949	24490
825.089	24536
825.228	24532
825.368	24273
825.508	24281
825.648	24327
825.787	24232
825.927	24315
826.067	24308
826.206	24361
826.346	24308
826.485	24289
826.625	24334
826.765	24311
826.904	24399
827.044	24049
827.183	24049
827.323	23923
827.462	24049
827.601	23992
827.741	23912
827.88	23961
828.02	23764
828.159	23836
828.298	23889
828.437	24072
828.577	23920
828.716	23958
828.855	23973
828.994	23649
829.134	23642
829.273	23649
829.412	23699
829.551	23634
829.69	23668
829.829	23733
829.968	23756
830.107	23714
830.246	23684
830.385	23547
830.524	23638
830.663	23436
830.802	23433
830.941	23353
831.08	23334
831.219	23368
831.357	23330
831.496	23512
831.635	23315
831.774	23250
831.913	23197
832.051	22984
832.19	23090
832.329	22980
832.467	23098
832.606	22866
832.744	22881
832.883	22953
833.022	22965
833.16	22961
833.299	23010
833.437	22866
833.576	23052
833.714	23086
833.852	23056
833.991	23071
834.129	23079
834.267	23223
834.406	23083
834.544	22949
834.682	23022
834.821	23052
834.959	23136
835.097	23083
835.235	23071
835.373	22972
835.511	23010
835.65	22915
835.788	22839
835.926	22809
836.064	22634
836.202	22816
836.34	22908
836.478	22949
836.615	22797
836.753	22824
836.891	22934
837.029	23037
837.167	22911
837.305	22755
837.443	22774
837.58	22729
837.718	22683
837.856	22698
837.993	22702
838.131	22809
838.269	22687
838.406	22531
838.544	22557
838.681	22565
838.819	22466
838.956	22257
839.094	22131
839.231	22280
839.369	22379
839.506	22573
839.643	22432
839.781	22272
839.918	22215
840.055	22219
840.193	22242
840.33	22169
840.467	22268
840.604	22295
840.742	22561
840.879	22162
841.016	22207
841.153	22143
841.29	22177
841.427	22086
841.564	22131
841.701	22181
841.838	22120
841.975	22040
842.112	22200
842.249	22120
842.385	22029
842.522	22306
842.659	22036
842.796	21968
842.933	21983
843.069	21895
843.206	21892
843.343	22029
843.479	21907
843.616	22070
843.752	21690
843.889	21755
844.025	21827
844.162	21884
844.298	21873
844.435	21671
844.571	21637
844.708	21747
844.844	21861
844.98	21899
845.117	21812
845.253	21663
845.389	21572
845.525	21644
845.661	21530
845.798	21389
845.934	21488
846.07	21378
846.206	21488
846.342	21526
846.478	21405
846.614	21294
846.75	21222
846.886	21268
847.022	21351
847.158	21325
847.294	21055
847.429	21233
847.565	21173
847.701	21363
847.837	20925
847.972	20906
848.108	20941
848.244	21043
848.379	20823
848.515	20670
848.65	20754
848.786	20800
848.921	20819
849.057	20731
849.192	20834
849.328	20804
849.463	20842
849.598	20754
849.734	20674
849.869	20720
850.004	20583
850.14	20552
850.275	20522
850.41	20431
850.545	20442
850.68	20454
850.815	20545
850.95	20613
851.085	20731
851.22	20678
851.355	20667
851.49	20442
851.625	20651
851.76	20457
851.895	20587
852.03	20450
852.165	20636
852.299	20545
852.434	20571
852.569	20511
852.703	20640
852.838	20571
852.973	20651
853.107	20720
853.242	20473
853.376	20400
853.511	20275
853.645	20423
853.78	20434
853.914	20438
854.048	20301
854.183	20309
854.317	20324
854.451	20526
854.585	20362
854.72	20454
854.854	20442
854.988	20400
855.122	20339
855.256	20240
855.39	20286
855.524	20431
855.658	20450
855.792	20343
855.926	20461
856.06	20396
856.194	20362
856.327	20358
856.461	20298
856.595	20259
856.729	20317
856.862	20473
856.996	20339
857.13	20446
857.263	20492
857.397	20332
857.53	20419
857.664	20347
857.797	20438
857.931	20480
858.064	20404
858.197	20522
858.331	20358
858.464	20389
858.597	20244
858.731	20495
858.864	20336
858.997	20305
859.13	20358
859.263	20431
859.396	20450
859.529	20419
859.662	20389
859.795	20229
859.928	20309
860.061	20480
860.194	20568
860.327	20290
860.46	20339
860.592	20560
860.725	20514
860.858	20454
860.99	20370
861.123	20332
861.256	20393
861.388	20271
861.521	20880
861.653	20214
861.786	20149
861.918	20176
862.05	20377
862.183	20377
862.315	20309
862.447	20278
862.58	20183
862.712	20138
862.844	20107
862.976	20252
863.108	20081
863.24	20579
863.372	20020
863.504	20001
863.636	20187
863.768	20157
863.9	20157
864.032	20149
864.164	19959
864.296	19982
864.428	20168
864.559	20218
864.691	20161
864.823	20111
864.954	20199
865.086	19936
865.217	19978
865.349	19906
865.48	20012
865.612	20031
865.743	20084
865.875	20088
866.006	20024
866.137	20069
866.269	19917
866.4	19887
866.531	19951
866.662	19925
866.793	19833
866.924	19913
867.055	19974
867.186	19936
867.317	20016
867.448	19864
867.579	19917
867.71	19833
867.841	19902
867.972	19898
868.103	19951
868.233	19921
868.364	19864
868.495	20096
868.625	20191
868.756	20320
868.886	20180
869.017	20103
869.147	20161
869.278	20248
869.408	20191
869.539	20256
869.669	20282
869.799	20195
869.929	20263
870.06	20221
870.19	20434
870.32	20473
870.45	20568
870.58	20530
870.71	20587
870.84	20583
870.97	20632
871.1	20492
871.23	20708
871.36	20823
871.489	20743
871.619	20708
871.749	20952
871.879	20800
872.008	20979
872.138	20895
872.267	20788
872.397	20697
872.526	20636
872.656	20750
872.785	20670
872.915	20769
873.044	20842
873.173	20781
873.303	20868
873.432	20796
873.561	20842
873.69	20819
873.819	20762
873.948	20887
874.077	20785
874.206	20815
874.335	20845
874.464	20849
874.593	20998
874.722	20960
874.851	21047
874.979	21028
875.108	21119
875.237	20941
875.365	20967
875.494	21013
875.623	21096
875.751	21001
875.88	21055
876.008	21233
876.136	21169
876.265	21428
876.393	21641
876.521	21511
876.65	21485
876.778	21397
876.906	21458
877.034	21447
877.162	21424
877.29	21428
877.418	21454
877.546	21317
877.674	21435
877.802	21412
877.93	21450
878.058	21245
878.185	21233
878.313	21435
878.441	21439
878.568	21173
878.696	21325
878.824	21397
878.951	21542
879.079	21618
879.206	21580
879.333	21485
879.461	21477
879.588	21485
879.715	21622
879.842	21637
879.97	21492
880.097	21199
880.224	21112
880.351	21207
880.478	21287
880.605	21211
880.732	21203
880.859	21530
880.986	21195
881.112	21245
881.239	21138
881.366	20990
881.493	20834
881.619	20857
881.746	20891
881.872	20758
881.999	20785
882.125	20705
882.252	20944
882.378	20758
882.505	20792
882.631	20579
882.757	20590
882.883	20632
883.01	20648
883.136	20503
883.262	20469
883.388	20434
883.514	20469
883.64	20659
883.766	20537
883.892	20278
884.018	20351
884.143	20457
884.269	20613
884.395	20206
884.52	20225
884.646	20214
884.772	20145
884.897	20035
885.023	20275
885.148	20294
885.274	20218
885.399	20339
885.524	20168
885.65	20206
885.775	20084
885.9	20142
886.025	20176
886.15	20180
886.275	20005
886.4	20024
886.525	20065
886.65	20084
886.775	20058
886.9	20202
887.025	20469
887.149	20168
887.274	20027
887.399	19963
887.523	19963
887.648	19753
887.773	19917
887.897	19913
888.021	19993
888.146	19887
888.27	20005
888.395	20027
888.519	19932
888.643	19989
888.767	19982
888.891	19818
889.015	19894
889.139	19757
889.263	19807
889.387	19997
889.511	19951
889.635	19913
889.759	19655
889.883	19795
890.006	19734
890.13	19788
890.254	19761
890.377	19685
890.501	19578
890.624	19384
890.748	19693
890.871	19335
890.995	19282
891.118	19270
891.241	19514
891.364	19388
891.488	19472
891.611	19392
891.734	19346
891.857	19274
891.98	19445
892.103	19400
892.226	19411
892.349	19289
892.471	19175
892.594	19232
892.717	19350
892.839	19251
892.962	19335
893.085	19312
893.207	19236
893.33	19114
893.452	19213
893.575	19331
893.697	19221
893.819	19453
893.941	19472
894.064	19346
894.186	19183
894.308	19080
894.43	19388
894.552	19396
894.674	19320
894.796	19255
894.918	19358
895.04	19217
895.161	19422
895.283	19263
895.405	19156
895.526	19270
895.648	19263
895.769	19293
895.891	19247
896.012	19453
896.134	19381
896.255	19426
896.376	19255
896.498	19297
896.619	19206
896.74	19190
896.861	19369
896.982	19548
897.103	19685
897.224	19571
897.345	19468
897.466	19502
897.587	19559
897.708	19662
897.828	19548
897.949	19373
898.07	19278
898.19	19480
898.311	19655
898.431	19411
898.552	19487
898.672	19590
898.792	19681
898.913	19525
899.033	19373
899.153	19217
899.273	19244
899.393	19312
899.513	19384
899.633	19255
899.753	19285
899.873	19278
899.993	19403
900.113	19171
900.232	19297
900.352	19343
900.472	19084
900.591	18951
900.711	19084
900.83	18939
900.95	19148
901.069	19099
901.189	18935
901.308	18772
901.427	18703
901.546	18722
901.665	18673
901.784	18646
901.904	18566
902.023	18460
902.141	18342
902.26	18361
902.379	18209
902.498	18270
902.617	18159
902.735	18235
902.854	18171
902.973	18091
903.091	17958
903.21	17904
903.328	17912
903.446	17832
903.565	17802
903.683	17615
903.801	17627
903.919	17642
904.038	17604
904.156	17505
904.274	17501
904.392	17528
904.51	17429
904.627	17471
904.745	17566
904.863	17623
904.981	17334
905.098	17189
905.216	17292
905.334	17227
905.451	17174
905.569	17159
905.686	17200
905.803	17235
905.921	16942
906.038	16984
906.155	17079
906.272	16885
906.389	16854
906.506	16744
906.623	16736
906.74	16645
906.857	16554
906.974	16611
907.091	16763
907.208	16862
907.324	16721
907.441	16599
907.557	16584
907.674	16550
907.79	16409
907.907	16394
908.023	16382
908.139	16481
908.256	16360
908.372	16295
908.488	16394
908.604	16268
908.72	16150
908.836	16166
908.952	16154
909.068	16173
909.184	16265
909.3	16067
909.415	16185
909.531	16188
909.647	16048
909.762	15937
909.878	15869
909.993	15930
910.108	15842
910.224	15785
910.339	15835
910.454	15694
910.57	15679
910.685	15618
910.8	15869
910.915	15736
911.03	15690
911.145	15507
911.259	15393
911.374	15450
911.489	15397
911.604	15344
911.718	15154
911.833	15188
911.947	15226
912.062	15268
912.176	15291
912.291	15389
912.405	15393
912.519	15530
912.633	15469
912.748	15386
912.862	15272
912.976	15116
913.09	14906
913.204	15131
913.318	15024
913.431	15203
913.545	15173
913.659	15184
913.772	14994
913.886	14853
914	14754
914.113	14986
914.226	14944
914.34	14941
914.453	14769
914.566	14819
914.68	14716
914.793	14731
914.906	14579
915.019	14511
915.132	14465
915.245	14480
915.358	14514
915.47	14495
915.583	14526
915.696	14473
915.809	14552
915.921	14678
916.034	14393
916.146	14381
916.259	14389
916.371	14423
916.483	14396
916.595	14313
916.708	14362
916.82	14233
916.932	14248
917.044	14324
917.156	14237
917.268	14088
917.38	14191
917.491	14111
917.603	14126
917.715	14202
917.826	14332
917.938	14126
918.049	14024
918.161	14073
918.272	14214
918.384	14290
918.495	14161
918.606	13963
918.717	13898
918.828	13997
918.939	14016
919.05	13788
919.161	13951
919.272	13753
919.383	13719
919.494	13951
919.604	14088
919.715	13963
919.826	13833
919.936	13799
920.047	13959
920.157	13852
920.267	14126
920.378	13807
920.488	13947
920.598	14130
920.708	14191
920.818	13978
920.928	14088
921.038	14176
921.148	14195
921.258	13940
921.368	13845
921.477	13753
921.587	13704
921.697	13525
921.806	13670
921.916	13537
922.025	13411
922.134	13339
922.244	13308
922.353	13384
922.462	13206
922.571	13221
922.68	13000
922.789	12951
922.898	12928
923.007	12897
923.116	12996
923.224	12935
923.333	13019
923.442	12810
923.55	12738
923.659	12935
923.767	12901
923.876	12684
923.984	12764
924.092	12711
924.201	12711
924.309	12715
924.417	12738
924.525	12616
924.633	12642
924.741	13601
924.849	12479
924.956	12593
925.064	12433
925.172	12338
925.279	12315
925.387	12544
925.494	12426
925.602	12517
925.709	12486
925.816	12357
925.924	12334
926.031	12418
926.138	12403
926.245	12437
926.352	12330
926.459	12319
926.566	12376
926.673	12285
926.779	12186
926.886	12178
926.993	11992
927.099	11999
927.206	12030
927.312	11935
927.419	11965
927.525	12041
927.631	12038
927.737	11874
927.843	11874
927.95	11764
928.056	11824
928.162	11931
928.267	11813
928.373	12536
928.479	11999
928.585	11638
928.69	11771
928.796	11885
928.901	11707
929.007	11570
929.112	11703
929.218	11668
929.323	11608
929.428	11562
929.533	11718
929.638	11478
929.743	11535
929.848	11566
929.953	11585
930.058	11452
930.163	11322
930.267	11254
930.372	11425
930.477	11261
930.581	11471
930.685	11391
930.79	11178
930.894	11174
930.998	11140
931.103	11258
931.207	10957
931.311	10877
931.415	10774
931.519	10561
931.623	10516
