Data from test_V78500241_3313.txt Node
Date: Fri Mar 25 15:32:55 CST 2022
User: usil
Spectrometer: V785-0024
Trigger mode: 0
Integration Time (sec): 4.000000E-1
Scans to average: 1
Nonlinearity correction enabled: false
Boxcar width: 0
Storing dark spectrum: false
XAxis mode: Wavelengths
Number of Pixels in Spectrum: 1024
>>>>>Begin Spectral Data<<<<<
801.071	27237
801.214	27272
801.356	26994
801.499	26823
801.641	26883
801.783	26807
801.926	26826
802.068	26689
802.211	26765
802.353	26667
802.496	26518
802.638	26503
802.78	26476
802.923	26347
803.065	26347
803.208	26408
803.35	26370
803.492	26590
803.635	26667
803.777	26457
803.919	26594
804.061	26952
804.204	26644
804.346	26545
804.488	26499
804.63	26621
804.773	26583
804.915	26629
805.057	26792
805.199	26457
805.341	26613
805.483	26769
805.626	26651
805.768	26579
805.91	26754
806.052	26701
806.194	26674
806.336	26834
806.478	26708
806.62	26762
806.762	26914
806.904	26956
807.046	27176
807.188	27077
807.33	27150
807.472	27264
807.614	26998
807.756	27108
807.898	26979
808.04	27017
808.182	26940
808.324	26914
808.465	26982
808.607	27058
808.749	27222
808.891	27359
809.033	27340
809.174	27447
809.316	27230
809.458	27302
809.6	27291
809.741	27397
809.883	27416
810.025	27549
810.166	27591
810.308	27637
810.45	27458
810.591	27504
810.733	27416
810.875	27275
811.016	27214
811.158	27176
811.299	27298
811.441	27401
811.582	27515
811.724	27336
811.865	27173
812.007	27207
812.148	27291
812.29	27291
812.431	27420
812.573	27637
812.714	27728
812.855	27728
812.997	27759
813.138	27945
813.279	27899
813.421	27819
813.562	27736
813.703	27557
813.845	27473
813.986	27252
814.127	27119
814.268	26940
814.41	26971
814.551	26918
814.692	27070
814.833	26743
814.974	26998
815.115	27051
815.256	26781
815.397	27017
815.539	26842
815.68	26830
815.821	26533
815.962	26769
816.103	26765
816.244	26598
816.385	26453
816.526	26434
816.666	26298
816.807	26214
816.948	26240
817.089	26305
817.23	26240
817.371	26214
817.512	26122
817.653	26149
817.793	26092
817.934	26077
818.075	26259
818.216	26275
818.356	26244
818.497	26149
818.638	25883
818.778	26069
818.919	25890
819.06	26016
819.2	26130
819.341	26278
819.481	26130
819.622	26503
819.762	26640
819.903	26423
820.043	26404
820.184	26263
820.324	26351
820.465	26389
820.605	26267
820.746	26237
820.886	26157
821.026	26324
821.167	26149
821.307	26263
821.447	26161
821.588	26077
821.728	26122
821.868	25761
822.008	25590
822.149	25658
822.289	25670
822.429	25426
822.569	25339
822.709	25476
822.849	25156
822.99	25171
823.13	25103
823.27	25236
823.41	24920
823.55	24916
823.69	24992
823.83	25000
823.97	25000
824.11	24654
824.25	24772
824.389	24741
824.529	24970
824.669	24753
824.809	24817
824.949	24825
825.089	25057
825.228	24844
825.368	24642
825.508	24688
825.648	24684
825.787	24692
825.927	24768
826.067	24684
826.206	24696
826.346	24741
826.485	24627
826.625	24711
826.765	24722
826.904	24703
827.044	24410
827.183	24540
827.323	24376
827.462	24456
827.601	24372
827.741	24395
827.88	24498
828.02	24289
828.159	24292
828.298	24460
828.437	24414
828.577	24365
828.716	24540
828.855	24194
828.994	24251
829.134	24110
829.273	24121
829.412	24087
829.551	24136
829.69	24034
829.829	24186
829.968	24064
830.107	24235
830.246	24114
830.385	24064
830.524	24072
830.663	23942
830.802	23870
830.941	23760
831.08	23684
831.219	23726
831.357	23813
831.496	24049
831.635	23646
831.774	23695
831.913	23604
832.051	23573
832.19	23398
832.329	23493
832.467	23402
832.606	23379
832.744	23391
832.883	23440
833.022	23421
833.16	23326
833.299	23307
833.437	23459
833.576	23471
833.714	23440
833.852	23630
833.991	23436
834.129	23585
834.267	23562
834.406	23581
834.544	23478
834.682	23501
834.821	23592
834.959	23672
835.097	23455
835.235	23577
835.373	23551
835.511	23524
835.65	23220
835.788	23303
835.926	23239
836.064	23185
836.202	23136
836.34	23246
836.478	23429
836.615	23258
836.753	23330
836.891	23345
837.029	23258
837.167	23265
837.305	23200
837.443	23307
837.58	23143
837.718	23261
837.856	23143
837.993	23071
838.131	23284
838.269	23136
838.406	23102
838.544	23124
838.681	22904
838.819	22831
838.956	22729
839.094	22683
839.231	22694
839.369	22877
839.506	23083
839.643	22854
839.781	22645
839.918	22634
840.055	22702
840.193	22668
840.33	22550
840.467	22691
840.604	22653
840.742	22908
840.879	22516
841.016	22637
841.153	22512
841.29	22599
841.427	22653
841.564	22622
841.701	22565
841.838	22512
841.975	22542
842.112	22584
842.249	22413
842.385	22398
842.522	22603
842.659	22386
842.796	22295
842.933	22402
843.069	22253
843.206	22371
843.343	22405
843.479	22424
843.616	22466
843.752	22097
843.889	22112
844.025	22287
844.162	22211
844.298	22280
844.435	21994
844.571	22169
844.708	22185
844.844	22276
844.98	22291
845.117	22200
845.253	22017
845.389	21998
845.525	22070
845.661	21903
845.798	21892
845.934	21941
846.07	21778
846.206	21922
846.342	21953
846.478	21907
846.614	21591
846.75	21507
846.886	21549
847.022	21720
847.158	21534
847.294	21511
847.429	21686
847.565	21591
847.701	21899
847.837	21382
847.972	21329
848.108	21462
848.244	21344
848.379	21252
848.515	21112
848.65	21173
848.786	21260
848.921	21226
849.057	21252
849.192	21203
849.328	21283
849.463	21142
849.598	21089
849.734	21085
849.869	21017
850.004	21028
850.14	20982
850.275	20994
850.41	20868
850.545	20944
850.68	20948
850.815	20998
850.95	20864
851.085	21233
851.22	21207
851.355	20986
851.49	21043
851.625	20986
851.76	20971
851.895	20956
852.03	20853
852.165	21013
852.299	20967
852.434	21100
852.569	20956
852.703	21055
852.838	21017
852.973	21055
853.107	21150
853.242	21013
853.376	20960
853.511	20697
853.645	20819
853.78	20853
853.914	20743
854.048	20731
854.183	20758
854.317	20804
854.451	21070
854.585	20781
854.72	20883
854.854	20887
854.988	20648
855.122	20800
855.256	20655
855.39	20899
855.524	20986
855.658	20937
855.792	20773
855.926	20811
856.06	20921
856.194	20849
856.327	20769
856.461	20735
856.595	20606
856.729	20731
856.862	20864
856.996	20830
857.13	20872
857.263	21005
857.397	20868
857.53	20758
857.664	20864
857.797	20845
857.931	20849
858.064	20834
858.197	20883
858.331	20800
858.464	20765
858.597	20686
858.731	20800
858.864	20686
858.997	20823
859.13	20735
859.263	20796
859.396	20986
859.529	20804
859.662	20785
859.795	20701
859.928	20788
860.061	20914
860.194	21066
860.327	20853
860.46	20826
860.592	20925
860.725	21070
860.858	20895
860.99	20743
861.123	20739
861.256	20769
861.388	20792
861.521	21408
861.653	20705
861.786	20655
861.918	20617
862.05	20678
862.183	20785
862.315	20762
862.447	20674
862.58	20693
862.712	20598
862.844	20511
862.976	20663
863.108	20598
863.24	20941
863.372	20594
863.504	20568
863.636	20511
863.768	20457
863.9	20590
864.032	20431
864.164	20492
864.296	20560
864.428	20598
864.559	20598
864.691	20655
864.823	20476
864.954	20533
865.086	20541
865.217	20571
865.349	20415
865.48	20564
865.612	20404
865.743	20632
865.875	20419
866.006	20434
866.137	20290
866.269	20469
866.4	20427
866.531	20492
866.662	20267
866.793	20408
866.924	20366
867.055	20560
867.186	20339
867.317	20119
867.448	20278
867.579	20351
867.71	20275
867.841	20298
867.972	20267
868.103	20408
868.233	20286
868.364	20412
868.495	20454
868.625	20404
868.756	20701
868.886	20396
869.017	20716
869.147	20720
869.278	20735
869.408	20552
869.539	20579
869.669	20629
869.799	20651
869.929	20849
870.06	20571
870.19	20929
870.32	20925
870.45	20876
870.58	20956
870.71	21112
870.84	21100
870.97	20998
871.1	20952
871.23	21112
871.36	21272
871.489	21176
871.619	21127
871.749	21256
871.879	21230
872.008	21287
872.138	21283
872.267	21264
872.397	21081
872.526	21104
872.656	21089
872.785	21066
872.915	21146
873.044	21249
873.173	21233
873.303	21260
873.432	21367
873.561	21256
873.69	21351
873.819	21245
873.948	21233
874.077	21256
874.206	21154
874.335	21283
874.464	21321
874.593	21424
874.722	21367
874.851	21504
874.979	21469
875.108	21447
875.237	21393
875.365	21389
875.494	21511
875.623	21644
875.751	21481
875.88	21583
876.008	21572
876.136	21618
876.265	21903
876.393	21960
876.521	21956
876.65	21930
876.778	21884
876.906	21751
877.034	21800
877.162	21732
877.29	21698
877.418	21846
877.546	21774
877.674	21903
877.802	21857
877.93	21804
878.058	21637
878.185	21690
878.313	21812
878.441	21793
878.568	21545
878.696	21842
878.824	21781
878.951	21911
879.079	22067
879.206	22093
879.333	22044
879.461	21865
879.588	21907
879.715	22105
879.842	22059
879.97	22025
880.097	21660
880.224	21701
880.351	21606
880.478	21717
880.605	21713
880.732	21622
880.859	21941
880.986	21526
881.112	21701
881.239	21428
881.366	21374
881.493	21344
881.619	21237
881.746	21348
881.872	21245
881.999	21146
882.125	21150
882.252	21313
882.378	21272
882.505	21230
882.631	20880
882.757	21058
882.883	21028
883.01	20910
883.136	20861
883.262	20849
883.388	20746
883.514	21024
883.64	20906
883.766	20921
883.892	20724
884.018	20708
884.143	20849
884.269	20994
884.395	20701
884.52	20644
884.646	20636
884.772	20583
884.897	20541
885.023	20617
885.148	20609
885.274	20720
885.399	20625
885.524	20518
885.65	20625
885.775	20587
885.9	20518
886.025	20777
886.15	20609
886.275	20568
886.4	20450
886.525	20651
886.65	20526
886.775	20549
886.9	20640
887.025	20716
887.149	20621
887.274	20355
887.399	20275
887.523	20343
887.648	20313
887.773	20259
887.897	20393
888.021	20415
888.146	20256
888.27	20404
888.395	20408
888.519	20366
888.643	20404
888.767	20385
888.891	20161
889.015	20153
889.139	20195
889.263	20259
889.387	20328
889.511	20347
889.635	20381
889.759	20180
889.883	20065
890.006	20267
890.13	20309
890.254	20168
890.377	20077
890.501	19936
890.624	19784
890.748	19970
890.871	19822
890.995	19666
891.118	19655
891.241	19776
891.364	19746
891.488	19769
891.611	19852
891.734	19727
891.857	19715
891.98	19719
892.103	19769
892.226	19628
892.349	19689
892.471	19616
892.594	19662
892.717	19708
892.839	19616
892.962	19635
893.085	19765
893.207	19590
893.33	19487
893.452	19582
893.575	19655
893.697	19685
893.819	19776
893.941	19670
894.064	19803
894.186	19575
894.308	19571
894.43	19845
894.552	19830
894.674	19620
894.796	19491
894.918	19533
895.04	19685
895.161	19811
895.283	19712
895.405	19582
895.526	19658
895.648	19731
895.769	19670
895.891	19700
896.012	19769
896.134	19689
896.255	19666
896.376	19544
896.498	19567
896.619	19681
896.74	19643
896.861	19856
896.982	19989
897.103	20134
897.224	20001
897.345	19982
897.466	19883
897.587	19818
897.708	19974
897.828	19906
897.949	19826
898.07	19734
898.19	19780
898.311	19925
898.431	19837
898.552	19833
898.672	19890
898.792	19841
898.913	19856
899.033	19742
899.153	19647
899.273	19635
899.393	19571
899.513	19594
899.633	19567
899.753	19689
899.873	19464
899.993	19685
900.113	19502
900.232	19594
900.352	19571
900.472	19438
900.591	19282
900.711	19445
900.83	19304
900.95	19502
901.069	19575
901.189	19384
901.308	19042
901.427	18993
901.546	18989
901.665	18973
901.784	19061
901.904	18913
902.023	18802
902.141	18639
902.26	18544
902.379	18464
902.498	18509
902.617	18395
902.735	18475
902.854	18399
902.973	18342
903.091	18213
903.21	18243
903.328	18117
903.446	18087
903.565	18091
903.683	17916
903.801	17855
903.919	17977
904.038	17950
904.156	17737
904.274	17828
904.392	17802
904.51	17752
904.627	17741
904.745	17821
904.863	17908
904.981	17532
905.098	17581
905.216	17406
905.334	17440
905.451	17524
905.569	17570
905.686	17505
905.803	17478
905.921	17322
906.038	17330
906.155	17299
906.272	17204
906.389	17098
906.506	16972
906.623	17083
906.74	17033
906.857	16752
906.974	16869
907.091	17010
907.208	17124
907.324	17010
907.441	16911
907.557	16767
907.674	16668
907.79	16736
907.907	16660
908.023	16805
908.139	16729
908.256	16672
908.372	16592
908.488	16584
908.604	16512
908.72	16344
908.836	16462
908.952	16443
909.068	16417
909.184	16569
909.3	16394
909.415	16424
909.531	16360
909.647	16196
909.762	16188
909.878	16147
909.993	16093
910.108	16173
910.224	16116
910.339	16082
910.454	16059
910.57	15918
910.685	15869
910.8	16188
910.915	16112
911.03	15960
911.145	15861
911.259	15720
911.374	15793
911.489	15770
911.604	15618
911.718	15523
911.833	15507
911.947	15443
912.062	15359
912.176	15424
912.291	15545
912.405	15542
912.519	15667
912.633	15671
912.748	15584
912.862	15526
912.976	15302
913.09	15218
913.204	15378
913.318	15279
913.431	15355
913.545	15313
913.659	15351
913.772	15302
913.886	15169
914	15131
914.113	15207
914.226	15211
914.34	15180
914.453	15047
914.566	15142
914.68	15036
914.793	14941
914.906	14777
915.019	14701
915.132	14678
915.245	14758
915.358	14804
915.47	14746
915.583	14678
915.696	14781
915.809	14868
915.921	14785
916.034	14598
916.146	14606
916.259	14594
916.371	14632
916.483	14678
916.595	14545
916.708	14522
916.82	14617
916.932	14625
917.044	14457
917.156	14381
917.268	14480
917.38	14480
917.491	14362
917.603	14389
917.715	14545
917.826	14438
917.938	14366
918.049	14301
918.161	14358
918.272	14514
918.384	14385
918.495	14351
918.606	14240
918.717	14088
918.828	14191
918.939	14202
919.05	14111
919.161	14149
919.272	14039
919.383	14012
919.494	14149
919.604	14317
919.715	14065
919.826	14039
919.936	14157
920.047	14298
920.157	14138
920.267	14259
920.378	14187
920.488	14069
920.598	14355
920.708	14457
920.818	14313
920.928	14294
921.038	14423
921.148	14271
921.258	14130
921.368	13909
921.477	13982
921.587	13894
921.697	13784
921.806	13875
921.916	13799
922.025	13632
922.134	13548
922.244	13514
922.353	13544
922.462	13365
922.571	13354
922.68	13202
922.789	13175
922.898	13274
923.007	13202
923.116	13236
923.224	13183
923.333	13171
923.442	12989
923.55	13008
923.659	13084
923.767	13118
923.876	13053
923.984	13053
924.092	12909
924.201	12932
924.309	12833
924.417	12913
924.525	12924
924.633	12897
924.741	13780
924.849	12669
924.956	12882
925.064	12730
925.172	12559
925.279	12521
925.387	12639
925.494	12711
925.602	12692
925.709	12631
925.816	12460
925.924	12673
926.031	12677
926.138	12658
926.245	12654
926.352	12563
926.459	12608
926.566	12684
926.673	12570
926.779	12429
926.886	12315
926.993	12292
927.099	12201
927.206	12262
927.312	12182
927.419	12342
927.525	12213
927.631	12319
927.737	12114
927.843	12106
927.95	11908
928.056	12095
928.162	12083
928.267	12038
928.373	12559
928.479	12106
928.585	11889
928.69	12026
928.796	12121
928.901	11878
929.007	11805
929.112	11969
929.218	11904
929.323	11775
929.428	11798
929.533	11863
929.638	11745
929.743	11771
929.848	11798
929.953	11779
930.058	11684
930.163	11440
930.267	11490
930.372	11710
930.477	11444
930.581	11676
930.685	11573
930.79	11368
930.894	11433
930.998	11372
931.103	11543
931.207	11193
931.311	11025
931.415	11060
931.519	10805
931.623	10839
