Data from test_V78500241_2874.txt Node
Date: Fri Mar 25 15:29:52 CST 2022
User: usil
Spectrometer: V785-0024
Trigger mode: 0
Integration Time (sec): 4.000000E-1
Scans to average: 1
Nonlinearity correction enabled: false
Boxcar width: 0
Storing dark spectrum: false
XAxis mode: Wavelengths
Number of Pixels in Spectrum: 1024
>>>>>Begin Spectral Data<<<<<
801.071	27214
801.214	27165
801.356	27001
801.499	26838
801.641	26971
801.783	26762
801.926	26838
802.068	26765
802.211	26708
802.353	26708
802.496	26461
802.638	26396
802.78	26446
802.923	26286
803.065	26320
803.208	26221
803.35	26385
803.492	26511
803.635	26644
803.777	26305
803.919	26644
804.061	26823
804.204	26769
804.346	26473
804.488	26408
804.63	26533
804.773	26461
804.915	26575
805.057	26644
805.199	26450
805.341	26530
805.483	26701
805.626	26632
805.768	26541
805.91	26834
806.052	26629
806.194	26450
806.336	26861
806.478	26678
806.62	26564
806.762	26682
806.904	26940
807.046	27100
807.188	27024
807.33	27081
807.472	27055
807.614	26944
807.756	27039
807.898	26914
808.04	26902
808.182	26788
808.324	26994
808.465	26921
808.607	27218
808.749	27199
808.891	27363
809.033	27363
809.174	27325
809.316	27165
809.458	27317
809.6	27264
809.741	27351
809.883	27310
810.025	27526
810.166	27427
810.308	27622
810.45	27492
810.591	27412
810.733	27294
810.875	27184
811.016	27070
811.158	27275
811.299	27374
811.441	27443
811.582	27466
811.724	27397
811.865	27085
812.007	27214
812.148	27249
812.29	27302
812.431	27420
812.573	27629
812.714	27530
812.855	27850
812.997	27850
813.138	27964
813.279	27812
813.421	27797
813.562	27724
813.703	27549
813.845	27534
813.986	27138
814.127	27161
814.268	26979
814.41	27096
814.551	26838
814.692	27009
814.833	26735
814.974	26891
815.115	26868
815.256	26807
815.397	26754
815.539	26750
815.68	26758
815.821	26678
815.962	26594
816.103	26830
816.244	26609
816.385	26503
816.526	26366
816.666	26389
816.807	26096
816.948	26309
817.089	26324
817.23	26282
817.371	26263
817.512	26240
817.653	26168
817.793	26176
817.934	26256
818.075	26084
818.216	26115
818.356	26180
818.497	25974
818.638	25978
818.778	25871
818.919	25849
819.06	26035
819.2	25955
819.341	26046
819.481	26054
819.622	26206
819.762	26457
819.903	26396
820.043	26248
820.184	26195
820.324	26240
820.465	26252
820.605	26290
820.746	26282
820.886	26115
821.026	26130
821.167	26271
821.307	26275
821.447	26145
821.588	25944
821.728	26050
821.868	25811
822.008	25571
822.149	25571
822.289	25655
822.429	25251
822.569	25350
822.709	25282
822.849	25095
822.99	25297
823.13	25110
823.27	25046
823.41	24981
823.55	24954
823.69	24962
823.83	24989
823.97	25012
824.11	24764
824.25	24677
824.389	24791
824.529	24856
824.669	24658
824.809	24802
824.949	24894
825.089	24757
825.228	24745
825.368	24749
825.508	24536
825.648	24578
825.787	24700
825.927	24768
826.067	24639
826.206	24654
826.346	24730
826.485	24700
826.625	24677
826.765	24658
826.904	24616
827.044	24441
827.183	24304
827.323	24327
827.462	24407
827.601	24399
827.741	24441
827.88	24410
828.02	24178
828.159	24224
828.298	24205
828.437	24517
828.577	24258
828.716	24361
828.855	24205
828.994	24026
829.134	24041
829.273	24159
829.412	23824
829.551	23904
829.69	23984
829.829	24064
829.968	24064
830.107	24076
830.246	23950
830.385	23828
830.524	23927
830.663	23790
830.802	23634
830.941	23634
831.08	23676
831.219	23764
831.357	23703
831.496	23824
831.635	23687
831.774	23627
831.913	23528
832.051	23429
832.19	23368
832.329	23410
832.467	23231
832.606	23204
832.744	23239
832.883	23284
833.022	23258
833.16	23410
833.299	23383
833.437	23265
833.576	23326
833.714	23334
833.852	23353
833.991	23509
834.129	23368
834.267	23512
834.406	23417
834.544	23345
834.682	23353
834.821	23318
834.959	23376
835.097	23250
835.235	23387
835.373	23383
835.511	23368
835.65	23193
835.788	23307
835.926	23048
836.064	23048
836.202	23155
836.34	23231
836.478	23189
836.615	23159
836.753	23216
836.891	23200
837.029	23231
837.167	23113
837.305	23048
837.443	23056
837.58	23079
837.718	23102
837.856	23044
837.993	23090
838.131	22942
838.269	22980
838.406	22919
838.544	22862
838.681	22668
838.819	22721
838.956	22459
839.094	22413
839.231	22569
839.369	22702
839.506	22919
839.643	22725
839.781	22447
839.918	22360
840.055	22451
840.193	22554
840.33	22344
840.467	22428
840.604	22379
840.742	22664
840.879	22352
841.016	22402
841.153	22314
841.29	22398
841.427	22386
841.564	22314
841.701	22508
841.838	22455
841.975	22417
842.112	22333
842.249	22314
842.385	22238
842.522	22485
842.659	22306
842.796	22276
842.933	22284
843.069	22147
843.206	22010
843.343	22188
843.479	22230
843.616	22093
843.752	22013
843.889	21972
844.025	22169
844.162	21922
844.298	21968
844.435	21888
844.571	21903
844.708	21972
844.844	22090
844.98	22032
845.117	22112
845.253	21846
845.389	21880
845.525	21778
845.661	21743
845.798	21812
845.934	21808
846.07	21709
846.206	21603
846.342	21835
846.478	21720
846.614	21477
846.75	21367
846.886	21370
847.022	21549
847.158	21473
847.294	21526
847.429	21519
847.565	21412
847.701	21713
847.837	21150
847.972	21268
848.108	21260
848.244	21237
848.379	21066
848.515	21062
848.65	20963
848.786	21108
848.921	21028
849.057	21199
849.192	20960
849.328	21036
849.463	20963
849.598	20994
849.734	20979
849.869	20876
850.004	20777
850.14	20701
850.275	20792
850.41	20758
850.545	20724
850.68	20830
850.815	20815
850.95	20796
851.085	20967
851.22	20807
851.355	20807
851.49	20762
851.625	20746
851.76	20731
851.895	20648
852.03	20674
852.165	20750
852.299	20807
852.434	20811
852.569	20804
852.703	20754
852.838	20743
852.973	20914
853.107	20982
853.242	20769
853.376	20617
853.511	20526
853.645	20579
853.78	20701
853.914	20590
854.048	20625
854.183	20545
854.317	20743
854.451	20807
854.585	20575
854.72	20545
854.854	20678
854.988	20503
855.122	20617
855.256	20518
855.39	20655
855.524	20541
855.658	20533
855.792	20667
855.926	20682
856.06	20667
856.194	20594
856.327	20636
856.461	20556
856.595	20533
856.729	20594
856.862	20705
856.996	20594
857.13	20686
857.263	20834
857.397	20724
857.53	20636
857.664	20526
857.797	20727
857.931	20727
858.064	20758
858.197	20762
858.331	20689
858.464	20590
858.597	20560
858.731	20659
858.864	20648
858.997	20526
859.13	20602
859.263	20629
859.396	20621
859.529	20629
859.662	20518
859.795	20549
859.928	20568
860.061	20746
860.194	20815
860.327	20716
860.46	20670
860.592	20750
860.725	20861
860.858	20739
860.99	20625
861.123	20583
861.256	20598
861.388	20636
861.521	21237
861.653	20488
861.786	20343
861.918	20457
862.05	20450
862.183	20480
862.315	20530
862.447	20598
862.58	20446
862.712	20336
862.844	20294
862.976	20317
863.108	20442
863.24	20834
863.372	20259
863.504	20221
863.636	20366
863.768	20336
863.9	20362
864.032	20195
864.164	20317
864.296	20298
864.428	20370
864.559	20358
864.691	20423
864.823	20415
864.954	20415
865.086	20286
865.217	20221
865.349	20142
865.48	20233
865.612	20328
865.743	20393
865.875	20358
866.006	20210
866.137	20214
866.269	20172
866.4	20263
866.531	20206
866.662	20218
866.793	20176
866.924	20206
867.055	20164
867.186	20187
867.317	20161
867.448	20062
867.579	20153
867.71	20153
867.841	20138
867.972	20294
868.103	20107
868.233	20142
868.364	20149
868.495	20332
868.625	20374
868.756	20499
868.886	20263
869.017	20385
869.147	20503
869.278	20594
869.408	20446
869.539	20461
869.669	20511
869.799	20461
869.929	20423
870.06	20571
870.19	20746
870.32	20762
870.45	20617
870.58	20720
870.71	20838
870.84	20895
870.97	20765
871.1	20883
871.23	21017
871.36	21017
871.489	20921
871.619	20941
871.749	20956
871.879	21142
872.008	21055
872.138	21089
872.267	21051
872.397	20887
872.526	20910
872.656	20777
872.785	20895
872.915	21112
873.044	21116
873.173	20994
873.303	21135
873.432	20952
873.561	21055
873.69	21100
873.819	21066
873.948	21176
874.077	20963
874.206	20982
874.335	21036
874.464	21077
874.593	21173
874.722	21192
874.851	21340
874.979	21336
875.108	21412
875.237	21211
875.365	21005
875.494	21298
875.623	21355
875.751	21313
875.88	21302
876.008	21397
876.136	21454
876.265	21709
876.393	21850
876.521	21732
876.65	21705
876.778	21625
876.906	21606
877.034	21610
877.162	21580
877.29	21561
877.418	21500
877.546	21660
877.674	21564
877.802	21728
877.93	21652
878.058	21507
878.185	21561
878.313	21698
878.441	21534
878.568	21378
878.696	21469
878.824	21770
878.951	21675
879.079	21926
879.206	21899
879.333	21720
879.461	21694
879.588	21747
879.715	21846
879.842	21759
879.97	21652
880.097	21405
880.224	21408
880.351	21485
880.478	21431
880.605	21519
880.732	21488
880.859	21603
880.986	21408
881.112	21504
881.239	21355
881.366	21157
881.493	21051
881.619	21062
881.746	21089
881.872	21161
881.999	21058
882.125	21055
882.252	21093
882.378	21039
882.505	21093
882.631	20918
882.757	20765
882.883	20830
883.01	20834
883.136	20663
883.262	20609
883.388	20674
883.514	20632
883.64	20758
883.766	20686
883.892	20537
884.018	20526
884.143	20800
884.269	20678
884.395	20492
884.52	20320
884.646	20415
884.772	20309
884.897	20305
885.023	20282
885.148	20480
885.274	20438
885.399	20469
885.524	20240
885.65	20457
885.775	20408
885.9	20351
886.025	20465
886.15	20358
886.275	20396
886.4	20423
886.525	20278
886.65	20199
886.775	20237
886.9	20484
887.025	20556
887.149	20305
887.274	20214
887.399	20168
887.523	20073
887.648	20103
887.773	20084
887.897	20267
888.021	20107
888.146	20088
888.27	20240
888.395	20248
888.519	20187
888.643	20240
888.767	20225
888.891	19989
889.015	19993
889.139	20081
889.263	19970
889.387	20149
889.511	20077
889.635	20252
889.759	19951
889.883	19963
890.006	19989
890.13	20145
890.254	19906
890.377	19868
890.501	19791
890.624	19666
890.748	19780
890.871	19655
890.995	19464
891.118	19495
891.241	19601
891.364	19525
891.488	19685
891.611	19582
891.734	19613
891.857	19559
891.98	19594
892.103	19616
892.226	19521
892.349	19525
892.471	19449
892.594	19365
892.717	19392
892.839	19506
892.962	19438
893.085	19552
893.207	19422
893.33	19354
893.452	19499
893.575	19548
893.697	19377
893.819	19575
893.941	19738
894.064	19601
894.186	19422
894.308	19453
894.43	19571
894.552	19700
894.674	19616
894.796	19327
894.918	19422
895.04	19434
895.161	19632
895.283	19525
895.405	19400
895.526	19415
895.648	19460
895.769	19457
895.891	19594
896.012	19670
896.134	19571
896.255	19635
896.376	19388
896.498	19586
896.619	19578
896.74	19441
896.861	19582
896.982	19795
897.103	19807
897.224	19761
897.345	19586
897.466	19639
897.587	19803
897.708	19902
897.828	19731
897.949	19651
898.07	19613
898.19	19693
898.311	19860
898.431	19731
898.552	19719
898.672	19833
898.792	19826
898.913	19791
899.033	19666
899.153	19552
899.273	19483
899.393	19476
899.513	19548
899.633	19510
899.753	19685
899.873	19518
899.993	19533
900.113	19441
900.232	19449
900.352	19426
900.472	19312
900.591	19244
900.711	19365
900.83	19251
900.95	19247
901.069	19343
901.189	19137
901.308	19103
901.427	18905
901.546	18897
901.665	18844
901.784	18894
901.904	18795
902.023	18555
902.141	18380
902.26	18486
902.379	18410
902.498	18384
902.617	18308
902.735	18407
902.854	18414
902.973	18262
903.091	18167
903.21	17996
903.328	18110
903.446	18057
903.565	17901
903.683	17965
903.801	17786
903.919	17885
904.038	17752
904.156	17592
904.274	17798
904.392	17573
904.51	17608
904.627	17558
904.745	17672
904.863	17577
904.981	17505
905.098	17326
905.216	17227
905.334	17364
905.451	17376
905.569	17280
905.686	17315
905.803	17258
905.921	17113
906.038	17220
906.155	17143
906.272	16999
906.389	16972
906.506	16900
906.623	16854
906.74	16831
906.857	16752
906.974	16850
907.091	16972
907.208	16968
907.324	16873
907.441	16717
907.557	16645
907.674	16546
907.79	16497
907.907	16432
908.023	16653
908.139	16519
908.256	16580
908.372	16500
908.488	16497
908.604	16337
908.72	16295
908.836	16421
908.952	16306
909.068	16432
909.184	16333
909.3	16207
909.415	16333
909.531	16276
909.647	16071
909.762	16109
909.878	15979
909.993	16029
910.108	15968
910.224	15937
910.339	15850
910.454	15911
910.57	15895
910.685	15789
910.8	15991
910.915	15998
911.03	15842
911.145	15686
911.259	15663
911.374	15580
911.489	15466
911.604	15603
911.718	15310
911.833	15401
911.947	15321
912.062	15203
912.176	15435
912.291	15454
912.405	15355
912.519	15572
912.633	15622
912.748	15321
912.862	15351
912.976	15233
913.09	15074
913.204	15150
913.318	15157
913.431	15256
913.545	15237
913.659	15306
913.772	15131
913.886	15100
914	14868
914.113	15074
914.226	15142
914.34	15100
914.453	14883
914.566	14994
914.68	14842
914.793	14853
914.906	14716
915.019	14670
915.132	14606
915.245	14488
915.358	14590
915.47	14640
915.583	14583
915.696	14606
915.809	14724
915.921	14682
916.034	14537
916.146	14495
916.259	14503
916.371	14564
916.483	14583
916.595	14431
916.708	14492
916.82	14362
916.932	14427
917.044	14351
917.156	14374
917.268	14290
917.38	14282
917.491	14317
917.603	14248
917.715	14377
917.826	14389
917.938	14290
918.049	14191
918.161	14210
918.272	14404
918.384	14248
918.495	14248
918.606	14077
918.717	13963
918.828	14077
918.939	14111
919.05	13932
919.161	14012
919.272	13795
919.383	13879
919.494	14164
919.604	14233
919.715	14005
919.826	14005
919.936	14008
920.047	14126
920.157	13978
920.267	14221
920.378	13947
920.488	13944
920.598	14138
920.708	14347
920.818	14172
920.928	14153
921.038	14305
921.148	14290
921.258	13936
921.368	13860
921.477	13715
921.587	13822
921.697	13757
921.806	13791
921.916	13575
922.025	13514
922.134	13430
922.244	13358
922.353	13533
922.462	13289
922.571	13244
922.68	13084
922.789	13133
922.898	13160
923.007	13042
923.116	13076
923.224	13065
923.333	13091
923.442	13000
923.55	12920
923.659	12935
923.767	13027
923.876	12798
923.984	12943
924.092	12837
924.201	12856
924.309	12863
924.417	12913
924.525	12814
924.633	12715
924.741	13674
924.849	12544
924.956	12627
925.064	12521
925.172	12445
925.279	12422
925.387	12566
925.494	12513
925.602	12639
925.709	12559
925.816	12506
925.924	12517
926.031	12593
926.138	12490
926.245	12544
926.352	12342
926.459	12551
926.566	12509
926.673	12353
926.779	12262
926.886	12258
926.993	12060
927.099	12015
927.206	12114
927.312	12102
927.419	12087
927.525	12079
927.631	12159
927.737	12011
927.843	11950
927.95	11923
928.056	11855
928.162	11950
928.267	12026
928.373	12555
928.479	12034
928.585	11855
928.69	11847
928.796	11847
928.901	11882
929.007	11611
929.112	11767
929.218	11783
929.323	11756
929.428	11646
929.533	11843
929.638	11684
929.743	11665
929.848	11680
929.953	11615
930.058	11471
930.163	11307
930.267	11299
930.372	11532
930.477	11284
930.581	11497
930.685	11455
930.79	11326
930.894	11239
930.998	11220
931.103	11436
931.207	11010
931.311	10915
931.415	10858
931.519	10649
931.623	10683
