Data from test_V78500241_566.txt Node
Date: Fri Mar 25 15:13:47 CST 2022
User: usil
Spectrometer: V785-0024
Trigger mode: 0
Integration Time (sec): 4.000000E-1
Scans to average: 1
Nonlinearity correction enabled: false
Boxcar width: 0
Storing dark spectrum: false
XAxis mode: Wavelengths
Number of Pixels in Spectrum: 1024
>>>>>Begin Spectral Data<<<<<
801.071	26682
801.214	26785
801.356	26541
801.499	26499
801.641	26263
801.783	26370
801.926	26202
802.068	26252
802.211	26100
802.353	26126
802.496	26001
802.638	25932
802.78	26024
802.923	25883
803.065	25803
803.208	25795
803.35	25845
803.492	25940
803.635	26020
803.777	26024
803.919	26020
804.061	26298
804.204	25982
804.346	25826
804.488	25966
804.63	26062
804.773	25963
804.915	26062
805.057	26058
805.199	26069
805.341	26081
805.483	26149
805.626	26134
805.768	26115
805.91	26122
806.052	26187
806.194	26103
806.336	26301
806.478	26210
806.62	26202
806.762	26218
806.904	26423
807.046	26644
807.188	26590
807.33	26541
807.472	26545
807.614	26393
807.756	26560
807.898	26412
808.04	26507
808.182	26461
808.324	26282
808.465	26419
808.607	26476
808.749	26602
808.891	26727
809.033	26781
809.174	26773
809.316	26731
809.458	26693
809.6	26697
809.741	26967
809.883	26796
810.025	27017
810.166	26986
810.308	26944
810.45	26979
810.591	26940
810.733	26731
810.875	26667
811.016	26636
811.158	26625
811.299	26754
811.441	26864
811.582	26826
811.724	26629
811.865	26602
812.007	26648
812.148	26724
812.29	26743
812.431	26674
812.573	27074
812.714	27047
812.855	27348
812.997	27256
813.138	27332
813.279	27454
813.421	27378
813.562	27116
813.703	27032
813.845	26990
813.986	26735
814.127	26362
814.268	26362
814.41	26412
814.551	26355
814.692	26476
814.833	26339
814.974	26347
815.115	26221
815.256	26229
815.397	26126
815.539	26290
815.68	26157
815.821	26035
815.962	26259
816.103	26084
816.244	26058
816.385	25921
816.526	25963
816.666	25704
816.807	25624
816.948	25613
817.089	25772
817.23	25765
817.371	25548
817.512	25605
817.653	25677
817.793	25662
817.934	25460
818.075	25750
818.216	25635
818.356	25537
818.497	25578
818.638	25396
818.778	25301
818.919	25297
819.06	25419
819.2	25479
819.341	25514
819.481	25616
819.622	25704
819.762	25913
819.903	25963
820.043	25826
820.184	25776
820.324	25677
820.465	25677
820.605	25719
820.746	25689
820.886	25666
821.026	25791
821.167	25643
821.307	25761
821.447	25624
821.588	25365
821.728	25476
821.868	25198
822.008	25110
822.149	25019
822.289	25103
822.429	24776
822.569	24817
822.709	24757
822.849	24650
822.99	24585
823.13	24502
823.27	24456
823.41	24445
823.55	24357
823.69	24437
823.83	24467
823.97	24311
824.11	24243
824.25	24057
824.389	24228
824.529	24178
824.669	24174
824.809	24460
824.949	24201
825.089	24304
825.228	24251
825.368	24064
825.508	24041
825.648	24045
825.787	24167
825.927	24045
826.067	24015
826.206	23961
826.346	24049
826.485	24087
826.625	24098
826.765	24235
826.904	24106
827.044	23882
827.183	23726
827.323	23737
827.462	23874
827.601	23893
827.741	23710
827.88	23813
828.02	23703
828.159	23847
828.298	23798
828.437	23832
828.577	23589
828.716	23863
828.855	23649
828.994	23493
829.134	23463
829.273	23429
829.412	23414
829.551	23406
829.69	23417
829.829	23455
829.968	23520
830.107	23547
830.246	23478
830.385	23497
830.524	23402
830.663	23303
830.802	23227
830.941	23064
831.08	23102
831.219	23220
831.357	23155
831.496	23185
831.635	23140
831.774	23128
831.913	22991
832.051	22927
832.19	22869
832.329	22911
832.467	22904
832.606	22721
832.744	22729
832.883	22877
833.022	22675
833.16	22771
833.299	22858
833.437	22748
833.576	22961
833.714	22820
833.852	22923
833.991	22961
834.129	22953
834.267	22976
834.406	22881
834.544	22824
834.682	22831
834.821	22847
834.959	23071
835.097	22812
835.235	22965
835.373	22790
835.511	22828
835.65	22801
835.788	22710
835.926	22580
836.064	22474
836.202	22577
836.34	22679
836.478	22611
836.615	22622
836.753	22675
836.891	22763
837.029	22774
837.167	22679
837.305	22653
837.443	22596
837.58	22656
837.718	22797
837.856	22535
837.993	22462
838.131	22512
838.269	22341
838.406	22398
838.544	22451
838.681	22166
838.819	22215
838.956	22063
839.094	22048
839.231	22120
839.369	22207
839.506	22360
839.643	22246
839.781	21960
839.918	21945
840.055	22036
840.193	22109
840.33	21922
840.467	21960
840.604	22013
840.742	22238
840.879	21865
841.016	21930
841.153	21869
841.29	22120
841.427	21953
841.564	21983
841.701	21880
841.838	21930
841.975	22063
842.112	21888
842.249	21778
842.385	21800
842.522	21991
842.659	21888
842.796	21709
842.933	21785
843.069	21679
843.206	21671
843.343	21789
843.479	21755
843.616	21690
843.752	21458
843.889	21553
844.025	21633
844.162	21530
844.298	21610
844.435	21477
844.571	21466
844.708	21523
844.844	21660
844.98	21682
845.117	21523
845.253	21447
845.389	21405
845.525	21431
845.661	21351
845.798	21321
845.934	21382
846.07	21211
846.206	21310
846.342	21260
846.478	21150
846.614	21058
846.75	20887
846.886	20861
847.022	21085
847.158	21085
847.294	20982
847.429	21058
847.565	20994
847.701	21184
847.837	20746
847.972	20689
848.108	20830
848.244	20857
848.379	20701
848.515	20583
848.65	20617
848.786	20545
848.921	20575
849.057	20689
849.192	20609
849.328	20663
849.463	20514
849.598	20530
849.734	20514
849.869	20518
850.004	20275
850.14	20305
850.275	20389
850.41	20252
850.545	20404
850.68	20259
850.815	20415
850.95	20351
851.085	20511
851.22	20313
851.355	20427
851.49	20290
851.625	20377
851.76	20290
851.895	20138
852.03	20343
852.165	20176
852.299	20271
852.434	20374
852.569	20404
852.703	20332
852.838	20457
852.973	20507
853.107	20358
853.242	20339
853.376	20214
853.511	20119
853.645	20161
853.78	20294
853.914	20142
854.048	20237
854.183	20126
854.317	20282
854.451	20385
854.585	20149
854.72	20111
854.854	20278
854.988	19970
855.122	20122
855.256	20062
855.39	20206
855.524	20142
855.658	20172
855.792	20244
855.926	20202
856.06	20176
856.194	20286
856.327	20187
856.461	20016
856.595	20031
856.729	20153
856.862	20271
856.996	20126
857.13	20157
857.263	20229
857.397	20301
857.53	20172
857.664	20149
857.797	20142
857.931	20423
858.064	20252
858.197	20347
858.331	20225
858.464	20119
858.597	20107
858.731	20233
858.864	20191
858.997	20111
859.13	20161
859.263	20206
859.396	20214
859.529	20176
859.662	20062
859.795	20062
859.928	20176
860.061	20336
860.194	20275
860.327	20111
860.46	20092
860.592	20282
860.725	20305
860.858	20298
860.99	20176
861.123	20050
861.256	20180
861.388	20195
861.521	20967
861.653	20122
861.786	19936
861.918	20039
862.05	19989
862.183	20035
862.315	20168
862.447	20214
862.58	20062
862.712	19883
862.844	19852
862.976	20088
863.108	19921
863.24	20298
863.372	19932
863.504	19894
863.636	19742
863.768	19852
863.9	19841
864.032	19936
864.164	19803
864.296	19830
864.428	20016
864.559	20035
864.691	19967
864.823	19951
864.954	19860
865.086	19845
865.217	19738
865.349	19677
865.48	19696
865.612	19814
865.743	19879
865.875	19864
866.006	19750
866.137	19830
866.269	19833
866.4	19715
866.531	19719
866.662	19693
866.793	19719
866.924	19674
867.055	19734
867.186	19693
867.317	19811
867.448	19670
867.579	19719
867.71	19715
867.841	19670
867.972	19841
868.103	19632
868.233	19765
868.364	19898
868.495	19780
868.625	19868
868.756	19993
868.886	19970
869.017	19955
869.147	20107
869.278	20142
869.408	19955
869.539	19944
869.669	20107
869.799	20020
869.929	20077
870.06	20145
870.19	20240
870.32	20286
870.45	20328
870.58	20400
870.71	20377
870.84	20469
870.97	20381
871.1	20389
871.23	20583
871.36	20621
871.489	20552
871.619	20552
871.749	20469
871.879	20727
872.008	20617
872.138	20594
872.267	20526
872.397	20461
872.526	20377
872.656	20370
872.785	20415
872.915	20518
873.044	20701
873.173	20602
873.303	20701
873.432	20663
873.561	20659
873.69	20663
873.819	20446
873.948	20754
874.077	20670
874.206	20613
874.335	20590
874.464	20762
874.593	20933
874.722	20800
874.851	20842
874.979	20872
875.108	20887
875.237	20769
875.365	20842
875.494	20868
875.623	20861
875.751	20883
875.88	20906
876.008	20944
876.136	21074
876.265	21237
876.393	21363
876.521	21363
876.65	21351
876.778	21214
876.906	21157
877.034	21230
877.162	21291
877.29	21100
877.418	21317
877.546	21214
877.674	21207
877.802	21188
877.93	21268
878.058	21093
878.185	21005
878.313	21135
878.441	21138
878.568	21009
878.696	21131
878.824	21226
878.951	21321
879.079	21367
879.206	21485
879.333	21359
879.461	21306
879.588	21287
879.715	21374
879.842	21481
879.97	21260
880.097	21047
880.224	21089
880.351	21077
880.478	21123
880.605	20910
880.732	21150
880.859	21370
880.986	21024
881.112	21142
881.239	20937
881.366	20750
881.493	20590
881.619	20651
881.746	20667
881.872	20712
881.999	20613
882.125	20621
882.252	20667
882.378	20682
882.505	20716
882.631	20438
882.757	20328
882.883	20495
883.01	20461
883.136	20355
883.262	20180
883.388	20259
883.514	20431
883.64	20328
883.766	20343
883.892	20206
884.018	20164
884.143	20275
884.269	20396
884.395	20103
884.52	19917
884.646	19989
884.772	19959
884.897	19932
885.023	19921
885.148	20024
885.274	20183
885.399	20088
885.524	20054
885.65	20069
885.775	19967
885.9	19963
886.025	20111
886.15	20062
886.275	19989
886.4	19814
886.525	19928
886.65	19909
886.775	19947
886.9	20107
887.025	20210
887.149	19951
887.274	19845
887.399	19906
887.523	19757
887.648	19666
887.773	19689
887.897	19750
888.021	19906
888.146	19753
888.27	19833
888.395	19894
888.519	19788
888.643	19925
888.767	19879
888.891	19772
889.015	19556
889.139	19639
889.263	19616
889.387	19666
889.511	19708
889.635	19776
889.759	19441
889.883	19594
890.006	19597
890.13	19742
890.254	19563
890.377	19502
890.501	19278
890.624	19168
890.748	19362
890.871	19278
890.995	19194
891.118	19156
891.241	19190
891.364	19190
891.488	19228
891.611	19221
891.734	19209
891.857	19175
891.98	19110
892.103	19171
892.226	19198
892.349	19122
892.471	18973
892.594	19053
892.717	19114
892.839	19091
892.962	19114
893.085	19247
893.207	19103
893.33	19046
893.452	18993
893.575	19091
893.697	19137
893.819	19228
893.941	19297
894.064	19175
894.186	18928
894.308	19122
894.43	19225
894.552	19168
894.674	19126
894.796	18985
894.918	19099
895.04	19091
895.161	19129
895.283	19084
895.405	19069
895.526	19107
895.648	19168
895.769	19050
895.891	19126
896.012	19247
896.134	19247
896.255	19107
896.376	19031
896.498	19122
896.619	19164
896.74	19129
896.861	19168
896.982	19521
897.103	19502
897.224	19384
897.345	19388
897.466	19308
897.587	19411
897.708	19480
897.828	19468
897.949	19232
898.07	19168
898.19	19240
898.311	19445
898.431	19324
898.552	19362
898.672	19426
898.792	19362
898.913	19415
899.033	19126
899.153	19160
899.273	19091
899.393	19179
899.513	19080
899.633	19137
899.753	19103
899.873	19046
899.993	19061
900.113	19145
900.232	19099
900.352	18981
900.472	19053
900.591	18951
900.711	18973
900.83	18878
900.95	19023
901.069	19019
901.189	18833
901.308	18582
901.427	18608
901.546	18494
901.665	18585
901.784	18528
901.904	18350
902.023	18327
902.141	18072
902.26	18110
902.379	18140
902.498	18003
902.617	18049
902.735	17977
902.854	17977
902.973	17973
903.091	17775
903.21	17748
903.328	17722
903.446	17596
903.565	17455
903.683	17539
903.801	17364
903.919	17372
904.038	17524
904.156	17326
904.274	17410
904.392	17345
904.51	17189
904.627	17353
904.745	17391
904.863	17353
904.981	17010
905.098	16965
905.216	17018
905.334	16995
905.451	17018
905.569	16923
905.686	17086
905.803	16995
905.921	16744
906.038	16850
906.155	16790
906.272	16668
906.389	16721
906.506	16485
906.623	16550
906.74	16565
906.857	16447
906.974	16478
907.091	16554
907.208	16645
907.324	16569
907.441	16337
907.557	16329
907.674	16341
907.79	16295
907.907	16192
908.023	16192
908.139	16246
908.256	16291
908.372	16105
908.488	16006
908.604	16059
908.72	16013
908.836	16002
908.952	15926
909.068	15991
909.184	16124
909.3	15972
909.415	16040
909.531	15934
909.647	15835
909.762	15709
909.878	15709
909.993	15918
910.108	15717
910.224	15591
910.339	15755
910.454	15580
910.57	15629
910.685	15500
910.8	15819
910.915	15675
911.03	15511
911.145	15420
911.259	15386
911.374	15275
911.489	15249
911.604	15165
911.718	15119
911.833	15123
911.947	14998
912.062	14834
912.176	15112
912.291	15039
912.405	15028
912.519	15275
912.633	15173
912.748	15135
912.862	15131
912.976	14967
913.09	14811
913.204	14838
913.318	14941
913.431	14982
913.545	14994
913.659	14990
913.772	14743
913.886	14819
914	14705
914.113	14815
914.226	14872
914.34	14712
914.453	14590
914.566	14735
914.68	14594
914.793	14594
914.906	14492
915.019	14355
915.132	14408
915.245	14339
915.358	14320
915.47	14343
915.583	14370
915.696	14415
915.809	14431
915.921	14434
916.034	14320
916.146	14244
916.259	14305
916.371	14320
916.483	14195
916.595	14210
916.708	14084
916.82	14229
916.932	14103
917.044	14187
917.156	14088
917.268	14043
917.38	14008
917.491	14001
917.603	14115
917.715	14100
917.826	14103
917.938	14073
918.049	13883
918.161	14008
918.272	14149
918.384	14119
918.495	13921
918.606	13860
918.717	13788
918.828	13849
918.939	13837
919.05	13715
919.161	13772
919.272	13563
919.383	13677
919.494	13818
919.604	14077
919.715	13826
919.826	13712
919.936	13841
920.047	13780
920.157	13799
920.267	13963
920.378	13753
920.488	13765
920.598	13925
920.708	14134
920.818	13982
920.928	13959
921.038	14126
921.148	13940
921.258	13757
921.368	13677
921.477	13575
921.587	13502
921.697	13430
921.806	13540
921.916	13377
922.025	13240
922.134	13137
922.244	13091
922.353	13190
922.462	13065
922.571	13019
922.68	12844
922.789	12867
922.898	12795
923.007	12745
923.116	12859
923.224	12852
923.333	12825
923.442	12700
923.55	12703
923.659	12722
923.767	12783
923.876	12585
923.984	12715
924.092	12521
924.201	12623
924.309	12669
924.417	12612
924.525	12426
924.633	12566
924.741	13324
924.849	12342
924.956	12429
925.064	12334
925.172	12209
925.279	12365
925.387	12372
925.494	12304
925.602	12464
925.709	12414
925.816	12232
925.924	12262
926.031	12266
926.138	12243
926.245	12258
926.352	12110
926.459	12266
926.566	12384
926.673	12205
926.779	12091
926.886	12015
926.993	11916
927.099	11973
927.206	11866
927.312	11939
927.419	11954
927.525	11798
927.631	11961
927.737	11878
927.843	11752
927.95	11672
928.056	11672
928.162	11737
928.267	11821
928.373	12460
928.479	11828
928.585	11566
928.69	11729
928.796	11726
928.901	11600
929.007	11482
929.112	11604
929.218	11558
929.323	11509
929.428	11471
929.533	11608
929.638	11406
929.743	11387
929.848	11528
929.953	11368
930.058	11315
930.163	11170
930.267	11174
930.372	11269
930.477	11178
930.581	11414
930.685	11269
930.79	11041
930.894	11178
930.998	11025
931.103	11181
931.207	10866
931.311	10702
931.415	10694
931.519	10538
931.623	10474
