Data from test_V78500241_3574.txt Node
Date: Fri Mar 25 15:34:44 CST 2022
User: usil
Spectrometer: V785-0024
Trigger mode: 0
Integration Time (sec): 4.000000E-1
Scans to average: 1
Nonlinearity correction enabled: false
Boxcar width: 0
Storing dark spectrum: false
XAxis mode: Wavelengths
Number of Pixels in Spectrum: 1024
>>>>>Begin Spectral Data<<<<<
801.071	27211
801.214	27405
801.356	27100
801.499	27024
801.641	26838
801.783	26838
801.926	26902
802.068	26937
802.211	26838
802.353	26811
802.496	26667
802.638	26499
802.78	26568
802.923	26404
803.065	26461
803.208	26560
803.35	26503
803.492	26670
803.635	26716
803.777	26545
803.919	26743
804.061	27024
804.204	26876
804.346	26484
804.488	26568
804.63	26659
804.773	26659
804.915	26777
805.057	26697
805.199	26674
805.341	26781
805.483	26663
805.626	26857
805.768	26777
805.91	26933
806.052	26853
806.194	26655
806.336	26956
806.478	26648
806.62	26746
806.762	27093
806.904	26975
807.046	27264
807.188	27336
807.33	27165
807.472	27245
807.614	27020
807.756	27199
807.898	27017
808.04	26811
808.182	26952
808.324	27001
808.465	27062
808.607	27199
808.749	27420
808.891	27496
809.033	27488
809.174	27431
809.316	27351
809.458	27408
809.6	27287
809.741	27568
809.883	27519
810.025	27667
810.166	27762
810.308	27538
810.45	27614
810.591	27641
810.733	27363
810.875	27321
811.016	27298
811.158	27245
811.299	27488
811.441	27614
811.582	27526
811.724	27355
811.865	27344
812.007	27412
812.148	27439
812.29	27408
812.431	27599
812.573	27637
812.714	27770
812.855	27816
812.997	27892
813.138	28059
813.279	28078
813.421	27861
813.562	27945
813.703	27698
813.845	27545
813.986	27268
814.127	27161
814.268	27096
814.41	27051
814.551	27085
814.692	27116
814.833	26979
814.974	26975
815.115	27013
815.256	26838
815.397	27077
815.539	26872
815.68	26693
815.821	26758
815.962	26956
816.103	26735
816.244	26743
816.385	26617
816.526	26476
816.666	26431
816.807	26259
816.948	26313
817.089	26434
817.23	26339
817.371	26336
817.512	26317
817.653	26400
817.793	26237
817.934	26358
818.075	26309
818.216	26355
818.356	26248
818.497	26309
818.638	26039
818.778	26054
818.919	26077
819.06	26100
819.2	26256
819.341	26324
819.481	26202
819.622	26488
819.762	26587
819.903	26636
820.043	26457
820.184	26431
820.324	26374
820.465	26404
820.605	26480
820.746	26446
820.886	26138
821.026	26434
821.167	26370
821.307	26370
821.447	26339
821.588	26081
821.728	26259
821.868	25925
822.008	25693
822.149	25849
822.289	25776
822.429	25662
822.569	25476
822.709	25438
822.849	25434
822.99	25388
823.13	25171
823.27	25285
823.41	25141
823.55	24996
823.69	24985
823.83	25042
823.97	24943
824.11	24954
824.25	25034
824.389	24878
824.529	25084
824.669	24989
824.809	25038
824.949	24943
825.089	25148
825.228	24890
825.368	24673
825.508	24738
825.648	24776
825.787	24932
825.927	24882
826.067	24669
826.206	24867
826.346	24878
826.485	24776
826.625	24696
826.765	24890
826.904	24909
827.044	24692
827.183	24517
827.323	24479
827.462	24540
827.601	24623
827.741	24467
827.88	24471
828.02	24376
828.159	24574
828.298	24540
828.437	24502
828.577	24357
828.716	24582
828.855	24410
828.994	24285
829.134	24190
829.273	24319
829.412	24117
829.551	24243
829.69	24232
829.829	24106
829.968	24273
830.107	24319
830.246	24178
830.385	24136
830.524	24178
830.663	23939
830.802	24022
830.941	23813
831.08	23714
831.219	23908
831.357	23927
831.496	24068
831.635	23802
831.774	23828
831.913	23680
832.051	23668
832.19	23668
832.329	23733
832.467	23600
832.606	23467
832.744	23627
832.883	23421
833.022	23551
833.16	23524
833.299	23589
833.437	23486
833.576	23695
833.714	23722
833.852	23627
833.991	23623
834.129	23630
834.267	23695
834.406	23592
834.544	23657
834.682	23600
834.821	23493
834.959	23813
835.097	23562
835.235	23687
835.373	23703
835.511	23596
835.65	23455
835.788	23455
835.926	23326
836.064	23296
836.202	23193
836.34	23448
836.478	23596
836.615	23376
836.753	23398
836.891	23627
837.029	23638
837.167	23334
837.305	23337
837.443	23349
837.58	23181
837.718	23414
837.856	23360
837.993	23197
838.131	23379
838.269	23200
838.406	23204
838.544	23105
838.681	22953
838.819	22995
838.956	22828
839.094	22664
839.231	22919
839.369	22976
839.506	23235
839.643	22995
839.781	22854
839.918	22752
840.055	22759
840.193	22721
840.33	22596
840.467	22729
840.604	22702
840.742	22915
840.879	22470
841.016	22649
841.153	22656
841.29	22767
841.427	22713
841.564	22736
841.701	22755
841.838	22782
841.975	22599
842.112	22694
842.249	22550
842.385	22485
842.522	22725
842.659	22497
842.796	22451
842.933	22436
843.069	22447
843.206	22470
843.343	22557
843.479	22462
843.616	22428
843.752	22333
843.889	22268
844.025	22268
844.162	22413
844.298	22322
844.435	22188
844.571	22291
844.708	22242
844.844	22394
844.98	22348
845.117	22443
845.253	22150
845.389	22143
845.525	22196
845.661	22021
845.798	21907
845.934	22067
846.07	21926
846.206	22013
846.342	22002
846.478	21987
846.614	21873
846.75	21720
846.886	21816
847.022	21816
847.158	21842
847.294	21728
847.429	21739
847.565	21660
847.701	22010
847.837	21450
847.972	21370
848.108	21564
848.244	21466
848.379	21382
848.515	21405
848.65	21218
848.786	21329
848.921	21344
849.057	21416
849.192	21469
849.328	21416
849.463	21310
849.598	21211
849.734	21218
849.869	21192
850.004	21100
850.14	21123
850.275	21142
850.41	21020
850.545	21131
850.68	20960
850.815	21116
850.95	21028
851.085	21340
851.22	21089
851.355	21096
851.49	21051
851.625	21093
851.76	21093
851.895	20963
852.03	20982
852.165	21119
852.299	21100
852.434	21218
852.569	21112
852.703	21104
852.838	21230
852.973	21260
853.107	21161
853.242	21070
853.376	20929
853.511	20792
853.645	20891
853.78	20929
853.914	20857
854.048	20845
854.183	20899
854.317	20982
854.451	21070
854.585	20910
854.72	20952
854.854	21032
854.988	20910
855.122	20880
855.256	20823
855.39	20868
855.524	21009
855.658	20948
855.792	20921
855.926	20857
856.06	20998
856.194	21005
856.327	20792
856.461	20880
856.595	20872
856.729	20758
856.862	21009
856.996	21036
857.13	20857
857.263	21039
857.397	20944
857.53	20944
857.664	20921
857.797	20899
857.931	21074
858.064	20979
858.197	21116
858.331	20933
858.464	20910
858.597	20758
858.731	20944
858.864	20864
858.997	20800
859.13	20975
859.263	20952
859.396	21005
859.529	20868
859.662	20826
859.795	20986
859.928	20899
860.061	21131
860.194	21085
860.327	20826
860.46	20796
860.592	20994
860.725	21070
860.858	21089
860.99	20937
861.123	20921
861.256	20887
861.388	20941
861.521	21724
861.653	20826
861.786	20689
861.918	20739
862.05	20781
862.183	20777
862.315	20731
862.447	20883
862.58	20785
862.712	20629
862.844	20552
862.976	20754
863.108	20739
863.24	21020
863.372	20549
863.504	20617
863.636	20583
863.768	20598
863.9	20651
864.032	20644
864.164	20606
864.296	20625
864.428	20701
864.559	20788
864.691	20792
864.823	20541
864.954	20552
865.086	20545
865.217	20579
865.349	20583
865.48	20419
865.612	20514
865.743	20606
865.875	20492
866.006	20533
866.137	20568
866.269	20552
866.4	20689
866.531	20492
866.662	20454
866.793	20461
866.924	20427
867.055	20514
867.186	20469
867.317	20427
867.448	20332
867.579	20385
867.71	20347
867.841	20343
867.972	20537
868.103	20454
868.233	20438
868.364	20476
868.495	20556
868.625	20777
868.756	20716
868.886	20682
869.017	20701
869.147	20788
869.278	20739
869.408	20689
869.539	20750
869.669	20758
869.799	20739
869.929	20815
870.06	20876
870.19	21001
870.32	20990
870.45	21036
870.58	21066
870.71	21161
870.84	21157
870.97	21116
871.1	21024
871.23	21306
871.36	21378
871.489	21169
871.619	21268
871.749	21378
871.879	21340
872.008	21374
872.138	21363
872.267	21218
872.397	21252
872.526	21039
872.656	21043
872.785	21173
872.915	21294
873.044	21378
873.173	21344
873.303	21344
873.432	21386
873.561	21428
873.69	21412
873.819	21287
873.948	21447
874.077	21252
874.206	21275
874.335	21340
874.464	21561
874.593	21568
874.722	21599
874.851	21557
874.979	21564
875.108	21439
875.237	21561
875.365	21447
875.494	21504
875.623	21622
875.751	21523
875.88	21622
876.008	21755
876.136	21747
876.265	21922
876.393	22116
876.521	22112
876.65	22021
876.778	22036
876.906	21865
877.034	21918
877.162	21865
877.29	21926
877.418	21991
877.546	21956
877.674	21960
877.802	21911
877.93	21873
878.058	21880
878.185	21873
878.313	21922
878.441	21781
878.568	21816
878.696	21728
878.824	21960
878.951	21998
879.079	22078
879.206	22219
879.333	22166
879.461	21865
879.588	22025
879.715	22265
879.842	22329
879.97	21972
880.097	21743
880.224	21850
880.351	21736
880.478	21751
880.605	21751
880.732	21759
880.859	21949
880.986	21842
881.112	21743
881.239	21610
881.366	21485
881.493	21431
881.619	21249
881.746	21393
881.872	21260
881.999	21298
882.125	21283
882.252	21374
882.378	21378
882.505	21481
882.631	21104
882.757	21062
882.883	21108
883.01	20952
883.136	20952
883.262	20887
883.388	20880
883.514	21047
883.64	21165
883.766	20948
883.892	20872
884.018	20838
884.143	20967
884.269	21005
884.395	20811
884.52	20667
884.646	20743
884.772	20689
884.897	20602
885.023	20701
885.148	20773
885.274	20788
885.399	20804
885.524	20712
885.65	20705
885.775	20575
885.9	20785
886.025	20864
886.15	20724
886.275	20568
886.4	20609
886.525	20613
886.65	20594
886.775	20568
886.9	20727
887.025	20895
887.149	20636
887.274	20476
887.399	20488
887.523	20484
887.648	20446
887.773	20362
887.897	20568
888.021	20400
888.146	20415
888.27	20431
888.395	20602
888.519	20404
888.643	20393
888.767	20545
888.891	20366
889.015	20366
889.139	20294
889.263	20317
889.387	20328
889.511	20404
889.635	20366
889.759	20164
889.883	20176
890.006	20237
890.13	20396
890.254	20183
890.377	20084
890.501	20077
890.624	19978
890.748	20024
890.871	20005
890.995	19734
891.118	19791
891.241	19845
891.364	19799
891.488	19978
891.611	19814
891.734	19868
891.857	19883
891.98	19833
892.103	19807
892.226	19925
892.349	19814
892.471	19616
892.594	19765
892.717	19757
892.839	19712
892.962	19757
893.085	19772
893.207	19746
893.33	19552
893.452	19639
893.575	19723
893.697	19772
893.819	19917
893.941	19837
894.064	19879
894.186	19616
894.308	19674
894.43	19772
894.552	19795
894.674	19833
894.796	19559
894.918	19734
895.04	19803
895.161	19742
895.283	19887
895.405	19616
895.526	19837
895.648	19662
895.769	19723
895.891	19833
896.012	19822
896.134	19807
896.255	19723
896.376	19731
896.498	19837
896.619	19860
896.74	19769
896.861	19830
896.982	20069
897.103	20145
897.224	19982
897.345	19944
897.466	19906
897.587	19982
897.708	20084
897.828	20069
897.949	19925
898.07	19818
898.19	19883
898.311	19898
898.431	19830
898.552	19833
898.672	19986
898.792	20001
898.913	19849
899.033	19890
899.153	19795
899.273	19765
899.393	19795
899.513	19807
899.633	19868
899.753	19837
899.873	19556
899.993	19696
900.113	19719
900.232	19651
900.352	19556
900.472	19571
900.591	19483
900.711	19476
900.83	19438
900.95	19639
901.069	19594
901.189	19335
901.308	19133
901.427	19034
901.546	19088
901.665	19114
901.784	19065
901.904	18909
902.023	18878
902.141	18661
902.26	18616
902.379	18692
902.498	18532
902.617	18486
902.735	18585
902.854	18555
902.973	18544
903.091	18228
903.21	18167
903.328	18308
903.446	18159
903.565	18121
903.683	18034
903.801	17912
903.919	17992
904.038	18038
904.156	17840
904.274	17897
904.392	17794
904.51	17840
904.627	17916
904.745	17870
904.863	17851
904.981	17573
905.098	17493
905.216	17551
905.334	17566
905.451	17558
905.569	17490
905.686	17528
905.803	17558
905.921	17265
906.038	17379
906.155	17288
906.272	17147
906.389	17277
906.506	16999
906.623	17090
906.74	17014
906.857	17003
906.974	17048
907.091	17094
907.208	17189
907.324	17132
907.441	17006
907.557	16805
907.674	16797
907.79	16790
907.907	16740
908.023	16778
908.139	16778
908.256	16717
908.372	16721
908.488	16694
908.604	16683
908.72	16462
908.836	16584
908.952	16493
909.068	16588
909.184	16516
909.3	16603
909.415	16546
909.531	16531
909.647	16284
909.762	16158
909.878	16211
909.993	16200
910.108	16150
910.224	16143
910.339	16177
910.454	16166
910.57	16173
910.685	15907
910.8	16188
910.915	16196
911.03	15945
911.145	15739
911.259	15861
911.374	15800
911.489	15705
911.604	15724
911.718	15603
911.833	15511
911.947	15477
912.062	15420
912.176	15637
912.291	15644
912.405	15557
912.519	15705
912.633	15728
912.748	15610
912.862	15572
912.976	15412
913.09	15306
913.204	15389
913.318	15317
913.431	15477
913.545	15405
913.659	15466
913.772	15386
913.886	15336
914	15157
914.113	15203
914.226	15401
914.34	15207
914.453	15150
914.566	15340
914.68	15173
914.793	15055
914.906	14906
915.019	14826
915.132	14785
915.245	14815
915.358	14811
915.47	14830
915.583	14842
915.696	14826
915.809	14929
915.921	14960
916.034	14781
916.146	14655
916.259	14667
916.371	14807
916.483	14807
916.595	14693
916.708	14678
916.82	14640
916.932	14594
917.044	14648
917.156	14636
917.268	14473
917.38	14495
917.491	14454
917.603	14457
917.715	14564
917.826	14499
917.938	14408
918.049	14278
918.161	14381
918.272	14469
918.384	14568
918.495	14465
918.606	14157
918.717	14119
918.828	14233
918.939	14229
919.05	14286
919.161	14229
919.272	14043
919.383	14073
919.494	14233
919.604	14347
919.715	14218
919.826	14161
919.936	14252
920.047	14393
920.157	14233
920.267	14317
920.378	14199
920.488	14214
920.598	14313
920.708	14511
920.818	14339
920.928	14290
921.038	14442
921.148	14522
921.258	14115
921.368	14134
921.477	14046
921.587	13982
921.697	13875
921.806	13955
921.916	13822
922.025	13700
922.134	13567
922.244	13548
922.353	13616
922.462	13597
922.571	13373
922.68	13373
922.789	13282
922.898	13198
923.007	13213
923.116	13270
923.224	13164
923.333	13198
923.442	13072
923.55	13103
923.659	13149
923.767	13179
923.876	13088
923.984	13084
924.092	12996
924.201	12958
924.309	13023
924.417	12985
924.525	12856
924.633	12882
924.741	13807
924.849	12749
924.956	12909
925.064	12757
925.172	12662
925.279	12658
925.387	12833
925.494	12760
925.602	12726
925.709	12707
925.816	12642
925.924	12650
926.031	12810
926.138	12612
926.245	12753
926.352	12486
926.459	12673
926.566	12665
926.673	12559
926.779	12509
926.886	12403
926.993	12277
927.099	12190
927.206	12201
927.312	12197
927.419	12353
927.525	12194
927.631	12239
927.737	12186
927.843	11977
927.95	12011
928.056	12064
928.162	12133
928.267	12121
928.373	12669
928.479	12247
928.585	11885
928.69	11996
928.796	12121
928.901	11958
929.007	11802
929.112	11931
929.218	11878
929.323	11935
929.428	11828
929.533	12026
929.638	11703
929.743	11794
929.848	11794
929.953	11775
930.058	11619
930.163	11455
930.267	11486
930.372	11604
930.477	11478
930.581	11775
930.685	11558
930.79	11337
930.894	11356
930.998	11391
931.103	11512
931.207	11094
931.311	11105
931.415	11022
931.519	10854
931.623	10790
