Data from test_V78500241_488.txt Node
Date: Fri Mar 25 15:13:15 CST 2022
User: usil
Spectrometer: V785-0024
Trigger mode: 0
Integration Time (sec): 4.000000E-1
Scans to average: 1
Nonlinearity correction enabled: false
Boxcar width: 0
Storing dark spectrum: false
XAxis mode: Wavelengths
Number of Pixels in Spectrum: 1024
>>>>>Begin Spectral Data<<<<<
801.071	27447
801.214	27401
801.356	27188
801.499	27233
801.641	26982
801.783	27173
801.926	27074
802.068	27127
802.211	26705
802.353	26800
802.496	26640
802.638	26743
802.78	26750
802.923	26697
803.065	26488
803.208	26541
803.35	26682
803.492	26758
803.635	26842
803.777	26769
803.919	26868
804.061	27211
804.204	26994
804.346	26705
804.488	26811
804.63	26895
804.773	26655
804.915	26834
805.057	26914
805.199	26746
805.341	27005
805.483	26948
805.626	26887
805.768	26743
805.91	26868
806.052	27043
806.194	26895
806.336	27096
806.478	27043
806.62	26914
806.762	27112
806.904	27302
807.046	27603
807.188	27329
807.33	27214
807.472	27477
807.614	27329
807.756	27306
807.898	27252
808.04	27055
808.182	27192
808.324	27154
808.465	27298
808.607	27344
808.749	27637
808.891	27656
809.033	27823
809.174	27698
809.316	27557
809.458	27618
809.6	27443
809.741	27690
809.883	27736
810.025	27876
810.166	27778
810.308	27892
810.45	27945
810.591	27869
810.733	27656
810.875	27641
811.016	27435
811.158	27466
811.299	27637
811.441	27698
811.582	27667
811.724	27542
811.865	27519
812.007	27492
812.148	27435
812.29	27641
812.431	27641
812.573	27903
812.714	27812
812.855	28055
812.997	28295
813.138	28413
813.279	28276
813.421	28265
813.562	28017
813.703	27956
813.845	27899
813.986	27557
814.127	27351
814.268	27214
814.41	27325
814.551	27260
814.692	27424
814.833	27108
814.974	27321
815.115	27249
815.256	27100
815.397	27112
815.539	27077
815.68	26872
815.821	26918
815.962	27066
816.103	27108
816.244	26864
816.385	26708
816.526	26792
816.666	26712
816.807	26495
816.948	26545
817.089	26663
817.23	26689
817.371	26564
817.512	26514
817.653	26488
817.793	26549
817.934	26492
818.075	26575
818.216	26492
818.356	26438
818.497	26336
818.638	26374
818.778	26263
818.919	26271
819.06	26180
819.2	26396
819.341	26609
819.481	26598
819.622	26663
819.762	26845
819.903	26712
820.043	26735
820.184	26583
820.324	26663
820.465	26724
820.605	26632
820.746	26640
820.886	26366
821.026	26667
821.167	26450
821.307	26617
821.447	26526
821.588	26457
821.728	26336
821.868	26088
822.008	25871
822.149	25936
822.289	25982
822.429	25734
822.569	25655
822.709	25693
822.849	25479
822.99	25685
823.13	25468
823.27	25453
823.41	25381
823.55	25232
823.69	25449
823.83	25289
823.97	25297
824.11	25160
824.25	25042
824.389	25129
824.529	25304
824.669	25236
824.809	25232
824.949	25164
825.089	25209
825.228	25034
825.368	24913
825.508	24970
825.648	25034
825.787	25141
825.927	25168
826.067	24977
826.206	24977
826.346	24977
826.485	25107
826.625	24947
826.765	25175
826.904	25126
827.044	24844
827.183	24734
827.323	24814
827.462	24817
827.601	24745
827.741	24753
827.88	24757
828.02	24654
828.159	24787
828.298	24616
828.437	24764
828.577	24623
828.716	24833
828.855	24559
828.994	24452
829.134	24433
829.273	24486
829.412	24327
829.551	24273
829.69	24414
829.829	24525
829.968	24380
830.107	24490
830.246	24528
830.385	24292
830.524	24289
830.663	24235
830.802	24201
830.941	24068
831.08	24003
831.219	24079
831.357	24049
831.496	24334
831.635	24136
831.774	23809
831.913	23897
832.051	23771
832.19	23767
832.329	23760
832.467	23748
832.606	23691
832.744	23817
832.883	23714
833.022	23699
833.16	23745
833.299	23764
833.437	23741
833.576	23878
833.714	23786
833.852	23726
833.991	23954
834.129	23847
834.267	23726
834.406	23756
834.544	23878
834.682	23680
834.821	23802
834.959	23942
835.097	23695
835.235	23878
835.373	23722
835.511	23680
835.65	23608
835.788	23657
835.926	23509
836.064	23512
836.202	23509
836.34	23668
836.478	23752
836.615	23600
836.753	23501
836.891	23668
837.029	23668
837.167	23646
837.305	23539
837.443	23577
837.58	23524
837.718	23467
837.856	23531
837.993	23376
838.131	23482
838.269	23406
838.406	23406
838.544	23254
838.681	23121
838.819	23060
838.956	22919
839.094	22919
839.231	23048
839.369	23079
839.506	23242
839.643	23132
839.781	22965
839.918	22877
840.055	22816
840.193	22911
840.33	22949
840.467	22900
840.604	22828
840.742	23003
840.879	22755
841.016	22862
841.153	22710
841.29	22980
841.427	22862
841.564	22885
841.701	22786
841.838	22759
841.975	22748
842.112	22869
842.249	22721
842.385	22634
842.522	22641
842.659	22573
842.796	22694
842.933	22592
843.069	22569
843.206	22493
843.343	22725
843.479	22630
843.616	22752
843.752	22417
843.889	22421
844.025	22603
844.162	22379
844.298	22493
844.435	22421
844.571	22413
844.708	22519
844.844	22577
844.98	22554
845.117	22474
845.253	22390
845.389	22325
845.525	22299
845.661	22291
845.798	22131
845.934	22268
846.07	22215
846.206	22196
846.342	22379
846.478	22154
846.614	21922
846.75	21793
846.886	21880
847.022	21953
847.158	21945
847.294	21934
847.429	21831
847.565	21907
847.701	21972
847.837	21580
847.972	21701
848.108	21671
848.244	21576
848.379	21526
848.515	21488
848.65	21538
848.786	21500
848.921	21447
849.057	21564
849.192	21614
849.328	21549
849.463	21466
849.598	21359
849.734	21382
849.869	21408
850.004	21355
850.14	21268
850.275	21336
850.41	21199
850.545	21233
850.68	21161
850.815	21226
850.95	21393
851.085	21443
851.22	21302
851.355	21214
851.49	21283
851.625	21233
851.76	21291
851.895	21093
852.03	21070
852.165	21355
852.299	21355
852.434	21298
852.569	21283
852.703	21260
852.838	21249
852.973	21317
853.107	21344
853.242	21169
853.376	21036
853.511	21039
853.645	21051
853.78	21222
853.914	21150
854.048	21058
854.183	21077
854.317	21058
854.451	21176
854.585	21077
854.72	21047
854.854	21108
854.988	20937
855.122	21116
855.256	20925
855.39	21020
855.524	21169
855.658	21119
855.792	21066
855.926	21096
856.06	21074
856.194	21119
856.327	21085
856.461	21051
856.595	20979
856.729	21074
856.862	21169
856.996	21062
857.13	21074
857.263	21222
857.397	21298
857.53	20956
857.664	21001
857.797	21116
857.931	21283
858.064	21066
858.197	21173
858.331	21154
858.464	21020
858.597	20967
858.731	21127
858.864	20929
858.997	21047
859.13	21165
859.263	21032
859.396	21104
859.529	21074
859.662	20975
859.795	21001
859.928	21066
860.061	21287
860.194	21237
860.327	21176
860.46	21142
860.592	21192
860.725	21241
860.858	21188
860.99	21089
861.123	21024
861.256	21043
861.388	20998
861.521	21797
861.653	20929
861.786	20925
861.918	20849
862.05	20952
862.183	20979
862.315	21005
862.447	20982
862.58	21017
862.712	20872
862.844	20735
862.976	20887
863.108	20792
863.24	21096
863.372	20724
863.504	20777
863.636	20842
863.768	20849
863.9	20758
864.032	20693
864.164	20781
864.296	20823
864.428	20899
864.559	20815
864.691	20868
864.823	20872
864.954	20678
865.086	20746
865.217	20674
865.349	20537
865.48	20571
865.612	20689
865.743	20849
865.875	20609
866.006	20674
866.137	20640
866.269	20705
866.4	20522
866.531	20678
866.662	20480
866.793	20594
866.924	20537
867.055	20670
867.186	20617
867.317	20625
867.448	20602
867.579	20552
867.71	20526
867.841	20518
867.972	20598
868.103	20594
868.233	20712
868.364	20617
868.495	20705
868.625	20815
868.756	20883
868.886	20667
869.017	20876
869.147	21013
869.278	21005
869.408	20754
869.539	20815
869.669	21020
869.799	20876
869.929	20952
870.06	21020
870.19	21180
870.32	21127
870.45	21211
870.58	21249
870.71	21329
870.84	21401
870.97	21203
871.1	21173
871.23	21462
871.36	21469
871.489	21336
871.619	21439
871.749	21454
871.879	21412
872.008	21447
872.138	21397
872.267	21428
872.397	21256
872.526	21218
872.656	21260
872.785	21214
872.915	21481
873.044	21603
873.173	21424
873.303	21545
873.432	21424
873.561	21618
873.69	21447
873.819	21370
873.948	21618
874.077	21587
874.206	21325
874.335	21466
874.464	21686
874.593	21728
874.722	21766
874.851	21660
874.979	21717
875.108	21633
875.237	21728
875.365	21591
875.494	21797
875.623	21743
875.751	21652
875.88	21682
876.008	21747
876.136	21842
876.265	22124
876.393	22143
876.521	22074
876.65	22116
876.778	22150
876.906	22074
877.034	22078
877.162	22036
877.29	22048
877.418	21949
877.546	22013
877.674	22036
877.802	22063
877.93	22067
878.058	21968
878.185	21968
878.313	22112
878.441	21994
878.568	21781
878.696	21945
878.824	22082
878.951	22207
879.079	22242
879.206	22287
879.333	22124
879.461	22158
879.588	22150
879.715	22299
879.842	22207
879.97	22150
880.097	21953
880.224	21918
880.351	21781
880.478	21800
880.605	21819
880.732	21861
880.859	22101
880.986	21968
881.112	21899
881.239	21778
881.366	21496
881.493	21603
881.619	21526
881.746	21443
881.872	21477
881.999	21382
882.125	21428
882.252	21340
882.378	21389
882.505	21568
882.631	21256
882.757	21241
882.883	21268
883.01	21214
883.136	21108
883.262	20986
883.388	21062
883.514	21207
883.64	21173
883.766	21051
883.892	20762
884.018	20918
884.143	21081
884.269	21112
884.395	20804
884.52	20811
884.646	20838
884.772	20735
884.897	20807
885.023	20811
885.148	20925
885.274	20933
885.399	20914
885.524	20750
885.65	20819
885.775	20754
885.9	20819
886.025	20910
886.15	20887
886.275	20667
886.4	20621
886.525	20743
886.65	20629
886.775	20693
886.9	20952
887.025	20944
887.149	20758
887.274	20564
887.399	20625
887.523	20602
887.648	20461
887.773	20495
887.897	20655
888.021	20686
888.146	20617
888.27	20727
888.395	20712
888.519	20571
888.643	20545
888.767	20617
888.891	20526
889.015	20514
889.139	20358
889.263	20332
889.387	20454
889.511	20579
889.635	20480
889.759	20389
889.883	20370
890.006	20385
890.13	20446
890.254	20332
890.377	20366
890.501	20161
890.624	20130
890.748	20180
890.871	19967
890.995	19894
891.118	19902
891.241	19982
891.364	19887
891.488	19974
891.611	20084
891.734	19921
891.857	19944
891.98	19928
892.103	19913
892.226	19909
892.349	19902
892.471	19689
892.594	19944
892.717	19906
892.839	19887
892.962	19921
893.085	19974
893.207	19849
893.33	19750
893.452	19772
893.575	19799
893.697	19932
893.819	19974
893.941	20043
894.064	19944
894.186	19772
894.308	19761
894.43	19974
894.552	19951
894.674	20065
894.796	19731
894.918	19845
895.04	19902
895.161	19932
895.283	19936
895.405	19837
895.526	19765
895.648	19769
895.769	19902
895.891	19963
896.012	19883
896.134	19951
896.255	19818
896.376	19890
896.498	19761
896.619	19978
896.74	19837
896.861	19982
896.982	20195
897.103	20290
897.224	20138
897.345	20145
897.466	20107
897.587	20008
897.708	20096
897.828	20119
897.949	19955
898.07	19940
898.19	19989
898.311	20100
898.431	19974
898.552	19986
898.672	20122
898.792	20195
898.913	20161
899.033	19898
899.153	19856
899.273	19731
899.393	19769
899.513	19913
899.633	19856
899.753	19947
899.873	19708
899.993	19830
900.113	19746
900.232	19932
900.352	19742
900.472	19666
900.591	19567
900.711	19689
900.83	19578
900.95	19666
901.069	19681
901.189	19533
901.308	19263
901.427	19034
901.546	19225
901.665	19297
901.784	19179
901.904	19019
902.023	19031
902.141	18810
902.26	18745
902.379	18856
902.498	18696
902.617	18673
902.735	18814
902.854	18802
902.973	18536
903.091	18452
903.21	18388
903.328	18346
903.446	18262
903.565	18209
903.683	18232
903.801	18098
903.919	18152
904.038	18026
904.156	17992
904.274	18102
904.392	17783
904.51	17942
904.627	17889
904.745	17946
904.863	17980
904.981	17695
905.098	17608
905.216	17566
905.334	17630
905.451	17623
905.569	17630
905.686	17646
905.803	17657
905.921	17452
906.038	17649
906.155	17471
906.272	17337
906.389	17326
906.506	17170
906.623	17128
906.74	17189
906.857	17033
906.974	17094
907.091	17239
907.208	17277
907.324	17227
907.441	17022
907.557	16961
907.674	16892
907.79	16774
907.907	16797
908.023	16938
908.139	16809
908.256	16972
908.372	16843
908.488	16790
908.604	16706
908.72	16596
908.836	16603
908.952	16546
909.068	16580
909.184	16637
909.3	16569
909.415	16550
909.531	16588
909.647	16325
909.762	16310
909.878	16375
909.993	16337
910.108	16356
910.224	16265
910.339	16341
910.454	16207
910.57	16029
910.685	16105
910.8	16242
910.915	16238
911.03	16154
911.145	15991
911.259	15930
911.374	16006
911.489	15892
911.604	15778
911.718	15652
911.833	15732
911.947	15641
912.062	15530
912.176	15629
912.291	15637
912.405	15629
912.519	15857
912.633	15739
912.748	15686
912.862	15587
912.976	15458
913.09	15348
913.204	15500
913.318	15469
913.431	15595
913.545	15610
913.659	15557
913.772	15447
913.886	15275
914	15367
914.113	15336
914.226	15389
914.34	15420
914.453	15081
914.566	15325
914.68	15188
914.793	15226
914.906	14975
915.019	14952
915.132	14807
915.245	14861
915.358	14998
915.47	14941
915.583	14967
915.696	15055
915.809	14960
915.921	15017
916.034	14796
916.146	14819
916.259	14785
916.371	14887
916.483	14739
916.595	14731
916.708	14754
916.82	14758
916.932	14731
917.044	14705
917.156	14750
917.268	14617
917.38	14575
917.491	14499
917.603	14549
917.715	14606
917.826	14602
917.938	14613
918.049	14465
918.161	14454
918.272	14720
918.384	14632
918.495	14526
918.606	14389
918.717	14347
918.828	14366
918.939	14377
919.05	14263
919.161	14278
919.272	14111
919.383	14244
919.494	14328
919.604	14533
919.715	14324
919.826	14172
919.936	14256
920.047	14309
920.157	14298
920.267	14575
920.378	14309
920.488	14161
920.598	14541
920.708	14537
920.818	14374
920.928	14446
921.038	14518
921.148	14511
921.258	14278
921.368	14252
921.477	14050
921.587	14054
921.697	13772
921.806	14084
921.916	13959
922.025	13689
922.134	13753
922.244	13578
922.353	13769
922.462	13605
922.571	13556
922.68	13324
922.789	13415
922.898	13381
923.007	13335
923.116	13278
923.224	13228
923.333	13278
923.442	13141
923.55	13099
923.659	13183
923.767	13274
923.876	13293
923.984	13232
924.092	13065
924.201	13141
924.309	13038
924.417	13061
924.525	13050
924.633	13008
924.741	13913
924.849	12779
924.956	12924
925.064	12825
925.172	12635
925.279	12738
925.387	12749
925.494	12734
925.602	12867
925.709	12711
925.816	12684
925.924	12696
926.031	12787
926.138	12703
926.245	12768
926.352	12563
926.459	12806
926.566	12760
926.673	12623
926.779	12471
926.886	12506
926.993	12429
927.099	12380
927.206	12308
927.312	12319
927.419	12350
927.525	12296
927.631	12433
927.737	12270
927.843	12216
927.95	12038
928.056	12129
928.162	12190
928.267	12175
928.373	12631
928.479	12247
928.585	11961
928.69	12125
928.796	12175
928.901	11988
929.007	11851
929.112	12041
929.218	12015
929.323	11859
929.428	11912
929.533	12041
929.638	11745
929.743	11885
929.848	11824
929.953	11851
930.058	11737
930.163	11585
930.267	11592
930.372	11710
930.477	11482
930.581	11809
930.685	11630
930.79	11414
930.894	11547
930.998	11414
931.103	11570
931.207	11189
931.311	11227
931.415	11067
931.519	10908
931.623	10881
