Data from test_V78500241_539.txt Node
Date: Fri Mar 25 15:13:36 CST 2022
User: usil
Spectrometer: V785-0024
Trigger mode: 0
Integration Time (sec): 4.000000E-1
Scans to average: 1
Nonlinearity correction enabled: false
Boxcar width: 0
Storing dark spectrum: false
XAxis mode: Wavelengths
Number of Pixels in Spectrum: 1024
>>>>>Begin Spectral Data<<<<<
801.071	27233
801.214	27116
801.356	26971
801.499	26937
801.641	26849
801.783	26693
801.926	26819
802.068	26621
802.211	26598
802.353	26640
802.496	26492
802.638	26461
802.78	26396
802.923	26362
803.065	26298
803.208	26343
803.35	26434
803.492	26579
803.635	26670
803.777	26453
803.919	26613
804.061	26796
804.204	26575
804.346	26503
804.488	26419
804.63	26609
804.773	26393
804.915	26564
805.057	26724
805.199	26503
805.341	26640
805.483	26617
805.626	26727
805.768	26495
805.91	26575
806.052	26636
806.194	26743
806.336	26746
806.478	26606
806.62	26575
806.762	26762
806.904	26956
807.046	27066
807.188	27218
807.33	27116
807.472	27039
807.614	27005
807.756	26925
807.898	26845
808.04	26887
808.182	26823
808.324	27017
808.465	26815
808.607	27062
808.749	27127
808.891	27218
809.033	27462
809.174	27458
809.316	27218
809.458	27203
809.6	27256
809.741	27370
809.883	27504
810.025	27603
810.166	27447
810.308	27641
810.45	27416
810.591	27450
810.733	27241
810.875	27268
811.016	27123
811.158	27249
811.299	27226
811.441	27523
811.582	27241
811.724	27302
811.865	27135
812.007	27226
812.148	27249
812.29	27249
812.431	27538
812.573	27504
812.714	27743
812.855	27854
812.997	27854
813.138	27911
813.279	27812
813.421	27835
813.562	27816
813.703	27519
813.845	27363
813.986	27214
814.127	27161
814.268	27017
814.41	27001
814.551	26876
814.692	26891
814.833	26807
814.974	26963
815.115	26929
815.256	26792
815.397	26830
815.539	26838
815.68	26689
815.821	26754
815.962	26727
816.103	26697
816.244	26640
816.385	26427
816.526	26552
816.666	26347
816.807	26115
816.948	26393
817.089	26313
817.23	26191
817.371	26183
817.512	26298
817.653	26313
817.793	26225
817.934	26202
818.075	26244
818.216	26218
818.356	26157
818.497	26134
818.638	25963
818.778	25997
818.919	26084
819.06	26027
819.2	26126
819.341	26240
819.481	26267
819.622	26408
819.762	26530
819.903	26366
820.043	26453
820.184	26324
820.324	26195
820.465	26370
820.605	26381
820.746	26358
820.886	26229
821.026	26202
821.167	26195
821.307	26336
821.447	26278
821.588	26012
821.728	25970
821.868	25974
822.008	25795
822.149	25647
822.289	25651
822.429	25430
822.569	25377
822.709	25422
822.849	25179
822.99	25088
823.13	25065
823.27	25209
823.41	25099
823.55	24932
823.69	25031
823.83	24894
823.97	24954
824.11	24871
824.25	24722
824.389	24783
824.529	24848
824.669	24768
824.809	24859
824.949	24989
825.089	24966
825.228	24890
825.368	24688
825.508	24749
825.648	24715
825.787	24829
825.927	24757
826.067	24757
826.206	24738
826.346	24707
826.485	24661
826.625	24650
826.765	24817
826.904	24795
827.044	24509
827.183	24597
827.323	24350
827.462	24452
827.601	24555
827.741	24445
827.88	24464
828.02	24315
828.159	24403
828.298	24289
828.437	24418
828.577	24247
828.716	24563
828.855	24384
828.994	24216
829.134	24243
829.273	24178
829.412	24026
829.551	24144
829.69	24117
829.829	24125
829.968	24140
830.107	24205
830.246	24015
830.385	23942
830.524	24072
830.663	23824
830.802	23855
830.941	23733
831.08	23611
831.219	23874
831.357	23752
831.496	23828
831.635	23767
831.774	23657
831.913	23512
832.051	23501
832.19	23452
832.329	23554
832.467	23356
832.606	23471
832.744	23459
832.883	23383
833.022	23391
833.16	23296
833.299	23376
833.437	23391
833.576	23349
833.714	23440
833.852	23482
833.991	23417
834.129	23604
834.267	23623
834.406	23478
834.544	23410
834.682	23444
834.821	23528
834.959	23573
835.097	23425
835.235	23486
835.373	23512
835.511	23600
835.65	23353
835.788	23223
835.926	23071
836.064	23296
836.202	23185
836.34	23273
836.478	23429
836.615	23143
836.753	23185
836.891	23368
837.029	23273
837.167	23239
837.305	23170
837.443	23170
837.58	23071
837.718	23261
837.856	23200
837.993	23128
838.131	23044
838.269	23044
838.406	23208
838.544	22987
838.681	22755
838.819	22759
838.956	22649
839.094	22607
839.231	22649
839.369	22850
839.506	22995
839.643	22889
839.781	22660
839.918	22516
840.055	22557
840.193	22561
840.33	22531
840.467	22554
840.604	22618
840.742	22862
840.879	22470
841.016	22546
841.153	22497
841.29	22675
841.427	22436
841.564	22580
841.701	22500
841.838	22478
841.975	22497
842.112	22409
842.249	22291
842.385	22219
842.522	22466
842.659	22329
842.796	22295
842.933	22436
843.069	22223
843.206	22219
843.343	22318
843.479	22234
843.616	22322
843.752	22090
843.889	22135
844.025	22299
844.162	22021
844.298	22246
844.435	21949
844.571	22048
844.708	22109
844.844	22173
844.98	22204
845.117	22097
845.253	22101
845.389	22017
845.525	21983
845.661	21956
845.798	21713
845.934	21797
846.07	21816
846.206	21888
846.342	21926
846.478	21751
846.614	21568
846.75	21515
846.886	21473
847.022	21568
847.158	21507
847.294	21679
847.429	21610
847.565	21595
847.701	21876
847.837	21351
847.972	21264
848.108	21454
848.244	21405
848.379	21184
848.515	21264
848.65	21100
848.786	21070
848.921	21150
849.057	21336
849.192	21169
849.328	21138
849.463	21176
849.598	21127
849.734	21032
849.869	21039
850.004	21009
850.14	21017
850.275	20895
850.41	20731
850.545	20868
850.68	20830
850.815	20948
850.95	20857
851.085	20994
851.22	21028
851.355	20887
851.49	20933
851.625	20849
851.76	20883
851.895	20857
852.03	20804
852.165	20830
852.299	20941
852.434	21036
852.569	20971
852.703	20925
852.838	20941
852.973	20937
853.107	21017
853.242	20880
853.376	20876
853.511	20686
853.645	20636
853.78	20853
853.914	20693
854.048	20712
854.183	20674
854.317	20796
854.451	21024
854.585	20746
854.72	20758
854.854	20712
854.988	20712
855.122	20708
855.256	20583
855.39	20682
855.524	20857
855.658	20902
855.792	20697
855.926	20788
856.06	20864
856.194	20864
856.327	20670
856.461	20686
856.595	20701
856.729	20678
856.862	20868
856.996	20754
857.13	20701
857.263	20933
857.397	20902
857.53	20678
857.664	20804
857.797	20651
857.931	20777
858.064	20773
858.197	20769
858.331	20746
858.464	20678
858.597	20507
858.731	20743
858.864	20785
858.997	20678
859.13	20842
859.263	20735
859.396	20864
859.529	20598
859.662	20682
859.795	20598
859.928	20701
860.061	20868
860.194	21024
860.327	20819
860.46	20804
860.592	20899
860.725	20883
860.858	20788
860.99	20701
861.123	20686
861.256	20454
861.388	20739
861.521	21252
861.653	20678
861.786	20564
861.918	20560
862.05	20629
862.183	20708
862.315	20594
862.447	20708
862.58	20617
862.712	20473
862.844	20415
862.976	20602
863.108	20526
863.24	20880
863.372	20465
863.504	20381
863.636	20457
863.768	20461
863.9	20507
864.032	20423
864.164	20412
864.296	20454
864.428	20461
864.559	20503
864.691	20552
864.823	20518
864.954	20442
865.086	20309
865.217	20358
865.349	20298
865.48	20298
865.612	20347
865.743	20518
865.875	20324
866.006	20320
866.137	20298
866.269	20282
866.4	20355
866.531	20256
866.662	20332
866.793	20206
866.924	20290
867.055	20347
867.186	20385
867.317	20225
867.448	20187
867.579	20275
867.71	20225
867.841	20206
867.972	20351
868.103	20381
868.233	20347
868.364	20313
868.495	20476
868.625	20404
868.756	20636
868.886	20518
869.017	20651
869.147	20640
869.278	20571
869.408	20526
869.539	20556
869.669	20648
869.799	20564
869.929	20708
870.06	20678
870.19	20819
870.32	20929
870.45	20902
870.58	20986
870.71	21043
870.84	21089
870.97	20883
871.1	20914
871.23	21093
871.36	21100
871.489	20952
871.619	21100
871.749	21039
871.879	21275
872.008	21218
872.138	21146
872.267	21093
872.397	21062
872.526	20956
872.656	20952
872.785	20979
872.915	21127
873.044	21218
873.173	21184
873.303	21119
873.432	21249
873.561	21230
873.69	21298
873.819	21100
873.948	21359
874.077	21131
874.206	21051
874.335	21211
874.464	21260
874.593	21416
874.722	21359
874.851	21424
874.979	21424
875.108	21507
875.237	21256
875.365	21203
875.494	21363
875.623	21420
875.751	21325
875.88	21397
876.008	21473
876.136	21519
876.265	21671
876.393	21911
876.521	21865
876.65	21728
876.778	21759
876.906	21709
877.034	21793
877.162	21724
877.29	21709
877.418	21778
877.546	21797
877.674	21641
877.802	21732
877.93	21690
878.058	21717
878.185	21641
878.313	21724
878.441	21679
878.568	21568
878.696	21743
878.824	21724
878.951	21880
879.079	21937
879.206	22002
879.333	21915
879.461	21660
879.588	21956
879.715	21899
879.842	21979
879.97	21850
880.097	21694
880.224	21614
880.351	21519
880.478	21686
880.605	21648
880.732	21690
880.859	21823
880.986	21576
881.112	21713
881.239	21424
881.366	21317
881.493	21332
881.619	21028
881.746	21226
881.872	21195
881.999	21108
882.125	21127
882.252	21127
882.378	21119
882.505	21272
882.631	21051
882.757	20750
882.883	20975
883.01	20792
883.136	20823
883.262	20815
883.388	20682
883.514	20944
883.64	20811
883.766	20792
883.892	20697
884.018	20697
884.143	20952
884.269	20845
884.395	20549
884.52	20454
884.646	20495
884.772	20484
884.897	20419
885.023	20590
885.148	20533
885.274	20651
885.399	20598
885.524	20526
885.65	20454
885.775	20511
885.9	20442
886.025	20495
886.15	20644
886.275	20507
886.4	20511
886.525	20522
886.65	20355
886.775	20469
886.9	20602
887.025	20663
887.149	20434
887.274	20336
887.399	20347
887.523	20244
887.648	20199
887.773	20233
887.897	20393
888.021	20298
888.146	20237
888.27	20362
888.395	20362
888.519	20313
888.643	20332
888.767	20218
888.891	20161
889.015	20081
889.139	20164
889.263	20157
889.387	20233
889.511	20275
889.635	20161
889.759	20081
889.883	19951
890.006	20016
890.13	20202
890.254	20062
890.377	19963
890.501	19921
890.624	19788
890.748	19887
890.871	19746
890.995	19518
891.118	19681
891.241	19723
891.364	19696
891.488	19719
891.611	19643
891.734	19746
891.857	19693
891.98	19731
892.103	19704
892.226	19624
892.349	19647
892.471	19483
892.594	19506
892.717	19658
892.839	19605
892.962	19483
893.085	19620
893.207	19552
893.33	19495
893.452	19548
893.575	19586
893.697	19552
893.819	19776
893.941	19746
894.064	19765
894.186	19476
894.308	19449
894.43	19521
894.552	19655
894.674	19586
894.796	19365
894.918	19480
895.04	19457
895.161	19552
895.283	19635
895.405	19426
895.526	19704
895.648	19552
895.769	19597
895.891	19597
896.012	19727
896.134	19514
896.255	19556
896.376	19457
896.498	19681
896.619	19677
896.74	19472
896.861	19651
896.982	19807
897.103	20115
897.224	19906
897.345	19723
897.466	19746
897.587	19814
897.708	19925
897.828	19871
897.949	19822
898.07	19624
898.19	19769
898.311	19845
898.431	19807
898.552	19772
898.672	19864
898.792	19795
898.913	19704
899.033	19784
899.153	19552
899.273	19521
899.393	19552
899.513	19563
899.633	19658
899.753	19578
899.873	19529
899.993	19635
900.113	19487
900.232	19544
900.352	19449
900.472	19377
900.591	19350
900.711	19316
900.83	19285
900.95	19453
901.069	19362
901.189	19331
901.308	19050
901.427	18901
901.546	18916
901.665	19050
901.784	18935
901.904	18863
902.023	18760
902.141	18551
902.26	18547
902.379	18528
902.498	18422
902.617	18437
902.735	18399
902.854	18365
902.973	18342
903.091	18167
903.21	18068
903.328	18133
903.446	18079
903.565	17996
903.683	18007
903.801	17821
903.919	17889
904.038	17840
904.156	17687
904.274	17920
904.392	17710
904.51	17775
904.627	17703
904.745	17657
904.863	17718
904.981	17573
905.098	17368
905.216	17337
905.334	17433
905.451	17474
905.569	17421
905.686	17425
905.803	17383
905.921	17143
906.038	17280
906.155	17311
906.272	17124
906.389	17094
906.506	16965
906.623	17006
906.74	16991
906.857	16911
906.974	16881
907.091	16999
907.208	17022
907.324	17018
907.441	16812
907.557	16790
907.674	16740
907.79	16577
907.907	16694
908.023	16702
908.139	16683
908.256	16691
908.372	16531
908.488	16550
908.604	16314
908.72	16440
908.836	16337
908.952	16367
909.068	16398
909.184	16466
909.3	16375
909.415	16280
909.531	16367
909.647	16204
909.762	16051
909.878	15975
909.993	16090
910.108	16025
910.224	15975
910.339	16055
910.454	15949
910.57	16013
910.685	15846
910.8	16128
910.915	15979
911.03	15903
911.145	15724
911.259	15698
911.374	15842
911.489	15584
911.604	15603
911.718	15458
911.833	15488
911.947	15313
912.062	15184
912.176	15378
912.291	15389
912.405	15389
912.519	15538
912.633	15500
912.748	15408
912.862	15424
912.976	15302
913.09	15123
913.204	15207
913.318	15340
913.431	15351
913.545	15393
913.659	15386
913.772	15218
913.886	15005
914	15024
914.113	15100
914.226	15146
914.34	15173
914.453	15039
914.566	15051
914.68	14994
914.793	14963
914.906	14830
915.019	14739
915.132	14621
915.245	14678
915.358	14750
915.47	14689
915.583	14606
915.696	14701
915.809	14731
915.921	14800
916.034	14587
916.146	14571
916.259	14693
916.371	14773
916.483	14701
916.595	14518
916.708	14526
916.82	14636
916.932	14533
917.044	14526
917.156	14469
917.268	14305
917.38	14450
917.491	14301
917.603	14404
917.715	14442
917.826	14404
917.938	14320
918.049	14267
918.161	14358
918.272	14446
918.384	14366
918.495	14317
918.606	14183
918.717	14084
918.828	14183
918.939	14153
919.05	14092
919.161	14073
919.272	13875
919.383	13898
919.494	14126
919.604	14309
919.715	14183
919.826	14043
919.936	14043
920.047	14180
920.157	14100
920.267	14301
920.378	14111
920.488	14020
920.598	14305
920.708	14427
920.818	14278
920.928	14233
921.038	14454
921.148	14320
921.258	14077
921.368	14020
921.477	13917
921.587	13837
921.697	13788
921.806	13696
921.916	13685
922.025	13597
922.134	13453
922.244	13487
922.353	13537
922.462	13362
922.571	13316
922.68	13179
922.789	13183
922.898	13114
923.007	13107
923.116	13156
923.224	13053
923.333	13152
923.442	12924
923.55	12928
923.659	12985
923.767	13118
923.876	12958
923.984	12962
924.092	12871
924.201	12852
924.309	12901
924.417	12875
924.525	12806
924.633	12738
924.741	13582
924.849	12627
924.956	12783
925.064	12677
925.172	12490
925.279	12597
925.387	12589
925.494	12563
925.602	12741
925.709	12711
925.816	12418
925.924	12570
926.031	12578
926.138	12494
926.245	12532
926.352	12441
926.459	12601
926.566	12544
926.673	12494
926.779	12289
926.886	12357
926.993	12175
927.099	12098
927.206	12121
927.312	12133
927.419	12281
927.525	12076
927.631	12186
927.737	12098
927.843	12015
927.95	11950
928.056	11969
928.162	12026
928.267	11973
928.373	12490
928.479	12106
928.585	11832
928.69	11980
928.796	11958
928.901	11809
929.007	11745
929.112	11901
929.218	11745
929.323	11748
929.428	11707
929.533	11824
929.638	11581
929.743	11699
929.848	11646
929.953	11703
930.058	11528
930.163	11398
930.267	11474
930.372	11486
930.477	11353
930.581	11535
930.685	11444
930.79	11258
930.894	11280
930.998	11341
931.103	11535
931.207	11018
931.311	11014
931.415	10858
931.519	10698
931.623	10694
