Data from test_V78500241_1995.txt Node
Date: Fri Mar 25 15:23:44 CST 2022
User: usil
Spectrometer: V785-0024
Trigger mode: 0
Integration Time (sec): 4.000000E-1
Scans to average: 1
Nonlinearity correction enabled: false
Boxcar width: 0
Storing dark spectrum: false
XAxis mode: Wavelengths
Number of Pixels in Spectrum: 1024
>>>>>Begin Spectral Data<<<<<
801.071	27953
801.214	27873
801.356	27622
801.499	27545
801.641	27526
801.783	27256
801.926	27450
802.068	27462
802.211	27393
802.353	27401
802.496	27230
802.638	26940
802.78	27047
802.923	27074
803.065	27081
803.208	26998
803.35	27184
803.492	27268
803.635	27332
803.777	27222
803.919	27291
804.061	27549
804.204	27279
804.346	27329
804.488	27336
804.63	27313
804.773	27237
804.915	27272
805.057	27481
805.199	27203
805.341	27416
805.483	27393
805.626	27321
805.768	27378
805.91	27317
806.052	27427
806.194	27336
806.336	27473
806.478	27382
806.62	27458
806.762	27427
806.904	27755
807.046	27899
807.188	27774
807.33	27804
807.472	27899
807.614	27732
807.756	27804
807.898	27679
808.04	27633
808.182	27709
808.324	27606
808.465	27831
808.607	27956
808.749	28074
808.891	28078
809.033	28124
809.174	28074
809.316	28162
809.458	28109
809.6	27949
809.741	28284
809.883	28147
810.025	28215
810.166	28401
810.308	28337
810.45	28337
810.591	28238
810.733	28124
810.875	28032
811.016	27937
811.158	27762
811.299	28063
811.441	28017
811.582	28196
811.724	28006
811.865	27842
812.007	28078
812.148	27979
812.29	28078
812.431	28242
812.573	28455
812.714	28478
812.855	28497
812.997	28546
813.138	28911
813.279	28812
813.421	28519
813.562	28459
813.703	28314
813.845	28257
813.986	28006
814.127	27816
814.268	27789
814.41	27789
814.551	27766
814.692	27854
814.833	27747
814.974	27732
815.115	27690
815.256	27625
815.397	27614
815.539	27660
815.68	27427
815.821	27591
815.962	27587
816.103	27656
816.244	27412
816.385	27294
816.526	27237
816.666	27138
816.807	27100
816.948	27161
817.089	27157
817.23	27039
817.371	26998
817.512	26952
817.653	27157
817.793	26933
817.934	27127
818.075	26899
818.216	27036
818.356	26998
818.497	26933
818.638	26868
818.778	26883
818.919	26678
819.06	26823
819.2	26929
819.341	27096
819.481	27028
819.622	27218
819.762	27427
819.903	27382
820.043	27245
820.184	27283
820.324	27154
820.465	27199
820.605	27085
820.746	27169
820.886	26925
821.026	27146
821.167	27043
821.307	27226
821.447	27116
821.588	27013
821.728	26785
821.868	26590
822.008	26587
822.149	26526
822.289	26571
822.429	26374
822.569	26157
822.709	26115
822.849	26081
822.99	26073
823.13	26012
823.27	26012
823.41	25864
823.55	25795
823.69	25894
823.83	25734
823.97	25852
824.11	25647
824.25	25540
824.389	25750
824.529	25795
824.669	25582
824.809	25898
824.949	25769
825.089	25788
825.228	25677
825.368	25537
825.508	25521
825.648	25506
825.787	25616
825.927	25715
826.067	25430
826.206	25578
826.346	25518
826.485	25666
826.625	25632
826.765	25662
826.904	25616
827.044	25346
827.183	25301
827.323	25240
827.462	25381
827.601	25122
827.741	25270
827.88	25259
828.02	25236
828.159	25179
828.298	25377
828.437	25221
828.577	25160
828.716	25350
828.855	25057
828.994	24863
829.134	24905
829.273	24947
829.412	24981
829.551	24966
829.69	24977
829.829	24951
829.968	25103
830.107	25084
830.246	25023
830.385	24894
830.524	24768
830.663	24871
830.802	24631
830.941	24601
831.08	24582
831.219	24608
831.357	24559
831.496	24757
831.635	24631
831.774	24445
831.913	24494
832.051	24304
832.19	24357
832.329	24410
832.467	24270
832.606	24209
832.744	24102
832.883	24102
833.022	24285
833.16	24235
833.299	24273
833.437	24205
833.576	24407
833.714	24296
833.852	24319
833.991	24357
834.129	24395
834.267	24418
834.406	24281
834.544	24304
834.682	24277
834.821	24201
834.959	24570
835.097	24239
835.235	24429
835.373	24369
835.511	24285
835.65	24060
835.788	24216
835.926	23988
836.064	23893
836.202	23942
836.34	24125
836.478	24220
836.615	24110
836.753	24095
836.891	24190
837.029	24205
837.167	24174
837.305	24038
837.443	24003
837.58	23973
837.718	24178
837.856	24011
837.993	23889
838.131	24038
838.269	23897
838.406	23851
838.544	23805
838.681	23592
838.819	23619
838.956	23482
839.094	23600
839.231	23531
839.369	23634
839.506	24011
839.643	23680
839.781	23463
839.918	23414
840.055	23490
840.193	23478
840.33	23379
840.467	23501
840.604	23455
840.742	23684
840.879	23197
841.016	23280
841.153	23315
841.29	23463
841.427	23261
841.564	23326
841.701	23387
841.838	23258
841.975	23269
842.112	23166
842.249	23121
842.385	23086
842.522	23379
842.659	23189
842.796	23060
842.933	23052
843.069	23166
843.206	23151
843.343	23200
843.479	23151
843.616	23052
843.752	22885
843.889	22930
844.025	23220
844.162	23033
844.298	23071
844.435	22892
844.571	22824
844.708	22873
844.844	22965
844.98	22968
845.117	22949
845.253	22911
845.389	22774
845.525	22805
845.661	22767
845.798	22607
845.934	22694
846.07	22599
846.206	22656
846.342	22755
846.478	22565
846.614	22314
846.75	22276
846.886	22348
847.022	22542
847.158	22344
847.294	22398
847.429	22306
847.565	22341
847.701	22538
847.837	22097
847.972	21979
848.108	22128
848.244	22097
848.379	22036
848.515	21876
848.65	21953
848.786	21953
848.921	21903
849.057	21994
849.192	22093
849.328	22010
849.463	21979
849.598	21953
849.734	21857
849.869	21911
850.004	21709
850.14	21728
850.275	21694
850.41	21701
850.545	21690
850.68	21709
850.815	21713
850.95	21583
851.085	21816
851.22	21975
851.355	21667
851.49	21656
851.625	21793
851.76	21633
851.895	21564
852.03	21553
852.165	21614
852.299	21644
852.434	21861
852.569	21656
852.703	21622
852.838	21800
852.973	21850
853.107	21637
853.242	21618
853.376	21515
853.511	21420
853.645	21526
853.78	21610
853.914	21534
854.048	21553
854.183	21511
854.317	21629
854.451	21690
854.585	21454
854.72	21549
854.854	21557
854.988	21523
855.122	21523
855.256	21488
855.39	21561
855.524	21622
855.658	21656
855.792	21572
855.926	21515
856.06	21534
856.194	21553
856.327	21553
856.461	21504
856.595	21515
856.729	21523
856.862	21606
856.996	21698
857.13	21591
857.263	21564
857.397	21629
857.53	21580
857.664	21591
857.797	21549
857.931	21618
858.064	21656
858.197	21663
858.331	21496
858.464	21557
858.597	21435
858.731	21507
858.864	21526
858.997	21591
859.13	21580
859.263	21587
859.396	21519
859.529	21557
859.662	21462
859.795	21420
859.928	21538
860.061	21652
860.194	21603
860.327	21572
860.46	21549
860.592	21679
860.725	21717
860.858	21625
860.99	21439
861.123	21561
861.256	21443
861.388	21557
861.521	22226
861.653	21340
861.786	21336
861.918	21450
862.05	21321
862.183	21420
862.315	21507
862.447	21523
862.58	21382
862.712	21211
862.844	21233
862.976	21348
863.108	21317
863.24	21603
863.372	21184
863.504	21291
863.636	21272
863.768	21268
863.9	21165
864.032	21081
864.164	21302
864.296	21252
864.428	21294
864.559	21252
864.691	21355
864.823	21226
864.954	21321
865.086	21135
865.217	21043
865.349	21074
865.48	21131
865.612	21112
865.743	21245
865.875	21146
866.006	21138
866.137	21131
866.269	21169
866.4	21070
866.531	21074
866.662	21123
866.793	21047
866.924	21036
867.055	21214
867.186	21009
867.317	21081
867.448	20838
867.579	21077
867.71	21032
867.841	21058
867.972	21017
868.103	21009
868.233	21096
868.364	21135
868.495	21184
868.625	21317
868.756	21245
868.886	21233
869.017	21302
869.147	21420
869.278	21420
869.408	21321
869.539	21287
869.669	21340
869.799	21336
869.929	21382
870.06	21462
870.19	21606
870.32	21622
870.45	21705
870.58	21675
870.71	21739
870.84	21774
870.97	21595
871.1	21751
871.23	21808
871.36	21953
871.489	21850
871.619	21842
871.749	21972
871.879	21979
872.008	21994
872.138	21888
872.267	21857
872.397	21682
872.526	21739
872.656	21804
872.785	21625
872.915	21991
873.044	21998
873.173	21827
873.303	21998
873.432	22006
873.561	21968
873.69	21930
873.819	21983
873.948	22013
874.077	21945
874.206	21899
874.335	21884
874.464	21991
874.593	22207
874.722	22162
874.851	22090
874.979	22078
875.108	22238
875.237	22154
875.365	21979
875.494	22226
875.623	22246
875.751	22154
875.88	22143
876.008	22253
876.136	22413
876.265	22618
876.393	22634
876.521	22771
876.65	22557
876.778	22550
876.906	22500
877.034	22527
877.162	22398
877.29	22341
877.418	22489
877.546	22538
877.674	22538
877.802	22466
877.93	22466
878.058	22443
878.185	22367
878.313	22512
878.441	22508
878.568	22318
878.696	22432
878.824	22538
878.951	22569
879.079	22592
879.206	22740
879.333	22596
879.461	22630
879.588	22683
879.715	22645
879.842	22744
879.97	22481
880.097	22398
880.224	22249
880.351	22447
880.478	22390
880.605	22356
880.732	22169
880.859	22535
880.986	22322
881.112	22318
881.239	22249
881.366	22044
881.493	22082
881.619	21842
881.746	21983
881.872	21819
881.999	21918
882.125	21629
882.252	21880
882.378	21827
882.505	21991
882.631	21713
882.757	21595
882.883	21606
883.01	21530
883.136	21610
883.262	21511
883.388	21374
883.514	21553
883.64	21720
883.766	21477
883.892	21313
884.018	21389
884.143	21485
884.269	21519
884.395	21298
884.52	21146
884.646	21214
884.772	21249
884.897	21096
885.023	21214
885.148	21351
885.274	21367
885.399	21363
885.524	21203
885.65	21226
885.775	21211
885.9	21161
886.025	21283
886.15	21237
886.275	21192
886.4	21001
886.525	21245
886.65	21184
886.775	21150
886.9	21317
887.025	21431
887.149	21321
887.274	20994
887.399	21089
887.523	20990
887.648	21020
887.773	20857
887.897	20994
888.021	20956
888.146	20910
888.27	20963
888.395	20998
888.519	21020
888.643	20895
888.767	20998
888.891	20861
889.015	20826
889.139	20960
889.263	20765
889.387	20925
889.511	20910
889.635	20929
889.759	20727
889.883	20815
890.006	20781
890.13	20804
890.254	20629
890.377	20667
890.501	20564
890.624	20484
890.748	20602
890.871	20492
890.995	20317
891.118	20237
891.241	20381
891.364	20347
891.488	20339
891.611	20301
891.734	20347
891.857	20290
891.98	20381
892.103	20309
892.226	20244
892.349	20290
892.471	20092
892.594	20164
892.717	20282
892.839	20134
892.962	20271
893.085	20286
893.207	20244
893.33	20206
893.452	20195
893.575	20309
893.697	20214
893.819	20431
893.941	20408
894.064	20412
894.186	20206
894.308	20073
894.43	20206
894.552	20404
894.674	20240
894.796	20187
894.918	20088
895.04	20130
895.161	20252
895.283	20275
895.405	20195
895.526	20237
895.648	20187
895.769	20157
895.891	20206
896.012	20358
896.134	20282
896.255	20298
896.376	20142
896.498	20271
896.619	20374
896.74	20126
896.861	20313
896.982	20336
897.103	20724
897.224	20473
897.345	20454
897.466	20492
897.587	20461
897.708	20549
897.828	20476
897.949	20400
898.07	20271
898.19	20313
898.311	20393
898.431	20294
898.552	20370
898.672	20518
898.792	20465
898.913	20492
899.033	20317
899.153	20278
899.273	20164
899.393	20183
899.513	20240
899.633	20122
899.753	20214
899.873	20142
899.993	20221
900.113	20244
900.232	20142
900.352	20164
900.472	20043
900.591	19909
900.711	19890
900.83	19917
900.95	20096
901.069	20005
901.189	19879
901.308	19502
901.427	19487
901.546	19510
901.665	19537
901.784	19540
901.904	19460
902.023	19232
902.141	19171
902.26	19046
902.379	19137
902.498	19107
902.617	19069
902.735	19069
902.854	19031
902.973	19099
903.091	18726
903.21	18772
903.328	18692
903.446	18589
903.565	18582
903.683	18475
903.801	18319
903.919	18532
904.038	18498
904.156	18311
904.274	18342
904.392	18308
904.51	18228
904.627	18334
904.745	18304
904.863	18403
904.981	18152
905.098	17927
905.216	18019
905.334	18068
905.451	17920
905.569	18026
905.686	17999
905.803	18060
905.921	17745
906.038	17851
906.155	17695
906.272	17657
906.389	17665
906.506	17600
906.623	17497
906.74	17577
906.857	17387
906.974	17516
907.091	17528
907.208	17581
907.324	17474
907.441	17372
907.557	17223
907.674	17258
907.79	17269
907.907	17159
908.023	17284
908.139	17242
908.256	17200
908.372	17140
908.488	17132
908.604	17018
908.72	16991
908.836	16965
908.952	16892
909.068	16968
909.184	17094
909.3	16995
909.415	16892
909.531	16961
909.647	16675
909.762	16771
909.878	16664
909.993	16721
910.108	16599
910.224	16519
910.339	16596
910.454	16508
910.57	16386
910.685	16352
910.8	16577
910.915	16599
911.03	16493
911.145	16314
911.259	16268
911.374	16234
911.489	16230
911.604	16131
911.718	15987
911.833	15991
911.947	15857
912.062	15774
912.176	15850
912.291	15968
912.405	16002
912.519	16082
912.633	16078
912.748	15994
912.862	15975
912.976	15785
913.09	15648
913.204	15778
913.318	15804
913.431	15926
913.545	15861
913.659	15816
913.772	15762
913.886	15568
914	15633
914.113	15686
914.226	15781
914.34	15637
914.453	15526
914.566	15660
914.68	15473
914.793	15374
914.906	15294
915.019	15146
915.132	15112
915.245	15218
915.358	15237
915.47	15127
915.583	15218
915.696	15188
915.809	15321
915.921	15279
916.034	15077
916.146	15100
916.259	15112
916.371	15241
916.483	15157
916.595	15020
916.708	15013
916.82	15062
916.932	15043
917.044	14944
917.156	14864
917.268	14857
917.38	14811
917.491	14849
917.603	14887
917.715	15009
917.826	14937
917.938	14743
918.049	14705
918.161	14845
918.272	14880
918.384	14910
918.495	14739
918.606	14644
918.717	14594
918.828	14705
918.939	14655
919.05	14564
919.161	14636
919.272	14404
919.383	14377
919.494	14712
919.604	14781
919.715	14617
919.826	14473
919.936	14568
920.047	14678
920.157	14556
920.267	14739
920.378	14537
920.488	14606
920.598	14720
920.708	14872
920.818	14746
920.928	14613
921.038	14823
921.148	14830
921.258	14545
921.368	14469
921.477	14328
921.587	14313
921.697	14218
921.806	14366
921.916	14202
922.025	14069
922.134	13951
922.244	13784
922.353	13898
922.462	13887
922.571	13719
922.68	13559
922.789	13567
922.898	13662
923.007	13426
923.116	13639
923.224	13670
923.333	13491
923.442	13434
923.55	13502
923.659	13278
923.767	13495
923.876	13400
923.984	13464
924.092	13339
924.201	13468
924.309	13384
924.417	13304
924.525	13236
924.633	13206
924.741	13951
924.849	13065
924.956	13251
925.064	13095
925.172	12924
925.279	12954
925.387	13000
925.494	13065
925.602	13107
925.709	13095
925.816	12878
925.924	12962
926.031	12989
926.138	12909
926.245	12977
926.352	12875
926.459	12958
926.566	12996
926.673	12856
926.779	12696
926.886	12749
926.993	12532
927.099	12578
927.206	12513
927.312	12513
927.419	12574
927.525	12681
927.631	12578
927.737	12418
927.843	12372
927.95	12273
928.056	12467
928.162	12296
928.267	12445
928.373	13069
928.479	12418
928.585	12247
928.69	12357
928.796	12395
928.901	12266
929.007	12034
929.112	12247
929.218	12178
929.323	12125
929.428	12129
929.533	12251
929.638	12079
929.743	12022
929.848	12140
929.953	11973
930.058	11939
930.163	11775
930.267	11775
930.372	11946
930.477	11752
930.581	12015
930.685	11813
930.79	11570
930.894	11570
930.998	11668
931.103	11809
931.207	11459
931.311	11391
931.415	11261
931.519	10987
931.623	11052
