Data from test_V78500241_1182.txt Node
Date: Fri Mar 25 15:18:05 CST 2022
User: usil
Spectrometer: V785-0024
Trigger mode: 0
Integration Time (sec): 4.000000E-1
Scans to average: 1
Nonlinearity correction enabled: false
Boxcar width: 0
Storing dark spectrum: false
XAxis mode: Wavelengths
Number of Pixels in Spectrum: 1024
>>>>>Begin Spectral Data<<<<<
801.071	27568
801.214	27435
801.356	27176
801.499	27070
801.641	27058
801.783	27070
801.926	27074
802.068	27093
802.211	27085
802.353	26967
802.496	26796
802.638	26712
802.78	26693
802.923	26708
803.065	26442
803.208	26560
803.35	26613
803.492	26731
803.635	26937
803.777	26785
803.919	26804
804.061	27150
804.204	26918
804.346	26754
804.488	26807
804.63	26746
804.773	26861
804.915	26792
805.057	27020
805.199	26872
805.341	26952
805.483	27135
805.626	26876
805.768	26876
805.91	26925
806.052	27017
806.194	26804
806.336	27116
806.478	27005
806.62	26857
806.762	27104
806.904	27173
807.046	27538
807.188	27359
807.33	27458
807.472	27450
807.614	27287
807.756	27374
807.898	27359
808.04	27275
808.182	27306
808.324	27260
808.465	27279
808.607	27507
808.749	27606
808.891	27789
809.033	27690
809.174	27622
809.316	27511
809.458	27660
809.6	27637
809.741	27743
809.883	27762
810.025	27846
810.166	27816
810.308	27793
810.45	27785
810.591	27800
810.733	27739
810.875	27583
811.016	27618
811.158	27507
811.299	27816
811.441	27728
811.582	27743
811.724	27534
811.865	27675
812.007	27576
812.148	27625
812.29	27732
812.431	27709
812.573	27918
812.714	28017
812.855	28223
812.997	28162
813.138	28318
813.279	28284
813.421	28128
813.562	28059
813.703	27918
813.845	27800
813.986	27466
814.127	27401
814.268	27230
814.41	27321
814.551	27222
814.692	27416
814.833	27195
814.974	27100
815.115	27298
815.256	27211
815.397	27123
815.539	27203
815.68	27028
815.821	27013
815.962	27150
816.103	26975
816.244	26960
816.385	26925
816.526	26796
816.666	26727
816.807	26465
816.948	26651
817.089	26693
817.23	26537
817.371	26545
817.512	26629
817.653	26621
817.793	26450
817.934	26590
818.075	26552
818.216	26526
818.356	26617
818.497	26431
818.638	26351
818.778	26233
818.919	26301
819.06	26396
819.2	26606
819.341	26545
819.481	26606
819.622	26617
819.762	26887
819.903	26788
820.043	26678
820.184	26788
820.324	26659
820.465	26800
820.605	26716
820.746	26727
820.886	26613
821.026	26731
821.167	26674
821.307	26785
821.447	26552
821.588	26659
821.728	26537
821.868	26180
822.008	25997
822.149	26050
822.289	26039
822.429	25833
822.569	25780
822.709	25666
822.849	25712
822.99	25571
823.13	25552
823.27	25426
823.41	25343
823.55	25441
823.69	25529
823.83	25426
823.97	25373
824.11	25190
824.25	25110
824.389	25198
824.529	25270
824.669	25251
824.809	25301
824.949	25183
825.089	25396
825.228	25263
825.368	25183
825.508	25050
825.648	25053
825.787	25137
825.927	25088
826.067	24951
826.206	25084
826.346	25148
826.485	25263
826.625	25164
826.765	25148
826.904	25015
827.044	24928
827.183	24734
827.323	24711
827.462	24920
827.601	24829
827.741	24757
827.88	24833
828.02	24627
828.159	24829
828.298	24897
828.437	24867
828.577	24806
828.716	24890
828.855	24681
828.994	24391
829.134	24437
829.273	24772
829.412	24505
829.551	24395
829.69	24528
829.829	24604
829.968	24639
830.107	24525
830.246	24490
830.385	24441
830.524	24353
830.663	24281
830.802	24258
830.941	24110
831.08	23965
831.219	24270
831.357	24201
831.496	24361
831.635	24136
831.774	24049
831.913	24030
832.051	23840
832.19	23901
832.329	24003
832.467	23813
832.606	23687
832.744	23840
832.883	23927
833.022	23855
833.16	23809
833.299	23752
833.437	23840
833.576	23821
833.714	23923
833.852	23828
833.991	24026
834.129	24015
834.267	23965
834.406	23851
834.544	23878
834.682	23885
834.821	23920
834.959	24034
835.097	23828
835.235	23912
835.373	23813
835.511	23973
835.65	23809
835.788	23733
835.926	23672
836.064	23596
836.202	23509
836.34	23790
836.478	23866
836.615	23741
836.753	23794
836.891	23760
837.029	23729
837.167	23680
837.305	23630
837.443	23531
837.58	23539
837.718	23657
837.856	23501
837.993	23581
838.131	23562
838.269	23414
838.406	23577
838.544	23482
838.681	23124
838.819	23235
838.956	23044
839.094	23003
839.231	23090
839.369	23288
839.506	23334
839.643	23212
839.781	23143
839.918	23044
840.055	23147
840.193	23029
840.33	23075
840.467	22957
840.604	23109
840.742	23223
840.879	22900
841.016	22786
841.153	22930
841.29	23166
841.427	23056
841.564	22862
841.701	22892
841.838	22984
841.975	22847
842.112	22919
842.249	22733
842.385	22611
842.522	22843
842.659	22759
842.796	22816
842.933	22744
843.069	22717
843.206	22679
843.343	22809
843.479	22710
843.616	22790
843.752	22577
843.889	22447
844.025	22702
844.162	22455
844.298	22538
844.435	22459
844.571	22443
844.708	22668
844.844	22531
844.98	22725
845.117	22752
845.253	22436
845.389	22344
845.525	22409
845.661	22443
845.798	22147
845.934	22238
846.07	22181
846.206	22280
846.342	22424
846.478	22196
846.614	22105
846.75	22044
846.886	21979
847.022	21972
847.158	22101
847.294	21998
847.429	22013
847.565	21918
847.701	22265
847.837	21736
847.972	21816
848.108	21819
848.244	21785
848.379	21606
848.515	21618
848.65	21530
848.786	21625
848.921	21682
849.057	21633
849.192	21660
849.328	21644
849.463	21652
849.598	21458
849.734	21447
849.869	21332
850.004	21431
850.14	21408
850.275	21401
850.41	21348
850.545	21329
850.68	21435
850.815	21321
850.95	21348
851.085	21568
851.22	21431
851.355	21359
851.49	21378
851.625	21306
851.76	21264
851.895	21260
852.03	21363
852.165	21367
852.299	21218
852.434	21534
852.569	21359
852.703	21393
852.838	21412
852.973	21450
853.107	21420
853.242	21325
853.376	21222
853.511	21089
853.645	21161
853.78	21237
853.914	21207
854.048	21230
854.183	21161
854.317	21135
854.451	21443
854.585	21104
854.72	21161
854.854	21180
854.988	21070
855.122	21119
855.256	21017
855.39	21093
855.524	21207
855.658	21218
855.792	21127
855.926	21306
856.06	21207
856.194	21252
856.327	21214
856.461	21146
856.595	21104
856.729	21150
856.862	21283
856.996	21127
857.13	21226
857.263	21279
857.397	21203
857.53	21154
857.664	21203
857.797	21203
857.931	21317
858.064	21192
858.197	21313
858.331	21138
858.464	21173
858.597	21081
858.731	21127
858.864	21138
858.997	21108
859.13	21203
859.263	21123
859.396	21275
859.529	21142
859.662	21081
859.795	21135
859.928	21218
860.061	21420
860.194	21321
860.327	21306
860.46	21313
860.592	21317
860.725	21302
860.858	21348
860.99	21245
861.123	21009
861.256	21138
861.388	21081
861.521	21983
861.653	21013
861.786	20952
861.918	21055
862.05	21047
862.183	21051
862.315	21047
862.447	21222
862.58	21203
862.712	20948
862.844	20876
862.976	21032
863.108	21074
863.24	21264
863.372	20918
863.504	20804
863.636	20883
863.768	20910
863.9	20948
864.032	20739
864.164	20826
864.296	21024
864.428	20998
864.559	20842
864.691	20960
864.823	20887
864.954	20853
865.086	20849
865.217	20781
865.349	20629
865.48	20815
865.612	20701
865.743	20792
865.875	20781
866.006	20864
866.137	20640
866.269	20705
866.4	20705
866.531	20606
866.662	20735
866.793	20762
866.924	20724
867.055	20678
867.186	20625
867.317	20804
867.448	20648
867.579	20720
867.71	20526
867.841	20705
867.972	20686
868.103	20712
868.233	20693
868.364	20823
868.495	20838
868.625	20982
868.756	21108
868.886	20880
869.017	20876
869.147	21119
869.278	21104
869.408	20883
869.539	21024
869.669	21032
869.799	21013
869.929	21062
870.06	21127
870.19	21291
870.32	21245
870.45	21237
870.58	21287
870.71	21595
870.84	21405
870.97	21317
871.1	21408
871.23	21622
871.36	21553
871.489	21405
871.619	21572
871.749	21591
871.879	21701
872.008	21652
872.138	21534
872.267	21530
872.397	21485
872.526	21348
872.656	21317
872.785	21462
872.915	21538
873.044	21633
873.173	21370
873.303	21534
873.432	21523
873.561	21641
873.69	21603
873.819	21485
873.948	21564
874.077	21568
874.206	21564
874.335	21561
874.464	21656
874.593	21812
874.722	21717
874.851	21762
874.979	21766
875.108	21915
875.237	21819
875.365	21671
875.494	21686
875.623	21972
875.751	21663
875.88	21743
876.008	22044
876.136	21926
876.265	22261
876.393	22272
876.521	22249
876.65	22196
876.778	22226
876.906	22074
877.034	22044
877.162	22124
877.29	22097
877.418	22139
877.546	22299
877.674	22139
877.802	22242
877.93	22086
878.058	22204
878.185	22017
878.313	22226
878.441	22105
878.568	21888
878.696	22063
878.824	22192
878.951	22120
879.079	22348
879.206	22413
879.333	22249
879.461	22135
879.588	22249
879.715	22287
879.842	22337
879.97	22223
880.097	21964
880.224	22074
880.351	22067
880.478	22006
880.605	21907
880.732	22002
880.859	22257
880.986	21915
881.112	21979
881.239	21930
881.366	21694
881.493	21606
881.619	21572
881.746	21542
881.872	21587
881.999	21637
882.125	21420
882.252	21633
882.378	21542
882.505	21652
882.631	21367
882.757	21222
882.883	21401
883.01	21226
883.136	21184
883.262	21077
883.388	20967
883.514	21256
883.64	21241
883.766	21039
883.892	21039
884.018	21093
884.143	21222
884.269	21256
884.395	21062
884.52	20933
884.646	20800
884.772	20830
884.897	20743
885.023	20937
885.148	20891
885.274	21119
885.399	20826
885.524	20975
885.65	20891
885.775	20834
885.9	20914
886.025	21036
886.15	21047
886.275	20982
886.4	20739
886.525	20880
886.65	20853
886.775	20754
886.9	20933
887.025	20998
887.149	20872
887.274	20640
887.399	20670
887.523	20621
887.648	20514
887.773	20617
887.897	20735
888.021	20663
888.146	20590
888.27	20746
888.395	20735
888.519	20724
888.643	20746
888.767	20750
888.891	20583
889.015	20484
889.139	20518
889.263	20423
889.387	20617
889.511	20762
889.635	20511
889.759	20446
889.883	20511
890.006	20320
890.13	20564
890.254	20366
890.377	20358
890.501	20138
890.624	20206
890.748	20271
890.871	20187
890.995	19989
891.118	19936
891.241	20077
891.364	20046
891.488	20142
891.611	19959
891.734	20096
891.857	20122
891.98	20031
892.103	19989
892.226	19986
892.349	19932
892.471	19826
892.594	19925
892.717	19986
892.839	19822
892.962	19940
893.085	19951
893.207	19944
893.33	19723
893.452	19868
893.575	20084
893.697	19940
893.819	20046
893.941	20005
894.064	19974
894.186	19864
894.308	19875
894.43	19928
894.552	19974
894.674	20054
894.796	19807
894.918	19917
895.04	19864
895.161	19963
895.283	20005
895.405	19864
895.526	19906
895.648	19936
895.769	20001
895.891	19947
896.012	19997
896.134	19841
896.255	19928
896.376	19818
896.498	19986
896.619	19997
896.74	19898
896.861	20077
896.982	20271
897.103	20336
897.224	20237
897.345	20046
897.466	20096
897.587	20206
897.708	20248
897.828	20286
897.949	20126
898.07	20035
898.19	20130
898.311	20210
898.431	20081
898.552	20214
898.672	20126
898.792	20256
898.913	20145
899.033	20084
899.153	19799
899.273	19875
899.393	19902
899.513	19978
899.633	19830
899.753	20100
899.873	19811
899.993	19887
900.113	19856
900.232	19921
900.352	19807
900.472	19677
900.591	19689
900.711	19765
900.83	19578
900.95	19833
901.069	19761
901.189	19613
901.308	19506
901.427	19297
901.546	19278
901.665	19381
901.784	19304
901.904	19065
902.023	18993
902.141	18837
902.26	18829
902.379	18703
902.498	18715
902.617	18875
902.735	18768
902.854	18768
902.973	18589
903.091	18555
903.21	18429
903.328	18395
903.446	18342
903.565	18254
903.683	18266
903.801	18087
903.919	18194
904.038	18174
904.156	18026
904.274	18171
904.392	17942
904.51	17969
904.627	18030
904.745	18038
904.863	18117
904.981	17851
905.098	17786
905.216	17779
905.334	17805
905.451	17824
905.569	17680
905.686	17764
905.803	17790
905.921	17524
906.038	17691
906.155	17573
906.272	17334
906.389	17497
906.506	17360
906.623	17189
906.74	17235
906.857	17140
906.974	17121
907.091	17387
907.208	17250
907.324	17326
907.441	17166
907.557	17014
907.674	16961
907.79	16869
907.907	16892
908.023	16892
908.139	16927
908.256	16812
908.372	16942
908.488	16877
908.604	16736
908.72	16672
908.836	16675
908.952	16660
909.068	16702
909.184	16660
909.3	16599
909.415	16611
909.531	16729
909.647	16451
909.762	16424
909.878	16386
909.993	16413
910.108	16363
910.224	16367
910.339	16352
910.454	16200
910.57	16143
910.685	16124
910.8	16337
910.915	16394
911.03	16276
911.145	16059
911.259	16029
911.374	15960
911.489	15998
911.604	15888
911.718	15739
911.833	15888
911.947	15644
912.062	15515
912.176	15720
912.291	15736
912.405	15709
912.519	15804
912.633	15903
912.748	15709
912.862	15743
912.976	15530
913.09	15321
913.204	15511
913.318	15469
913.431	15701
913.545	15561
913.659	15629
913.772	15515
913.886	15370
914	15279
914.113	15454
914.226	15481
914.34	15443
914.453	15294
914.566	15435
914.68	15207
914.793	15313
914.906	14971
915.019	15036
915.132	14918
915.245	15020
915.358	15001
915.47	14990
915.583	15017
915.696	14902
915.809	15062
915.921	15074
916.034	14921
916.146	14948
916.259	14830
916.371	14937
916.483	14937
916.595	14781
916.708	14777
916.82	14754
916.932	14689
917.044	14788
917.156	14705
917.268	14552
917.38	14712
917.491	14575
917.603	14552
917.715	14731
917.826	14632
917.938	14625
918.049	14450
918.161	14560
918.272	14693
918.384	14758
918.495	14598
918.606	14404
918.717	14290
918.828	14347
918.939	14301
919.05	14347
919.161	14358
919.272	14218
919.383	14183
919.494	14442
919.604	14568
919.715	14377
919.826	14214
919.936	14377
920.047	14423
920.157	14305
920.267	14385
920.378	14415
920.488	14275
920.598	14484
920.708	14689
920.818	14518
920.928	14469
921.038	14640
921.148	14571
921.258	14248
921.368	14233
921.477	14058
921.587	14092
921.697	13978
921.806	14084
921.916	13951
922.025	13921
922.134	13700
922.244	13666
922.353	13731
922.462	13540
922.571	13537
922.68	13346
922.789	13369
922.898	13381
923.007	13301
923.116	13377
923.224	13426
923.333	13274
923.442	13270
923.55	13202
923.659	13251
923.767	13301
923.876	13061
923.984	13225
924.092	13095
924.201	13129
924.309	13145
924.417	13091
924.525	13019
924.633	13038
924.741	13902
924.849	12844
924.956	13031
925.064	12966
925.172	12837
925.279	12817
925.387	12863
925.494	12810
925.602	12962
925.709	12840
925.816	12791
925.924	12692
926.031	12821
926.138	12783
926.245	12867
926.352	12700
926.459	12711
926.566	12859
926.673	12707
926.779	12711
926.886	12612
926.993	12380
927.099	12365
927.206	12399
927.312	12380
927.419	12494
927.525	12414
927.631	12418
927.737	12277
927.843	12243
927.95	12205
928.056	12220
928.162	12251
928.267	12334
928.373	12768
928.479	12437
928.585	12038
928.69	12171
928.796	12270
928.901	12136
929.007	12049
929.112	12057
929.218	12087
929.323	12068
929.428	12041
929.533	12026
929.638	11920
929.743	11885
929.848	11977
929.953	11866
930.058	11809
930.163	11634
930.267	11623
930.372	11805
930.477	11608
930.581	11828
930.685	11676
930.79	11512
930.894	11577
930.998	11566
931.103	11558
931.207	11235
931.311	11239
931.415	11140
931.519	10927
931.623	11003
