Data from test_V78500241_480.txt Node
Date: Fri Mar 25 15:13:12 CST 2022
User: usil
Spectrometer: V785-0024
Trigger mode: 0
Integration Time (sec): 4.000000E-1
Scans to average: 1
Nonlinearity correction enabled: false
Boxcar width: 0
Storing dark spectrum: false
XAxis mode: Wavelengths
Number of Pixels in Spectrum: 1024
>>>>>Begin Spectral Data<<<<<
801.071	27466
801.214	27450
801.356	27119
801.499	27131
801.641	27058
801.783	27062
801.926	26975
802.068	26883
802.211	26785
802.353	26769
802.496	26602
802.638	26629
802.78	26731
802.923	26625
803.065	26366
803.208	26533
803.35	26514
803.492	26583
803.635	26819
803.777	26613
803.919	26872
804.061	27142
804.204	26826
804.346	26716
804.488	26686
804.63	26724
804.773	26834
804.915	26727
805.057	26906
805.199	26724
805.341	26849
805.483	26883
805.626	26853
805.768	26716
805.91	26830
806.052	26735
806.194	26750
806.336	27218
806.478	26944
806.62	27009
806.762	27116
806.904	27047
807.046	27397
807.188	27420
807.33	27317
807.472	27431
807.614	27203
807.756	27256
807.898	27093
808.04	27070
808.182	27108
808.324	27112
808.465	27127
808.607	27256
808.749	27450
808.891	27496
809.033	27641
809.174	27469
809.316	27507
809.458	27378
809.6	27595
809.741	27633
809.883	27610
810.025	27808
810.166	27720
810.308	27842
810.45	27759
810.591	27724
810.733	27466
810.875	27679
811.016	27431
811.158	27458
811.299	27530
811.441	27618
811.582	27625
811.724	27458
811.865	27325
812.007	27363
812.148	27568
812.29	27530
812.431	27671
812.573	27926
812.714	27861
812.855	27911
812.997	28025
813.138	28306
813.279	28147
813.421	28013
813.562	27987
813.703	27895
813.845	27671
813.986	27359
814.127	27401
814.268	27249
814.41	27226
814.551	27161
814.692	27207
814.833	27081
814.974	27104
815.115	27138
815.256	27005
815.397	27009
815.539	27131
815.68	26868
815.821	26864
815.962	27020
816.103	26781
816.244	26697
816.385	26659
816.526	26617
816.666	26492
816.807	26450
816.948	26587
817.089	26598
817.23	26480
817.371	26499
817.512	26480
817.653	26286
817.793	26446
817.934	26492
818.075	26461
818.216	26347
818.356	26412
818.497	26358
818.638	26096
818.778	26142
818.919	26320
819.06	26180
819.2	26309
819.341	26286
819.481	26492
819.622	26564
819.762	26781
819.903	26644
820.043	26667
820.184	26686
820.324	26568
820.465	26590
820.605	26469
820.746	26568
820.886	26339
821.026	26469
821.167	26400
821.307	26499
821.447	26453
821.588	26438
821.728	26058
821.868	26069
822.008	25966
822.149	25951
822.289	25826
822.429	25689
822.569	25567
822.709	25727
822.849	25552
822.99	25468
823.13	25388
823.27	25369
823.41	25148
823.55	25061
823.69	25202
823.83	25175
823.97	25042
824.11	25091
824.25	24905
824.389	24954
824.529	25027
824.669	25027
824.809	25209
824.949	25156
825.089	25114
825.228	24901
825.368	24878
825.508	24909
825.648	24837
825.787	24833
825.927	25046
826.067	24859
826.206	24947
826.346	24939
826.485	24894
826.625	24939
826.765	24935
826.904	24867
827.044	24696
827.183	24730
827.323	24555
827.462	24631
827.601	24540
827.741	24521
827.88	24719
828.02	24585
828.159	24467
828.298	24677
828.437	24631
828.577	24559
828.716	24745
828.855	24551
828.994	24292
829.134	24319
829.273	24391
829.412	24239
829.551	24247
829.69	24232
829.829	24372
829.968	24475
830.107	24338
830.246	24346
830.385	24251
830.524	24262
830.663	24098
830.802	24064
830.941	23847
831.08	23973
831.219	23950
831.357	23992
831.496	24098
831.635	23950
831.774	24003
831.913	23912
832.051	23767
832.19	23832
832.329	23961
832.467	23646
832.606	23714
832.744	23592
832.883	23649
833.022	23630
833.16	23596
833.299	23649
833.437	23653
833.576	23767
833.714	23843
833.852	23824
833.991	23699
834.129	23775
834.267	23707
834.406	23779
834.544	23760
834.682	23634
834.821	23729
834.959	23771
835.097	23657
835.235	23657
835.373	23737
835.511	23798
835.65	23592
835.788	23585
835.926	23387
836.064	23379
836.202	23440
836.34	23638
836.478	23589
836.615	23406
836.753	23444
836.891	23581
837.029	23543
837.167	23505
837.305	23277
837.443	23463
837.58	23448
837.718	23478
837.856	23402
837.993	23341
838.131	23467
838.269	23299
838.406	23269
838.544	23170
838.681	23094
838.819	23014
838.956	22866
839.094	22896
839.231	22927
839.369	23132
839.506	23261
839.643	23102
839.781	22869
839.918	22721
840.055	22885
840.193	22828
840.33	22858
840.467	22915
840.604	22919
840.742	23056
840.879	22767
841.016	22801
841.153	22752
841.29	22759
841.427	22729
841.564	22805
841.701	22744
841.838	22687
841.975	22736
842.112	22645
842.249	22519
842.385	22535
842.522	22736
842.659	22599
842.796	22573
842.933	22596
843.069	22645
843.206	22542
843.343	22649
843.479	22493
843.616	22596
843.752	22341
843.889	22352
844.025	22554
844.162	22325
844.298	22493
844.435	22375
844.571	22162
844.708	22413
844.844	22481
844.98	22485
845.117	22352
845.253	22230
845.389	22276
845.525	22246
845.661	22200
845.798	22029
845.934	22082
846.07	22067
846.206	22139
846.342	22074
846.478	21892
846.614	21930
846.75	21789
846.886	21759
847.022	21968
847.158	21861
847.294	21911
847.429	21873
847.565	21751
847.701	22017
847.837	21671
847.972	21557
848.108	21614
848.244	21526
848.379	21477
848.515	21374
848.65	21329
848.786	21332
848.921	21447
849.057	21435
849.192	21606
849.328	21447
849.463	21355
849.598	21268
849.734	21306
849.869	21230
850.004	21272
850.14	21119
850.275	21199
850.41	21100
850.545	21013
850.68	21214
850.815	21241
850.95	21135
851.085	21298
851.22	21199
851.355	21062
851.49	21100
851.625	21195
851.76	21017
851.895	21112
852.03	21001
852.165	21112
852.299	21165
852.434	21275
852.569	21184
852.703	21173
852.838	21169
852.973	21264
853.107	21283
853.242	21154
853.376	21005
853.511	20971
853.645	20921
853.78	21112
853.914	21096
854.048	20941
854.183	20933
854.317	21024
854.451	21199
854.585	20975
854.72	20948
854.854	21192
854.988	20994
855.122	20906
855.256	20804
855.39	20956
855.524	21039
855.658	21032
855.792	21127
855.926	20929
856.06	21028
856.194	21119
856.327	20826
856.461	21028
856.595	20982
856.729	20952
856.862	21062
856.996	20925
857.13	21135
857.263	21096
857.397	21089
857.53	20971
857.664	21127
857.797	20979
857.931	21096
858.064	20975
858.197	21074
858.331	20933
858.464	20963
858.597	20845
858.731	20979
858.864	20963
858.997	20902
859.13	21017
859.263	20944
859.396	20979
859.529	21051
859.662	20952
859.795	20914
859.928	20941
860.061	21100
860.194	21203
860.327	20921
860.46	20998
860.592	21100
860.725	21218
860.858	21051
860.99	21055
861.123	20967
861.256	20842
861.388	21005
861.521	21610
861.653	20773
861.786	20743
861.918	20781
862.05	20777
862.183	20902
862.315	20933
862.447	20941
862.58	20864
862.712	20667
862.844	20594
862.976	20842
863.108	20758
863.24	21165
863.372	20629
863.504	20777
863.636	20689
863.768	20731
863.9	20754
864.032	20583
864.164	20587
864.296	20735
864.428	20838
864.559	20785
864.691	20640
864.823	20864
864.954	20613
865.086	20648
865.217	20636
865.349	20590
865.48	20636
865.612	20560
865.743	20739
865.875	20716
866.006	20541
866.137	20537
866.269	20568
866.4	20484
866.531	20511
866.662	20587
866.793	20598
866.924	20503
867.055	20492
867.186	20602
867.317	20522
867.448	20446
867.579	20564
867.71	20533
867.841	20377
867.972	20476
868.103	20488
868.233	20537
868.364	20526
868.495	20594
868.625	20682
868.756	20948
868.886	20712
869.017	20648
869.147	20842
869.278	21051
869.408	20823
869.539	20788
869.669	20781
869.799	20849
869.929	20849
870.06	20864
870.19	20948
870.32	20986
870.45	21173
870.58	21321
870.71	21272
870.84	21138
870.97	21218
871.1	21074
871.23	21268
871.36	21344
871.489	21329
871.619	21298
871.749	21408
871.879	21534
872.008	21485
872.138	21466
872.267	21370
872.397	21386
872.526	21108
872.656	21192
872.785	21389
872.915	21298
873.044	21504
873.173	21466
873.303	21416
873.432	21348
873.561	21591
873.69	21496
873.819	21344
873.948	21515
874.077	21374
874.206	21420
874.335	21401
874.464	21481
874.593	21618
874.722	21641
874.851	21686
874.979	21732
875.108	21774
875.237	21675
875.365	21515
875.494	21641
875.623	21663
875.751	21610
875.88	21583
876.008	21728
876.136	21804
876.265	22006
876.393	22185
876.521	22109
876.65	22109
876.778	21983
876.906	21937
877.034	21960
877.162	22017
877.29	21934
877.418	22010
877.546	21975
877.674	22067
877.802	21930
877.93	22002
878.058	21979
878.185	21998
878.313	22010
878.441	21838
878.568	21835
878.696	22002
878.824	21964
878.951	22192
879.079	22169
879.206	22314
879.333	22173
879.461	21994
879.588	22048
879.715	22051
879.842	22112
879.97	22029
880.097	21835
880.224	21846
880.351	21709
880.478	21774
880.605	21793
880.732	21781
880.859	22067
880.986	21846
881.112	21892
881.239	21675
881.366	21564
881.493	21447
881.619	21397
881.746	21416
881.872	21393
881.999	21256
882.125	21306
882.252	21260
882.378	21233
882.505	21625
882.631	21298
882.757	21157
882.883	21146
883.01	21135
883.136	20994
883.262	20880
883.388	20880
883.514	21020
883.64	21131
883.766	20963
883.892	20826
884.018	20902
884.143	21020
884.269	21093
884.395	20792
884.52	20648
884.646	20845
884.772	20785
884.897	20815
885.023	20819
885.148	20845
885.274	20849
885.399	20781
885.524	20678
885.65	20701
885.775	20788
885.9	20678
886.025	20682
886.15	20925
886.275	20689
886.4	20625
886.525	20762
886.65	20636
886.775	20583
886.9	20864
887.025	20880
887.149	20773
887.274	20518
887.399	20438
887.523	20579
887.648	20415
887.773	20427
887.897	20590
888.021	20590
888.146	20461
888.27	20571
888.395	20492
888.519	20522
888.643	20598
888.767	20575
888.891	20400
889.015	20320
889.139	20339
889.263	20328
889.387	20362
889.511	20526
889.635	20461
889.759	20271
889.883	20298
890.006	20195
890.13	20412
890.254	20221
890.377	20301
890.501	20096
890.624	20119
890.748	20157
890.871	19963
890.995	19841
891.118	19830
891.241	19947
891.364	19970
891.488	19963
891.611	19898
891.734	19875
891.857	19944
891.98	19860
892.103	19875
892.226	19902
892.349	19837
892.471	19738
892.594	19799
892.717	19826
892.839	19746
892.962	19894
893.085	19928
893.207	19746
893.33	19727
893.452	19826
893.575	19795
893.697	19727
893.819	19887
893.941	19963
894.064	19894
894.186	19746
894.308	19643
894.43	19860
894.552	19841
894.674	19944
894.796	19712
894.918	19704
895.04	19746
895.161	19928
895.283	19925
895.405	19700
895.526	19818
895.648	19803
895.769	19841
895.891	19833
896.012	19921
896.134	19833
896.255	19887
896.376	19719
896.498	19715
896.619	19852
896.74	19826
896.861	19841
896.982	20183
897.103	20240
897.224	20126
897.345	20088
897.466	19944
897.587	20005
897.708	20092
897.828	20054
897.949	19871
898.07	19772
898.19	19989
898.311	20103
898.431	19963
898.552	19955
898.672	20134
898.792	20046
898.913	20016
899.033	19868
899.153	19868
899.273	19670
899.393	19696
899.513	19753
899.633	19803
899.753	19913
899.873	19738
899.993	19780
900.113	19628
900.232	19723
900.352	19696
900.472	19632
900.591	19449
900.711	19502
900.83	19411
900.95	19567
901.069	19712
901.189	19426
901.308	19141
901.427	19187
901.546	19107
901.665	19194
901.784	19145
901.904	19031
902.023	19061
902.141	18779
902.26	18692
902.379	18749
902.498	18654
902.617	18635
902.735	18639
902.854	18658
902.973	18547
903.091	18369
903.21	18414
903.328	18327
903.446	18205
903.565	18174
903.683	18174
903.801	17958
903.919	18060
904.038	18144
904.156	17958
904.274	18022
904.392	17889
904.51	17916
904.627	17809
904.745	17942
904.863	17859
904.981	17783
905.098	17638
905.216	17619
905.334	17570
905.451	17733
905.569	17543
905.686	17600
905.803	17543
905.921	17398
906.038	17512
906.155	17315
906.272	17315
906.389	17258
906.506	17109
906.623	17273
906.74	17048
906.857	17029
906.974	17003
907.091	17143
907.208	17242
907.324	17105
907.441	16946
907.557	16911
907.674	16858
907.79	16831
907.907	16953
908.023	16797
908.139	16828
908.256	16752
908.372	16767
908.488	16786
908.604	16580
908.72	16504
908.836	16535
908.952	16523
909.068	16683
909.184	16558
909.3	16569
909.415	16622
909.531	16607
909.647	16413
909.762	16299
909.878	16158
909.993	16249
910.108	16238
910.224	16226
910.339	16287
910.454	16204
910.57	16177
910.685	16036
910.8	16249
910.915	16253
911.03	16040
911.145	15911
911.259	15827
911.374	15960
911.489	15751
911.604	15739
911.718	15633
911.833	15633
911.947	15515
912.062	15370
912.176	15610
912.291	15641
912.405	15545
912.519	15751
912.633	15762
912.748	15728
912.862	15542
912.976	15450
913.09	15294
913.204	15332
913.318	15405
913.431	15481
913.545	15393
913.659	15507
913.772	15405
913.886	15241
914	15272
914.113	15283
914.226	15416
914.34	15313
914.453	15112
914.566	15241
914.68	15218
914.793	15093
914.906	14956
915.019	14857
915.132	14796
915.245	14861
915.358	14891
915.47	14861
915.583	14899
915.696	14834
915.809	14937
915.921	14975
916.034	14712
916.146	14773
916.259	14689
916.371	14876
916.483	14796
916.595	14686
916.708	14651
916.82	14689
916.932	14644
917.044	14610
917.156	14575
917.268	14469
917.38	14571
917.491	14587
917.603	14511
917.715	14545
917.826	14564
917.938	14309
918.049	14351
918.161	14480
918.272	14617
918.384	14480
918.495	14469
918.606	14290
918.717	14172
918.828	14263
918.939	14381
919.05	14172
919.161	14221
919.272	13921
919.383	14142
919.494	14259
919.604	14522
919.715	14313
919.826	14123
919.936	14259
920.047	14290
920.157	14275
920.267	14404
920.378	14218
920.488	14199
920.598	14442
920.708	14549
920.818	14431
920.928	14377
921.038	14587
921.148	14484
921.258	14176
921.368	14084
921.477	14001
921.587	14012
921.697	13791
921.806	14084
921.916	13822
922.025	13662
922.134	13696
922.244	13685
922.353	13685
922.462	13460
922.571	13468
922.68	13346
922.789	13232
922.898	13251
923.007	13240
923.116	13327
923.224	13270
923.333	13221
923.442	13168
923.55	13095
923.659	13126
923.767	13175
923.876	13065
923.984	13187
924.092	12989
924.201	13004
924.309	13008
924.417	13069
924.525	12890
924.633	13015
924.741	13928
924.849	12749
924.956	12848
925.064	12798
925.172	12688
925.279	12715
925.387	12673
925.494	12639
925.602	12840
925.709	12821
925.816	12608
925.924	12639
926.031	12741
926.138	12696
926.245	12734
926.352	12616
926.459	12700
926.566	12719
926.673	12604
926.779	12433
926.886	12464
926.993	12334
927.099	12308
927.206	12262
927.312	12304
927.419	12369
927.525	12213
927.631	12346
927.737	12228
927.843	12167
927.95	12098
928.056	12098
928.162	12220
928.267	12258
928.373	12582
928.479	12262
928.585	11931
928.69	12060
928.796	12117
928.901	11988
929.007	11813
929.112	12049
929.218	11980
929.323	11942
929.428	11870
929.533	11996
929.638	11813
929.743	11813
929.848	11798
929.953	11764
930.058	11764
930.163	11433
930.267	11570
930.372	11676
930.477	11512
930.581	11726
930.685	11592
930.79	11440
930.894	11501
930.998	11448
931.103	11554
931.207	11121
931.311	11147
931.415	11018
931.519	10831
931.623	10862
