Data from test_V78500241_3354.txt Node
Date: Fri Mar 25 15:33:13 CST 2022
User: usil
Spectrometer: V785-0024
Trigger mode: 0
Integration Time (sec): 4.000000E-1
Scans to average: 1
Nonlinearity correction enabled: false
Boxcar width: 0
Storing dark spectrum: false
XAxis mode: Wavelengths
Number of Pixels in Spectrum: 1024
>>>>>Begin Spectral Data<<<<<
801.071	27169
801.214	27116
801.356	26979
801.499	26838
801.641	26731
801.783	26758
801.926	26758
802.068	26644
802.211	26613
802.353	26511
802.496	26400
802.638	26275
802.78	26221
802.923	26229
803.065	26237
803.208	26237
803.35	26366
803.492	26370
803.635	26499
803.777	26336
803.919	26541
804.061	26712
804.204	26484
804.346	26438
804.488	26423
804.63	26434
804.773	26294
804.915	26503
805.057	26590
805.199	26343
805.341	26488
805.483	26522
805.626	26678
805.768	26499
805.91	26598
806.052	26518
806.194	26518
806.336	26621
806.478	26590
806.62	26457
806.762	26727
806.904	26864
807.046	26975
807.188	27013
807.33	27096
807.472	27150
807.614	26944
807.756	26967
807.898	26804
808.04	26724
808.182	26651
808.324	26800
808.465	26887
808.607	26994
808.749	27081
808.891	27157
809.033	27412
809.174	27291
809.316	27112
809.458	27047
809.6	27146
809.741	27192
809.883	27188
810.025	27344
810.166	27557
810.308	27557
810.45	27583
810.591	27283
810.733	27180
810.875	27039
811.016	27100
811.158	27043
811.299	27386
811.441	27313
811.582	27363
811.724	27180
811.865	27222
812.007	27051
812.148	27142
812.29	27192
812.431	27272
812.573	27325
812.714	27526
812.855	27580
812.997	27682
813.138	27835
813.279	27766
813.421	27732
813.562	27576
813.703	27443
813.845	27332
813.986	27112
814.127	26895
814.268	26933
814.41	26823
814.551	26792
814.692	26800
814.833	26754
814.974	26651
815.115	26750
815.256	26617
815.397	26533
815.539	26693
815.68	26552
815.821	26575
815.962	26552
816.103	26511
816.244	26313
816.385	26355
816.526	26229
816.666	26180
816.807	26115
816.948	26130
817.089	26134
817.23	26016
817.371	26221
817.512	26001
817.653	25986
817.793	26043
817.934	26058
818.075	26081
818.216	26062
818.356	26073
818.497	25928
818.638	25837
818.778	25750
818.919	25693
819.06	25940
819.2	25890
819.341	25959
819.481	26073
819.622	26111
819.762	26560
819.903	26355
820.043	26183
820.184	26172
820.324	26119
820.465	26149
820.605	26180
820.746	26073
820.886	25947
821.026	26058
821.167	26111
821.307	26294
821.447	25993
821.588	25883
821.728	25799
821.868	25700
822.008	25537
822.149	25521
822.289	25407
822.429	25278
822.569	25221
822.709	25099
822.849	25057
822.99	24909
823.13	25012
823.27	24947
823.41	24833
823.55	24745
823.69	24913
823.83	24779
823.97	24726
824.11	24593
824.25	24688
824.389	24696
824.529	24753
824.669	24741
824.809	24677
824.949	24711
825.089	24734
825.228	24620
825.368	24505
825.508	24585
825.648	24585
825.787	24654
825.927	24486
826.067	24513
826.206	24441
826.346	24646
826.485	24521
826.625	24498
826.765	24661
826.904	24479
827.044	24239
827.183	24270
827.323	24209
827.462	24270
827.601	24171
827.741	24174
827.88	24270
828.02	24167
828.159	24110
828.298	24190
828.437	24418
828.577	24072
828.716	24270
828.855	24186
828.994	24049
829.134	23942
829.273	24076
829.412	23779
829.551	23931
829.69	24011
829.829	23977
829.968	24030
830.107	24076
830.246	23935
830.385	24038
830.524	23813
830.663	23756
830.802	23703
830.941	23608
831.08	23433
831.219	23577
831.357	23684
831.496	23794
831.635	23653
831.774	23395
831.913	23444
832.051	23421
832.19	23368
832.329	23395
832.467	23185
832.606	23178
832.744	23155
832.883	23280
833.022	23166
833.16	23303
833.299	23231
833.437	23235
833.576	23372
833.714	23349
833.852	23433
833.991	23360
834.129	23402
834.267	23246
834.406	23334
834.544	23296
834.682	23345
834.821	23204
834.959	23516
835.097	23318
835.235	23452
835.373	23379
835.511	23265
835.65	23231
835.788	23189
835.926	23025
836.064	22946
836.202	22987
836.34	23128
836.478	23273
836.615	23185
836.753	23003
836.891	23189
837.029	23162
837.167	23102
837.305	23010
837.443	23033
837.58	22900
837.718	23166
837.856	23033
837.993	22995
838.131	22968
838.269	22831
838.406	22896
838.544	22816
838.681	22702
838.819	22664
838.956	22485
839.094	22512
839.231	22512
839.369	22577
839.506	22873
839.643	22748
839.781	22500
839.918	22413
840.055	22485
840.193	22440
840.33	22344
840.467	22402
840.604	22462
840.742	22664
840.879	22249
841.016	22367
841.153	22432
841.29	22523
841.427	22394
841.564	22630
841.701	22504
841.838	22257
841.975	22341
842.112	22341
842.249	22211
842.385	22261
842.522	22272
842.659	22382
842.796	22185
842.933	22249
843.069	22169
843.206	22105
843.343	22207
843.479	22200
843.616	22299
843.752	21911
843.889	21903
844.025	22105
844.162	22029
844.298	22002
844.435	21850
844.571	21880
844.708	22036
844.844	22147
844.98	22116
845.117	22055
845.253	21994
845.389	21762
845.525	21857
845.661	21842
845.798	21717
845.934	21804
846.07	21709
846.206	21717
846.342	21823
846.478	21717
846.614	21549
846.75	21401
846.886	21382
847.022	21610
847.158	21477
847.294	21420
847.429	21450
847.565	21492
847.701	21698
847.837	21283
847.972	21104
848.108	21230
848.244	21275
848.379	21123
848.515	21127
848.65	20975
848.786	20963
848.921	21096
849.057	21001
849.192	21081
849.328	21043
849.463	21100
849.598	21108
849.734	20929
849.869	20906
850.004	20777
850.14	20792
850.275	20823
850.41	20735
850.545	20716
850.68	20716
850.815	20758
850.95	20929
851.085	20967
851.22	21066
851.355	20697
851.49	20792
851.625	20788
851.76	20762
851.895	20667
852.03	20788
852.165	20765
852.299	20735
852.434	20971
852.569	20727
852.703	20777
852.838	20929
852.973	21051
853.107	20925
853.242	20750
853.376	20594
853.511	20541
853.645	20480
853.78	20731
853.914	20659
854.048	20667
854.183	20587
854.317	20598
854.451	20826
854.585	20720
854.72	20632
854.854	20659
854.988	20602
855.122	20765
855.256	20655
855.39	20564
855.524	20739
855.658	20667
855.792	20575
855.926	20663
856.06	20781
856.194	20655
856.327	20648
856.461	20530
856.595	20587
856.729	20659
856.862	20701
856.996	20609
857.13	20670
857.263	20758
857.397	20670
857.53	20609
857.664	20663
857.797	20655
857.931	20777
858.064	20689
858.197	20720
858.331	20697
858.464	20564
858.597	20617
858.731	20568
858.864	20629
858.997	20613
859.13	20712
859.263	20823
859.396	20823
859.529	20648
859.662	20602
859.795	20621
859.928	20655
860.061	20826
860.194	20754
860.327	20891
860.46	20682
860.592	20819
860.725	20762
860.858	20739
860.99	20705
861.123	20560
861.256	20522
861.388	20602
861.521	21378
861.653	20575
861.786	20545
861.918	20499
862.05	20670
862.183	20579
862.315	20701
862.447	20689
862.58	20621
862.712	20370
862.844	20301
862.976	20408
863.108	20415
863.24	20739
863.372	20317
863.504	20396
863.636	20324
863.768	20305
863.9	20461
864.032	20294
864.164	20305
864.296	20446
864.428	20427
864.559	20404
864.691	20560
864.823	20282
864.954	20317
865.086	20259
865.217	20305
865.349	20191
865.48	20256
865.612	20252
865.743	20431
865.875	20256
866.006	20199
866.137	20218
866.269	20237
866.4	20267
866.531	20237
866.662	20176
866.793	20168
866.924	20195
867.055	20271
867.186	20332
867.317	20195
867.448	20130
867.579	20119
867.71	20100
867.841	20145
867.972	20267
868.103	20313
868.233	20275
868.364	20233
868.495	20347
868.625	20385
868.756	20594
868.886	20412
869.017	20396
869.147	20518
869.278	20648
869.408	20541
869.539	20469
869.669	20537
869.799	20465
869.929	20438
870.06	20682
870.19	20826
870.32	20754
870.45	20777
870.58	20925
870.71	20971
870.84	20925
870.97	20765
871.1	20933
871.23	21009
871.36	21154
871.489	20937
871.619	21142
871.749	21036
871.879	21116
872.008	21055
872.138	21112
872.267	21127
872.397	20963
872.526	20872
872.656	20933
872.785	20830
872.915	21032
873.044	21180
873.173	21135
873.303	21100
873.432	21135
873.561	21100
873.69	21089
873.819	21085
873.948	21260
874.077	21150
874.206	21070
874.335	21062
874.464	21131
874.593	21355
874.722	21268
874.851	21401
874.979	21374
875.108	21401
875.237	21294
875.365	21218
875.494	21199
875.623	21344
875.751	21142
875.88	21348
876.008	21462
876.136	21519
876.265	21808
876.393	21865
876.521	21774
876.65	21743
876.778	21838
876.906	21698
877.034	21747
877.162	21816
877.29	21774
877.418	21755
877.546	21622
877.674	21679
877.802	21793
877.93	21629
878.058	21614
878.185	21599
878.313	21629
878.441	21774
878.568	21538
878.696	21576
878.824	21705
878.951	21842
879.079	21854
879.206	22051
879.333	21861
879.461	21755
879.588	21743
879.715	21873
879.842	21972
879.97	21789
880.097	21447
880.224	21447
880.351	21648
880.478	21405
880.605	21454
880.732	21336
880.859	21682
880.986	21606
881.112	21473
881.239	21416
881.366	21237
881.493	21237
881.619	21173
881.746	21150
881.872	21131
881.999	21032
882.125	20990
882.252	20990
882.378	21119
882.505	21077
882.631	21024
882.757	20914
882.883	20845
883.01	20746
883.136	20750
883.262	20670
883.388	20621
883.514	20739
883.64	20842
883.766	20788
883.892	20602
884.018	20686
884.143	20834
884.269	20853
884.395	20514
884.52	20381
884.646	20511
884.772	20278
884.897	20332
885.023	20442
885.148	20598
885.274	20583
885.399	20533
885.524	20556
885.65	20469
885.775	20492
885.9	20237
886.025	20545
886.15	20454
886.275	20404
886.4	20248
886.525	20434
886.65	20450
886.775	20362
886.9	20431
887.025	20621
887.149	20442
887.274	20393
887.399	20240
887.523	20218
887.648	20195
887.773	20138
887.897	20252
888.021	20309
888.146	20187
888.27	20324
888.395	20240
888.519	20343
888.643	20218
888.767	20172
888.891	20187
889.015	19997
889.139	20073
889.263	19970
889.387	20153
889.511	20275
889.635	20134
889.759	19986
889.883	19902
890.006	19978
890.13	20142
890.254	19902
890.377	20001
890.501	19830
890.624	19750
890.748	19894
890.871	19723
890.995	19559
891.118	19491
891.241	19643
891.364	19670
891.488	19651
891.611	19700
891.734	19548
891.857	19738
891.98	19590
892.103	19635
892.226	19533
892.349	19468
892.471	19392
892.594	19529
892.717	19548
892.839	19483
892.962	19578
893.085	19651
893.207	19502
893.33	19533
893.452	19476
893.575	19685
893.697	19422
893.819	19666
893.941	19769
894.064	19651
894.186	19430
894.308	19499
894.43	19540
894.552	19708
894.674	19567
894.796	19468
894.918	19449
895.04	19464
895.161	19559
895.283	19540
895.405	19396
895.526	19548
895.648	19449
895.769	19518
895.891	19487
896.012	19540
896.134	19480
896.255	19514
896.376	19419
896.498	19506
896.619	19582
896.74	19597
896.861	19651
896.982	19845
897.103	20012
897.224	19795
897.345	19700
897.466	19662
897.587	19696
897.708	19906
897.828	19826
897.949	19616
898.07	19525
898.19	19647
898.311	19841
898.431	19738
898.552	19757
898.672	19818
898.792	19731
898.913	19723
899.033	19666
899.153	19449
899.273	19499
899.393	19552
899.513	19559
899.633	19605
899.753	19544
899.873	19407
899.993	19552
900.113	19441
900.232	19525
900.352	19327
900.472	19422
900.591	19240
900.711	19430
900.83	19221
900.95	19434
901.069	19335
901.189	19312
901.308	19015
901.427	18905
901.546	18989
901.665	18890
901.784	18954
901.904	18722
902.023	18715
902.141	18509
902.26	18593
902.379	18563
902.498	18418
902.617	18308
902.735	18338
902.854	18403
902.973	18327
903.091	17954
903.21	18045
903.328	18110
903.446	18003
903.565	17851
903.683	17866
903.801	17695
903.919	17866
904.038	17783
904.156	17684
904.274	17775
904.392	17577
904.51	17699
904.627	17623
904.745	17661
904.863	17805
904.981	17455
905.098	17307
905.216	17288
905.334	17349
905.451	17303
905.569	17261
905.686	17395
905.803	17330
905.921	17083
906.038	17170
906.155	17185
906.272	17166
906.389	17045
906.506	16881
906.623	16892
906.74	16908
906.857	16881
906.974	16774
907.091	17018
907.208	16999
907.324	16885
907.441	16885
907.557	16558
907.674	16660
907.79	16485
907.907	16596
908.023	16599
908.139	16618
908.256	16485
908.372	16489
908.488	16402
908.604	16421
908.72	16276
908.836	16306
908.952	16318
909.068	16398
909.184	16417
909.3	16360
909.415	16386
909.531	16223
909.647	16135
909.762	16109
909.878	15922
909.993	16116
910.108	16010
910.224	15911
910.339	16051
910.454	15983
910.57	15819
910.685	15766
910.8	16044
910.915	15998
911.03	15857
911.145	15625
911.259	15584
911.374	15587
911.489	15606
911.604	15496
911.718	15382
911.833	15329
911.947	15306
912.062	15340
912.176	15386
912.291	15481
912.405	15439
912.519	15603
912.633	15652
912.748	15336
912.862	15374
912.976	15199
913.09	15085
913.204	15165
913.318	15199
913.431	15306
913.545	15405
913.659	15279
913.772	15142
913.886	15047
914	14948
914.113	15058
914.226	15138
914.34	15116
914.453	14960
914.566	15036
914.68	14979
914.793	14982
914.906	14735
915.019	14705
915.132	14674
915.245	14598
915.358	14712
915.47	14659
915.583	14663
915.696	14678
915.809	14750
915.921	14887
916.034	14594
916.146	14564
916.259	14545
916.371	14632
916.483	14640
916.595	14454
916.708	14518
916.82	14552
916.932	14442
917.044	14377
917.156	14305
917.268	14366
917.38	14412
917.491	14381
917.603	14370
917.715	14374
917.826	14427
917.938	14301
918.049	14145
918.161	14271
918.272	14408
918.384	14438
918.495	14248
918.606	14119
918.717	14062
918.828	14130
918.939	14153
919.05	14088
919.161	14024
919.272	13826
919.383	13913
919.494	14054
919.604	14290
919.715	14115
919.826	14005
919.936	13997
920.047	14035
920.157	14062
920.267	14317
920.378	14088
920.488	13913
920.598	14191
920.708	14358
920.818	14225
920.928	14206
921.038	14271
921.148	14366
921.258	13989
921.368	13936
921.477	13845
921.587	13811
921.697	13597
921.806	13814
921.916	13601
922.025	13502
922.134	13457
922.244	13502
922.353	13559
922.462	13278
922.571	13198
922.68	13145
922.789	13084
922.898	12962
923.007	13042
923.116	13088
923.224	13118
923.333	13122
923.442	12916
923.55	13004
923.659	12989
923.767	12928
923.876	12878
923.984	13031
924.092	12848
924.201	12932
924.309	12890
924.417	12951
924.525	12795
924.633	12802
924.741	13784
924.849	12623
924.956	12669
925.064	12642
925.172	12467
925.279	12483
925.387	12540
925.494	12620
925.602	12642
925.709	12574
925.816	12445
925.924	12570
926.031	12593
926.138	12460
926.245	12536
926.352	12452
926.459	12525
926.566	12525
926.673	12422
926.779	12311
926.886	12334
926.993	12144
927.099	12136
927.206	12083
927.312	12049
927.419	12171
927.525	12140
927.631	12125
927.737	12015
927.843	11931
927.95	11847
928.056	11946
928.162	11897
928.267	12030
928.373	12483
928.479	12030
928.585	11718
928.69	11882
928.796	11824
928.901	11764
929.007	11752
929.112	11843
929.218	11809
929.323	11790
929.428	11665
929.533	11718
929.638	11634
929.743	11630
929.848	11752
929.953	11642
930.058	11657
930.163	11448
930.267	11414
930.372	11516
930.477	11292
930.581	11573
930.685	11383
930.79	11242
930.894	11307
930.998	11235
931.103	11425
931.207	11006
931.311	10923
931.415	10957
931.519	10683
931.623	10672
