Data from test_V78500241_2486.txt Node
Date: Fri Mar 25 15:27:10 CST 2022
User: usil
Spectrometer: V785-0024
Trigger mode: 0
Integration Time (sec): 4.000000E-1
Scans to average: 1
Nonlinearity correction enabled: false
Boxcar width: 0
Storing dark spectrum: false
XAxis mode: Wavelengths
Number of Pixels in Spectrum: 1024
>>>>>Begin Spectral Data<<<<<
801.071	27116
801.214	27017
801.356	26617
801.499	26689
801.641	26602
801.783	26450
801.926	26632
802.068	26465
802.211	26453
802.353	26374
802.496	26252
802.638	26168
802.78	26161
802.923	25978
803.065	26031
803.208	25989
803.35	26157
803.492	26259
803.635	26347
803.777	26237
803.919	26415
804.061	26788
804.204	26358
804.346	26206
804.488	26225
804.63	26305
804.773	26336
804.915	26328
805.057	26377
805.199	26119
805.341	26415
805.483	26465
805.626	26469
805.768	26259
805.91	26461
806.052	26431
806.194	26320
806.336	26625
806.478	26484
806.62	26419
806.762	26446
806.904	26659
807.046	26963
807.188	26686
807.33	26857
807.472	26952
807.614	26750
807.756	26788
807.898	26587
808.04	26701
808.182	26613
808.324	26678
808.465	26785
808.607	26902
808.749	27066
808.891	27131
809.033	27096
809.174	27085
809.316	26937
809.458	26975
809.6	26940
809.741	26994
809.883	27173
810.025	27188
810.166	27173
810.308	27222
810.45	27325
810.591	27119
810.733	27127
810.875	26933
811.016	26887
811.158	27005
811.299	27131
811.441	27233
811.582	27142
811.724	26979
811.865	26906
812.007	26868
812.148	27001
812.29	27024
812.431	27100
812.573	27085
812.714	27450
812.855	27405
812.997	27591
813.138	27663
813.279	27660
813.421	27458
813.562	27264
813.703	27302
813.845	26944
813.986	26838
814.127	26842
814.268	26678
814.41	26716
814.551	26739
814.692	26606
814.833	26511
814.974	26537
815.115	26625
815.256	26511
815.397	26415
815.539	26488
815.68	26218
815.821	26309
815.962	26370
816.103	26457
816.244	26313
816.385	26248
816.526	26046
816.666	26073
816.807	25925
816.948	25928
817.089	25921
817.23	25959
817.371	25883
817.512	25974
817.653	25814
817.793	25841
817.934	25849
818.075	25898
818.216	25879
818.356	25811
818.497	25734
818.638	25521
818.778	25605
818.919	25575
819.06	25651
819.2	25784
819.341	25772
819.481	25982
819.622	26142
819.762	26050
819.903	26142
820.043	26001
820.184	25970
820.324	25970
820.465	26001
820.605	25852
820.746	26024
820.886	25830
821.026	26062
821.167	25875
821.307	25997
821.447	26069
821.588	25719
821.728	25556
821.868	25582
822.008	25415
822.149	25339
822.289	25365
822.429	25148
822.569	25084
822.709	25027
822.849	24798
822.99	24871
823.13	24920
823.27	24707
823.41	24601
823.55	24566
823.69	24722
823.83	24574
823.97	24525
824.11	24544
824.25	24536
824.389	24460
824.529	24696
824.669	24536
824.809	24597
824.949	24437
825.089	24479
825.228	24532
825.368	24254
825.508	24296
825.648	24353
825.787	24338
825.927	24346
826.067	24334
826.206	24361
826.346	24391
826.485	24388
826.625	24471
826.765	24540
826.904	24311
827.044	24152
827.183	24087
827.323	24076
827.462	24125
827.601	24091
827.741	24064
827.88	24121
828.02	24041
828.159	24057
828.298	24034
828.437	24148
828.577	24003
828.716	24224
828.855	24015
828.994	23786
829.134	23741
829.273	23722
829.412	23676
829.551	23695
829.69	23813
829.829	23863
829.968	23939
830.107	23904
830.246	23843
830.385	23691
830.524	23562
830.663	23554
830.802	23433
830.941	23471
831.08	23471
831.219	23433
831.357	23425
831.496	23627
831.635	23349
831.774	23250
831.913	23246
832.051	23136
832.19	23109
832.329	23223
832.467	23147
832.606	23064
832.744	23014
832.883	23041
833.022	22968
833.16	23018
833.299	23159
833.437	23109
833.576	23155
833.714	23181
833.852	23216
833.991	23231
834.129	23166
834.267	23060
834.406	23105
834.544	23132
834.682	23079
834.821	23143
834.959	23383
835.097	23067
835.235	23174
835.373	23025
835.511	23105
835.65	23018
835.788	23052
835.926	22953
836.064	22835
836.202	22824
836.34	22927
836.478	23079
836.615	22987
836.753	23117
836.891	23094
837.029	22995
837.167	22968
837.305	22904
837.443	22782
837.58	22797
837.718	22927
837.856	22881
837.993	22759
838.131	22740
838.269	22668
838.406	22706
838.544	22634
838.681	22485
838.819	22394
838.956	22314
839.094	22329
839.231	22421
839.369	22485
839.506	22675
839.643	22622
839.781	22371
839.918	22131
840.055	22325
840.193	22135
840.33	22314
840.467	22348
840.604	22405
840.742	22588
840.879	22154
841.016	22303
841.153	22211
841.29	22382
841.427	22337
841.564	22154
841.701	22192
841.838	22162
841.975	22204
842.112	22257
842.249	22219
842.385	22192
842.522	22451
842.659	22131
842.796	21991
842.933	22010
843.069	21994
843.206	21979
843.343	22143
843.479	21956
843.616	21991
843.752	21861
843.889	21895
844.025	21953
844.162	21720
844.298	21854
844.435	21739
844.571	21785
844.708	21789
844.844	21884
844.98	21915
845.117	21907
845.253	21679
845.389	21709
845.525	21652
845.661	21538
845.798	21504
845.934	21648
846.07	21542
846.206	21606
846.342	21625
846.478	21500
846.614	21332
846.75	21237
846.886	21233
847.022	21386
847.158	21287
847.294	21370
847.429	21329
847.565	21264
847.701	21481
847.837	20952
847.972	20914
848.108	21074
848.244	21062
848.379	20925
848.515	20781
848.65	20853
848.786	20857
848.921	20902
849.057	20952
849.192	20830
849.328	20823
849.463	20914
849.598	20925
849.734	20807
849.869	20731
850.004	20636
850.14	20609
850.275	20590
850.41	20602
850.545	20503
850.68	20606
850.815	20587
850.95	20537
851.085	20804
851.22	20811
851.355	20644
851.49	20617
851.625	20587
851.76	20655
851.895	20541
852.03	20571
852.165	20651
852.299	20739
852.434	20804
852.569	20583
852.703	20609
852.838	20659
852.973	20765
853.107	20731
853.242	20648
853.376	20530
853.511	20339
853.645	20423
853.78	20511
853.914	20366
854.048	20339
854.183	20362
854.317	20415
854.451	20674
854.585	20347
854.72	20434
854.854	20537
854.988	20320
855.122	20488
855.256	20221
855.39	20446
855.524	20533
855.658	20450
855.792	20518
855.926	20564
856.06	20492
856.194	20526
856.327	20370
856.461	20423
856.595	20400
856.729	20389
856.862	20587
856.996	20545
857.13	20571
857.263	20457
857.397	20514
857.53	20587
857.664	20507
857.797	20533
857.931	20594
858.064	20537
858.197	20587
858.331	20419
858.464	20488
858.597	20332
858.731	20381
858.864	20431
858.997	20393
859.13	20370
859.263	20427
859.396	20564
859.529	20408
859.662	20446
859.795	20431
859.928	20438
860.061	20552
860.194	20587
860.327	20530
860.46	20480
860.592	20629
860.725	20594
860.858	20571
860.99	20495
861.123	20351
861.256	20396
861.388	20366
861.521	20986
861.653	20438
861.786	20191
861.918	20267
862.05	20309
862.183	20381
862.315	20366
862.447	20484
862.58	20431
862.712	20237
862.844	20092
862.976	20221
863.108	20309
863.24	20701
863.372	20134
863.504	20088
863.636	20248
863.768	20252
863.9	20073
864.032	20020
864.164	20180
864.296	20199
864.428	20278
864.559	20267
864.691	20229
864.823	20206
864.954	20153
865.086	20202
865.217	20142
865.349	20035
865.48	20111
865.612	20172
865.743	20187
865.875	20039
866.006	20088
866.137	20054
866.269	20153
866.4	20210
866.531	20092
866.662	19909
866.793	20027
866.924	20039
867.055	20027
867.186	19978
867.317	19993
867.448	19868
867.579	19890
867.71	19822
867.841	20005
867.972	19993
868.103	20046
868.233	20084
868.364	20005
868.495	20088
868.625	20267
868.756	20412
868.886	20206
869.017	20305
869.147	20385
869.278	20351
869.408	20233
869.539	20294
869.669	20362
869.799	20336
869.929	20377
870.06	20415
870.19	20587
870.32	20560
870.45	20587
870.58	20636
870.71	20754
870.84	20708
870.97	20674
871.1	20659
871.23	20845
871.36	20925
871.489	20807
871.619	20796
871.749	20902
871.879	20880
872.008	20994
872.138	20887
872.267	20781
872.397	20724
872.526	20716
872.656	20765
872.785	20735
872.915	20876
873.044	20960
873.173	20902
873.303	20887
873.432	20853
873.561	20990
873.69	20921
873.819	20750
873.948	20918
874.077	20826
874.206	20765
874.335	20895
874.464	21013
874.593	21020
874.722	21005
874.851	21032
874.979	21146
875.108	21043
875.237	21043
875.365	21009
875.494	21218
875.623	21192
875.751	21146
875.88	21188
876.008	21321
876.136	21256
876.265	21580
876.393	21736
876.521	21644
876.65	21610
876.778	21515
876.906	21557
877.034	21538
877.162	21458
877.29	21382
877.418	21511
877.546	21572
877.674	21447
877.802	21511
877.93	21424
878.058	21332
878.185	21325
878.313	21538
878.441	21534
878.568	21355
878.696	21378
878.824	21534
878.951	21622
879.079	21591
879.206	21812
879.333	21622
879.461	21614
879.588	21534
879.715	21637
879.842	21895
879.97	21591
880.097	21386
880.224	21279
880.351	21340
880.478	21416
880.605	21233
880.732	21386
880.859	21549
880.986	21302
881.112	21260
881.239	21131
881.366	21032
881.493	20975
881.619	21020
881.746	20830
881.872	20956
881.999	20899
882.125	20807
882.252	20937
882.378	20864
882.505	20990
882.631	20777
882.757	20648
882.883	20678
883.01	20522
883.136	20606
883.262	20446
883.388	20423
883.514	20583
883.64	20682
883.766	20564
883.892	20305
884.018	20343
884.143	20613
884.269	20583
884.395	20332
884.52	20229
884.646	20309
884.772	20180
884.897	20229
885.023	20328
885.148	20343
885.274	20465
885.399	20377
885.524	20248
885.65	20214
885.775	20275
885.9	20320
886.025	20377
886.15	20457
886.275	20271
886.4	20092
886.525	20161
886.65	20172
886.775	20202
886.9	20396
887.025	20507
887.149	20286
887.274	20142
887.399	20054
887.523	20027
887.648	20054
887.773	19917
887.897	20058
888.021	20119
888.146	19944
888.27	20054
888.395	20081
888.519	20092
888.643	19921
888.767	20069
888.891	19902
889.015	19894
889.139	19852
889.263	19845
889.387	19978
889.511	19993
889.635	19921
889.759	19731
889.883	19875
890.006	19906
890.13	19887
890.254	19727
890.377	19769
890.501	19632
890.624	19681
890.748	19567
890.871	19533
890.995	19441
891.118	19419
891.241	19506
891.364	19430
891.488	19635
891.611	19320
891.734	19422
891.857	19441
891.98	19365
892.103	19445
892.226	19384
892.349	19449
892.471	19251
892.594	19346
892.717	19346
892.839	19335
892.962	19346
893.085	19419
893.207	19297
893.33	19156
893.452	19308
893.575	19396
893.697	19297
893.819	19487
893.941	19578
894.064	19445
894.186	19324
894.308	19152
894.43	19514
894.552	19529
894.674	19430
894.796	19247
894.918	19392
895.04	19274
895.161	19438
895.283	19495
895.405	19343
895.526	19396
895.648	19354
895.769	19365
895.891	19316
896.012	19487
896.134	19529
896.255	19335
896.376	19422
896.498	19240
896.619	19343
896.74	19373
896.861	19419
896.982	19643
897.103	19841
897.224	19674
897.345	19670
897.466	19548
897.587	19632
897.708	19727
897.828	19571
897.949	19468
898.07	19400
898.19	19499
898.311	19605
898.431	19521
898.552	19700
898.672	19597
898.792	19670
898.913	19571
899.033	19441
899.153	19480
899.273	19316
899.393	19324
899.513	19358
899.633	19320
899.753	19377
899.873	19236
899.993	19293
900.113	19327
900.232	19369
900.352	19179
900.472	19152
900.591	19156
900.711	19259
900.83	19061
900.95	19122
901.069	19232
901.189	19084
901.308	18863
901.427	18715
901.546	18753
901.665	18825
901.784	18726
901.904	18631
902.023	18551
902.141	18319
902.26	18350
902.379	18350
902.498	18228
902.617	18262
902.735	18254
902.854	18273
902.973	18205
903.091	18072
903.21	17992
903.328	17965
903.446	17824
903.565	17767
903.683	17642
903.801	17638
903.919	17733
904.038	17726
904.156	17482
904.274	17570
904.392	17436
904.51	17615
904.627	17490
904.745	17592
904.863	17577
904.981	17425
905.098	17349
905.216	17227
905.334	17159
905.451	17318
905.569	17235
905.686	17277
905.803	17204
905.921	17041
906.038	16972
906.155	17075
906.272	16843
906.389	16805
906.506	16675
906.623	16786
906.74	16717
906.857	16637
906.974	16599
907.091	16713
907.208	16862
907.324	16812
907.441	16645
907.557	16573
907.674	16470
907.79	16447
907.907	16409
908.023	16436
908.139	16421
908.256	16382
908.372	16417
908.488	16402
908.604	16314
908.72	16234
908.836	16223
908.952	16185
909.068	16166
909.184	16348
909.3	16181
909.415	16215
909.531	16173
909.647	15915
909.762	15876
909.878	15934
909.993	15869
910.108	15816
910.224	15911
910.339	15793
910.454	15800
910.57	15713
910.685	15633
910.8	15899
910.915	15797
911.03	15774
911.145	15496
911.259	15450
911.374	15538
911.489	15428
911.604	15389
911.718	15283
911.833	15230
911.947	15260
912.062	15211
912.176	15329
912.291	15401
912.405	15317
912.519	15492
912.633	15545
912.748	15264
912.862	15291
912.976	15097
913.09	14975
913.204	14906
913.318	15097
913.431	15211
913.545	15214
913.659	15157
913.772	15116
913.886	14933
914	14872
914.113	15001
914.226	14998
914.34	14921
914.453	14754
914.566	14868
914.68	14712
914.793	14697
914.906	14602
915.019	14568
915.132	14434
915.245	14476
915.358	14492
915.47	14362
915.583	14590
915.696	14495
915.809	14556
915.921	14571
916.034	14587
916.146	14457
916.259	14400
916.371	14552
916.483	14476
916.595	14332
916.708	14393
916.82	14366
916.932	14263
917.044	14225
917.156	14271
917.268	14172
917.38	14267
917.491	14271
917.603	14221
917.715	14278
917.826	14210
917.938	14176
918.049	14077
918.161	14210
918.272	14237
918.384	14256
918.495	14130
918.606	13925
918.717	13932
918.828	14012
918.939	14020
919.05	13898
919.161	13921
919.272	13731
919.383	13776
919.494	14020
919.604	14149
919.715	13890
919.826	13868
919.936	13917
920.047	13947
920.157	13780
920.267	14191
920.378	13967
920.488	13909
920.598	14084
920.708	14161
920.818	14103
920.928	14092
921.038	14267
921.148	14161
921.258	13890
921.368	13791
921.477	13704
921.587	13727
921.697	13578
921.806	13712
921.916	13586
922.025	13278
922.134	13369
922.244	13301
922.353	13411
922.462	13259
922.571	13141
922.68	13031
922.789	13046
922.898	13000
923.007	12981
923.116	12954
923.224	12958
923.333	12894
923.442	12886
923.55	12947
923.659	12924
923.767	12875
923.876	12719
923.984	12848
924.092	12734
924.201	12753
924.309	12696
924.417	12768
924.525	12627
924.633	12829
924.741	13643
924.849	12452
924.956	12700
925.064	12426
925.172	12315
925.279	12426
925.387	12456
925.494	12407
925.602	12563
925.709	12464
925.816	12315
925.924	12410
926.031	12448
926.138	12388
926.245	12479
926.352	12327
926.459	12407
926.566	12475
926.673	12372
926.779	12334
926.886	12201
926.993	12091
927.099	12072
927.206	12015
927.312	12003
927.419	11988
927.525	12034
927.631	12034
927.737	11931
927.843	11882
927.95	11703
928.056	11794
928.162	11920
928.267	11946
928.373	12513
928.479	11897
928.585	11821
928.69	11828
928.796	11813
928.901	11752
929.007	11619
929.112	11699
929.218	11741
929.323	11688
929.428	11570
929.533	11802
929.638	11482
929.743	11562
929.848	11630
929.953	11589
930.058	11440
930.163	11280
930.267	11265
930.372	11391
930.477	11231
930.581	11516
930.685	11288
930.79	11147
930.894	11261
930.998	11166
931.103	11269
931.207	11045
931.311	10923
931.415	10755
931.519	10664
931.623	10603
