Data from test_V78500241_1013.txt Node
Date: Fri Mar 25 15:16:54 CST 2022
User: usil
Spectrometer: V785-0024
Trigger mode: 0
Integration Time (sec): 4.000000E-1
Scans to average: 1
Nonlinearity correction enabled: false
Boxcar width: 0
Storing dark spectrum: false
XAxis mode: Wavelengths
Number of Pixels in Spectrum: 1024
>>>>>Begin Spectral Data<<<<<
801.071	28303
801.214	28139
801.356	27854
801.499	27937
801.641	27804
801.783	27934
801.926	27895
802.068	27854
802.211	27686
802.353	27587
802.496	27504
802.638	27367
802.78	27523
802.923	27458
803.065	27519
803.208	27401
803.35	27496
803.492	27717
803.635	27572
803.777	27549
803.919	27728
804.061	27945
804.204	27709
804.346	27561
804.488	27485
804.63	27774
804.773	27538
804.915	27724
805.057	27682
805.199	27762
805.341	27739
805.483	27831
805.626	27888
805.768	27641
805.91	27918
806.052	27774
806.194	27743
806.336	28090
806.478	27960
806.62	27850
806.762	27914
806.904	28131
807.046	28322
807.188	28382
807.33	28204
807.472	28154
807.614	28268
807.756	28200
807.898	28211
808.04	28166
808.182	28044
808.324	28093
808.465	28120
808.607	28276
808.749	28523
808.891	28584
809.033	28740
809.174	28596
809.316	28611
809.458	28569
809.6	28516
809.741	28641
809.883	28550
810.025	28729
810.166	28763
810.308	28725
810.45	28653
810.591	28786
810.733	28611
810.875	28679
811.016	28421
811.158	28356
811.299	28569
811.441	28668
811.582	28653
811.724	28451
811.865	28417
812.007	28542
812.148	28573
812.29	28580
812.431	28717
812.573	28812
812.714	28934
812.855	29204
812.997	29102
813.138	29231
813.279	29151
813.421	29269
813.562	28991
813.703	28908
813.845	28930
813.986	28428
814.127	28318
814.268	28177
814.41	28329
814.551	28325
814.692	28128
814.833	28067
814.974	28166
815.115	28265
815.256	28067
815.397	28097
815.539	28093
815.68	28150
815.821	27991
815.962	28059
816.103	28010
816.244	27911
816.385	27804
816.526	27770
816.666	27583
816.807	27420
816.948	27743
817.089	27583
817.23	27583
817.371	27443
817.512	27488
817.653	27538
817.793	27408
817.934	27542
818.075	27488
818.216	27450
818.356	27393
818.497	27420
818.638	27272
818.778	27199
818.919	27203
819.06	27264
819.2	27386
819.341	27641
819.481	27564
819.622	27591
819.762	27884
819.903	27819
820.043	27797
820.184	27671
820.324	27686
820.465	27709
820.605	27595
820.746	27709
820.886	27485
821.026	27587
821.167	27523
821.307	27671
821.447	27614
821.588	27450
821.728	27389
821.868	27119
822.008	27017
822.149	26994
822.289	27024
822.429	26819
822.569	26762
822.709	26640
822.849	26545
822.99	26541
823.13	26377
823.27	26503
823.41	26453
823.55	26305
823.69	26381
823.83	26370
823.97	26404
824.11	26107
824.25	26187
824.389	26225
824.529	26195
824.669	26149
824.809	26400
824.949	26271
825.089	26339
825.228	26134
825.368	25925
825.508	26027
825.648	26016
825.787	26024
825.927	26092
826.067	25955
826.206	25986
826.346	25982
826.485	26126
826.625	26020
826.765	26187
826.904	26107
827.044	25887
827.183	25772
827.323	25734
827.462	25776
827.601	25807
827.741	25734
827.88	25742
828.02	25822
828.159	25849
828.298	25887
828.437	25795
828.577	25761
828.716	25890
828.855	25647
828.994	25392
829.134	25449
829.273	25651
829.412	25521
829.551	25479
829.69	25483
829.829	25476
829.968	25510
830.107	25472
830.246	25464
830.385	25464
830.524	25483
830.663	25236
830.802	25278
830.941	25194
831.08	25179
831.219	25232
831.357	25263
831.496	25312
831.635	25274
831.774	25137
831.913	25034
832.051	24886
832.19	24897
832.329	24871
832.467	25023
832.606	24677
832.744	24848
832.883	24703
833.022	24776
833.16	24840
833.299	24825
833.437	24829
833.576	24894
833.714	24852
833.852	24981
833.991	24848
834.129	24905
834.267	24802
834.406	24776
834.544	24741
834.682	24848
834.821	24779
834.959	25012
835.097	24688
835.235	24890
835.373	24863
835.511	24886
835.65	24665
835.788	24711
835.926	24536
836.064	24513
836.202	24532
836.34	24730
836.478	24806
836.615	24722
836.753	24848
836.891	24779
837.029	24677
837.167	24639
837.305	24544
837.443	24665
837.58	24563
837.718	24589
837.856	24681
837.993	24365
838.131	24403
838.269	24365
838.406	24505
838.544	24418
838.681	24201
838.819	24079
838.956	24076
839.094	23927
839.231	24068
839.369	24163
839.506	24330
839.643	24235
839.781	24011
839.918	24038
840.055	24022
840.193	23843
840.33	23775
840.467	23843
840.604	23923
840.742	24205
840.879	23821
841.016	23832
841.153	23920
841.29	23927
841.427	23828
841.564	23942
841.701	23916
841.838	23901
841.975	23783
842.112	23821
842.249	23714
842.385	23619
842.522	23863
842.659	23718
842.796	23573
842.933	23585
843.069	23535
843.206	23611
843.343	23794
843.479	23611
843.616	23634
843.752	23459
843.889	23425
844.025	23570
844.162	23349
844.298	23383
844.435	23539
844.571	23474
844.708	23471
844.844	23611
844.98	23535
845.117	23531
845.253	23318
845.389	23452
845.525	23356
845.661	23292
845.798	23170
845.934	23250
846.07	23064
846.206	23105
846.342	23292
846.478	23178
846.614	22968
846.75	22843
846.886	22854
847.022	23090
847.158	22923
847.294	22805
847.429	22972
847.565	22892
847.701	23197
847.837	22557
847.972	22660
848.108	22733
848.244	22725
848.379	22493
848.515	22440
848.65	22531
848.786	22527
848.921	22379
849.057	22466
849.192	22542
849.328	22478
849.463	22523
849.598	22405
849.734	22432
849.869	22314
850.004	22310
850.14	22428
850.275	22306
850.41	22169
850.545	22280
850.68	22253
850.815	22344
850.95	22261
851.085	22337
851.22	22333
851.355	22234
851.49	22207
851.625	22116
851.76	22074
851.895	22162
852.03	22093
852.165	22196
852.299	22306
852.434	22375
852.569	22451
852.703	22280
852.838	22314
852.973	22386
853.107	22325
853.242	22287
853.376	22154
853.511	22055
853.645	21972
853.78	22162
853.914	22147
854.048	22070
854.183	21934
854.317	22131
854.451	22360
854.585	22253
854.72	22040
854.854	22192
854.988	21922
855.122	22021
855.256	21972
855.39	22017
855.524	22200
855.658	22090
855.792	22082
855.926	22036
856.06	22116
856.194	22223
856.327	21911
856.461	21972
856.595	21968
856.729	22017
856.862	22120
856.996	22006
857.13	22162
857.263	22261
857.397	22090
857.53	22078
857.664	22059
857.797	22101
857.931	22120
858.064	22112
858.197	22150
858.331	22017
858.464	21918
858.597	22013
858.731	21972
858.864	22082
858.997	22025
859.13	22044
859.263	22002
859.396	22105
859.529	22017
859.662	22105
859.795	21880
859.928	22032
860.061	22185
860.194	22280
860.327	22192
860.46	22131
860.592	22044
860.725	22211
860.858	22310
860.99	22010
861.123	21953
861.256	21998
861.388	22101
861.521	22607
861.653	21736
861.786	21945
861.918	21892
862.05	21926
862.183	21960
862.315	22086
862.447	22078
862.58	22048
862.712	21797
862.844	21728
862.976	21823
863.108	21770
863.24	22215
863.372	21637
863.504	21690
863.636	21698
863.768	21736
863.9	21819
864.032	21785
864.164	21759
864.296	21755
864.428	21941
864.559	21873
864.691	21842
864.823	21827
864.954	21724
865.086	21633
865.217	21583
865.349	21709
865.48	21671
865.612	21515
865.743	21751
865.875	21759
866.006	21606
866.137	21564
866.269	21576
866.4	21511
866.531	21622
866.662	21599
866.793	21625
866.924	21591
867.055	21610
867.186	21614
867.317	21473
867.448	21412
867.579	21637
867.71	21618
867.841	21420
867.972	21583
868.103	21477
868.233	21526
868.364	21633
868.495	21804
868.625	21720
868.756	21945
868.886	21762
869.017	21819
869.147	21861
869.278	21991
869.408	21781
869.539	21835
869.669	21888
869.799	21717
869.929	21903
870.06	21945
870.19	22185
870.32	22177
870.45	22192
870.58	22287
870.71	22303
870.84	22379
870.97	22246
871.1	22265
871.23	22398
871.36	22413
871.489	22348
871.619	22363
871.749	22436
871.879	22443
872.008	22550
872.138	22337
872.267	22478
872.397	22402
872.526	22310
872.656	22291
872.785	22200
872.915	22485
873.044	22592
873.173	22417
873.303	22455
873.432	22672
873.561	22493
873.69	22489
873.819	22436
873.948	22417
874.077	22538
874.206	22402
874.335	22447
874.464	22672
874.593	22702
874.722	22603
874.851	22767
874.979	22679
875.108	22721
875.237	22584
875.365	22565
875.494	22630
875.623	22755
875.751	22637
875.88	22843
876.008	22892
876.136	22869
876.265	23121
876.393	23056
876.521	23037
876.65	23102
876.778	23178
876.906	23075
877.034	22946
877.162	23098
877.29	22961
877.418	23086
877.546	23079
877.674	23117
877.802	23037
877.93	22972
878.058	22866
878.185	22892
878.313	22984
878.441	22965
878.568	22771
878.696	23025
878.824	22953
878.951	23170
879.079	23185
879.206	23250
879.333	22999
879.461	23162
879.588	23056
879.715	23162
879.842	23349
879.97	23128
880.097	22809
880.224	22866
880.351	22816
880.478	22839
880.605	22824
880.732	22812
880.859	23105
880.986	22843
881.112	22976
881.239	22660
881.366	22656
881.493	22516
881.619	22443
881.746	22577
881.872	22424
881.999	22371
882.125	22394
882.252	22436
882.378	22325
882.505	22451
882.631	22131
882.757	22093
882.883	22226
883.01	22112
883.136	21991
883.262	22036
883.388	21915
883.514	22143
883.64	22139
883.766	21972
883.892	21823
884.018	21911
884.143	22093
884.269	22074
884.395	21709
884.52	21625
884.646	21739
884.772	21724
884.897	21583
885.023	21667
885.148	21743
885.274	21911
885.399	21899
885.524	21694
885.65	21709
885.775	21857
885.9	21766
886.025	21922
886.15	21732
886.275	21686
886.4	21644
886.525	21831
886.65	21622
886.775	21637
886.9	21766
887.025	21922
887.149	21709
887.274	21496
887.399	21504
887.523	21526
887.648	21439
887.773	21420
887.897	21572
888.021	21534
888.146	21530
888.27	21595
888.395	21587
888.519	21454
888.643	21462
888.767	21469
888.891	21382
889.015	21233
889.139	21408
889.263	21218
889.387	21275
889.511	21572
889.635	21420
889.759	21283
889.883	21241
890.006	21272
890.13	21367
890.254	21230
890.377	21222
890.501	21024
890.624	20876
890.748	21017
890.871	20857
890.995	20758
891.118	20887
891.241	20876
891.364	20807
891.488	20902
891.611	20887
891.734	20868
891.857	20868
891.98	20914
892.103	20994
892.226	20933
892.349	20887
892.471	20579
892.594	20636
892.717	20868
892.839	20678
892.962	20788
893.085	20735
893.207	20769
893.33	20556
893.452	20689
893.575	20758
893.697	20800
893.819	20804
893.941	21009
894.064	20880
894.186	20632
894.308	20617
894.43	20792
894.552	20952
894.674	20739
894.796	20667
894.918	20739
895.04	20674
895.161	20861
895.283	20819
895.405	20674
895.526	20785
895.648	20648
895.769	20682
895.891	20682
896.012	20773
896.134	20785
896.255	20762
896.376	20651
896.498	20629
896.619	20895
896.74	20754
896.861	20750
896.982	21055
897.103	21161
897.224	20956
897.345	20941
897.466	20845
897.587	20842
897.708	21017
897.828	20887
897.949	20765
898.07	20830
898.19	20800
898.311	21020
898.431	20781
898.552	20941
898.672	20914
898.792	20986
898.913	20986
899.033	20788
899.153	20670
899.273	20598
899.393	20678
899.513	20636
899.633	20625
899.753	20644
899.873	20556
899.993	20571
900.113	20590
900.232	20533
900.352	20484
900.472	20461
900.591	20404
900.711	20507
900.83	20431
900.95	20454
901.069	20442
901.189	20282
901.308	20115
901.427	19978
901.546	20027
901.665	20145
901.784	19997
901.904	19864
902.023	19765
902.141	19662
902.26	19537
902.379	19613
902.498	19514
902.617	19487
902.735	19487
902.854	19335
902.973	19369
903.091	19156
903.21	19114
903.328	19145
903.446	19152
903.565	18977
903.683	18970
903.801	18840
903.919	19000
904.038	18894
904.156	18711
904.274	18871
904.392	18753
904.51	18753
904.627	18696
904.745	18810
904.863	18741
904.981	18623
905.098	18445
905.216	18475
905.334	18372
905.451	18441
905.569	18395
905.686	18422
905.803	18346
905.921	18277
906.038	18273
906.155	18148
906.272	18114
906.389	18205
906.506	18019
906.623	17961
906.74	17965
906.857	17942
906.974	17885
907.091	18053
907.208	17980
907.324	17912
907.441	17798
907.557	17630
907.674	17566
907.79	17589
907.907	17547
908.023	17630
908.139	17653
908.256	17630
908.372	17512
908.488	17566
908.604	17406
908.72	17322
908.836	17353
908.952	17200
909.068	17402
909.184	17455
909.3	17417
909.415	17284
909.531	17387
909.647	17105
909.762	17037
909.878	16991
909.993	17067
910.108	17102
910.224	17018
910.339	17041
910.454	16953
910.57	16942
910.685	16790
910.8	17109
910.915	16942
911.03	16866
911.145	16786
911.259	16603
911.374	16653
911.489	16744
911.604	16554
911.718	16417
911.833	16462
911.947	16295
912.062	16131
912.176	16360
912.291	16310
912.405	16287
912.519	16550
912.633	16542
912.748	16402
912.862	16367
912.976	16276
913.09	16040
913.204	16116
913.318	16207
913.431	16261
913.545	16310
913.659	16223
913.772	16109
913.886	15991
914	15960
914.113	16051
914.226	16116
914.34	16120
914.453	15846
914.566	16013
914.68	15918
914.793	15861
914.906	15542
915.019	15584
915.132	15504
915.245	15553
915.358	15606
915.47	15580
915.583	15591
915.696	15511
915.809	15770
915.921	15675
916.034	15591
916.146	15477
916.259	15443
916.371	15534
916.483	15523
916.595	15348
916.708	15374
916.82	15473
916.932	15351
917.044	15363
917.156	15237
917.268	15275
917.38	15291
917.491	15176
917.603	15348
917.715	15245
917.826	15245
917.938	15188
918.049	15123
918.161	15135
918.272	15260
918.384	15233
918.495	15142
918.606	14998
918.717	14948
918.828	14994
918.939	14944
919.05	14815
919.161	14887
919.272	14777
919.383	14880
919.494	15062
919.604	15131
919.715	14899
919.826	14899
919.936	14899
920.047	14937
920.157	14842
920.267	15131
920.378	14902
920.488	14845
920.598	15085
920.708	15233
920.818	14971
920.928	15093
921.038	15138
921.148	15093
921.258	14872
921.368	14720
921.477	14636
921.587	14629
921.697	14552
921.806	14739
921.916	14530
922.025	14317
922.134	14267
922.244	14218
922.353	14298
922.462	14229
922.571	14058
922.68	13967
922.789	13986
922.898	13997
923.007	13856
923.116	13978
923.224	13967
923.333	13887
923.442	13753
923.55	13746
923.659	13746
923.767	13887
923.876	13731
923.984	13738
924.092	13582
924.201	13670
924.309	13685
924.417	13597
924.525	13586
924.633	13582
924.741	14465
924.849	13453
924.956	13544
925.064	13369
925.172	13274
925.279	13289
925.387	13346
925.494	13381
925.602	13445
925.709	13388
925.816	13126
925.924	13244
926.031	13354
926.138	13236
926.245	13251
926.352	13122
926.459	13270
926.566	13270
926.673	13183
926.779	13110
926.886	13065
926.993	12875
927.099	12837
927.206	12844
927.312	12810
927.419	12909
927.525	12821
927.631	12886
927.737	12703
927.843	12741
927.95	12654
928.056	12623
928.162	12623
928.267	12601
928.373	13225
928.479	12715
928.585	12456
928.69	12677
928.796	12688
928.901	12612
929.007	12437
929.112	12479
929.218	12422
929.323	12391
929.428	12509
929.533	12498
929.638	12315
929.743	12357
929.848	12445
929.953	12376
930.058	12281
930.163	12114
930.267	12041
930.372	12224
930.477	12049
930.581	12258
930.685	12155
930.79	12022
930.894	11916
930.998	11927
931.103	11988
931.207	11691
931.311	11642
931.415	11562
931.519	11322
931.623	11360
