Data from test_V78500241_2521.txt Node
Date: Fri Mar 25 15:27:24 CST 2022
User: usil
Spectrometer: V785-0024
Trigger mode: 0
Integration Time (sec): 4.000000E-1
Scans to average: 1
Nonlinearity correction enabled: false
Boxcar width: 0
Storing dark spectrum: false
XAxis mode: Wavelengths
Number of Pixels in Spectrum: 1024
>>>>>Begin Spectral Data<<<<<
801.071	27093
801.214	27032
801.356	26906
801.499	26960
801.641	26606
801.783	26648
801.926	26762
802.068	26568
802.211	26640
802.353	26518
802.496	26339
802.638	26210
802.78	26309
802.923	26138
803.065	26183
803.208	26142
803.35	26263
803.492	26427
803.635	26343
803.777	26267
803.919	26492
804.061	26769
804.204	26453
804.346	26473
804.488	26317
804.63	26473
804.773	26256
804.915	26511
805.057	26503
805.199	26427
805.341	26457
805.483	26522
805.626	26476
805.768	26431
805.91	26568
806.052	26568
806.194	26450
806.336	26640
806.478	26522
806.62	26556
806.762	26609
806.904	26876
807.046	26918
807.188	26998
807.33	26971
807.472	27036
807.614	26864
807.756	26868
807.898	26921
808.04	26503
808.182	26689
808.324	26876
808.465	26853
808.607	27028
808.749	27161
808.891	27195
809.033	27188
809.174	27207
809.316	26990
809.458	27062
809.6	27195
809.741	27112
809.883	27367
810.025	27477
810.166	27424
810.308	27378
810.45	27435
810.591	27188
810.733	27077
810.875	27192
811.016	27036
811.158	27036
811.299	27329
811.441	27473
811.582	27393
811.724	27180
811.865	26967
812.007	26975
812.148	27203
812.29	27024
812.431	27252
812.573	27389
812.714	27447
812.855	27553
812.997	27663
813.138	27861
813.279	27736
813.421	27576
813.562	27519
813.703	27348
813.845	27363
813.986	27066
814.127	26952
814.268	26785
814.41	26826
814.551	26796
814.692	26762
814.833	26640
814.974	26762
815.115	26796
815.256	26750
815.397	26583
815.539	26777
815.68	26537
815.821	26579
815.962	26602
816.103	26552
816.244	26450
816.385	26408
816.526	26191
816.666	26153
816.807	26031
816.948	26043
817.089	26119
817.23	26157
817.371	25818
817.512	25925
817.653	25966
817.793	25963
817.934	26096
818.075	26012
818.216	26043
818.356	26001
818.497	25875
818.638	25753
818.778	25852
818.919	25856
819.06	25814
819.2	25902
819.341	25982
819.481	26077
819.622	26218
819.762	26336
819.903	26298
820.043	26138
820.184	26176
820.324	26145
820.465	26271
820.605	26218
820.746	26088
820.886	26092
821.026	26027
821.167	26107
821.307	26142
821.447	26031
821.588	25883
821.728	25826
821.868	25670
822.008	25479
822.149	25594
822.289	25556
822.429	25225
822.569	25228
822.709	25206
822.849	24943
822.99	25034
823.13	24954
823.27	24977
823.41	24909
823.55	24745
823.69	24825
823.83	24825
823.97	24776
824.11	24540
824.25	24703
824.389	24639
824.529	24726
824.669	24673
824.809	24715
824.949	24749
825.089	24692
825.228	24620
825.368	24319
825.508	24620
825.648	24464
825.787	24646
825.927	24578
826.067	24475
826.206	24502
826.346	24490
826.485	24578
826.625	24509
826.765	24570
826.904	24566
827.044	24270
827.183	24361
827.323	24205
827.462	24353
827.601	24243
827.741	24247
827.88	24300
828.02	24095
828.159	24254
828.298	24186
828.437	24315
828.577	24186
828.716	24422
828.855	24117
828.994	24083
829.134	23992
829.273	24015
829.412	23973
829.551	23863
829.69	23961
829.829	23908
829.968	23965
830.107	24011
830.246	23984
830.385	23813
830.524	23805
830.663	23828
830.802	23676
830.941	23589
831.08	23661
831.219	23627
831.357	23539
831.496	23729
831.635	23630
831.774	23448
831.913	23421
832.051	23364
832.19	23212
832.329	23455
832.467	23288
832.606	23170
832.744	23223
832.883	23299
833.022	23288
833.16	23250
833.299	23303
833.437	23216
833.576	23326
833.714	23315
833.852	23417
833.991	23349
834.129	23414
834.267	23318
834.406	23235
834.544	23220
834.682	23265
834.821	23185
834.959	23573
835.097	23208
835.235	23364
835.373	23326
835.511	23254
835.65	23178
835.788	23124
835.926	23010
836.064	22953
836.202	23098
836.34	23044
836.478	23193
836.615	23185
836.753	23155
836.891	23261
837.029	23220
837.167	23159
837.305	22980
837.443	23178
837.58	23010
837.718	23052
837.856	23079
837.993	22927
838.131	22919
838.269	22858
838.406	22972
838.544	22847
838.681	22603
838.819	22649
838.956	22626
839.094	22626
839.231	22512
839.369	22691
839.506	22824
839.643	22656
839.781	22497
839.918	22459
840.055	22413
840.193	22546
840.33	22413
840.467	22440
840.604	22550
840.742	22713
840.879	22398
841.016	22428
841.153	22352
841.29	22519
841.427	22375
841.564	22557
841.701	22367
841.838	22390
841.975	22284
842.112	22371
842.249	22337
842.385	22398
842.522	22390
842.659	22371
842.796	22128
842.933	22204
843.069	22109
843.206	22147
843.343	22166
843.479	21998
843.616	22200
843.752	21937
843.889	22090
844.025	22101
844.162	22029
844.298	22010
844.435	21968
844.571	21949
844.708	22002
844.844	22105
844.98	22177
845.117	21934
845.253	21835
845.389	21835
845.525	21789
845.661	21861
845.798	21641
845.934	21686
846.07	21610
846.206	21667
846.342	21846
846.478	21660
846.614	21530
846.75	21287
846.886	21481
847.022	21504
847.158	21526
847.294	21534
847.429	21492
847.565	21367
847.701	21587
847.837	21081
847.972	21112
848.108	21245
848.244	21294
848.379	21169
848.515	20967
848.65	21081
848.786	21066
848.921	21070
849.057	21142
849.192	21226
849.328	21028
849.463	20979
849.598	21039
849.734	20868
849.869	20826
850.004	20921
850.14	20929
850.275	20861
850.41	20670
850.545	20849
850.68	20796
850.815	20804
850.95	20743
851.085	20960
851.22	20914
851.355	20815
851.49	20788
851.625	20845
851.76	20823
851.895	20689
852.03	20609
852.165	20735
852.299	20910
852.434	20849
852.569	20788
852.703	20792
852.838	20750
852.973	20914
853.107	20880
853.242	20705
853.376	20594
853.511	20537
853.645	20598
853.78	20750
853.914	20670
854.048	20556
854.183	20648
854.317	20530
854.451	20883
854.585	20598
854.72	20556
854.854	20682
854.988	20507
855.122	20697
855.256	20511
855.39	20617
855.524	20663
855.658	20617
855.792	20735
855.926	20731
856.06	20712
856.194	20682
856.327	20625
856.461	20689
856.595	20556
856.729	20583
856.862	20632
856.996	20606
857.13	20655
857.263	20807
857.397	20678
857.53	20613
857.664	20598
857.797	20705
857.931	20811
858.064	20625
858.197	20708
858.331	20480
858.464	20621
858.597	20503
858.731	20503
858.864	20651
858.997	20488
859.13	20617
859.263	20625
859.396	20716
859.529	20530
859.662	20663
859.795	20594
859.928	20686
860.061	20758
860.194	20758
860.327	20533
860.46	20648
860.592	20811
860.725	20765
860.858	20773
860.99	20556
861.123	20469
861.256	20609
861.388	20636
861.521	21321
861.653	20488
861.786	20431
861.918	20351
862.05	20503
862.183	20518
862.315	20415
862.447	20754
862.58	20492
862.712	20393
862.844	20324
862.976	20450
863.108	20427
863.24	20868
863.372	20271
863.504	20366
863.636	20313
863.768	20343
863.9	20317
864.032	20229
864.164	20263
864.296	20290
864.428	20541
864.559	20400
864.691	20336
864.823	20332
864.954	20282
865.086	20396
865.217	20370
865.349	20107
865.48	20267
865.612	20305
865.743	20343
865.875	20286
866.006	20180
866.137	20210
866.269	20328
866.4	20286
866.531	20153
866.662	20195
866.793	20138
866.924	20180
867.055	20149
867.186	20320
867.317	20199
867.448	20088
867.579	20183
867.71	20199
867.841	20031
867.972	20183
868.103	20237
868.233	20210
868.364	20039
868.495	20244
868.625	20484
868.756	20488
868.886	20377
869.017	20389
869.147	20484
869.278	20648
869.408	20476
869.539	20385
869.669	20469
869.799	20526
869.929	20492
870.06	20594
870.19	20613
870.32	20617
870.45	20864
870.58	20785
870.71	20887
870.84	20906
870.97	20838
871.1	20918
871.23	21043
871.36	21005
871.489	20853
871.619	20845
871.749	20990
871.879	21074
872.008	21051
872.138	21017
872.267	20994
872.397	20895
872.526	20800
872.656	20914
872.785	20811
872.915	20998
873.044	21070
873.173	21218
873.303	21096
873.432	21131
873.561	21131
873.69	21081
873.819	21032
873.948	21085
874.077	21154
874.206	20982
874.335	21024
874.464	21150
874.593	21241
874.722	21272
874.851	21310
874.979	21363
875.108	21252
875.237	21313
875.365	21199
875.494	21237
875.623	21294
875.751	21135
875.88	21443
876.008	21382
876.136	21428
876.265	21705
876.393	21808
876.521	21686
876.65	21622
876.778	21625
876.906	21671
877.034	21603
877.162	21785
877.29	21603
877.418	21656
877.546	21561
877.674	21652
877.802	21671
877.93	21606
878.058	21526
878.185	21450
878.313	21614
878.441	21572
878.568	21435
878.696	21610
878.824	21679
878.951	21682
879.079	21720
879.206	21964
879.333	21694
879.461	21736
879.588	21739
879.715	21789
879.842	21838
879.97	21808
880.097	21469
880.224	21492
880.351	21572
880.478	21477
880.605	21431
880.732	21450
880.859	21667
880.986	21481
881.112	21443
881.239	21214
881.366	21173
881.493	21165
881.619	21058
881.746	21047
881.872	20982
881.999	20994
882.125	20990
882.252	21009
882.378	21051
882.505	21112
882.631	20948
882.757	20815
882.883	20807
883.01	20651
883.136	20720
883.262	20571
883.388	20693
883.514	20777
883.64	20804
883.766	20674
883.892	20587
884.018	20526
884.143	20705
884.269	20777
884.395	20415
884.52	20377
884.646	20374
884.772	20294
884.897	20317
885.023	20423
885.148	20419
885.274	20473
885.399	20556
885.524	20404
885.65	20473
885.775	20377
885.9	20503
886.025	20476
886.15	20533
886.275	20362
886.4	20229
886.525	20339
886.65	20301
886.775	20233
886.9	20400
887.025	20655
887.149	20488
887.274	20157
887.399	20294
887.523	20199
887.648	20195
887.773	20065
887.897	20377
888.021	20347
888.146	20149
888.27	20290
888.395	20233
888.519	20286
888.643	20286
888.767	20244
888.891	20084
889.015	20069
889.139	20046
889.263	19974
889.387	20149
889.511	20164
889.635	20138
889.759	20058
889.883	19963
890.006	20016
890.13	20103
890.254	19849
890.377	19951
890.501	19830
890.624	19696
890.748	19677
890.871	19772
890.995	19647
891.118	19556
891.241	19491
891.364	19616
891.488	19696
891.611	19605
891.734	19525
891.857	19601
891.98	19628
892.103	19662
892.226	19567
892.349	19525
892.471	19354
892.594	19529
892.717	19514
892.839	19426
892.962	19628
893.085	19559
893.207	19449
893.33	19343
893.452	19438
893.575	19578
893.697	19426
893.819	19556
893.941	19700
894.064	19624
894.186	19468
894.308	19396
894.43	19601
894.552	19742
894.674	19609
894.796	19415
894.918	19476
895.04	19415
895.161	19563
895.283	19529
895.405	19430
895.526	19457
895.648	19499
895.769	19400
895.891	19552
896.012	19582
896.134	19483
896.255	19506
896.376	19369
896.498	19468
896.619	19609
896.74	19616
896.861	19609
896.982	19890
897.103	19989
897.224	19845
897.345	19799
897.466	19567
897.587	19693
897.708	19776
897.828	19784
897.949	19658
898.07	19510
898.19	19571
898.311	19712
898.431	19662
898.552	19655
898.672	19795
898.792	19860
898.913	19738
899.033	19624
899.153	19502
899.273	19533
899.393	19472
899.513	19552
899.633	19426
899.753	19556
899.873	19403
899.993	19571
900.113	19335
900.232	19476
900.352	19453
900.472	19274
900.591	19289
900.711	19297
900.83	19244
900.95	19373
901.069	19247
901.189	19236
901.308	18993
901.427	18848
901.546	18867
901.665	18867
901.784	18875
901.904	18722
902.023	18604
902.141	18551
902.26	18395
902.379	18506
902.498	18475
902.617	18296
902.735	18410
902.854	18422
902.973	18292
903.091	18155
903.21	18045
903.328	18064
903.446	17954
903.565	17893
903.683	17885
903.801	17771
903.919	17764
904.038	17790
904.156	17604
904.274	17611
904.392	17615
904.51	17630
904.627	17570
904.745	17619
904.863	17684
904.981	17440
905.098	17440
905.216	17364
905.334	17334
905.451	17277
905.569	17337
905.686	17318
905.803	17311
905.921	17200
906.038	17151
906.155	17105
906.272	17128
906.389	16995
906.506	16801
906.623	16869
906.74	16793
906.857	16683
906.974	16683
907.091	16828
907.208	17048
907.324	16873
907.441	16759
907.557	16630
907.674	16622
907.79	16443
907.907	16531
908.023	16554
908.139	16558
908.256	16607
908.372	16470
908.488	16421
908.604	16314
908.72	16249
908.836	16360
908.952	16204
909.068	16322
909.184	16405
909.3	16314
909.415	16291
909.531	16306
909.647	16109
909.762	16021
909.878	15956
909.993	16051
910.108	15930
910.224	15953
910.339	16017
910.454	15865
910.57	15876
910.685	15816
910.8	16082
910.915	15930
911.03	15804
911.145	15591
911.259	15701
911.374	15644
911.489	15504
911.604	15431
911.718	15386
911.833	15325
911.947	15241
912.062	15332
912.176	15450
912.291	15389
912.405	15447
912.519	15622
912.633	15591
912.748	15428
912.862	15336
912.976	15173
913.09	15001
913.204	15233
913.318	15222
913.431	15256
913.545	15207
913.659	15405
913.772	15104
913.886	15001
914	14990
914.113	15047
914.226	15009
914.34	15051
914.453	14895
914.566	14967
914.68	14792
914.793	14845
914.906	14697
915.019	14629
915.132	14545
915.245	14499
915.358	14674
915.47	14651
915.583	14640
915.696	14674
915.809	14765
915.921	14727
916.034	14518
916.146	14484
916.259	14560
916.371	14541
916.483	14571
916.595	14469
916.708	14400
916.82	14313
916.932	14419
917.044	14473
917.156	14374
917.268	14244
917.38	14301
917.491	14263
917.603	14282
917.715	14434
917.826	14415
917.938	14199
918.049	14149
918.161	14267
918.272	14408
918.384	14278
918.495	14210
918.606	14145
918.717	14088
918.828	14180
918.939	14119
919.05	13951
919.161	13989
919.272	13879
919.383	13974
919.494	14103
919.604	14199
919.715	13974
919.826	13894
919.936	13989
920.047	14142
920.157	14054
920.267	14210
920.378	14119
920.488	13982
920.598	14073
920.708	14328
920.818	14138
920.928	14077
921.038	14290
921.148	14332
921.258	13997
921.368	13883
921.477	13822
921.587	13776
921.697	13609
921.806	13780
921.916	13700
922.025	13594
922.134	13434
922.244	13495
922.353	13533
922.462	13327
922.571	13217
922.68	13107
922.789	13088
922.898	13053
923.007	12985
923.116	13095
923.224	13069
923.333	13069
923.442	12996
923.55	12981
923.659	12939
923.767	12909
923.876	12932
923.984	12882
924.092	12825
924.201	12825
924.309	12863
924.417	12840
924.525	12783
924.633	12768
924.741	13628
924.849	12448
924.956	12677
925.064	12570
925.172	12410
925.279	12479
925.387	12566
925.494	12528
925.602	12623
925.709	12551
925.816	12429
925.924	12369
926.031	12566
926.138	12441
926.245	12433
926.352	12380
926.459	12540
926.566	12570
926.673	12376
926.779	12266
926.886	12323
926.993	12110
927.099	12148
927.206	12026
927.312	12034
927.419	12213
927.525	12015
927.631	12159
927.737	11988
927.843	11961
927.95	11840
928.056	11920
928.162	11958
928.267	11885
928.373	12642
928.479	11996
928.585	11703
928.69	11897
928.796	11977
928.901	11821
929.007	11707
929.112	11813
929.218	11676
929.323	11718
929.428	11676
929.533	11726
929.638	11619
929.743	11505
929.848	11661
929.953	11539
930.058	11493
930.163	11311
930.267	11417
930.372	11452
930.477	11337
930.581	11596
930.685	11376
930.79	11254
930.894	11277
930.998	11242
931.103	11410
931.207	11056
931.311	10923
931.415	10850
931.519	10634
931.623	10641
