Data from test_V78500241_2673.txt Node
Date: Fri Mar 25 15:28:28 CST 2022
User: usil
Spectrometer: V785-0024
Trigger mode: 0
Integration Time (sec): 4.000000E-1
Scans to average: 1
Nonlinearity correction enabled: false
Boxcar width: 0
Storing dark spectrum: false
XAxis mode: Wavelengths
Number of Pixels in Spectrum: 1024
>>>>>Begin Spectral Data<<<<<
801.071	27032
801.214	26956
801.356	26613
801.499	26629
801.641	26545
801.783	26400
801.926	26465
802.068	26571
802.211	26271
802.353	26271
802.496	26244
802.638	26043
802.78	25966
802.923	26027
803.065	26035
803.208	26016
803.35	26077
803.492	26199
803.635	26244
803.777	26065
803.919	26366
804.061	26552
804.204	26393
804.346	26267
804.488	25997
804.63	26164
804.773	26111
804.915	26229
805.057	26218
805.199	26218
805.341	26183
805.483	26358
805.626	26221
805.768	26164
805.91	26278
806.052	26282
806.194	26290
806.336	26419
806.478	26218
806.62	26389
806.762	26358
806.904	26625
807.046	26712
807.188	26853
807.33	26842
807.472	26731
807.614	26644
807.756	26674
807.898	26587
808.04	26450
808.182	26431
808.324	26469
808.465	26617
808.607	26796
808.749	26910
808.891	26971
809.033	26994
809.174	26994
809.316	26952
809.458	26849
809.6	26807
809.741	26880
809.883	27100
810.025	27203
810.166	27188
810.308	27260
810.45	27119
810.591	26948
810.733	26853
810.875	26823
811.016	26800
811.158	26686
811.299	26967
811.441	27081
811.582	27047
811.724	26887
811.865	26811
812.007	26887
812.148	26758
812.29	26929
812.431	27089
812.573	27188
812.714	27283
812.855	27477
812.997	27351
813.138	27515
813.279	27420
813.421	27389
813.562	27268
813.703	27268
813.845	27074
813.986	26754
814.127	26514
814.268	26579
814.41	26651
814.551	26514
814.692	26648
814.833	26617
814.974	26415
815.115	26442
815.256	26518
815.397	26495
815.539	26381
815.68	26381
815.821	26298
815.962	26278
816.103	26347
816.244	26172
816.385	26084
816.526	26115
816.666	25852
816.807	25769
816.948	25757
817.089	25868
817.23	25769
817.371	25639
817.512	25959
817.653	25833
817.793	25788
817.934	25753
818.075	25868
818.216	25811
818.356	25784
818.497	25696
818.638	25457
818.778	25590
818.919	25457
819.06	25666
819.2	25791
819.341	25769
819.481	25746
819.622	25955
819.762	26111
819.903	26027
820.043	25982
820.184	26058
820.324	26081
820.465	25947
820.605	25909
820.746	25784
820.886	25753
821.026	25780
821.167	25856
821.307	25989
821.447	25780
821.588	25685
821.728	25609
821.868	25407
822.008	25263
822.149	25327
822.289	25354
822.429	24985
822.569	24935
822.709	24787
822.849	24749
822.99	24829
823.13	24677
823.27	24749
823.41	24627
823.55	24483
823.69	24635
823.83	24593
823.97	24494
824.11	24369
824.25	24334
824.389	24247
824.529	24441
824.669	24456
824.809	24525
824.949	24441
825.089	24547
825.228	24403
825.368	24296
825.508	24167
825.648	24357
825.787	24235
825.927	24319
826.067	24197
826.206	24247
826.346	24376
826.485	24361
826.625	24220
826.765	24388
826.904	24232
827.044	23980
827.183	24045
827.323	23977
827.462	24079
827.601	23973
827.741	24007
827.88	23904
828.02	23790
828.159	24041
828.298	23840
828.437	24110
828.577	23832
828.716	23901
828.855	23912
828.994	23672
829.134	23562
829.273	23566
829.412	23630
829.551	23577
829.69	23619
829.829	23714
829.968	23737
830.107	23710
830.246	23680
830.385	23661
830.524	23554
830.663	23520
830.802	23414
830.941	23204
831.08	23178
831.219	23345
831.357	23326
831.496	23516
831.635	23246
831.774	23117
831.913	23102
832.051	23132
832.19	23117
832.329	23060
832.467	22915
832.606	22965
832.744	22942
832.883	22915
833.022	22946
833.16	22881
833.299	22927
833.437	22957
833.576	23025
833.714	23003
833.852	23052
833.991	23067
834.129	23098
834.267	23060
834.406	23010
834.544	23136
834.682	23079
834.821	22984
834.959	23261
835.097	23060
835.235	23151
835.373	23086
835.511	22908
835.65	22942
835.788	22854
835.926	22618
836.064	22702
836.202	22721
836.34	22915
836.478	22889
836.615	22927
836.753	22957
836.891	22896
837.029	22755
837.167	22828
837.305	22824
837.443	22828
837.58	22740
837.718	22869
837.856	22675
837.993	22679
838.131	22763
838.269	22675
838.406	22721
838.544	22561
838.681	22367
838.819	22352
838.956	22230
839.094	22272
839.231	22158
839.369	22344
839.506	22656
839.643	22519
839.781	22276
839.918	22048
840.055	22188
840.193	22207
840.33	22040
840.467	22166
840.604	22207
840.742	22272
840.879	22128
841.016	22128
841.153	22044
841.29	22249
841.427	22139
841.564	22196
841.701	22124
841.838	22055
841.975	22025
842.112	22147
842.249	22082
842.385	21979
842.522	22169
842.659	21953
842.796	21918
842.933	21975
843.069	21770
843.206	21880
843.343	22109
843.479	21880
843.616	21960
843.752	21778
843.889	21717
844.025	21816
844.162	21671
844.298	21884
844.435	21720
844.571	21686
844.708	21671
844.844	21876
844.98	21876
845.117	21762
845.253	21679
845.389	21549
845.525	21519
845.661	21469
845.798	21454
845.934	21412
846.07	21485
846.206	21450
846.342	21595
846.478	21424
846.614	21245
846.75	21058
846.886	21104
847.022	21203
847.158	21043
847.294	21081
847.429	21264
847.565	21089
847.701	21397
847.837	21024
847.972	20876
848.108	20994
848.244	20929
848.379	20724
848.515	20674
848.65	20697
848.786	20842
848.921	20609
849.057	20849
849.192	20754
849.328	20750
849.463	20769
849.598	20667
849.734	20659
849.869	20636
850.004	20549
850.14	20590
850.275	20514
850.41	20396
850.545	20552
850.68	20537
850.815	20465
850.95	20545
851.085	20590
851.22	20454
851.355	20465
851.49	20511
851.625	20492
851.76	20587
851.895	20431
852.03	20419
852.165	20602
852.299	20655
852.434	20606
852.569	20488
852.703	20484
852.838	20552
852.973	20682
853.107	20625
853.242	20381
853.376	20168
853.511	20282
853.645	20370
853.78	20571
853.914	20358
854.048	20259
854.183	20339
854.317	20351
854.451	20499
854.585	20339
854.72	20385
854.854	20336
854.988	20244
855.122	20377
855.256	20145
855.39	20336
855.524	20423
855.658	20412
855.792	20355
855.926	20374
856.06	20370
856.194	20393
856.327	20275
856.461	20199
856.595	20313
856.729	20355
856.862	20431
856.996	20484
857.13	20362
857.263	20564
857.397	20419
857.53	20469
857.664	20343
857.797	20400
857.931	20469
858.064	20438
858.197	20454
858.331	20290
858.464	20267
858.597	20214
858.731	20381
858.864	20305
858.997	20389
859.13	20377
859.263	20317
859.396	20438
859.529	20294
859.662	20305
859.795	20233
859.928	20221
860.061	20457
860.194	20617
860.327	20396
860.46	20419
860.592	20404
860.725	20495
860.858	20446
860.99	20351
861.123	20244
861.256	20248
861.388	20389
861.521	20948
861.653	20286
861.786	20183
861.918	20237
862.05	20275
862.183	20393
862.315	20161
862.447	20347
862.58	20195
862.712	19997
862.844	20016
862.976	20149
863.108	20191
863.24	20636
863.372	20126
863.504	20005
863.636	20111
863.768	20035
863.9	20176
864.032	20054
864.164	20081
864.296	20161
864.428	20107
864.559	20088
864.691	20096
864.823	20058
864.954	19967
865.086	20043
865.217	20065
865.349	19936
865.48	19959
865.612	19883
865.743	20001
865.875	20024
866.006	19986
866.137	19928
866.269	19982
866.4	19989
866.531	19894
866.662	19780
866.793	19917
866.924	19879
867.055	19936
867.186	19951
867.317	19856
867.448	19913
867.579	19788
867.71	19830
867.841	19925
867.972	19784
868.103	19936
868.233	20043
868.364	19875
868.495	20039
868.625	20142
868.756	20218
868.886	20046
869.017	20168
869.147	20355
869.278	20282
869.408	20149
869.539	20043
869.669	20252
869.799	20130
869.929	20317
870.06	20332
870.19	20480
870.32	20457
870.45	20507
870.58	20609
870.71	20720
870.84	20697
870.97	20533
871.1	20556
871.23	20735
871.36	20716
871.489	20617
871.619	20727
871.749	20739
871.879	20708
872.008	20925
872.138	20705
872.267	20708
872.397	20598
872.526	20682
872.656	20598
872.785	20492
872.915	20693
873.044	20800
873.173	20781
873.303	20804
873.432	20895
873.561	20937
873.69	20746
873.819	20781
873.948	20971
874.077	20853
874.206	20716
874.335	20777
874.464	20887
874.593	20967
874.722	21146
874.851	21089
874.979	21001
875.108	21066
875.237	21039
875.365	20929
875.494	21001
875.623	21074
875.751	20925
875.88	21043
876.008	21161
876.136	21192
876.265	21481
876.393	21523
876.521	21507
876.65	21557
876.778	21359
876.906	21268
877.034	21424
877.162	21374
877.29	21336
877.418	21431
877.546	21412
877.674	21382
877.802	21393
877.93	21477
878.058	21420
878.185	21211
878.313	21298
878.441	21336
878.568	21165
878.696	21287
878.824	21382
878.951	21439
879.079	21416
879.206	21644
879.333	21648
879.461	21481
879.588	21519
879.715	21603
879.842	21599
879.97	21492
880.097	21108
880.224	21192
880.351	21222
880.478	21260
880.605	21127
880.732	21100
880.859	21332
880.986	21249
881.112	21287
881.239	21047
881.366	20937
881.493	20895
881.619	20864
881.746	20899
881.872	20754
881.999	20739
882.125	20701
882.252	20785
882.378	20731
882.505	21001
882.631	20613
882.757	20507
882.883	20613
883.01	20461
883.136	20400
883.262	20374
883.388	20320
883.514	20450
883.64	20556
883.766	20415
883.892	20309
884.018	20278
884.143	20362
884.269	20579
884.395	20282
884.52	20172
884.646	20286
884.772	20111
884.897	20065
885.023	20149
885.148	20320
885.274	20282
885.399	20263
885.524	20153
885.65	20202
885.775	20237
885.9	20103
886.025	20381
886.15	20237
886.275	20073
886.4	20142
886.525	20153
886.65	20081
886.775	20126
886.9	20252
887.025	20317
887.149	20100
887.274	20008
887.399	19811
887.523	19852
887.648	19875
887.773	19772
887.897	20012
888.021	19940
888.146	19909
888.27	19963
888.395	19986
888.519	19875
888.643	20024
888.767	19932
888.891	19864
889.015	19765
889.139	19791
889.263	19734
889.387	19849
889.511	19967
889.635	19959
889.759	19742
889.883	19689
890.006	19700
890.13	19788
890.254	19647
890.377	19613
890.501	19457
890.624	19472
890.748	19609
890.871	19533
890.995	19403
891.118	19282
891.241	19270
891.364	19324
891.488	19529
891.611	19411
891.734	19255
891.857	19457
891.98	19312
892.103	19388
892.226	19324
892.349	19225
892.471	19076
892.594	19362
892.717	19202
892.839	19316
892.962	19266
893.085	19327
893.207	19225
893.33	19171
893.452	19187
893.575	19247
893.697	19263
893.819	19468
893.941	19377
894.064	19392
894.186	19164
894.308	19034
894.43	19320
894.552	19373
894.674	19411
894.796	19152
894.918	19244
895.04	19148
895.161	19320
895.283	19289
895.405	19247
895.526	19221
895.648	19316
895.769	19316
895.891	19255
896.012	19419
896.134	19232
896.255	19285
896.376	19263
896.498	19339
896.619	19327
896.74	19202
896.861	19285
896.982	19521
897.103	19723
897.224	19556
897.345	19514
897.466	19346
897.587	19521
897.708	19601
897.828	19499
897.949	19403
898.07	19335
898.19	19388
898.311	19594
898.431	19438
898.552	19464
898.672	19525
898.792	19628
898.913	19525
899.033	19411
899.153	19335
899.273	19209
899.393	19331
899.513	19388
899.633	19183
899.753	19293
899.873	19225
899.993	19312
900.113	19232
900.232	19308
900.352	19095
900.472	19122
900.591	19034
900.711	19091
900.83	19095
900.95	19114
901.069	19152
901.189	19027
901.308	18642
901.427	18589
901.546	18646
901.665	18646
901.784	18642
901.904	18563
902.023	18433
902.141	18308
902.26	18163
902.379	18357
902.498	18220
902.617	18034
902.735	18228
902.854	18045
902.973	18064
903.091	17969
903.21	17771
903.328	17855
903.446	17722
903.565	17729
903.683	17695
903.801	17554
903.919	17668
904.038	17653
904.156	17334
904.274	17501
904.392	17414
904.51	17398
904.627	17315
904.745	17341
904.863	17478
904.981	17356
905.098	16987
905.216	17045
905.334	17132
905.451	17193
905.569	17132
905.686	17105
905.803	17132
905.921	16862
906.038	17045
906.155	16930
906.272	16797
906.389	16771
906.506	16660
906.623	16713
906.74	16664
906.857	16558
906.974	16558
907.091	16698
907.208	16805
907.324	16691
907.441	16497
907.557	16405
907.674	16466
907.79	16379
907.907	16303
908.023	16386
908.139	16371
908.256	16268
908.372	16265
908.488	16196
908.604	16116
908.72	16086
908.836	16158
908.952	16086
909.068	16067
909.184	16211
909.3	16055
909.415	16044
909.531	16105
909.647	15804
909.762	15903
909.878	15793
909.993	15850
910.108	15785
910.224	15816
910.339	15827
910.454	15660
910.57	15584
910.685	15542
910.8	15781
910.915	15785
911.03	15610
911.145	15564
911.259	15405
911.374	15321
911.489	15313
911.604	15313
911.718	15249
911.833	15283
911.947	15097
912.062	15135
912.176	15146
912.291	15233
912.405	15192
912.519	15393
912.633	15336
912.748	15119
912.862	15222
912.976	15001
913.09	14902
913.204	14944
913.318	15097
913.431	14986
913.545	15047
913.659	15066
913.772	14929
913.886	14853
914	14708
914.113	14952
914.226	14960
914.34	14864
914.453	14701
914.566	14883
914.68	14788
914.793	14693
914.906	14488
915.019	14355
915.132	14423
915.245	14400
915.358	14434
915.47	14427
915.583	14507
915.696	14533
915.809	14610
915.921	14579
916.034	14393
916.146	14362
916.259	14332
916.371	14332
916.483	14343
916.595	14210
916.708	14214
916.82	14275
916.932	14244
917.044	14210
917.156	14244
917.268	14062
917.38	14073
917.491	14142
917.603	14084
917.715	14138
917.826	14248
917.938	14043
918.049	14001
918.161	14050
918.272	14126
918.384	14221
918.495	14039
918.606	13978
918.717	13803
918.828	13959
918.939	13951
919.05	13837
919.161	13887
919.272	13647
919.383	13651
919.494	13864
919.604	14176
919.715	13898
919.826	13799
919.936	13864
920.047	13906
920.157	13822
920.267	13978
920.378	13875
920.488	13780
920.598	14054
920.708	14199
920.818	13986
920.928	13993
921.038	14206
921.148	14119
921.258	13765
921.368	13814
921.477	13651
921.587	13651
921.697	13544
921.806	13620
921.916	13571
922.025	13263
922.134	13297
922.244	13217
922.353	13297
922.462	13110
922.571	13118
922.68	12977
922.789	12905
922.898	12901
923.007	12909
923.116	12943
923.224	12856
923.333	12920
923.442	12753
923.55	12612
923.659	12726
923.767	12814
923.876	12700
923.984	12779
924.092	12730
924.201	12665
924.309	12673
924.417	12563
924.525	12620
924.633	12612
924.741	13544
924.849	12300
924.956	12486
925.064	12407
925.172	12403
925.279	12365
925.387	12479
925.494	12266
925.602	12585
925.709	12414
925.816	12296
925.924	12266
926.031	12380
926.138	12304
926.245	12262
926.352	12224
926.459	12334
926.566	12418
926.673	12262
926.779	12136
926.886	12228
926.993	11965
927.099	11984
927.206	11954
927.312	11893
927.419	11992
927.525	11920
927.631	11958
927.737	11824
927.843	11775
927.95	11745
928.056	11790
928.162	11798
928.267	11885
928.373	12327
928.479	11809
928.585	11630
928.69	11718
928.796	11813
928.901	11748
929.007	11558
929.112	11718
929.218	11638
929.323	11516
929.428	11463
929.533	11653
929.638	11444
929.743	11497
929.848	11448
929.953	11383
930.058	11383
930.163	11235
930.267	11273
930.372	11345
930.477	11155
930.581	11512
930.685	11261
930.79	11094
930.894	11090
930.998	11056
931.103	11178
931.207	10835
931.311	10767
931.415	10714
931.519	10573
931.623	10588
