Data from test_V78500241_3231.txt Node
Date: Fri Mar 25 15:32:21 CST 2022
User: usil
Spectrometer: V785-0024
Trigger mode: 0
Integration Time (sec): 4.000000E-1
Scans to average: 1
Nonlinearity correction enabled: false
Boxcar width: 0
Storing dark spectrum: false
XAxis mode: Wavelengths
Number of Pixels in Spectrum: 1024
>>>>>Begin Spectral Data<<<<<
801.071	27192
801.214	27108
801.356	26853
801.499	26834
801.641	26819
801.783	26727
801.926	26716
802.068	26613
802.211	26644
802.353	26552
802.496	26499
802.638	26336
802.78	26347
802.923	26275
803.065	26221
803.208	26298
803.35	26366
803.492	26492
803.635	26552
803.777	26495
803.919	26499
804.061	26826
804.204	26686
804.346	26317
804.488	26374
804.63	26446
804.773	26465
804.915	26450
805.057	26613
805.199	26434
805.341	26564
805.483	26686
805.626	26689
805.768	26522
805.91	26514
806.052	26655
806.194	26507
806.336	26773
806.478	26667
806.62	26526
806.762	26705
806.904	26887
807.046	27169
807.188	27070
807.33	27001
807.472	27009
807.614	26872
807.756	27005
807.898	26838
808.04	26845
808.182	26868
808.324	27009
808.465	27036
808.607	27039
808.749	27264
808.891	27321
809.033	27367
809.174	27283
809.316	27142
809.458	27260
809.6	27233
809.741	27180
809.883	27298
810.025	27473
810.166	27545
810.308	27671
810.45	27496
810.591	27386
810.733	27287
810.875	27233
811.016	27104
811.158	27055
811.299	27218
811.441	27332
811.582	27393
811.724	27264
811.865	27207
812.007	27222
812.148	27249
812.29	27180
812.431	27351
812.573	27496
812.714	27545
812.855	27789
812.997	27838
813.138	27930
813.279	27804
813.421	27652
813.562	27759
813.703	27481
813.845	27401
813.986	27081
814.127	26998
814.268	27013
814.41	26876
814.551	26876
814.692	27032
814.833	26739
814.974	26819
815.115	26883
815.256	26708
815.397	26910
815.539	26792
815.68	26716
815.821	26651
815.962	26701
816.103	26575
816.244	26419
816.385	26488
816.526	26267
816.666	26252
816.807	26065
816.948	26164
817.089	26317
817.23	26145
817.371	26168
817.512	26142
817.653	26058
817.793	26176
817.934	26107
818.075	26088
818.216	26206
818.356	26107
818.497	26088
818.638	25921
818.778	25875
818.919	25921
819.06	25947
819.2	26027
819.341	26031
819.481	26172
819.622	26271
819.762	26522
819.903	26294
820.043	26122
820.184	26252
820.324	26187
820.465	26111
820.605	26233
820.746	26199
820.886	26046
821.026	26046
821.167	26122
821.307	26183
821.447	26130
821.588	25993
821.728	25970
821.868	25689
822.008	25575
822.149	25582
822.289	25712
822.429	25141
822.569	25247
822.709	25369
822.849	25236
822.99	25156
823.13	25046
823.27	25076
823.41	24909
823.55	24817
823.69	24920
823.83	24894
823.97	24962
824.11	24688
824.25	24601
824.389	24700
824.529	24772
824.669	24715
824.809	24897
824.949	24764
825.089	24760
825.228	24768
825.368	24540
825.508	24604
825.648	24646
825.787	24639
825.927	24563
826.067	24536
826.206	24616
826.346	24547
826.485	24692
826.625	24593
826.765	24734
826.904	24753
827.044	24342
827.183	24384
827.323	24243
827.462	24334
827.601	24254
827.741	24186
827.88	24300
828.02	24178
828.159	24308
828.298	24429
828.437	24426
828.577	24190
828.716	24448
828.855	24148
828.994	23946
829.134	24034
829.273	24018
829.412	24038
829.551	23984
829.69	24117
829.829	24076
829.968	24072
830.107	24087
830.246	23935
830.385	23984
830.524	23901
830.663	23843
830.802	23733
830.941	23649
831.08	23551
831.219	23764
831.357	23809
831.496	23931
831.635	23642
831.774	23516
831.913	23551
832.051	23448
832.19	23429
832.329	23478
832.467	23235
832.606	23246
832.744	23227
832.883	23315
833.022	23322
833.16	23337
833.299	23429
833.437	23326
833.576	23414
833.714	23433
833.852	23501
833.991	23539
834.129	23414
834.267	23360
834.406	23448
834.544	23452
834.682	23478
834.821	23372
834.959	23554
835.097	23318
835.235	23600
835.373	23406
835.511	23334
835.65	23204
835.788	23193
835.926	23242
836.064	23124
836.202	23056
836.34	23250
836.478	23345
836.615	23216
836.753	23273
836.891	23402
837.029	23204
837.167	23242
837.305	23166
837.443	23155
837.58	23022
837.718	23132
837.856	23022
837.993	22987
838.131	23143
838.269	22930
838.406	23075
838.544	22942
838.681	22835
838.819	22675
838.956	22611
839.094	22554
839.231	22618
839.369	22774
839.506	22999
839.643	22885
839.781	22618
839.918	22493
840.055	22645
840.193	22584
840.33	22474
840.467	22432
840.604	22462
840.742	22672
840.879	22402
841.016	22443
841.153	22451
841.29	22622
841.427	22573
841.564	22561
841.701	22436
841.838	22424
841.975	22379
842.112	22413
842.249	22363
842.385	22196
842.522	22440
842.659	22405
842.796	22238
842.933	22230
843.069	22105
843.206	22246
843.343	22310
843.479	22242
843.616	22284
843.752	22112
843.889	22086
844.025	22128
844.162	22067
844.298	22204
844.435	22059
844.571	21972
844.708	22166
844.844	22204
844.98	22162
845.117	22105
845.253	22097
845.389	21850
845.525	21956
845.661	21888
845.798	21781
845.934	21804
846.07	21800
846.206	21918
846.342	21850
846.478	21785
846.614	21709
846.75	21500
846.886	21477
847.022	21618
847.158	21526
847.294	21454
847.429	21488
847.565	21576
847.701	21694
847.837	21310
847.972	21176
848.108	21336
848.244	21268
848.379	21218
848.515	21039
848.65	21058
848.786	21138
848.921	21173
849.057	21112
849.192	21188
849.328	21146
849.463	21119
849.598	21138
849.734	21100
849.869	20960
850.004	20906
850.14	20952
850.275	20887
850.41	20842
850.545	20910
850.68	20826
850.815	20849
850.95	20921
851.085	21036
851.22	20906
851.355	20861
851.49	20944
851.625	20845
851.76	20838
851.895	20815
852.03	20758
852.165	20830
852.299	20979
852.434	20963
852.569	20921
852.703	20853
852.838	20887
852.973	21009
853.107	21020
853.242	20765
853.376	20743
853.511	20678
853.645	20636
853.78	20830
853.914	20739
854.048	20663
854.183	20708
854.317	20651
854.451	20834
854.585	20765
854.72	20594
854.854	20754
854.988	20754
855.122	20731
855.256	20663
855.39	20720
855.524	20750
855.658	20746
855.792	20697
855.926	20659
856.06	20765
856.194	20811
856.327	20644
856.461	20590
856.595	20724
856.729	20625
856.862	20754
856.996	20629
857.13	20792
857.263	20804
857.397	20762
857.53	20484
857.664	20765
857.797	20739
857.931	20838
858.064	20727
858.197	20800
858.331	20708
858.464	20648
858.597	20609
858.731	20731
858.864	20667
858.997	20629
859.13	20762
859.263	20746
859.396	20781
859.529	20663
859.662	20686
859.795	20636
859.928	20773
860.061	20785
860.194	20861
860.327	20724
860.46	20697
860.592	20785
860.725	20861
860.858	20758
860.99	20686
861.123	20682
861.256	20674
861.388	20678
861.521	21218
861.653	20408
861.786	20457
861.918	20583
862.05	20564
862.183	20598
862.315	20697
862.447	20876
862.58	20583
862.712	20332
862.844	20465
862.976	20579
863.108	20511
863.24	20788
863.372	20370
863.504	20400
863.636	20412
863.768	20419
863.9	20404
864.032	20469
864.164	20389
864.296	20442
864.428	20518
864.559	20484
864.691	20511
864.823	20454
864.954	20419
865.086	20446
865.217	20339
865.349	20305
865.48	20210
865.612	20366
865.743	20434
865.875	20389
866.006	20271
866.137	20248
866.269	20305
866.4	20332
866.531	20298
866.662	20183
866.793	20248
866.924	20142
867.055	20290
867.186	20244
867.317	20237
867.448	20248
867.579	20221
867.71	20233
867.841	20187
867.972	20199
868.103	20202
868.233	20278
868.364	20278
868.495	20294
868.625	20549
868.756	20640
868.886	20381
869.017	20480
869.147	20724
869.278	20560
869.408	20575
869.539	20454
869.669	20651
869.799	20541
869.929	20499
870.06	20648
870.19	20792
870.32	20743
870.45	20788
870.58	20819
870.71	21116
870.84	21074
870.97	20960
871.1	20910
871.23	21043
871.36	21066
871.489	20967
871.619	21077
871.749	21058
871.879	21199
872.008	21157
872.138	21142
872.267	21074
872.397	20921
872.526	20956
872.656	20986
872.785	20956
872.915	21100
873.044	21154
873.173	21024
873.303	21184
873.432	21169
873.561	21195
873.69	21214
873.819	21039
873.948	21116
874.077	21096
874.206	21165
874.335	21112
874.464	21237
874.593	21439
874.722	21268
874.851	21306
874.979	21412
875.108	21401
875.237	21279
875.365	21351
875.494	21450
875.623	21466
875.751	21355
875.88	21287
876.008	21549
876.136	21564
876.265	21835
876.393	21918
876.521	21797
876.65	21907
876.778	21766
876.906	21747
877.034	21648
877.162	21812
877.29	21705
877.418	21720
877.546	21701
877.674	21747
877.802	21709
877.93	21736
878.058	21671
878.185	21675
878.313	21663
878.441	21705
878.568	21549
878.696	21641
878.824	21553
878.951	21797
879.079	21857
879.206	21926
879.333	21903
879.461	21869
879.588	21793
879.715	21892
879.842	21975
879.97	21892
880.097	21622
880.224	21591
880.351	21545
880.478	21530
880.605	21622
880.732	21492
880.859	21827
880.986	21557
881.112	21652
881.239	21538
881.366	21249
881.493	21161
881.619	21176
881.746	21188
881.872	21104
881.999	21036
882.125	20994
882.252	21154
882.378	21142
882.505	21195
882.631	20994
882.757	20910
882.883	20876
883.01	20842
883.136	20921
883.262	20613
883.388	20560
883.514	20845
883.64	20781
883.766	20773
883.892	20606
884.018	20621
884.143	20754
884.269	20880
884.395	20556
884.52	20415
884.646	20454
884.772	20298
884.897	20324
885.023	20499
885.148	20670
885.274	20545
885.399	20606
885.524	20526
885.65	20476
885.775	20613
885.9	20393
886.025	20579
886.15	20552
886.275	20419
886.4	20518
886.525	20324
886.65	20473
886.775	20370
886.9	20579
887.025	20568
887.149	20533
887.274	20278
887.399	20275
887.523	20229
887.648	20176
887.773	20161
887.897	20298
888.021	20343
888.146	20282
888.27	20309
888.395	20393
888.519	20221
888.643	20244
888.767	20309
888.891	20122
889.015	19986
889.139	20191
889.263	20027
889.387	20126
889.511	20263
889.635	20218
889.759	19974
889.883	19947
890.006	20119
890.13	20081
890.254	20050
890.377	19974
890.501	19902
890.624	19875
890.748	19932
890.871	19712
890.995	19651
891.118	19594
891.241	19818
891.364	19662
891.488	19837
891.611	19582
891.734	19693
891.857	19624
891.98	19632
892.103	19681
892.226	19674
892.349	19624
892.471	19445
892.594	19499
892.717	19586
892.839	19533
892.962	19559
893.085	19639
893.207	19480
893.33	19449
893.452	19476
893.575	19689
893.697	19480
893.819	19845
893.941	19708
894.064	19670
894.186	19548
894.308	19552
894.43	19658
894.552	19765
894.674	19537
894.796	19502
894.918	19556
895.04	19556
895.161	19613
895.283	19620
895.405	19460
895.526	19483
895.648	19548
895.769	19613
895.891	19525
896.012	19765
896.134	19590
896.255	19499
896.376	19594
896.498	19563
896.619	19605
896.74	19487
896.861	19674
896.982	19887
897.103	19967
897.224	19727
897.345	19696
897.466	19727
897.587	19845
897.708	19944
897.828	19909
897.949	19879
898.07	19586
898.19	19761
898.311	19822
898.431	19753
898.552	19750
898.672	19830
898.792	20039
898.913	19845
899.033	19742
899.153	19613
899.273	19468
899.393	19407
899.513	19525
899.633	19620
899.753	19696
899.873	19491
899.993	19563
900.113	19578
900.232	19559
900.352	19350
900.472	19320
900.591	19331
900.711	19384
900.83	19320
900.95	19548
901.069	19567
901.189	19289
901.308	19080
901.427	18882
901.546	19023
901.665	18943
901.784	19015
901.904	18973
902.023	18654
902.141	18555
902.26	18574
902.379	18483
902.498	18521
902.617	18509
902.735	18486
902.854	18445
902.973	18433
903.091	18125
903.21	18087
903.328	18098
903.446	18117
903.565	18007
903.683	18019
903.801	17874
903.919	17908
904.038	17882
904.156	17771
904.274	17870
904.392	17726
904.51	17741
904.627	17794
904.745	17718
904.863	17760
904.981	17535
905.098	17334
905.216	17429
905.334	17585
905.451	17524
905.569	17436
905.686	17356
905.803	17417
905.921	17189
906.038	17269
906.155	17261
906.272	17143
906.389	17181
906.506	16987
906.623	17083
906.74	16915
906.857	16885
906.974	16839
907.091	17060
907.208	17098
907.324	16938
907.441	16984
907.557	16660
907.674	16725
907.79	16588
907.907	16645
908.023	16782
908.139	16767
908.256	16694
908.372	16554
908.488	16577
908.604	16508
908.72	16413
908.836	16386
908.952	16333
909.068	16531
909.184	16519
909.3	16367
909.415	16436
909.531	16485
909.647	16272
909.762	16169
909.878	16143
909.993	16185
910.108	16067
910.224	16040
910.339	16124
910.454	15994
910.57	15857
910.685	15869
910.8	16207
910.915	16055
911.03	15934
911.145	15865
911.259	15694
911.374	15686
911.489	15629
911.604	15481
911.718	15428
911.833	15496
911.947	15450
912.062	15260
912.176	15553
912.291	15424
912.405	15584
912.519	15633
912.633	15614
912.748	15519
912.862	15466
912.976	15283
913.09	15142
913.204	15138
913.318	15310
913.431	15412
913.545	15397
913.659	15393
913.772	15264
913.886	15131
914	15036
914.113	15173
914.226	15256
914.34	15150
914.453	14925
914.566	15108
914.68	14979
914.793	15051
914.906	14804
915.019	14621
915.132	14686
915.245	14575
915.358	14765
915.47	14708
915.583	14686
915.696	14750
915.809	14746
915.921	14823
916.034	14716
916.146	14602
916.259	14625
916.371	14739
916.483	14731
916.595	14659
916.708	14480
916.82	14583
916.932	14518
917.044	14492
917.156	14533
917.268	14385
917.38	14454
917.491	14351
917.603	14412
917.715	14396
917.826	14499
917.938	14366
918.049	14176
918.161	14336
918.272	14495
918.384	14309
918.495	14324
918.606	14176
918.717	14039
918.828	14286
918.939	14077
919.05	14035
919.161	14016
919.272	13989
919.383	13959
919.494	14153
919.604	14377
919.715	14065
919.826	14073
919.936	14145
920.047	14191
920.157	14195
920.267	14313
920.378	14100
920.488	14100
920.598	14180
920.708	14408
920.818	14172
920.928	14218
921.038	14294
921.148	14347
921.258	14069
921.368	13963
921.477	13841
921.587	13856
921.697	13719
921.806	13849
921.916	13723
922.025	13636
922.134	13597
922.244	13563
922.353	13559
922.462	13438
922.571	13312
922.68	13263
922.789	13175
922.898	13209
923.007	13050
923.116	13164
923.224	13244
923.333	13240
923.442	13072
923.55	13008
923.659	13042
923.767	13137
923.876	13000
923.984	12985
924.092	13000
924.201	12954
924.309	12970
924.417	12924
924.525	12791
924.633	12897
924.741	13803
924.849	12635
924.956	12878
925.064	12662
925.172	12517
925.279	12498
925.387	12601
925.494	12631
925.602	12631
925.709	12612
925.816	12471
925.924	12551
926.031	12616
926.138	12574
926.245	12536
926.352	12494
926.459	12642
926.566	12654
926.673	12460
926.779	12361
926.886	12376
926.993	12201
927.099	12175
927.206	12133
927.312	12163
927.419	12243
927.525	12178
927.631	12213
927.737	12117
927.843	12068
927.95	11855
928.056	12022
928.162	12034
928.267	11980
928.373	12662
928.479	12072
928.585	11798
928.69	11935
928.796	11958
928.901	11931
929.007	11668
929.112	11874
929.218	11866
929.323	11764
929.428	11726
929.533	11855
929.638	11672
929.743	11710
929.848	11737
929.953	11695
930.058	11634
930.163	11452
930.267	11471
930.372	11509
930.477	11383
930.581	11630
930.685	11436
930.79	11337
930.894	11360
930.998	11227
931.103	11436
931.207	11166
931.311	11060
931.415	10946
931.519	10668
931.623	10790
