Data from test_V78500241_3397.txt Node
Date: Fri Mar 25 15:33:30 CST 2022
User: usil
Spectrometer: V785-0024
Trigger mode: 0
Integration Time (sec): 4.000000E-1
Scans to average: 1
Nonlinearity correction enabled: false
Boxcar width: 0
Storing dark spectrum: false
XAxis mode: Wavelengths
Number of Pixels in Spectrum: 1024
>>>>>Begin Spectral Data<<<<<
801.071	27424
801.214	27283
801.356	26971
801.499	26925
801.641	26849
801.783	26906
801.926	26861
802.068	26899
802.211	26785
802.353	26689
802.496	26461
802.638	26602
802.78	26423
802.923	26336
803.065	26404
803.208	26339
803.35	26533
803.492	26545
803.635	26636
803.777	26602
803.919	26670
804.061	26994
804.204	26590
804.346	26598
804.488	26636
804.63	26583
804.773	26461
804.915	26522
805.057	26648
805.199	26621
805.341	26640
805.483	26838
805.626	26674
805.768	26735
805.91	26686
806.052	26861
806.194	26670
806.336	26940
806.478	26739
806.62	26682
806.762	26830
806.904	27055
807.046	27146
807.188	27138
807.33	27028
807.472	27291
807.614	26998
807.756	26998
807.898	26940
808.04	26895
808.182	26876
808.324	26963
808.465	27074
808.607	27214
808.749	27306
808.891	27523
809.033	27408
809.174	27412
809.316	27230
809.458	27431
809.6	27283
809.741	27351
809.883	27496
810.025	27606
810.166	27599
810.308	27564
810.45	27534
810.591	27363
810.733	27332
810.875	27313
811.016	27112
811.158	27230
811.299	27374
811.441	27427
811.582	27443
811.724	27283
811.865	27313
812.007	27203
812.148	27230
812.29	27306
812.431	27481
812.573	27625
812.714	27732
812.855	27850
812.997	27842
813.138	27930
813.279	27781
813.421	27911
813.562	27835
813.703	27671
813.845	27526
813.986	27180
814.127	27089
814.268	27089
814.41	26921
814.551	27013
814.692	26796
814.833	26819
814.974	27032
815.115	27039
815.256	26807
815.397	26731
815.539	26887
815.68	26758
815.821	26594
815.962	26659
816.103	26689
816.244	26556
816.385	26606
816.526	26473
816.666	26271
816.807	26263
816.948	26172
817.089	26259
817.23	26278
817.371	26244
817.512	26176
817.653	26153
817.793	26024
817.934	26195
818.075	26183
818.216	26317
818.356	26153
818.497	26005
818.638	25868
818.778	25959
818.919	26043
819.06	26024
819.2	26043
819.341	26115
819.481	26134
819.622	26275
819.762	26545
819.903	26400
820.043	26438
820.184	26366
820.324	26339
820.465	26309
820.605	26313
820.746	26503
820.886	26225
821.026	26374
821.167	26206
821.307	26298
821.447	26180
821.588	26122
821.728	25993
821.868	25822
822.008	25655
822.149	25750
822.289	25586
822.429	25331
822.569	25419
822.709	25419
822.849	25247
822.99	25198
823.13	25278
823.27	25110
823.41	24989
823.55	24840
823.69	24989
823.83	25008
823.97	24897
824.11	24787
824.25	24703
824.389	24875
824.529	24863
824.669	24814
824.809	24840
824.949	24909
825.089	24844
825.228	24787
825.368	24627
825.508	24753
825.648	24570
825.787	24688
825.927	24703
826.067	24566
826.206	24768
826.346	24677
826.485	24669
826.625	24844
826.765	24939
826.904	24859
827.044	24490
827.183	24403
827.323	24384
827.462	24490
827.601	24471
827.741	24414
827.88	24391
828.02	24239
828.159	24467
828.298	24429
828.437	24410
828.577	24369
828.716	24479
828.855	24258
828.994	24174
829.134	24106
829.273	24129
829.412	24167
829.551	24110
829.69	24178
829.829	24076
829.968	24300
830.107	24076
830.246	24201
830.385	24110
830.524	24079
830.663	23809
830.802	23927
830.941	23748
831.08	23687
831.219	23813
831.357	23771
831.496	24079
831.635	23760
831.774	23630
831.913	23596
832.051	23630
832.19	23581
832.329	23737
832.467	23455
832.606	23379
832.744	23212
832.883	23486
833.022	23448
833.16	23429
833.299	23482
833.437	23444
833.576	23501
833.714	23573
833.852	23463
833.991	23543
834.129	23581
834.267	23543
834.406	23463
834.544	23566
834.682	23570
834.821	23482
834.959	23672
835.097	23398
835.235	23471
835.373	23452
835.511	23406
835.65	23280
835.788	23356
835.926	23250
836.064	23102
836.202	23166
836.34	23376
836.478	23292
836.615	23303
836.753	23322
836.891	23433
837.029	23490
837.167	23349
837.305	23189
837.443	23345
837.58	23231
837.718	23254
837.856	23136
837.993	23128
838.131	23246
838.269	23075
838.406	23033
838.544	23048
838.681	22729
838.819	22889
838.956	22694
839.094	22729
839.231	22771
839.369	22759
839.506	23064
839.643	22919
839.781	22687
839.918	22721
840.055	22733
840.193	22645
840.33	22687
840.467	22645
840.604	22653
840.742	22809
840.879	22516
841.016	22538
841.153	22478
841.29	22755
841.427	22565
841.564	22554
841.701	22538
841.838	22630
841.975	22497
842.112	22542
842.249	22466
842.385	22325
842.522	22565
842.659	22493
842.796	22344
842.933	22382
843.069	22284
843.206	22341
843.343	22512
843.479	22333
843.616	22360
843.752	22059
843.889	22116
844.025	22268
844.162	22086
844.298	22242
844.435	22112
844.571	22219
844.708	22109
844.844	22284
844.98	22337
845.117	22276
845.253	22090
845.389	21945
845.525	22021
845.661	21972
845.798	22032
845.934	21827
846.07	21915
846.206	21903
846.342	22013
846.478	21979
846.614	21682
846.75	21580
846.886	21580
847.022	21652
847.158	21652
847.294	21641
847.429	21587
847.565	21488
847.701	21743
847.837	21344
847.972	21283
848.108	21458
848.244	21477
848.379	21287
848.515	21237
848.65	21100
848.786	21325
848.921	21176
849.057	21287
849.192	21408
849.328	21176
849.463	21096
849.598	21131
849.734	21161
849.869	21043
850.004	20998
850.14	21028
850.275	20982
850.41	21005
850.545	20929
850.68	20891
850.815	21051
850.95	20990
851.085	21123
851.22	21108
851.355	20960
851.49	20872
851.625	20895
851.76	20982
851.895	20895
852.03	20887
852.165	21009
852.299	21093
852.434	21020
852.569	20914
852.703	21017
852.838	20986
852.973	21047
853.107	21070
853.242	20899
853.376	20853
853.511	20868
853.645	20773
853.78	21017
853.914	20876
854.048	20670
854.183	20830
854.317	20773
854.451	20845
854.585	20754
854.72	20872
854.854	20796
854.988	20743
855.122	20785
855.256	20739
855.39	20853
855.524	20834
855.658	20864
855.792	20838
855.926	20788
856.06	20807
856.194	20944
856.327	20724
856.461	20777
856.595	20777
856.729	20678
856.862	21077
856.996	20952
857.13	20876
857.263	20986
857.397	20845
857.53	20804
857.664	20861
857.797	20902
857.931	20880
858.064	20796
858.197	20876
858.331	20941
858.464	20754
858.597	20682
858.731	20754
858.864	20727
858.997	20720
859.13	20750
859.263	20781
859.396	20811
859.529	20785
859.662	20864
859.795	20781
859.928	20944
860.061	21001
860.194	21036
860.327	20743
860.46	20720
860.592	20929
860.725	21024
860.858	20994
860.99	20773
861.123	20788
861.256	20773
861.388	20781
861.521	21481
861.653	20689
861.786	20587
861.918	20507
862.05	20678
862.183	20708
862.315	20754
862.447	20735
862.58	20724
862.712	20518
862.844	20503
862.976	20625
863.108	20541
863.24	20952
863.372	20476
863.504	20511
863.636	20480
863.768	20682
863.9	20507
864.032	20415
864.164	20412
864.296	20659
864.428	20613
864.559	20625
864.691	20602
864.823	20446
864.954	20556
865.086	20488
865.217	20408
865.349	20450
865.48	20393
865.612	20358
865.743	20556
865.875	20431
866.006	20404
866.137	20457
866.269	20431
866.4	20465
866.531	20393
866.662	20248
866.793	20381
866.924	20305
867.055	20347
867.186	20355
867.317	20347
867.448	20271
867.579	20351
867.71	20290
867.841	20267
867.972	20381
868.103	20313
868.233	20415
868.364	20339
868.495	20454
868.625	20629
868.756	20689
868.886	20552
869.017	20530
869.147	20644
869.278	20773
869.408	20629
869.539	20629
869.669	20651
869.799	20636
869.929	20807
870.06	20815
870.19	20872
870.32	20979
870.45	20921
870.58	20956
870.71	21024
870.84	21051
870.97	20975
871.1	20986
871.23	21256
871.36	21275
871.489	20979
871.619	21173
871.749	21241
871.879	21214
872.008	21317
872.138	21298
872.267	21245
872.397	21108
872.526	20925
872.656	21047
872.785	21024
872.915	21165
873.044	21321
873.173	21302
873.303	21389
873.432	21401
873.561	21222
873.69	21306
873.819	21093
873.948	21325
874.077	21313
874.206	21283
874.335	21150
874.464	21321
874.593	21500
874.722	21458
874.851	21462
874.979	21538
875.108	21553
875.237	21401
875.365	21378
875.494	21530
875.623	21488
875.751	21507
875.88	21492
876.008	21694
876.136	21797
876.265	21846
876.393	21888
876.521	21934
876.65	21972
876.778	21838
876.906	21770
877.034	21785
877.162	21823
877.29	21724
877.418	21717
877.546	21854
877.674	21831
877.802	21759
877.93	21667
878.058	21800
878.185	21690
878.313	21736
878.441	21865
878.568	21724
878.696	21774
878.824	21823
878.951	21926
879.079	21956
879.206	21972
879.333	21892
879.461	21823
879.588	21854
879.715	22006
879.842	22173
879.97	21945
880.097	21667
880.224	21679
880.351	21580
880.478	21610
880.605	21625
880.732	21682
880.859	21895
880.986	21561
881.112	21682
881.239	21458
881.366	21321
881.493	21192
881.619	21344
881.746	21184
881.872	21192
881.999	21131
882.125	21146
882.252	21291
882.378	21176
882.505	21317
882.631	21142
882.757	20937
882.883	21066
883.01	21055
883.136	20857
883.262	20815
883.388	20788
883.514	21085
883.64	21036
883.766	20876
883.892	20727
884.018	20811
884.143	20960
884.269	20925
884.395	20697
884.52	20571
884.646	20629
884.772	20560
884.897	20511
885.023	20606
885.148	20568
885.274	20712
885.399	20693
885.524	20568
885.65	20564
885.775	20492
885.9	20514
886.025	20564
886.15	20537
886.275	20590
886.4	20511
886.525	20518
886.65	20484
886.775	20442
886.9	20735
887.025	20785
887.149	20545
887.274	20503
887.399	20339
887.523	20336
887.648	20259
887.773	20263
887.897	20473
888.021	20393
888.146	20358
888.27	20480
888.395	20400
888.519	20514
888.643	20507
888.767	20450
888.891	20298
889.015	20153
889.139	20282
889.263	20176
889.387	20237
889.511	20233
889.635	20336
889.759	20218
889.883	20119
890.006	20149
890.13	20225
890.254	20107
890.377	20050
890.501	19909
890.624	19845
890.748	20081
890.871	19753
890.995	19731
891.118	19624
891.241	19708
891.364	19833
891.488	19849
891.611	19639
891.734	19750
891.857	19753
891.98	19696
892.103	19868
892.226	19723
892.349	19674
892.471	19502
892.594	19689
892.717	19696
892.839	19521
892.962	19674
893.085	19826
893.207	19586
893.33	19605
893.452	19537
893.575	19620
893.697	19514
893.819	19769
893.941	19822
894.064	19826
894.186	19632
894.308	19620
894.43	19689
894.552	19784
894.674	19689
894.796	19552
894.918	19704
895.04	19540
895.161	19624
895.283	19746
895.405	19537
895.526	19578
895.648	19590
895.769	19685
895.891	19651
896.012	19788
896.134	19708
896.255	19655
896.376	19571
896.498	19780
896.619	19833
896.74	19681
896.861	19696
896.982	19932
897.103	20130
897.224	19974
897.345	19917
897.466	19875
897.587	19837
897.708	20058
897.828	19864
897.949	19826
898.07	19765
898.19	19746
898.311	20050
898.431	19898
898.552	19898
898.672	19936
898.792	19898
898.913	19811
899.033	19849
899.153	19727
899.273	19502
899.393	19616
899.513	19655
899.633	19655
899.753	19639
899.873	19502
899.993	19639
900.113	19514
900.232	19537
900.352	19502
900.472	19518
900.591	19331
900.711	19388
900.83	19320
900.95	19487
901.069	19422
901.189	19369
901.308	19175
901.427	19084
901.546	19008
901.665	19015
901.784	19076
901.904	18947
902.023	18730
902.141	18589
902.26	18445
902.379	18612
902.498	18475
902.617	18479
902.735	18494
902.854	18528
902.973	18467
903.091	18194
903.21	18087
903.328	18292
903.446	18106
903.565	17999
903.683	18038
903.801	17893
903.919	17999
904.038	17874
904.156	17752
904.274	17847
904.392	17699
904.51	17786
904.627	17813
904.745	17832
904.863	17908
904.981	17585
905.098	17433
905.216	17417
905.334	17611
905.451	17452
905.569	17406
905.686	17497
905.803	17509
905.921	17189
906.038	17216
906.155	17193
906.272	17086
906.389	17132
906.506	16946
906.623	17109
906.74	16965
906.857	16968
906.974	16953
907.091	17083
907.208	17075
907.324	16976
907.441	16839
907.557	16790
907.674	16721
907.79	16702
907.907	16687
908.023	16683
908.139	16736
908.256	16637
908.372	16645
908.488	16622
908.604	16527
908.72	16436
908.836	16447
908.952	16352
909.068	16443
909.184	16588
909.3	16421
909.415	16577
909.531	16382
909.647	16242
909.762	16139
909.878	16021
909.993	16166
910.108	16097
910.224	16097
910.339	16097
910.454	16097
910.57	15956
910.685	15800
910.8	16082
910.915	16154
911.03	15934
911.145	15808
911.259	15652
911.374	15800
911.489	15622
911.604	15637
911.718	15572
911.833	15568
911.947	15439
912.062	15302
912.176	15492
912.291	15473
912.405	15523
912.519	15648
912.633	15736
912.748	15572
912.862	15416
912.976	15340
913.09	15211
913.204	15298
913.318	15279
913.431	15397
913.545	15431
913.659	15443
913.772	15249
913.886	15142
914	15150
914.113	15226
914.226	15287
914.34	15157
914.453	14982
914.566	15176
914.68	15005
914.793	14937
914.906	14857
915.019	14712
915.132	14773
915.245	14708
915.358	14773
915.47	14731
915.583	14693
915.696	14777
915.809	14788
915.921	14883
916.034	14667
916.146	14625
916.259	14549
916.371	14648
916.483	14754
916.595	14568
916.708	14564
916.82	14602
916.932	14575
917.044	14530
917.156	14450
917.268	14476
917.38	14446
917.491	14396
917.603	14454
917.715	14507
917.826	14423
917.938	14290
918.049	14252
918.161	14294
918.272	14415
918.384	14461
918.495	14393
918.606	14176
918.717	14065
918.828	14115
918.939	14229
919.05	14084
919.161	14202
919.272	14043
919.383	14020
919.494	14233
919.604	14415
919.715	14161
919.826	14153
919.936	14058
920.047	14126
920.157	14199
920.267	14256
920.378	14206
920.488	14096
920.598	14278
920.708	14431
920.818	14240
920.928	14275
921.038	14332
921.148	14507
921.258	14111
921.368	14008
921.477	13913
921.587	13803
921.697	13761
921.806	13879
921.916	13757
922.025	13540
922.134	13575
922.244	13571
922.353	13544
922.462	13392
922.571	13350
922.68	13190
922.789	13206
922.898	13187
923.007	13164
923.116	13255
923.224	13156
923.333	13194
923.442	13072
923.55	12996
923.659	13080
923.767	13133
923.876	12973
923.984	13042
924.092	12890
924.201	12856
924.309	12985
924.417	12890
924.525	12913
924.633	12943
924.741	13826
924.849	12787
924.956	12779
925.064	12665
925.172	12502
925.279	12650
925.387	12601
925.494	12559
925.602	12722
925.709	12684
925.816	12536
925.924	12582
926.031	12707
926.138	12646
926.245	12604
926.352	12460
926.459	12578
926.566	12616
926.673	12593
926.779	12407
926.886	12342
926.993	12254
927.099	12220
927.206	12163
927.312	12175
927.419	12281
927.525	12277
927.631	12292
927.737	12133
927.843	12098
927.95	11885
928.056	12011
928.162	12129
928.267	12144
928.373	12570
928.479	12087
928.585	11809
928.69	11965
928.796	12034
928.901	11882
929.007	11741
929.112	11882
929.218	11851
929.323	11836
929.428	11783
929.533	11897
929.638	11661
929.743	11710
929.848	11802
929.953	11752
930.058	11577
930.163	11482
930.267	11497
930.372	11562
930.477	11326
930.581	11729
930.685	11493
930.79	11376
930.894	11395
930.998	11372
931.103	11433
931.207	11094
931.311	11048
931.415	10919
931.519	10660
931.623	10748
