Data from test_V78500241_2147.txt Node
Date: Fri Mar 25 15:24:48 CST 2022
User: usil
Spectrometer: V785-0024
Trigger mode: 0
Integration Time (sec): 4.000000E-1
Scans to average: 1
Nonlinearity correction enabled: false
Boxcar width: 0
Storing dark spectrum: false
XAxis mode: Wavelengths
Number of Pixels in Spectrum: 1024
>>>>>Begin Spectral Data<<<<<
801.071	27549
801.214	27340
801.356	27214
801.499	27081
801.641	27024
801.783	26990
801.926	27005
802.068	27058
802.211	26963
802.353	26895
802.496	26773
802.638	26731
802.78	26552
802.923	26571
803.065	26541
803.208	26598
803.35	26689
803.492	26769
803.635	26842
803.777	26724
803.919	26785
804.061	27195
804.204	26929
804.346	26902
804.488	26842
804.63	26830
804.773	26785
804.915	26857
805.057	26868
805.199	26792
805.341	26979
805.483	26963
805.626	26940
805.768	26921
805.91	26861
806.052	27005
806.194	26853
806.336	27001
806.478	26944
806.62	26849
806.762	26929
806.904	27051
807.046	27545
807.188	27363
807.33	27367
807.472	27412
807.614	27272
807.756	27466
807.898	27207
808.04	27081
808.182	27268
808.324	27351
808.465	27378
808.607	27435
808.749	27686
808.891	27785
809.033	27667
809.174	27458
809.316	27564
809.458	27564
809.6	27492
809.741	27618
809.883	27682
810.025	27827
810.166	27819
810.308	27903
810.45	27743
810.591	27800
810.733	27561
810.875	27625
811.016	27424
811.158	27378
811.299	27625
811.441	27625
811.582	27610
811.724	27633
811.865	27583
812.007	27564
812.148	27599
812.29	27542
812.431	27587
812.573	27892
812.714	27926
812.855	28074
812.997	28215
813.138	28329
813.279	28166
813.421	27956
813.562	27998
813.703	27850
813.845	27720
813.986	27370
814.127	27378
814.268	27233
814.41	27249
814.551	27157
814.692	27241
814.833	27154
814.974	27214
815.115	27218
815.256	27089
815.397	27127
815.539	27047
815.68	26971
815.821	26963
815.962	27100
816.103	26853
816.244	26891
816.385	26868
816.526	26712
816.666	26606
816.807	26495
816.948	26655
817.089	26632
817.23	26575
817.371	26556
817.512	26419
817.653	26438
817.793	26484
817.934	26571
818.075	26617
818.216	26549
818.356	26282
818.497	26286
818.638	26172
818.778	26225
818.919	26237
819.06	26404
819.2	26290
819.341	26484
819.481	26499
819.622	26575
819.762	26807
819.903	26746
820.043	26693
820.184	26613
820.324	26552
820.465	26629
820.605	26636
820.746	26602
820.886	26415
821.026	26533
821.167	26522
821.307	26488
821.447	26488
821.588	26351
821.728	26358
821.868	26157
822.008	25921
822.149	26039
822.289	25940
822.429	25616
822.569	25620
822.709	25643
822.849	25582
822.99	25525
823.13	25365
823.27	25441
823.41	25324
823.55	25228
823.69	25316
823.83	25217
823.97	25114
824.11	25034
824.25	25008
824.389	25114
824.529	24970
824.669	25076
824.809	25133
824.949	25217
825.089	25247
825.228	25126
825.368	24951
825.508	24890
825.648	24924
825.787	25080
825.927	24833
826.067	24905
826.206	24875
826.346	25023
826.485	24966
826.625	24951
826.765	25015
826.904	24985
827.044	24616
827.183	24779
827.323	24608
827.462	24681
827.601	24734
827.741	24612
827.88	24623
828.02	24498
828.159	24593
828.298	24734
828.437	24620
828.577	24627
828.716	24745
828.855	24563
828.994	24445
829.134	24365
829.273	24357
829.412	24163
829.551	24308
829.69	24369
829.829	24445
829.968	24483
830.107	24399
830.246	24422
830.385	24224
830.524	24083
830.663	24159
830.802	24083
830.941	24060
831.08	23802
831.219	24003
831.357	24121
831.496	24117
831.635	23969
831.774	23950
831.913	23843
832.051	23619
832.19	23611
832.329	23687
832.467	23695
832.606	23627
832.744	23589
832.883	23642
833.022	23482
833.16	23558
833.299	23600
833.437	23691
833.576	23714
833.714	23676
833.852	23783
833.991	23665
834.129	23786
834.267	23638
834.406	23783
834.544	23748
834.682	23646
834.821	23543
834.959	23771
835.097	23657
835.235	23729
835.373	23566
835.511	23615
835.65	23551
835.788	23581
835.926	23482
836.064	23261
836.202	23265
836.34	23509
836.478	23554
836.615	23444
836.753	23547
836.891	23649
837.029	23478
837.167	23490
837.305	23459
837.443	23311
837.58	23303
837.718	23417
837.856	23254
837.993	23288
838.131	23113
838.269	23220
838.406	23269
838.544	23136
838.681	23071
838.819	22991
838.956	22869
839.094	22816
839.231	22946
839.369	22957
839.506	23166
839.643	22987
839.781	22809
839.918	22862
840.055	22816
840.193	22843
840.33	22778
840.467	22782
840.604	22801
840.742	23014
840.879	22672
841.016	22630
841.153	22717
841.29	22805
841.427	22816
841.564	22740
841.701	22683
841.838	22687
841.975	22622
842.112	22626
842.249	22516
842.385	22516
842.522	22717
842.659	22535
842.796	22459
842.933	22390
843.069	22428
843.206	22535
843.343	22596
843.479	22459
843.616	22516
843.752	22310
843.889	22276
844.025	22436
844.162	22348
844.298	22516
844.435	22280
844.571	22207
844.708	22375
844.844	22265
844.98	22470
845.117	22367
845.253	22147
845.389	22128
845.525	22196
845.661	22112
845.798	21926
845.934	22086
846.07	22082
846.206	21880
846.342	22090
846.478	22070
846.614	21709
846.75	21622
846.886	21724
847.022	21770
847.158	21854
847.294	21698
847.429	21759
847.565	21739
847.701	21956
847.837	21504
847.972	21408
848.108	21473
848.244	21523
848.379	21329
848.515	21264
848.65	21336
848.786	21477
848.921	21332
849.057	21382
849.192	21416
849.328	21374
849.463	21302
849.598	21184
849.734	21336
849.869	21222
850.004	21112
850.14	21142
850.275	21138
850.41	20952
850.545	21032
850.68	20975
850.815	21039
850.95	21150
851.085	21256
851.22	21218
851.355	21119
851.49	20998
851.625	20956
851.76	21051
851.895	20986
852.03	21017
852.165	21093
852.299	21138
852.434	21131
852.569	21218
852.703	21119
852.838	21032
852.973	21096
853.107	21077
853.242	21047
853.376	20914
853.511	20746
853.645	20918
853.78	21047
853.914	20998
854.048	20834
854.183	20819
854.317	20842
854.451	21043
854.585	20883
854.72	21009
854.854	20963
854.988	20941
855.122	20918
855.256	20606
855.39	20963
855.524	20998
855.658	20883
855.792	20963
855.926	20887
856.06	20967
856.194	20948
856.327	20975
856.461	20845
856.595	20861
856.729	20933
856.862	20941
856.996	20941
857.13	20929
857.263	20975
857.397	20933
857.53	20960
857.664	20921
857.797	20948
857.931	20994
858.064	21001
858.197	20918
858.331	20952
858.464	20899
858.597	20830
858.731	20895
858.864	20868
858.997	20853
859.13	20910
859.263	20979
859.396	21009
859.529	20899
859.662	20925
859.795	20956
859.928	20807
860.061	21165
860.194	21123
860.327	20914
860.46	20910
860.592	20994
860.725	20986
860.858	20963
860.99	20876
861.123	20925
861.256	20842
861.388	20880
861.521	21519
861.653	20815
861.786	20621
861.918	20708
862.05	20682
862.183	20842
862.315	20826
862.447	20804
862.58	20739
862.712	20507
862.844	20549
862.976	20689
863.108	20724
863.24	21100
863.372	20571
863.504	20613
863.636	20632
863.768	20663
863.9	20655
864.032	20621
864.164	20663
864.296	20579
864.428	20746
864.559	20583
864.691	20773
864.823	20598
864.954	20606
865.086	20434
865.217	20609
865.349	20484
865.48	20408
865.612	20389
865.743	20655
865.875	20514
866.006	20488
866.137	20514
866.269	20579
866.4	20499
866.531	20450
866.662	20404
866.793	20415
866.924	20408
867.055	20332
867.186	20377
867.317	20427
867.448	20389
867.579	20503
867.71	20343
867.841	20317
867.972	20419
868.103	20370
868.233	20305
868.364	20484
868.495	20609
868.625	20659
868.756	20697
868.886	20556
869.017	20701
869.147	20815
869.278	20727
869.408	20697
869.539	20735
869.669	20758
869.799	20796
869.929	20781
870.06	20716
870.19	20960
870.32	21058
870.45	21062
870.58	21017
870.71	21226
870.84	21146
870.97	21081
871.1	21142
871.23	21256
871.36	21199
871.489	21161
871.619	21176
871.749	21249
871.879	21302
872.008	21321
872.138	21336
872.267	21207
872.397	21001
872.526	21077
872.656	21199
872.785	21180
872.915	21359
873.044	21458
873.173	21393
873.303	21272
873.432	21325
873.561	21622
873.69	21458
873.819	21306
873.948	21439
874.077	21313
874.206	21313
874.335	21264
874.464	21344
874.593	21580
874.722	21447
874.851	21614
874.979	21603
875.108	21564
875.237	21542
875.365	21424
875.494	21553
875.623	21614
875.751	21435
875.88	21580
876.008	21682
876.136	21637
876.265	22017
876.393	22139
876.521	22078
876.65	21983
876.778	21972
876.906	21888
877.034	21842
877.162	21899
877.29	21759
877.418	21903
877.546	21888
877.674	21873
877.802	21979
877.93	21823
878.058	21800
878.185	21774
878.313	21865
878.441	21789
878.568	21686
878.696	21842
878.824	21987
878.951	21979
879.079	22086
879.206	22284
879.333	22097
879.461	21953
879.588	21915
879.715	22093
879.842	22135
879.97	21922
880.097	21660
880.224	21701
880.351	21713
880.478	21682
880.605	21686
880.732	21580
880.859	22017
880.986	21766
881.112	21755
881.239	21519
881.366	21473
881.493	21332
881.619	21329
881.746	21351
881.872	21302
881.999	21272
882.125	21218
882.252	21249
882.378	21306
882.505	21344
882.631	21195
882.757	21009
882.883	21150
883.01	20986
883.136	20842
883.262	20876
883.388	20895
883.514	21150
883.64	20910
883.766	20864
883.892	20845
884.018	20781
884.143	21077
884.269	20925
884.395	20792
884.52	20609
884.646	20712
884.772	20594
884.897	20469
885.023	20629
885.148	20735
885.274	20682
885.399	20750
885.524	20678
885.65	20625
885.775	20743
885.9	20788
886.025	20617
886.15	20636
886.275	20697
886.4	20587
886.525	20720
886.65	20457
886.775	20530
886.9	20712
887.025	20849
887.149	20560
887.274	20282
887.399	20404
887.523	20336
887.648	20389
887.773	20294
887.897	20564
888.021	20621
888.146	20362
888.27	20492
888.395	20450
888.519	20541
888.643	20423
888.767	20488
888.891	20370
889.015	20183
889.139	20336
889.263	20259
889.387	20282
889.511	20419
889.635	20370
889.759	20176
889.883	20183
890.006	20305
890.13	20282
890.254	20130
890.377	20168
890.501	19932
890.624	19917
890.748	19947
890.871	19860
890.995	19795
891.118	19746
891.241	19780
891.364	19734
891.488	19944
891.611	19864
891.734	19731
891.857	19917
891.98	19803
892.103	19841
892.226	19784
892.349	19689
892.471	19525
892.594	19780
892.717	19864
892.839	19712
892.962	19826
893.085	19799
893.207	19677
893.33	19533
893.452	19677
893.575	19662
893.697	19632
893.819	19807
893.941	19906
894.064	19856
894.186	19674
894.308	19647
894.43	19685
894.552	19761
894.674	19894
894.796	19738
894.918	19647
895.04	19700
895.161	19837
895.283	19757
895.405	19734
895.526	19852
895.648	19689
895.769	19818
895.891	19833
896.012	19723
896.134	19765
896.255	19715
896.376	19613
896.498	19871
896.619	19727
896.74	19746
896.861	19795
896.982	20107
897.103	20111
897.224	19936
897.345	19978
897.466	19830
897.587	20001
897.708	20043
897.828	19875
897.949	19803
898.07	19807
898.19	19871
898.311	20020
898.431	19887
898.552	19970
898.672	20005
898.792	20035
898.913	19921
899.033	19845
899.153	19864
899.273	19651
899.393	19696
899.513	19719
899.633	19708
899.753	19750
899.873	19518
899.993	19769
900.113	19544
900.232	19742
900.352	19571
900.472	19586
900.591	19518
900.711	19537
900.83	19426
900.95	19594
901.069	19597
901.189	19278
901.308	19148
901.427	19012
901.546	19103
901.665	19099
901.784	19122
901.904	18859
902.023	18829
902.141	18654
902.26	18616
902.379	18688
902.498	18578
902.617	18525
902.735	18665
902.854	18597
902.973	18475
903.091	18323
903.21	18323
903.328	18194
903.446	18190
903.565	18152
903.683	18125
903.801	17946
903.919	18038
904.038	18095
904.156	17912
904.274	17916
904.392	17935
904.51	17863
904.627	17809
904.745	17969
904.863	17897
904.981	17646
905.098	17535
905.216	17482
905.334	17520
905.451	17589
905.569	17463
905.686	17554
905.803	17478
905.921	17383
906.038	17486
906.155	17254
906.272	17311
906.389	17178
906.506	17090
906.623	17159
906.74	16972
906.857	16953
906.974	16873
907.091	17079
907.208	17189
907.324	17064
907.441	16908
907.557	16717
907.674	16717
907.79	16790
907.907	16797
908.023	16725
908.139	16797
908.256	16733
908.372	16679
908.488	16752
908.604	16546
908.72	16432
908.836	16512
908.952	16519
909.068	16500
909.184	16580
909.3	16493
909.415	16607
909.531	16462
909.647	16204
909.762	16276
909.878	16207
909.993	16162
910.108	16074
910.224	16131
910.339	16169
910.454	16051
910.57	15998
910.685	15945
910.8	16166
910.915	16063
911.03	16071
911.145	15922
911.259	15789
911.374	15827
911.489	15751
911.604	15667
911.718	15591
911.833	15568
911.947	15462
912.062	15462
912.176	15534
912.291	15564
912.405	15504
912.519	15774
912.633	15682
912.748	15622
912.862	15622
912.976	15363
913.09	15211
913.204	15264
913.318	15405
913.431	15424
913.545	15469
913.659	15443
913.772	15226
913.886	15127
914	15180
914.113	15275
914.226	15313
914.34	15294
914.453	15097
914.566	15249
914.68	15066
914.793	15005
914.906	14895
915.019	14769
915.132	14712
915.245	14800
915.358	14773
915.47	14845
915.583	14811
915.696	14823
915.809	14960
915.921	14914
916.034	14735
916.146	14636
916.259	14655
916.371	14724
916.483	14655
916.595	14594
916.708	14663
916.82	14507
916.932	14594
917.044	14571
917.156	14541
917.268	14473
917.38	14492
917.491	14396
917.603	14507
917.715	14454
917.826	14552
917.938	14454
918.049	14294
918.161	14381
918.272	14533
918.384	14446
918.495	14385
918.606	14210
918.717	14199
918.828	14248
918.939	14206
919.05	14172
919.161	14237
919.272	14012
919.383	14096
919.494	14282
919.604	14385
919.715	14221
919.826	14073
919.936	14248
920.047	14282
920.157	14278
920.267	14381
920.378	14275
920.488	14130
920.598	14476
920.708	14526
920.818	14438
920.928	14313
921.038	14465
921.148	14495
921.258	14244
921.368	14081
921.477	13936
921.587	13902
921.697	13860
921.806	13955
921.916	13830
922.025	13715
922.134	13575
922.244	13544
922.353	13666
922.462	13499
922.571	13449
922.68	13221
922.789	13168
922.898	13285
923.007	13137
923.116	13251
923.224	13225
923.333	13316
923.442	13122
923.55	13027
923.659	13072
923.767	13084
923.876	13004
923.984	13118
924.092	12932
924.201	13137
924.309	13072
924.417	12928
924.525	12863
924.633	12905
924.741	13586
924.849	12749
924.956	12806
925.064	12745
925.172	12616
925.279	12570
925.387	12757
925.494	12692
925.602	12757
925.709	12711
925.816	12601
925.924	12681
926.031	12616
926.138	12623
926.245	12608
926.352	12479
926.459	12585
926.566	12753
926.673	12578
926.779	12384
926.886	12494
926.993	12239
927.099	12220
927.206	12258
927.312	12186
927.419	12228
927.525	12304
927.631	12266
927.737	12091
927.843	12049
927.95	11992
928.056	12098
928.162	12136
928.267	12102
928.373	12696
928.479	12129
928.585	11939
928.69	12076
928.796	12072
928.901	11950
929.007	11821
929.112	11931
929.218	11855
929.323	11859
929.428	11726
929.533	11908
929.638	11748
929.743	11748
929.848	11843
929.953	11809
930.058	11649
930.163	11459
930.267	11444
930.372	11608
930.477	11433
930.581	11703
930.685	11520
930.79	11376
930.894	11387
930.998	11410
931.103	11467
931.207	11124
931.311	11121
931.415	11014
931.519	10820
931.623	10755
