Data from test_V78500241_2040.txt Node
Date: Fri Mar 25 15:24:03 CST 2022
User: usil
Spectrometer: V785-0024
Trigger mode: 0
Integration Time (sec): 4.000000E-1
Scans to average: 1
Nonlinearity correction enabled: false
Boxcar width: 0
Storing dark spectrum: false
XAxis mode: Wavelengths
Number of Pixels in Spectrum: 1024
>>>>>Begin Spectral Data<<<<<
801.071	27747
801.214	27694
801.356	27667
801.499	27450
801.641	27367
801.783	27298
801.926	27450
802.068	27340
802.211	27237
802.353	27249
802.496	27062
802.638	27009
802.78	26998
802.923	26902
803.065	26914
803.208	26906
803.35	27001
803.492	27039
803.635	27203
803.777	27188
803.919	27199
804.061	27427
804.204	27313
804.346	27009
804.488	27039
804.63	26998
804.773	27127
804.915	27176
805.057	27256
805.199	27108
805.341	27287
805.483	27454
805.626	27275
805.768	27230
805.91	27287
806.052	27408
806.194	27199
806.336	27542
806.478	27184
806.62	27279
806.762	27485
806.904	27530
807.046	27656
807.188	27576
807.33	27732
807.472	27800
807.614	27625
807.756	27641
807.898	27485
808.04	27595
808.182	27473
808.324	27530
808.465	27690
808.607	27949
808.749	27835
808.891	27922
809.033	28162
809.174	28067
809.316	27865
809.458	28036
809.6	27968
809.741	28017
809.883	28002
810.025	28223
810.166	28166
810.308	28124
810.45	28280
810.591	28154
810.733	28044
810.875	27911
811.016	27911
811.158	27774
811.299	28063
811.441	28116
811.582	28139
811.724	27850
811.865	27934
812.007	27956
812.148	27956
812.29	28090
812.431	28162
812.573	28234
812.714	28470
812.855	28443
812.997	28455
813.138	28508
813.279	28569
813.421	28413
813.562	28375
813.703	28147
813.845	28013
813.986	27926
814.127	27804
814.268	27720
814.41	27504
814.551	27694
814.692	27751
814.833	27591
814.974	27603
815.115	27587
815.256	27450
815.397	27652
815.539	27454
815.68	27291
815.821	27389
815.962	27458
816.103	27469
816.244	27325
816.385	27272
816.526	27104
816.666	26998
816.807	26857
816.948	26910
817.089	27024
817.23	26975
817.371	26838
817.512	26910
817.653	26864
817.793	26746
817.934	26933
818.075	26902
818.216	26921
818.356	26895
818.497	26861
818.638	26861
818.778	26724
818.919	26621
819.06	26514
819.2	26899
819.341	26838
819.481	26826
819.622	27074
819.762	27245
819.903	27119
820.043	27028
820.184	27062
820.324	27039
820.465	27127
820.605	26967
820.746	26982
820.886	26807
821.026	26921
821.167	26883
821.307	27154
821.447	26891
821.588	26750
821.728	26625
821.868	26583
822.008	26389
822.149	26473
822.289	26351
822.429	26008
822.569	26035
822.709	26001
822.849	25951
822.99	25947
823.13	25803
823.27	25868
823.41	25616
823.55	25460
823.69	25609
823.83	25639
823.97	25734
824.11	25548
824.25	25537
824.389	25434
824.529	25647
824.669	25552
824.809	25658
824.949	25689
825.089	25472
825.228	25578
825.368	25430
825.508	25525
825.648	25297
825.787	25434
825.927	25544
826.067	25324
826.206	25415
826.346	25388
826.485	25499
826.625	25472
826.765	25563
826.904	25445
827.044	25358
827.183	25198
827.323	25107
827.462	25164
827.601	25133
827.741	25046
827.88	25251
828.02	25046
828.159	25107
828.298	25110
828.437	25076
828.577	25038
828.716	25282
828.855	25050
828.994	24905
829.134	24829
829.273	24924
829.412	24802
829.551	24909
829.69	24863
829.829	24810
829.968	24882
830.107	24859
830.246	24837
830.385	24798
830.524	24722
830.663	24528
830.802	24532
830.941	24403
831.08	24380
831.219	24471
831.357	24448
831.496	24585
831.635	24494
831.774	24327
831.913	24232
832.051	24220
832.19	24254
832.329	24308
832.467	24254
832.606	24201
832.744	24087
832.883	24136
833.022	23954
833.16	24258
833.299	24140
833.437	24197
833.576	24213
833.714	24296
833.852	24182
833.991	24327
834.129	24292
834.267	24270
834.406	24095
834.544	24281
834.682	24186
834.821	24140
834.959	24296
835.097	24190
835.235	24125
835.373	24152
835.511	24159
835.65	24038
835.788	24041
835.926	23767
836.064	23798
836.202	23783
836.34	23984
836.478	24186
836.615	23977
836.753	23973
836.891	24098
837.029	24030
837.167	23836
837.305	23897
837.443	23935
837.58	23832
837.718	23870
837.856	23897
837.993	23836
838.131	23977
838.269	23646
838.406	23729
838.544	23649
838.681	23615
838.819	23516
838.956	23292
839.094	23318
839.231	23421
839.369	23452
839.506	23680
839.643	23577
839.781	23242
839.918	23197
840.055	23296
840.193	23197
840.33	23258
840.467	23261
840.604	23200
840.742	23611
840.879	23242
841.016	23109
841.153	23018
841.29	23239
841.427	23307
841.564	23311
841.701	23189
841.838	23178
841.975	23143
842.112	23109
842.249	22991
842.385	22908
842.522	23132
842.659	23071
842.796	22957
842.933	23098
843.069	22972
843.206	22972
843.343	22991
843.479	23037
843.616	23041
843.752	22812
843.889	22725
844.025	22824
844.162	22668
844.298	22839
844.435	22706
844.571	22656
844.708	22664
844.844	22831
844.98	22908
845.117	22892
845.253	22668
845.389	22489
845.525	22592
845.661	22557
845.798	22538
845.934	22550
846.07	22478
846.206	22557
846.342	22664
846.478	22402
846.614	22272
846.75	22105
846.886	22177
847.022	22265
847.158	22303
847.294	22337
847.429	22150
847.565	22230
847.701	22451
847.837	21975
847.972	21983
848.108	21915
848.244	21983
848.379	21915
848.515	21869
848.65	21663
848.786	21713
848.921	21846
849.057	21930
849.192	21899
849.328	21850
849.463	21888
849.598	21819
849.734	21705
849.869	21660
850.004	21564
850.14	21614
850.275	21625
850.41	21443
850.545	21576
850.68	21595
850.815	21580
850.95	21644
851.085	21732
851.22	21656
851.355	21568
851.49	21603
851.625	21542
851.76	21564
851.895	21564
852.03	21443
852.165	21557
852.299	21603
852.434	21641
852.569	21526
852.703	21568
852.838	21728
852.973	21686
853.107	21701
853.242	21447
853.376	21420
853.511	21184
853.645	21416
853.78	21614
853.914	21279
854.048	21393
854.183	21329
854.317	21492
854.451	21625
854.585	21363
854.72	21431
854.854	21507
854.988	21321
855.122	21450
855.256	21184
855.39	21245
855.524	21504
855.658	21313
855.792	21344
855.926	21572
856.06	21496
856.194	21389
856.327	21447
856.461	21310
856.595	21302
856.729	21462
856.862	21507
856.996	21523
857.13	21492
857.263	21325
857.397	21443
857.53	21313
857.664	21439
857.797	21428
857.931	21477
858.064	21416
858.197	21412
858.331	21420
858.464	21279
858.597	21245
858.731	21416
858.864	21298
858.997	21249
859.13	21321
859.263	21283
859.396	21405
859.529	21393
859.662	21260
859.795	21416
859.928	21397
860.061	21580
860.194	21561
860.327	21507
860.46	21405
860.592	21393
860.725	21599
860.858	21587
860.99	21389
861.123	21340
861.256	21272
861.388	21348
861.521	21975
861.653	21252
861.786	21074
861.918	21275
862.05	21344
862.183	21321
862.315	21233
862.447	21443
862.58	21222
862.712	21176
862.844	21001
862.976	21123
863.108	21230
863.24	21564
863.372	20979
863.504	21005
863.636	21020
863.768	21070
863.9	21150
864.032	20975
864.164	21017
864.296	21066
864.428	21203
864.559	21070
864.691	21157
864.823	21165
864.954	21047
865.086	21005
865.217	21093
865.349	20906
865.48	20895
865.612	21039
865.743	21150
865.875	21039
866.006	21020
866.137	20986
866.269	20986
866.4	20933
866.531	21001
866.662	20796
866.793	20925
866.924	20906
867.055	21036
867.186	20937
867.317	20849
867.448	20975
867.579	20925
867.71	20762
867.841	20861
867.972	20857
868.103	20910
868.233	20910
868.364	20918
868.495	21024
868.625	21188
868.756	21233
868.886	21108
869.017	21195
869.147	21313
869.278	21230
869.408	21180
869.539	21119
869.669	21313
869.799	21272
869.929	21275
870.06	21351
870.19	21458
870.32	21435
870.45	21370
870.58	21481
870.71	21675
870.84	21603
870.97	21591
871.1	21587
871.23	21709
871.36	21755
871.489	21641
871.619	21762
871.749	21766
871.879	21747
872.008	21854
872.138	21823
872.267	21690
872.397	21663
872.526	21675
872.656	21568
872.785	21564
872.915	21816
873.044	21816
873.173	21751
873.303	21755
873.432	21800
873.561	21819
873.69	21781
873.819	21774
873.948	21827
874.077	21873
874.206	21739
874.335	21698
874.464	21907
874.593	22055
874.722	21941
874.851	22112
874.979	22013
875.108	22101
875.237	21915
875.365	22051
875.494	22013
875.623	22090
875.751	21987
875.88	22025
876.008	22097
876.136	22196
876.265	22493
876.393	22599
876.521	22413
876.65	22417
876.778	22363
876.906	22310
877.034	22394
877.162	22432
877.29	22299
877.418	22322
877.546	22322
877.674	22363
877.802	22341
877.93	22459
878.058	22268
878.185	22253
878.313	22284
878.441	22276
878.568	22173
878.696	22246
878.824	22276
878.951	22341
879.079	22573
879.206	22626
879.333	22500
879.461	22451
879.588	22390
879.715	22455
879.842	22706
879.97	22371
880.097	22059
880.224	22173
880.351	22246
880.478	22185
880.605	22150
880.732	22128
880.859	22402
880.986	22158
881.112	22188
881.239	21972
881.366	21888
881.493	21926
881.619	21846
881.746	21698
881.872	21751
881.999	21755
882.125	21701
882.252	21789
882.378	21728
882.505	21857
882.631	21644
882.757	21488
882.883	21458
883.01	21450
883.136	21443
883.262	21317
883.388	21302
883.514	21428
883.64	21466
883.766	21370
883.892	21199
884.018	21100
884.143	21374
884.269	21431
884.395	21142
884.52	20990
884.646	21123
884.772	21062
884.897	21017
885.023	21119
885.148	21024
885.274	21222
885.399	21157
885.524	21176
885.65	20990
885.775	21116
885.9	21074
886.025	21108
886.15	21116
886.275	21176
886.4	21051
886.525	21093
886.65	21070
886.775	20944
886.9	21207
887.025	21230
887.149	20952
887.274	20842
887.399	20781
887.523	20663
887.648	20739
887.773	20724
887.897	20948
888.021	20948
888.146	20758
888.27	20842
888.395	20895
888.519	20891
888.643	20944
888.767	20975
888.891	20705
889.015	20651
889.139	20689
889.263	20682
889.387	20834
889.511	20754
889.635	20792
889.759	20632
889.883	20663
890.006	20739
890.13	20777
890.254	20492
890.377	20644
890.501	20377
890.624	20377
890.748	20385
890.871	20305
890.995	20256
891.118	20252
891.241	20267
891.364	20206
891.488	20328
891.611	20252
891.734	20240
891.857	20244
891.98	20248
892.103	20237
892.226	20183
892.349	20153
892.471	19993
892.594	20145
892.717	20191
892.839	20073
892.962	20065
893.085	20149
893.207	20100
893.33	20043
893.452	20096
893.575	20202
893.697	20001
893.819	20168
893.941	20366
894.064	20263
894.186	20103
894.308	20039
894.43	20374
894.552	20221
894.674	20142
894.796	20031
894.918	20168
895.04	20058
895.161	20214
895.283	20142
895.405	20187
895.526	20164
895.648	20096
895.769	20077
895.891	20180
896.012	20191
896.134	20142
896.255	20172
896.376	20016
896.498	20043
896.619	20221
896.74	20149
896.861	20206
896.982	20389
897.103	20450
897.224	20454
897.345	20488
897.466	20278
897.587	20275
897.708	20541
897.828	20305
897.949	20320
898.07	20214
898.19	20282
898.311	20377
898.431	20282
898.552	20377
898.672	20370
898.792	20381
898.913	20385
899.033	20202
899.153	20153
899.273	20012
899.393	20119
899.513	20111
899.633	20122
899.753	20043
899.873	20069
899.993	20126
900.113	19982
900.232	20100
900.352	20020
900.472	19822
900.591	19807
900.711	19784
900.83	19814
900.95	19963
901.069	19887
901.189	19704
901.308	19491
901.427	19468
901.546	19403
901.665	19502
901.784	19537
901.904	19244
902.023	19202
902.141	18970
902.26	18973
902.379	19095
902.498	19114
902.617	18989
902.735	18996
902.854	18928
902.973	18840
903.091	18616
903.21	18604
903.328	18642
903.446	18589
903.565	18517
903.683	18452
903.801	18300
903.919	18334
904.038	18361
904.156	18285
904.274	18319
904.392	18243
904.51	18194
904.627	18251
904.745	18289
904.863	18239
904.981	17958
905.098	17855
905.216	17901
905.334	17931
905.451	17866
905.569	17752
905.686	17840
905.803	17874
905.921	17680
906.038	17786
906.155	17676
906.272	17482
906.389	17528
906.506	17459
906.623	17463
906.74	17239
906.857	17303
906.974	17315
907.091	17429
907.208	17566
907.324	17425
907.441	17246
907.557	17200
907.674	17162
907.79	17105
907.907	17121
908.023	17132
908.139	17083
908.256	17067
908.372	16968
908.488	16869
908.604	16854
908.72	16793
908.836	16786
908.952	16706
909.068	16801
909.184	17010
909.3	16824
909.415	16828
909.531	16778
909.647	16603
909.762	16519
909.878	16497
909.993	16561
910.108	16584
910.224	16485
910.339	16542
910.454	16356
910.57	16322
910.685	16166
910.8	16500
910.915	16413
911.03	16352
911.145	16105
911.259	16158
911.374	16112
911.489	16082
911.604	15987
911.718	15918
911.833	15846
911.947	15819
912.062	15679
912.176	15835
912.291	15926
912.405	15903
912.519	16032
912.633	16109
912.748	15854
912.862	15816
912.976	15717
913.09	15698
913.204	15656
913.318	15713
913.431	15774
913.545	15751
913.659	15850
913.772	15671
913.886	15564
914	15458
914.113	15504
914.226	15614
914.34	15625
914.453	15367
914.566	15496
914.68	15424
914.793	15245
914.906	15150
915.019	15195
915.132	15039
915.245	15123
915.358	15138
915.47	15100
915.583	15055
915.696	15157
915.809	15279
915.921	15199
916.034	15051
916.146	14834
916.259	14906
916.371	15036
916.483	14967
916.595	14944
916.708	14929
916.82	14941
916.932	14952
917.044	14823
917.156	14864
917.268	14819
917.38	14754
917.491	14781
917.603	14739
917.715	14781
917.826	14876
917.938	14712
918.049	14583
918.161	14777
918.272	14792
918.384	14773
918.495	14735
918.606	14549
918.717	14484
918.828	14613
918.939	14606
919.05	14381
919.161	14511
919.272	14252
919.383	14393
919.494	14598
919.604	14701
919.715	14442
919.826	14469
919.936	14454
920.047	14541
920.157	14480
920.267	14606
920.378	14419
920.488	14457
920.598	14575
920.708	14735
920.818	14636
920.928	14579
921.038	14743
921.148	14678
921.258	14332
921.368	14351
921.477	14309
921.587	14298
921.697	14130
921.806	14263
921.916	14008
922.025	13906
922.134	13909
922.244	13784
922.353	13917
922.462	13769
922.571	13674
922.68	13548
922.789	13639
922.898	13563
923.007	13369
923.116	13563
923.224	13544
923.333	13483
923.442	13362
923.55	13335
923.659	13244
923.767	13373
923.876	13247
923.984	13392
924.092	13232
924.201	13228
924.309	13179
924.417	13217
924.525	13198
924.633	13187
924.741	13887
924.849	12989
924.956	13126
925.064	12981
925.172	12901
925.279	12863
925.387	12951
925.494	12932
925.602	12981
925.709	12943
925.816	12810
925.924	12817
926.031	13000
926.138	12848
926.245	12916
926.352	12703
926.459	12935
926.566	12848
926.673	12806
926.779	12669
926.886	12574
926.993	12555
927.099	12513
927.206	12448
927.312	12479
927.419	12597
927.525	12521
927.631	12566
927.737	12327
927.843	12372
927.95	12247
928.056	12273
928.162	12292
928.267	12323
928.373	12985
928.479	12422
928.585	12030
928.69	12281
928.796	12323
928.901	12186
929.007	12041
929.112	12133
929.218	12083
929.323	12015
929.428	12011
929.533	12148
929.638	11969
929.743	12003
929.848	12034
929.953	12030
930.058	11859
930.163	11786
930.267	11737
930.372	11840
930.477	11646
930.581	11916
930.685	11756
930.79	11573
930.894	11653
930.998	11520
931.103	11699
931.207	11353
931.311	11318
931.415	11185
931.519	10995
931.623	11041
