Data from test_V78500241_563.txt Node
Date: Fri Mar 25 15:13:46 CST 2022
User: usil
Spectrometer: V785-0024
Trigger mode: 0
Integration Time (sec): 4.000000E-1
Scans to average: 1
Nonlinearity correction enabled: false
Boxcar width: 0
Storing dark spectrum: false
XAxis mode: Wavelengths
Number of Pixels in Spectrum: 1024
>>>>>Begin Spectral Data<<<<<
801.071	26663
801.214	26450
801.356	26438
801.499	26393
801.641	26237
801.783	26134
801.926	26229
802.068	26183
802.211	26001
802.353	26027
802.496	25727
802.638	25681
802.78	25693
802.923	25723
803.065	25674
803.208	25677
803.35	25868
803.492	25658
803.635	25852
803.777	25772
803.919	25982
804.061	26092
804.204	25909
804.346	25906
804.488	25780
804.63	25849
804.773	25613
804.915	25906
805.057	25894
805.199	25841
805.341	25871
805.483	25909
805.626	25989
805.768	25940
805.91	25982
806.052	25978
806.194	25887
806.336	26077
806.478	26024
806.62	26005
806.762	26149
806.904	26248
807.046	26412
807.188	26370
807.33	26233
807.472	26473
807.614	26332
807.756	26328
807.898	26278
808.04	26210
808.182	26157
808.324	26191
808.465	26168
808.607	26218
808.749	26480
808.891	26648
809.033	26773
809.174	26682
809.316	26564
809.458	26457
809.6	26545
809.741	26697
809.883	26750
810.025	26746
810.166	26731
810.308	26868
810.45	26762
810.591	26807
810.733	26651
810.875	26511
811.016	26339
811.158	26343
811.299	26682
811.441	26743
811.582	26594
811.724	26533
811.865	26389
812.007	26313
812.148	26522
812.29	26488
812.431	26689
812.573	26830
812.714	26982
812.855	26986
812.997	27009
813.138	27367
813.279	27085
813.421	27169
813.562	27024
813.703	27009
813.845	26849
813.986	26415
814.127	26328
814.268	26202
814.41	26210
814.551	26043
814.692	26225
814.833	26035
814.974	26187
815.115	26237
815.256	26111
815.397	26142
815.539	26046
815.68	25947
815.821	25909
815.962	25928
816.103	25936
816.244	25822
816.385	25727
816.526	25753
816.666	25453
816.807	25324
816.948	25559
817.089	25544
817.23	25537
817.371	25491
817.512	25468
817.653	25476
817.793	25510
817.934	25468
818.075	25403
818.216	25479
818.356	25289
818.497	25388
818.638	25072
818.778	25202
818.919	25148
819.06	25194
819.2	25312
819.341	25331
819.481	25411
819.622	25533
819.762	25708
819.903	25563
820.043	25757
820.184	25651
820.324	25567
820.465	25708
820.605	25605
820.746	25643
820.886	25354
821.026	25472
821.167	25419
821.307	25727
821.447	25533
821.588	25369
821.728	25236
821.868	25065
822.008	24932
822.149	24894
822.289	24825
822.429	24528
822.569	24646
822.709	24673
822.849	24467
822.99	24407
823.13	24266
823.27	24330
823.41	24308
823.55	24182
823.69	24232
823.83	24220
823.97	24152
824.11	23980
824.25	24053
824.389	24041
824.529	24064
824.669	23984
824.809	24144
824.949	24068
825.089	24194
825.228	24095
825.368	23893
825.508	23813
825.648	24049
825.787	23992
825.927	24114
826.067	23893
826.206	23874
826.346	23821
826.485	23870
826.625	23832
826.765	24015
826.904	23965
827.044	23783
827.183	23718
827.323	23558
827.462	23653
827.601	23649
827.741	23672
827.88	23680
828.02	23440
828.159	23649
828.298	23646
828.437	23676
828.577	23493
828.716	23737
828.855	23566
828.994	23334
829.134	23273
829.273	23459
829.412	23231
829.551	23353
829.69	23170
829.829	23402
829.968	23421
830.107	23311
830.246	23410
830.385	23254
830.524	23200
830.663	23151
830.802	22980
830.941	22991
831.08	22793
831.219	22919
831.357	22908
831.496	23166
831.635	22839
831.774	22847
831.913	22930
832.051	22702
832.19	22740
832.329	22786
832.467	22508
832.606	22615
832.744	22672
832.883	22649
833.022	22660
833.16	22755
833.299	22596
833.437	22706
833.576	22698
833.714	22592
833.852	22717
833.991	22653
834.129	22816
834.267	22733
834.406	22687
834.544	22691
834.682	22797
834.821	22607
834.959	22713
835.097	22546
835.235	22702
835.373	22672
835.511	22687
835.65	22519
835.788	22531
835.926	22405
836.064	22322
836.202	22516
836.34	22592
836.478	22565
836.615	22424
836.753	22535
836.891	22615
837.029	22417
837.167	22421
837.305	22508
837.443	22402
837.58	22402
837.718	22527
837.856	22394
837.993	22322
838.131	22291
838.269	22246
838.406	22284
838.544	22230
838.681	22074
838.819	22029
838.956	21911
839.094	21895
839.231	21930
839.369	22010
839.506	22280
839.643	22128
839.781	21899
839.918	21861
840.055	21857
840.193	21892
840.33	21739
840.467	21694
840.604	21778
840.742	22124
840.879	21667
841.016	21568
841.153	21686
841.29	21876
841.427	21766
841.564	21736
841.701	21835
841.838	21686
841.975	21675
842.112	21774
842.249	21599
842.385	21580
842.522	21835
842.659	21538
842.796	21481
842.933	21603
843.069	21496
843.206	21511
843.343	21603
843.479	21698
843.616	21610
843.752	21317
843.889	21481
844.025	21549
844.162	21359
844.298	21443
844.435	21363
844.571	21287
844.708	21294
844.844	21568
844.98	21485
845.117	21488
845.253	21241
845.389	21245
845.525	21264
845.661	21161
845.798	21188
845.934	21058
846.07	20967
846.206	21142
846.342	21272
846.478	20994
846.614	20861
846.75	20743
846.886	20876
847.022	20929
847.158	20842
847.294	20777
847.429	20853
847.565	20758
847.701	21043
847.837	20476
847.972	20564
848.108	20651
848.244	20663
848.379	20461
848.515	20461
848.65	20438
848.786	20385
848.921	20438
849.057	20530
849.192	20476
849.328	20549
849.463	20385
849.598	20320
849.734	20225
849.869	20248
850.004	20206
850.14	20168
850.275	20096
850.41	20122
850.545	20134
850.68	20065
850.815	20240
850.95	20210
851.085	20320
851.22	20347
851.355	20225
851.49	20256
851.625	20237
851.76	20092
851.895	20027
852.03	20008
852.165	20263
852.299	20259
852.434	20180
852.569	20206
852.703	20263
852.838	20240
852.973	20389
853.107	20298
853.242	20183
853.376	20020
853.511	19871
853.645	20062
853.78	20122
853.914	20119
854.048	19951
854.183	19974
854.317	20050
854.451	20298
854.585	19951
854.72	20062
854.854	19970
854.988	20001
855.122	19906
855.256	19845
855.39	20012
855.524	20088
855.658	20111
855.792	20050
855.926	20142
856.06	20027
856.194	20043
856.327	19982
856.461	19913
856.595	19898
856.729	19993
856.862	20138
856.996	19978
857.13	20012
857.263	20145
857.397	20122
857.53	20005
857.664	20100
857.797	20062
857.931	20130
858.064	20020
858.197	20153
858.331	20043
858.464	19932
858.597	19959
858.731	19955
858.864	19940
858.997	19982
859.13	19936
859.263	20084
859.396	20092
859.529	19841
859.662	20005
859.795	19879
859.928	20100
860.061	20157
860.194	20237
860.327	20103
860.46	19898
860.592	20046
860.725	20016
860.858	20119
860.99	20035
861.123	20005
861.256	19955
861.388	20001
861.521	20697
861.653	19928
861.786	19734
861.918	19776
862.05	19944
862.183	19955
862.315	19947
862.447	19986
862.58	19814
862.712	19845
862.844	19662
862.976	19868
863.108	19822
863.24	20176
863.372	19609
863.504	19769
863.636	19689
863.768	19715
863.9	19750
864.032	19666
864.164	19693
864.296	19818
864.428	19704
864.559	19837
864.691	19822
864.823	19727
864.954	19723
865.086	19753
865.217	19674
865.349	19559
865.48	19674
865.612	19647
865.743	19708
865.875	19685
866.006	19689
866.137	19571
866.269	19544
866.4	19575
866.531	19578
866.662	19567
866.793	19525
866.924	19578
867.055	19712
867.186	19624
867.317	19575
867.448	19556
867.579	19548
867.71	19540
867.841	19601
867.972	19616
868.103	19533
868.233	19616
868.364	19563
868.495	19734
868.625	19776
868.756	19928
868.886	19696
869.017	19826
869.147	19963
869.278	19963
869.408	19925
869.539	19807
869.669	19989
869.799	19928
869.929	19837
870.06	19959
870.19	20157
870.32	20073
870.45	20145
870.58	20347
870.71	20278
870.84	20286
870.97	20389
871.1	20195
871.23	20396
871.36	20518
871.489	20187
871.619	20358
871.749	20355
871.879	20442
872.008	20560
872.138	20446
872.267	20522
872.397	20278
872.526	20199
872.656	20187
872.785	20233
872.915	20385
873.044	20533
873.173	20560
873.303	20446
873.432	20484
873.561	20629
873.69	20541
873.819	20404
873.948	20640
874.077	20503
874.206	20305
874.335	20408
874.464	20648
874.593	20769
874.722	20727
874.851	20750
874.979	20746
875.108	20758
875.237	20655
875.365	20712
875.494	20724
875.623	20796
875.751	20594
875.88	20640
876.008	20826
876.136	20925
876.265	21165
876.393	21154
876.521	21123
876.65	21077
876.778	21165
876.906	21024
877.034	21013
877.162	21127
877.29	20986
877.418	21070
877.546	21096
877.674	21013
877.802	21123
877.93	21024
878.058	21100
878.185	20998
878.313	21081
878.441	21024
878.568	20982
878.696	20975
878.824	21028
878.951	21173
879.079	21214
879.206	21344
879.333	21294
879.461	21135
879.588	21127
879.715	21302
879.842	21313
879.97	21036
880.097	20902
880.224	20849
880.351	20914
880.478	20933
880.605	20804
880.732	20910
880.859	21081
880.986	20895
881.112	20857
881.239	20735
881.366	20697
881.493	20427
881.619	20465
881.746	20480
881.872	20484
881.999	20381
882.125	20313
882.252	20339
882.378	20438
882.505	20648
882.631	20256
882.757	20259
882.883	20244
883.01	20161
883.136	20111
883.262	20157
883.388	19989
883.514	20218
883.64	20240
883.766	20103
883.892	20081
884.018	20027
884.143	20149
884.269	20237
884.395	19925
884.52	19833
884.646	19940
884.772	19822
884.897	19704
885.023	19936
885.148	19921
885.274	19986
885.399	20039
885.524	19856
885.65	19898
885.775	19947
885.9	19761
886.025	19940
886.15	19898
886.275	19788
886.4	19757
886.525	19830
886.65	19772
886.775	19776
886.9	19830
887.025	19993
887.149	19765
887.274	19594
887.399	19632
887.523	19761
887.648	19620
887.773	19491
887.897	19746
888.021	19704
888.146	19575
888.27	19750
888.395	19613
888.519	19734
888.643	19586
888.767	19791
888.891	19597
889.015	19388
889.139	19552
889.263	19476
889.387	19487
889.511	19605
889.635	19506
889.759	19289
889.883	19403
890.006	19506
890.13	19441
890.254	19293
890.377	19327
890.501	19198
890.624	19209
890.748	19266
890.871	19065
890.995	18977
891.118	19076
891.241	18970
891.364	19076
891.488	19183
891.611	19004
891.734	19019
891.857	19148
891.98	19072
892.103	18928
892.226	19065
892.349	18897
892.471	18802
892.594	18901
892.717	19012
892.839	18867
892.962	18973
893.085	18993
893.207	18947
893.33	18913
893.452	18848
893.575	18913
893.697	18951
893.819	19069
893.941	19133
894.064	19091
894.186	18837
894.308	18894
894.43	18875
894.552	19156
894.674	18901
894.796	18829
894.918	18795
895.04	18856
895.161	19053
895.283	19080
895.405	18913
895.526	18973
895.648	18981
895.769	18920
895.891	19046
896.012	19202
896.134	19004
896.255	18996
896.376	18985
896.498	18939
896.619	19031
896.74	19031
896.861	19183
896.982	19350
897.103	19472
897.224	19202
897.345	19126
897.466	19232
897.587	19282
897.708	19255
897.828	19171
897.949	19168
898.07	18993
898.19	19198
898.311	19324
898.431	19137
898.552	19209
898.672	19278
898.792	19331
898.913	19316
899.033	19160
899.153	19076
899.273	19000
899.393	19046
899.513	18958
899.633	18905
899.753	19012
899.873	18970
899.993	19065
900.113	19057
900.232	18989
900.352	18829
900.472	18913
900.591	18783
900.711	18840
900.83	18829
900.95	18897
901.069	18871
901.189	18745
901.308	18608
901.427	18395
901.546	18285
901.665	18407
901.784	18460
901.904	18266
902.023	18216
902.141	17980
902.26	17946
902.379	17901
902.498	17885
902.617	17863
902.735	17977
902.854	17863
902.973	17885
903.091	17600
903.21	17509
903.328	17535
903.446	17558
903.565	17391
903.683	17421
903.801	17318
903.919	17284
904.038	17383
904.156	17212
904.274	17223
904.392	17102
904.51	17239
904.627	17223
904.745	17261
904.863	17185
904.981	17003
905.098	16771
905.216	16835
905.334	16850
905.451	16866
905.569	16812
905.686	16877
905.803	16892
905.921	16710
906.038	16752
906.155	16702
906.272	16523
906.389	16649
906.506	16493
906.623	16485
906.74	16352
906.857	16310
906.974	16322
907.091	16455
907.208	16493
907.324	16443
907.441	16291
907.557	16211
907.674	16101
907.79	15998
907.907	16055
908.023	16215
908.139	16135
908.256	16017
908.372	16051
908.488	16048
908.604	15865
908.72	15770
908.836	15861
908.952	15850
909.068	15766
909.184	15979
909.3	15808
909.415	15930
909.531	15915
909.647	15637
909.762	15629
909.878	15519
909.993	15686
910.108	15591
910.224	15447
910.339	15572
910.454	15439
910.57	15336
910.685	15310
910.8	15618
910.915	15462
911.03	15397
911.145	15150
911.259	15203
911.374	15211
911.489	15116
911.604	15051
911.718	14891
911.833	14967
911.947	14788
912.062	14606
912.176	14952
912.291	14963
912.405	14971
912.519	15081
912.633	15051
912.748	15024
912.862	14921
912.976	14769
913.09	14769
913.204	14674
913.318	14743
913.431	14758
913.545	14788
913.659	14864
913.772	14727
913.886	14530
914	14670
914.113	14667
914.226	14651
914.34	14655
914.453	14446
914.566	14640
914.68	14484
914.793	14389
914.906	14248
915.019	14176
915.132	14138
915.245	14221
915.358	14278
915.47	14225
915.583	14252
915.696	14233
915.809	14328
915.921	14332
916.034	14123
916.146	14107
916.259	14065
916.371	14248
916.483	14176
916.595	13955
916.708	14130
916.82	14035
916.932	14024
917.044	14103
917.156	13917
917.268	13917
917.38	13986
917.491	13856
917.603	13970
917.715	13928
917.826	13944
917.938	13883
918.049	13715
918.161	13849
918.272	13978
918.384	14031
918.495	13852
918.606	13837
918.717	13708
918.828	13712
918.939	13784
919.05	13537
919.161	13693
919.272	13430
919.383	13521
919.494	13689
919.604	13814
919.715	13753
919.826	13620
919.936	13575
920.047	13811
920.157	13704
920.267	13849
920.378	13647
920.488	13632
920.598	13833
920.708	13982
920.818	13780
920.928	13795
921.038	13894
921.148	13917
921.258	13578
921.368	13514
921.477	13403
921.587	13441
921.697	13244
921.806	13411
921.916	13320
922.025	13141
922.134	13118
922.244	13027
922.353	13129
922.462	12954
922.571	12943
922.68	12753
922.789	12646
922.898	12722
923.007	12627
923.116	12700
923.224	12696
923.333	12665
923.442	12612
923.55	12642
923.659	12544
923.767	12669
923.876	12475
923.984	12597
924.092	12479
924.201	12460
924.309	12460
924.417	12494
924.525	12467
924.633	12471
924.741	13183
924.849	12232
924.956	12464
925.064	12270
925.172	12106
925.279	12228
925.387	12194
925.494	12247
925.602	12273
925.709	12235
925.816	12114
925.924	12194
926.031	12258
926.138	12178
926.245	12239
926.352	12030
926.459	12239
926.566	12228
926.673	12019
926.779	12007
926.886	11977
926.993	11771
927.099	11741
927.206	11771
927.312	11779
927.419	11794
927.525	11775
927.631	11821
927.737	11623
927.843	11668
927.95	11509
928.056	11532
928.162	11665
928.267	11623
928.373	12281
928.479	11733
928.585	11543
928.69	11627
928.796	11524
928.901	11376
929.007	11395
929.112	11474
929.218	11486
929.323	11368
929.428	11307
929.533	11455
929.638	11284
929.743	11326
929.848	11372
929.953	11345
930.058	11178
930.163	11037
930.267	11071
930.372	11231
930.477	10999
930.581	11208
930.685	11181
930.79	11033
930.894	10987
930.998	11025
931.103	11105
931.207	10786
931.311	10706
931.415	10561
931.519	10360
931.623	10352
