Data from test_V78500241_1242.txt Node
Date: Fri Mar 25 15:18:30 CST 2022
User: usil
Spectrometer: V785-0024
Trigger mode: 0
Integration Time (sec): 4.000000E-1
Scans to average: 1
Nonlinearity correction enabled: false
Boxcar width: 0
Storing dark spectrum: false
XAxis mode: Wavelengths
Number of Pixels in Spectrum: 1024
>>>>>Begin Spectral Data<<<<<
801.071	27884
801.214	27861
801.356	27515
801.499	27469
801.641	27386
801.783	27294
801.926	27462
802.068	27336
802.211	27279
802.353	27252
802.496	26971
802.638	27108
802.78	27096
802.923	26880
803.065	26921
803.208	26864
803.35	27047
803.492	27233
803.635	27222
803.777	27104
803.919	27222
804.061	27526
804.204	27241
804.346	27199
804.488	27039
804.63	27233
804.773	27058
804.915	27291
805.057	27313
805.199	27180
805.341	27336
805.483	27382
805.626	27306
805.768	27264
805.91	27317
806.052	27279
806.194	27207
806.336	27515
806.478	27336
806.62	27382
806.762	27389
806.904	27519
807.046	27838
807.188	27663
807.33	27694
807.472	27732
807.614	27663
807.756	27778
807.898	27644
808.04	27679
808.182	27500
808.324	27705
808.465	27553
808.607	27717
808.749	27998
808.891	28078
809.033	28116
809.174	27991
809.316	27991
809.458	28048
809.6	27812
809.741	28067
809.883	28097
810.025	28265
810.166	28234
810.308	28253
810.45	28272
810.591	28131
810.733	28074
810.875	28036
811.016	27785
811.158	27838
811.299	28029
811.441	28238
811.582	28150
811.724	27918
811.865	27899
812.007	27789
812.148	28013
812.29	28055
812.431	28093
812.573	28261
812.714	28382
812.855	28565
812.997	28485
813.138	28706
813.279	28626
813.421	28516
813.562	28497
813.703	28371
813.845	28234
813.986	27816
814.127	27835
814.268	27732
814.41	27652
814.551	27583
814.692	27816
814.833	27485
814.974	27553
815.115	27747
815.256	27625
815.397	27599
815.539	27481
815.68	27435
815.821	27427
815.962	27515
816.103	27389
816.244	27359
816.385	27169
816.526	27275
816.666	27119
816.807	26979
816.948	26990
817.089	27055
817.23	26902
817.371	26899
817.512	26940
817.653	26838
817.793	26887
817.934	27074
818.075	26975
818.216	27131
818.356	26849
818.497	26796
818.638	26705
818.778	26743
818.919	26670
819.06	26952
819.2	26853
819.341	26921
819.481	27013
819.622	27218
819.762	27348
819.903	27169
820.043	27203
820.184	27043
820.324	26982
820.465	27203
820.605	27150
820.746	27017
820.886	26975
821.026	27066
821.167	26948
821.307	27058
821.447	27013
821.588	26994
821.728	26689
821.868	26503
822.008	26355
822.149	26461
822.289	26530
822.429	26233
822.569	26005
822.709	26054
822.849	25944
822.99	26039
823.13	25974
823.27	25982
823.41	25791
823.55	25578
823.69	25708
823.83	25753
823.97	25826
824.11	25533
824.25	25552
824.389	25674
824.529	25647
824.669	25681
824.809	25605
824.949	25776
825.089	25765
825.228	25780
825.368	25388
825.508	25457
825.648	25403
825.787	25472
825.927	25510
826.067	25464
826.206	25441
826.346	25479
826.485	25460
826.625	25533
826.765	25479
826.904	25525
827.044	25187
827.183	25164
827.323	25187
827.462	25148
827.601	25187
827.741	25091
827.88	25114
828.02	25164
828.159	25031
828.298	25164
828.437	25110
828.577	25168
828.716	25304
828.855	25137
828.994	24928
829.134	24973
829.273	25061
829.412	24715
829.551	24817
829.69	24939
829.829	24935
829.968	24973
830.107	24947
830.246	24935
830.385	24890
830.524	24825
830.663	24646
830.802	24681
830.941	24369
831.08	24563
831.219	24544
831.357	24642
831.496	24734
831.635	24502
831.774	24448
831.913	24467
832.051	24311
832.19	24330
832.329	24273
832.467	24205
832.606	24053
832.744	24136
832.883	24087
833.022	24289
833.16	24232
833.299	24194
833.437	24254
833.576	24239
833.714	24342
833.852	24239
833.991	24311
834.129	24262
834.267	24296
834.406	24224
834.544	24277
834.682	24262
834.821	24254
834.959	24448
835.097	24251
835.235	24380
835.373	24270
835.511	24060
835.65	24079
835.788	24064
835.926	23912
836.064	23874
836.202	23939
836.34	24068
836.478	24155
836.615	24072
836.753	24072
836.891	24224
837.029	24129
837.167	23988
837.305	23935
837.443	24018
837.58	23999
837.718	23889
837.856	23946
837.993	23897
838.131	23977
838.269	23627
838.406	23931
838.544	23798
838.681	23528
838.819	23665
838.956	23463
839.094	23307
839.231	23387
839.369	23653
839.506	23733
839.643	23581
839.781	23463
839.918	23364
840.055	23372
840.193	23322
840.33	23292
840.467	23414
840.604	23391
840.742	23520
840.879	23220
841.016	23337
841.153	23204
841.29	23558
841.427	23170
841.564	23296
841.701	23436
841.838	23372
841.975	23113
842.112	23239
842.249	23132
842.385	23105
842.522	23193
842.659	23079
842.796	23003
842.933	23044
843.069	23056
843.206	23018
843.343	23086
843.479	23098
843.616	23113
843.752	22873
843.889	22862
844.025	22900
844.162	22965
844.298	22892
844.435	22866
844.571	22869
844.708	22915
844.844	22968
844.98	22858
845.117	22934
845.253	22782
845.389	22683
845.525	22828
845.661	22683
845.798	22660
845.934	22744
846.07	22603
846.206	22592
846.342	22691
846.478	22561
846.614	22375
846.75	22219
846.886	22344
847.022	22451
847.158	22360
847.294	22284
847.429	22272
847.565	22272
847.701	22706
847.837	22105
847.972	22162
848.108	22139
848.244	22143
848.379	21953
848.515	21960
848.65	21960
848.786	21949
848.921	22002
849.057	22143
849.192	21926
849.328	21911
849.463	21987
849.598	21945
849.734	21785
849.869	21785
850.004	21774
850.14	21812
850.275	21667
850.41	21747
850.545	21781
850.68	21705
850.815	21751
850.95	21652
851.085	21747
851.22	21888
851.355	21827
851.49	21694
851.625	21694
851.76	21660
851.895	21652
852.03	21534
852.165	21686
852.299	21751
852.434	21789
852.569	21755
852.703	21652
852.838	21694
852.973	21911
853.107	21922
853.242	21720
853.376	21504
853.511	21447
853.645	21477
853.78	21606
853.914	21595
854.048	21496
854.183	21538
854.317	21530
854.451	21797
854.585	21538
854.72	21500
854.854	21717
854.988	21447
855.122	21507
855.256	21431
855.39	21591
855.524	21618
855.658	21504
855.792	21595
855.926	21656
856.06	21534
856.194	21610
856.327	21583
856.461	21397
856.595	21519
856.729	21549
856.862	21728
856.996	21515
857.13	21614
857.263	21614
857.397	21603
857.53	21450
857.664	21511
857.797	21557
857.931	21549
858.064	21572
858.197	21694
858.331	21523
858.464	21447
858.597	21416
858.731	21553
858.864	21397
858.997	21477
859.13	21542
859.263	21492
859.396	21709
859.529	21583
859.662	21443
859.795	21561
859.928	21507
860.061	21610
860.194	21732
860.327	21644
860.46	21629
860.592	21545
860.725	21709
860.858	21667
860.99	21663
861.123	21469
861.256	21492
861.388	21477
861.521	22173
861.653	21485
861.786	21336
861.918	21348
862.05	21515
862.183	21507
862.315	21443
862.447	21488
862.58	21367
862.712	21249
862.844	21275
862.976	21222
863.108	21245
863.24	21530
863.372	21127
863.504	21165
863.636	21302
863.768	21336
863.9	21241
864.032	21310
864.164	21150
864.296	21116
864.428	21310
864.559	21340
864.691	21370
864.823	21340
864.954	21211
865.086	21230
865.217	21241
865.349	21123
865.48	21020
865.612	21135
865.743	21283
865.875	21180
866.006	21150
866.137	21135
866.269	21028
866.4	21184
866.531	21119
866.662	21039
866.793	21077
866.924	20963
867.055	21013
867.186	21055
867.317	20933
867.448	21009
867.579	21055
867.71	21009
867.841	20982
867.972	20948
868.103	21089
868.233	21043
868.364	20967
868.495	21154
868.625	21237
868.756	21435
868.886	21180
869.017	21336
869.147	21370
869.278	21435
869.408	21443
869.539	21241
869.669	21424
869.799	21245
869.929	21370
870.06	21386
870.19	21625
870.32	21572
870.45	21728
870.58	21667
870.71	21778
870.84	21724
870.97	21629
871.1	21576
871.23	21762
871.36	21945
871.489	21785
871.619	21682
871.749	21930
871.879	21918
872.008	21915
872.138	21736
872.267	21861
872.397	21682
872.526	21705
872.656	21614
872.785	21728
872.915	21876
873.044	22044
873.173	21922
873.303	21804
873.432	22010
873.561	21960
873.69	21861
873.819	21816
873.948	22128
874.077	21983
874.206	21918
874.335	21941
874.464	22040
874.593	22067
874.722	22063
874.851	22051
874.979	22154
875.108	22086
875.237	22067
875.365	21987
875.494	22192
875.623	22150
875.751	22124
875.88	22173
876.008	22310
876.136	22356
876.265	22478
876.393	22622
876.521	22500
876.65	22493
876.778	22611
876.906	22382
877.034	22405
877.162	22516
877.29	22554
877.418	22470
877.546	22531
877.674	22508
877.802	22531
877.93	22512
878.058	22455
878.185	22341
878.313	22432
878.441	22470
878.568	22287
878.696	22428
878.824	22504
878.951	22565
879.079	22588
879.206	22717
879.333	22599
879.461	22432
879.588	22630
879.715	22596
879.842	22691
879.97	22630
880.097	22272
880.224	22246
880.351	22173
880.478	22246
880.605	22386
880.732	22356
880.859	22592
880.986	22291
881.112	22360
881.239	22139
881.366	22048
881.493	21857
881.619	21903
881.746	21972
881.872	21937
881.999	21880
882.125	21838
882.252	21934
882.378	21846
882.505	21960
882.631	21705
882.757	21595
882.883	21648
883.01	21698
883.136	21458
883.262	21405
883.388	21397
883.514	21576
883.64	21644
883.766	21393
883.892	21359
884.018	21443
884.143	21469
884.269	21641
884.395	21340
884.52	21230
884.646	21230
884.772	21192
884.897	21173
885.023	21100
885.148	21370
885.274	21329
885.399	21222
885.524	21142
885.65	21104
885.775	21386
885.9	21127
886.025	21310
886.15	21249
886.275	21176
886.4	21058
886.525	21150
886.65	21116
886.775	21074
886.9	21332
887.025	21287
887.149	21169
887.274	20948
887.399	20925
887.523	20937
887.648	20921
887.773	20918
887.897	21051
888.021	21100
888.146	20861
888.27	21066
888.395	21142
888.519	20956
888.643	20967
888.767	20941
888.891	21077
889.015	20743
889.139	20849
889.263	20823
889.387	20830
889.511	21005
889.635	20941
889.759	20735
889.883	20712
890.006	20735
890.13	20872
890.254	20708
890.377	20613
890.501	20511
890.624	20412
890.748	20594
890.871	20492
890.995	20282
891.118	20263
891.241	20381
891.364	20252
891.488	20465
891.611	20328
891.734	20328
891.857	20377
891.98	20244
892.103	20408
892.226	20385
892.349	20282
892.471	20062
892.594	20161
892.717	20370
892.839	20324
892.962	20263
893.085	20275
893.207	20210
893.33	20210
893.452	20187
893.575	20271
893.697	20130
893.819	20336
893.941	20473
894.064	20328
894.186	20130
894.308	20195
894.43	20210
894.552	20389
894.674	20385
894.796	20229
894.918	20237
895.04	20191
895.161	20240
895.283	20282
895.405	20161
895.526	20320
895.648	20142
895.769	20237
895.891	20202
896.012	20343
896.134	20298
896.255	20214
896.376	20191
896.498	20187
896.619	20267
896.74	20237
896.861	20328
896.982	20537
897.103	20739
897.224	20541
897.345	20389
897.466	20461
897.587	20499
897.708	20480
897.828	20347
897.949	20495
898.07	20256
898.19	20526
898.311	20465
898.431	20434
898.552	20454
898.672	20412
898.792	20632
898.913	20358
899.033	20336
899.153	20077
899.273	20164
899.393	20161
899.513	20237
899.633	20221
899.753	20161
899.873	20092
899.993	20183
900.113	20180
900.232	20210
900.352	20134
900.472	20005
900.591	19921
900.711	19947
900.83	19894
900.95	19936
901.069	20020
901.189	19860
901.308	19605
901.427	19510
901.546	19620
901.665	19510
901.784	19670
901.904	19403
902.023	19293
902.141	19141
902.26	19023
902.379	19171
902.498	19122
902.617	19000
902.735	19126
902.854	19027
902.973	18916
903.091	18745
903.21	18604
903.328	18745
903.446	18612
903.565	18570
903.683	18570
903.801	18350
903.919	18513
904.038	18441
904.156	18216
904.274	18342
904.392	18239
904.51	18213
904.627	18201
904.745	18334
904.863	18258
904.981	17965
905.098	17931
905.216	17931
905.334	18030
905.451	17870
905.569	17939
905.686	18072
905.803	17923
905.921	17722
906.038	17805
906.155	17695
906.272	17798
906.389	17649
906.506	17455
906.623	17585
906.74	17474
906.857	17474
906.974	17379
907.091	17539
907.208	17714
907.324	17516
907.441	17490
907.557	17296
907.674	17185
907.79	17178
907.907	17159
908.023	17254
908.139	17151
908.256	17090
908.372	17235
908.488	17170
908.604	17037
908.72	16881
908.836	16976
908.952	16869
909.068	16908
909.184	16984
909.3	16938
909.415	16999
909.531	16927
909.647	16683
909.762	16626
909.878	16675
909.993	16687
910.108	16630
910.224	16653
910.339	16630
910.454	16436
910.57	16542
910.685	16394
910.8	16637
910.915	16573
911.03	16447
911.145	16249
911.259	16223
911.374	16238
911.489	16177
911.604	16112
911.718	15922
911.833	16044
911.947	15835
912.062	15770
912.176	16120
912.291	16017
912.405	15899
912.519	16131
912.633	16017
912.748	16021
912.862	15937
912.976	15747
913.09	15682
913.204	15743
913.318	15842
913.431	15846
913.545	15838
913.659	15903
913.772	15778
913.886	15580
914	15606
914.113	15694
914.226	15743
914.34	15637
914.453	15485
914.566	15572
914.68	15504
914.793	15488
914.906	15230
915.019	15256
915.132	15070
915.245	15207
915.358	15226
915.47	15245
915.583	15249
915.696	15195
915.809	15302
915.921	15336
916.034	15237
916.146	15127
916.259	15051
916.371	15199
916.483	15260
916.595	15039
916.708	14971
916.82	15123
916.932	15051
917.044	14971
917.156	15009
917.268	14902
917.38	14823
917.491	14834
917.603	14921
917.715	14975
917.826	14925
917.938	14804
918.049	14632
918.161	14773
918.272	14979
918.384	15024
918.495	14838
918.606	14724
918.717	14606
918.828	14629
918.939	14693
919.05	14598
919.161	14636
919.272	14434
919.383	14568
919.494	14575
919.604	14838
919.715	14625
919.826	14545
919.936	14537
920.047	14617
920.157	14648
920.267	14712
920.378	14621
920.488	14583
920.598	14739
920.708	14788
920.818	14788
920.928	14773
921.038	14845
921.148	14921
921.258	14594
921.368	14374
921.477	14313
921.587	14332
921.697	14172
921.806	14259
921.916	14191
922.025	13986
922.134	14054
922.244	13894
922.353	13917
922.462	13868
922.571	13788
922.68	13616
922.789	13609
922.898	13613
923.007	13521
923.116	13586
923.224	13556
923.333	13518
923.442	13457
923.55	13350
923.659	13430
923.767	13514
923.876	13407
923.984	13388
924.092	13308
924.201	13354
924.309	13335
924.417	13403
924.525	13270
924.633	13244
924.741	14123
924.849	13057
924.956	13164
925.064	13122
925.172	12939
925.279	13046
925.387	13061
925.494	13046
925.602	13095
925.709	13031
925.816	13000
925.924	12947
926.031	13072
926.138	12993
926.245	13053
926.352	12878
926.459	12981
926.566	12962
926.673	12848
926.779	12772
926.886	12749
926.993	12669
927.099	12616
927.206	12460
927.312	12559
927.419	12631
927.525	12593
927.631	12585
927.737	12388
927.843	12464
927.95	12410
928.056	12327
928.162	12403
928.267	12399
928.373	13023
928.479	12437
928.585	12186
928.69	12353
928.796	12486
928.901	12292
929.007	12148
929.112	12254
929.218	12323
929.323	12076
929.428	12175
929.533	12270
929.638	12087
929.743	12060
929.848	12178
929.953	12098
930.058	11878
930.163	11821
930.267	11821
930.372	11946
930.477	11745
930.581	12022
930.685	11824
930.79	11707
930.894	11737
930.998	11756
931.103	11779
931.207	11410
931.311	11398
931.415	11356
931.519	11197
931.623	11033
