Data from test_V78500241_2238.txt Node
Date: Fri Mar 25 15:25:26 CST 2022
User: usil
Spectrometer: V785-0024
Trigger mode: 0
Integration Time (sec): 4.000000E-1
Scans to average: 1
Nonlinearity correction enabled: false
Boxcar width: 0
Storing dark spectrum: false
XAxis mode: Wavelengths
Number of Pixels in Spectrum: 1024
>>>>>Begin Spectral Data<<<<<
801.071	27895
801.214	27633
801.356	27340
801.499	27485
801.641	27268
801.783	27260
801.926	27359
802.068	27355
802.211	27207
802.353	27089
802.496	26967
802.638	26982
802.78	26940
802.923	26944
803.065	26864
803.208	26849
803.35	27013
803.492	27173
803.635	27192
803.777	27081
803.919	27116
804.061	27534
804.204	27203
804.346	27070
804.488	26979
804.63	27211
804.773	27055
804.915	27131
805.057	27218
805.199	27028
805.341	27260
805.483	27408
805.626	27306
805.768	27138
805.91	27340
806.052	27245
806.194	27222
806.336	27454
806.478	27256
806.62	27279
806.762	27325
806.904	27652
807.046	27743
807.188	27724
807.33	27671
807.472	27705
807.614	27644
807.756	27736
807.898	27583
808.04	27447
808.182	27511
808.324	27637
808.465	27580
808.607	27812
808.749	28032
808.891	28013
809.033	28101
809.174	28048
809.316	27903
809.458	27907
809.6	27930
809.741	28090
809.883	28067
810.025	28185
810.166	28090
810.308	28093
810.45	28074
810.591	28040
810.733	27937
810.875	27736
811.016	27854
811.158	27770
811.299	27903
811.441	27991
811.582	28166
811.724	27850
811.865	27766
812.007	27972
812.148	27861
812.29	27892
812.431	28048
812.573	28169
812.714	28284
812.855	28325
812.997	28538
813.138	28637
813.279	28565
813.421	28360
813.562	28421
813.703	28284
813.845	28112
813.986	27766
814.127	27724
814.268	27629
814.41	27622
814.551	27633
814.692	27656
814.833	27534
814.974	27523
815.115	27755
815.256	27397
815.397	27473
815.539	27580
815.68	27264
815.821	27173
815.962	27420
816.103	27355
816.244	27245
816.385	27241
816.526	27081
816.666	27146
816.807	26823
816.948	26914
817.089	26883
817.23	26781
817.371	26834
817.512	26887
817.653	26785
817.793	26708
817.934	26765
818.075	26845
818.216	26861
818.356	26845
818.497	26849
818.638	26549
818.778	26651
818.919	26602
819.06	26617
819.2	26762
819.341	26891
819.481	26823
819.622	27089
819.762	27112
819.903	27146
820.043	26921
820.184	26963
820.324	26982
820.465	27081
820.605	27001
820.746	27001
820.886	26807
821.026	27001
821.167	26906
821.307	26895
821.447	26807
821.588	26914
821.728	26606
821.868	26434
822.008	26313
822.149	26256
822.289	26374
822.429	26031
822.569	26035
822.709	25944
822.849	25894
822.99	25940
823.13	25883
823.27	25799
823.41	25715
823.55	25597
823.69	25658
823.83	25647
823.97	25582
824.11	25396
824.25	25510
824.389	25422
824.529	25529
824.669	25449
824.809	25556
824.949	25567
825.089	25533
825.228	25510
825.368	25297
825.508	25384
825.648	25297
825.787	25362
825.927	25449
826.067	25346
826.206	25346
826.346	25438
826.485	25392
826.625	25343
826.765	25479
826.904	25301
827.044	25168
827.183	25084
827.323	25019
827.462	25183
827.601	25240
827.741	25019
827.88	25000
828.02	24924
828.159	25031
828.298	25107
828.437	25183
828.577	25053
828.716	25027
828.855	24913
828.994	24817
829.134	24760
829.273	24779
829.412	24696
829.551	24730
829.69	24798
829.829	24779
829.968	24882
830.107	24791
830.246	24726
830.385	24757
830.524	24692
830.663	24536
830.802	24388
830.941	24327
831.08	24201
831.219	24391
831.357	24391
831.496	24563
831.635	24445
831.774	24277
831.913	24121
832.051	24057
832.19	24095
832.329	24182
832.467	24095
832.606	23950
832.744	24079
832.883	23916
833.022	23996
833.16	24106
833.299	24026
833.437	24076
833.576	24068
833.714	24117
833.852	24049
833.991	24106
834.129	24133
834.267	24083
834.406	24117
834.544	24133
834.682	24171
834.821	24015
834.959	24171
835.097	24038
835.235	24117
835.373	24053
835.511	24152
835.65	23843
835.788	23939
835.926	23756
836.064	23691
836.202	23672
836.34	23920
836.478	24007
836.615	23946
836.753	23931
836.891	24095
837.029	24015
837.167	23866
837.305	23885
837.443	23775
837.58	23764
837.718	23726
837.856	23764
837.993	23783
838.131	23737
838.269	23646
838.406	23619
838.544	23547
838.681	23349
838.819	23376
838.956	23162
839.094	23200
839.231	23170
839.369	23425
839.506	23611
839.643	23364
839.781	23151
839.918	23174
840.055	23258
840.193	23109
840.33	23105
840.467	23143
840.604	23376
840.742	23330
840.879	23014
841.016	23060
841.153	23090
841.29	23216
841.427	23132
841.564	22995
841.701	23052
841.838	23010
841.975	23037
842.112	22972
842.249	22934
842.385	22763
842.522	22991
842.659	22862
842.796	22930
842.933	22866
843.069	22869
843.206	22824
843.343	22961
843.479	22957
843.616	22797
843.752	22698
843.889	22615
844.025	22854
844.162	22691
844.298	22656
844.435	22668
844.571	22535
844.708	22706
844.844	22733
844.98	22786
845.117	22736
845.253	22554
845.389	22474
845.525	22512
845.661	22516
845.798	22352
845.934	22291
846.07	22371
846.206	22451
846.342	22409
846.478	22390
846.614	22196
846.75	22112
846.886	22032
847.022	22215
847.158	22166
847.294	22173
847.429	22265
847.565	22086
847.701	22329
847.837	21861
847.972	21869
848.108	21983
848.244	21949
848.379	21850
848.515	21774
848.65	21671
848.786	21701
848.921	21652
849.057	21884
849.192	21819
849.328	21781
849.463	21644
849.598	21599
849.734	21599
849.869	21488
850.004	21526
850.14	21458
850.275	21443
850.41	21393
850.545	21393
850.68	21416
850.815	21485
850.95	21450
851.085	21622
851.22	21557
851.355	21428
851.49	21538
851.625	21397
851.76	21359
851.895	21397
852.03	21268
852.165	21420
852.299	21603
852.434	21450
852.569	21614
852.703	21401
852.838	21583
852.973	21629
853.107	21557
853.242	21279
853.376	21378
853.511	21302
853.645	21222
853.78	21386
853.914	21211
854.048	21256
854.183	21260
854.317	21222
854.451	21542
854.585	21249
854.72	21211
854.854	21435
854.988	21298
855.122	21260
855.256	21199
855.39	21306
855.524	21294
855.658	21420
855.792	21287
855.926	21317
856.06	21195
856.194	21355
856.327	21306
856.461	21241
856.595	21188
856.729	21329
856.862	21355
856.996	21317
857.13	21272
857.263	21351
857.397	21359
857.53	21279
857.664	21275
857.797	21329
857.931	21313
858.064	21233
858.197	21332
858.331	21260
858.464	21252
858.597	21116
858.731	21214
858.864	21302
858.997	21161
859.13	21298
859.263	21389
859.396	21447
859.529	21233
859.662	21233
859.795	21275
859.928	21275
860.061	21408
860.194	21538
860.327	21329
860.46	21420
860.592	21420
860.725	21287
860.858	21477
860.99	21241
861.123	21165
861.256	21214
861.388	21275
861.521	21994
861.653	21161
861.786	21154
861.918	21047
862.05	21116
862.183	21169
862.315	21226
862.447	21336
862.58	21173
862.712	21039
862.844	20967
862.976	21028
863.108	21116
863.24	21332
863.372	20910
863.504	21017
863.636	21058
863.768	21051
863.9	21077
864.032	20998
864.164	20944
864.296	21039
864.428	21093
864.559	21036
864.691	20975
864.823	21051
864.954	20921
865.086	21013
865.217	20956
865.349	20701
865.48	20933
865.612	20842
865.743	21005
865.875	20845
866.006	20792
866.137	20956
866.269	20811
866.4	20773
866.531	20910
866.662	20811
866.793	20804
866.924	20815
867.055	20918
867.186	20853
867.317	20796
867.448	20785
867.579	20800
867.71	20682
867.841	20743
867.972	20754
868.103	20819
868.233	20868
868.364	20941
868.495	20937
868.625	20986
868.756	21077
868.886	21039
869.017	21116
869.147	21192
869.278	21279
869.408	21001
869.539	21070
869.669	21157
869.799	21119
869.929	21222
870.06	21211
870.19	21363
870.32	21256
870.45	21424
870.58	21481
870.71	21618
870.84	21629
870.97	21363
871.1	21443
871.23	21644
871.36	21679
871.489	21606
871.619	21629
871.749	21675
871.879	21606
872.008	21686
872.138	21724
872.267	21610
872.397	21652
872.526	21629
872.656	21431
872.785	21469
872.915	21557
873.044	21709
873.173	21873
873.303	21736
873.432	21622
873.561	21762
873.69	21690
873.819	21622
873.948	21766
874.077	21709
874.206	21625
874.335	21633
874.464	21770
874.593	21937
874.722	21892
874.851	21937
874.979	21922
875.108	22067
875.237	21861
875.365	21865
875.494	21892
875.623	22013
875.751	21903
875.88	21941
876.008	21972
876.136	22059
876.265	22280
876.393	22337
876.521	22341
876.65	22318
876.778	22314
876.906	22230
877.034	22238
877.162	22207
877.29	22162
877.418	22272
877.546	22344
877.674	22242
877.802	22223
877.93	22257
878.058	22242
878.185	22109
878.313	22188
878.441	22215
878.568	22162
878.696	22192
878.824	22253
878.951	22348
879.079	22382
879.206	22580
879.333	22325
879.461	22272
879.588	22386
879.715	22447
879.842	22512
879.97	22451
880.097	22135
880.224	22112
880.351	22090
880.478	22082
880.605	22067
880.732	22131
880.859	22276
880.986	22036
881.112	22124
881.239	21975
881.366	21797
881.493	21656
881.619	21618
881.746	21713
881.872	21618
881.999	21618
882.125	21553
882.252	21701
882.378	21591
882.505	21774
882.631	21580
882.757	21507
882.883	21420
883.01	21401
883.136	21237
883.262	21245
883.388	21001
883.514	21302
883.64	21367
883.766	21176
883.892	21119
884.018	21074
884.143	21306
884.269	21325
884.395	21077
884.52	20956
884.646	21036
884.772	20868
884.897	20952
885.023	21005
885.148	21066
885.274	21142
885.399	21058
885.524	21024
885.65	21051
885.775	20941
885.9	20914
886.025	21047
886.15	21028
886.275	20895
886.4	20834
886.525	20918
886.65	20921
886.775	20796
886.9	20929
887.025	21283
887.149	20933
887.274	20739
887.399	20769
887.523	20727
887.648	20697
887.773	20750
887.897	20724
888.021	20861
888.146	20724
888.27	20842
888.395	20933
888.519	20792
888.643	20842
888.767	20724
888.891	20705
889.015	20507
889.139	20609
889.263	20484
889.387	20693
889.511	20777
889.635	20648
889.759	20602
889.883	20587
890.006	20617
890.13	20743
890.254	20419
890.377	20651
890.501	20233
890.624	20294
890.748	20366
890.871	20298
890.995	20206
891.118	20142
891.241	20164
891.364	20031
891.488	20191
891.611	20298
891.734	20138
891.857	20199
891.98	20088
892.103	20267
892.226	20092
892.349	20065
892.471	19951
892.594	20012
892.717	20050
892.839	20046
892.962	19951
893.085	20134
893.207	20122
893.33	19940
893.452	19967
893.575	20081
893.697	20001
893.819	20191
893.941	20168
894.064	20122
894.186	19978
894.308	19883
894.43	20122
894.552	20138
894.674	20107
894.796	20073
894.918	20107
895.04	19970
895.161	19989
895.283	20008
895.405	19932
895.526	19967
895.648	20092
895.769	19959
895.891	20084
896.012	20187
896.134	20043
896.255	20024
896.376	20001
896.498	19993
896.619	20050
896.74	19951
896.861	20126
896.982	20278
897.103	20575
897.224	20301
897.345	20240
897.466	20278
897.587	20320
897.708	20339
897.828	20271
897.949	20164
898.07	20054
898.19	20339
898.311	20324
898.431	20187
898.552	20294
898.672	20431
898.792	20415
898.913	20256
899.033	20248
899.153	20142
899.273	19902
899.393	20001
899.513	20001
899.633	19997
899.753	20103
899.873	19795
899.993	20027
900.113	19913
900.232	20046
900.352	20050
900.472	19928
900.591	19719
900.711	19826
900.83	19635
900.95	19852
901.069	19902
901.189	19780
901.308	19476
901.427	19285
901.546	19415
901.665	19426
901.784	19472
901.904	19137
902.023	19221
902.141	19000
902.26	18928
902.379	18981
902.498	18947
902.617	18810
902.735	18924
902.854	18890
902.973	18760
903.091	18578
903.21	18654
903.328	18578
903.446	18506
903.565	18399
903.683	18391
903.801	18407
903.919	18357
904.038	18376
904.156	18106
904.274	18155
904.392	18110
904.51	18068
904.627	18163
904.745	18079
904.863	18254
904.981	17980
905.098	17775
905.216	17821
905.334	17836
905.451	17748
905.569	17813
905.686	17813
905.803	17859
905.921	17642
906.038	17684
906.155	17581
906.272	17482
906.389	17490
906.506	17250
906.623	17269
906.74	17318
906.857	17181
906.974	17189
907.091	17379
907.208	17497
907.324	17395
907.441	17296
907.557	17037
907.674	16995
907.79	16915
907.907	17060
908.023	17025
908.139	17003
908.256	17052
908.372	16980
908.488	17010
908.604	16828
908.72	16729
908.836	16786
908.952	16805
909.068	16675
909.184	16885
909.3	16698
909.415	16740
909.531	16733
909.647	16573
909.762	16569
909.878	16405
909.993	16470
910.108	16497
910.224	16375
910.339	16569
910.454	16405
910.57	16348
910.685	16223
910.8	16405
910.915	16390
911.03	16287
911.145	16109
911.259	16074
911.374	16071
911.489	16059
911.604	16025
911.718	15895
911.833	15743
911.947	15656
912.062	15633
912.176	15774
912.291	15793
912.405	15835
912.519	15975
912.633	16040
912.748	15857
912.862	15713
912.976	15656
913.09	15515
913.204	15606
913.318	15580
913.431	15736
913.545	15694
913.659	15766
913.772	15534
913.886	15530
914	15405
914.113	15625
914.226	15507
914.34	15473
914.453	15313
914.566	15428
914.68	15291
914.793	15245
914.906	15108
915.019	15028
915.132	15017
915.245	14982
915.358	15077
915.47	15074
915.583	15055
915.696	15085
915.809	15104
915.921	15169
916.034	14937
916.146	14971
916.259	14910
916.371	15036
916.483	14941
916.595	14826
916.708	14994
916.82	14914
916.932	14811
917.044	14853
917.156	14758
917.268	14804
917.38	14708
917.491	14705
917.603	14648
917.715	14811
917.826	14758
917.938	14640
918.049	14602
918.161	14667
918.272	14746
918.384	14754
918.495	14602
918.606	14480
918.717	14393
918.828	14381
918.939	14545
919.05	14313
919.161	14351
919.272	14252
919.383	14362
919.494	14492
919.604	14667
919.715	14408
919.826	14412
919.936	14355
920.047	14499
920.157	14389
920.267	14507
920.378	14336
920.488	14332
920.598	14484
920.708	14674
920.818	14518
920.928	14488
921.038	14686
921.148	14686
921.258	14358
921.368	14286
921.477	14176
921.587	14134
921.697	14020
921.806	14214
921.916	13978
922.025	13845
922.134	13940
922.244	13685
922.353	13871
922.462	13837
922.571	13670
922.68	13514
922.789	13453
922.898	13506
923.007	13362
923.116	13521
923.224	13480
923.333	13438
923.442	13335
923.55	13282
923.659	13301
923.767	13285
923.876	13297
923.984	13362
924.092	13183
924.201	13228
924.309	13209
924.417	13251
924.525	13091
924.633	13137
924.741	13852
924.849	12954
924.956	13187
925.064	12916
925.172	12852
925.279	12878
925.387	12886
925.494	12962
925.602	12973
925.709	12840
925.816	12707
925.924	12875
926.031	12901
926.138	12798
926.245	12852
926.352	12593
926.459	12817
926.566	12878
926.673	12795
926.779	12627
926.886	12604
926.993	12418
927.099	12471
927.206	12403
927.312	12384
927.419	12467
927.525	12445
927.631	12429
927.737	12334
927.843	12304
927.95	12201
928.056	12186
928.162	12235
928.267	12304
928.373	12878
928.479	12376
928.585	12098
928.69	12243
928.796	12376
928.901	12140
929.007	11958
929.112	12125
929.218	12026
929.323	11965
929.428	11969
929.533	12205
929.638	11931
929.743	11999
929.848	12011
929.953	11931
930.058	11802
930.163	11805
930.267	11733
930.372	11779
930.477	11627
930.581	11874
930.685	11688
930.79	11577
930.894	11520
930.998	11520
931.103	11646
931.207	11292
931.311	11273
931.415	11193
931.519	10968
931.623	10984
