Data from test_V78500241_2322.txt Node
Date: Fri Mar 25 15:26:01 CST 2022
User: usil
Spectrometer: V785-0024
Trigger mode: 0
Integration Time (sec): 4.000000E-1
Scans to average: 1
Nonlinearity correction enabled: false
Boxcar width: 0
Storing dark spectrum: false
XAxis mode: Wavelengths
Number of Pixels in Spectrum: 1024
>>>>>Begin Spectral Data<<<<<
801.071	27515
801.214	27412
801.356	27294
801.499	27317
801.641	27009
801.783	27001
801.926	27001
802.068	27017
802.211	26979
802.353	26883
802.496	26659
802.638	26708
802.78	26644
802.923	26629
803.065	26560
803.208	26537
803.35	26697
803.492	26731
803.635	26796
803.777	26739
803.919	26883
804.061	27188
804.204	26914
804.346	26712
804.488	26712
804.63	26876
804.773	26708
804.915	26830
805.057	26929
805.199	26758
805.341	26925
805.483	26948
805.626	27028
805.768	26746
805.91	26940
806.052	27070
806.194	26929
806.336	27161
806.478	27024
806.62	26876
806.762	27047
806.904	27146
807.046	27340
807.188	27367
807.33	27245
807.472	27382
807.614	27370
807.756	27462
807.898	27233
808.04	27184
808.182	27104
808.324	27184
808.465	27351
808.607	27549
808.749	27606
808.891	27583
809.033	27663
809.174	27534
809.316	27504
809.458	27523
809.6	27542
809.741	27618
809.883	27641
810.025	27743
810.166	27838
810.308	27838
810.45	27732
810.591	27629
810.733	27412
810.875	27481
811.016	27420
811.158	27310
811.299	27507
811.441	27614
811.582	27701
811.724	27671
811.865	27424
812.007	27420
812.148	27485
812.29	27435
812.431	27717
812.573	27800
812.714	27835
812.855	28032
812.997	28021
813.138	28276
813.279	28109
813.421	28082
813.562	27926
813.703	27835
813.845	27759
813.986	27587
814.127	27408
814.268	27268
814.41	27321
814.551	27218
814.692	27233
814.833	27195
814.974	27237
815.115	27192
815.256	26979
815.397	27154
815.539	27195
815.68	26960
815.821	26937
815.962	27119
816.103	27123
816.244	26823
816.385	26849
816.526	26815
816.666	26712
816.807	26552
816.948	26419
817.089	26587
817.23	26396
817.371	26636
817.512	26476
817.653	26465
817.793	26339
817.934	26446
818.075	26560
818.216	26370
818.356	26434
818.497	26328
818.638	26172
818.778	26225
818.919	26130
819.06	26248
819.2	26393
819.341	26476
819.481	26313
819.622	26537
819.762	26682
819.903	26830
820.043	26689
820.184	26678
820.324	26648
820.465	26632
820.605	26644
820.746	26552
820.886	26347
821.026	26560
821.167	26499
821.307	26640
821.447	26488
821.588	26385
821.728	26290
821.868	26157
822.008	26005
822.149	25944
822.289	25947
822.429	25753
822.569	25624
822.709	25643
822.849	25518
822.99	25331
823.13	25362
823.27	25491
823.41	25168
823.55	25209
823.69	25251
823.83	25369
823.97	25198
824.11	24924
824.25	24981
824.389	25099
824.529	25206
824.669	25076
824.809	25168
824.949	25095
825.089	25213
825.228	25027
825.368	24913
825.508	24932
825.648	24913
825.787	25042
825.927	25069
826.067	25000
826.206	24920
826.346	25034
826.485	24992
826.625	24928
826.765	24924
826.904	24947
827.044	24741
827.183	24623
827.323	24707
827.462	24688
827.601	24654
827.741	24696
827.88	24593
828.02	24547
828.159	24639
828.298	24631
828.437	24757
828.577	24608
828.716	24601
828.855	24498
828.994	24410
829.134	24323
829.273	24403
829.412	24285
829.551	24254
829.69	24311
829.829	24391
829.968	24483
830.107	24304
830.246	24216
830.385	24342
830.524	24319
830.663	24129
830.802	24091
830.941	23992
831.08	23885
831.219	24174
831.357	24041
831.496	24106
831.635	23882
831.774	23965
831.913	23946
832.051	23726
832.19	23836
832.329	23809
832.467	23554
832.606	23547
832.744	23520
832.883	23573
833.022	23680
833.16	23604
833.299	23691
833.437	23653
833.576	23684
833.714	23783
833.852	23634
833.991	23767
834.129	23821
834.267	23802
834.406	23748
834.544	23699
834.682	23684
834.821	23691
834.959	23790
835.097	23748
835.235	23687
835.373	23760
835.511	23665
835.65	23520
835.788	23448
835.926	23509
836.064	23288
836.202	23349
836.34	23619
836.478	23589
836.615	23387
836.753	23547
836.891	23611
837.029	23543
837.167	23566
837.305	23493
837.443	23383
837.58	23299
837.718	23509
837.856	23379
837.993	23364
838.131	23398
838.269	23292
838.406	23345
838.544	23269
838.681	22976
838.819	23025
838.956	22915
839.094	22843
839.231	22858
839.369	23064
839.506	23220
839.643	23128
839.781	22991
839.918	22771
840.055	22744
840.193	22885
840.33	22793
840.467	22687
840.604	22805
840.742	23048
840.879	22733
841.016	22679
841.153	22618
841.29	22805
841.427	22854
841.564	22797
841.701	22740
841.838	22675
841.975	22508
842.112	22607
842.249	22611
842.385	22451
842.522	22771
842.659	22489
842.796	22615
842.933	22481
843.069	22394
843.206	22478
843.343	22542
843.479	22527
843.616	22478
843.752	22295
843.889	22318
844.025	22546
844.162	22295
844.298	22356
844.435	22371
844.571	22322
844.708	22310
844.844	22451
844.98	22432
845.117	22295
845.253	22268
845.389	22055
845.525	22207
845.661	22181
845.798	22021
845.934	22112
846.07	22036
846.206	21991
846.342	22215
846.478	22074
846.614	21854
846.75	21739
846.886	21842
847.022	21842
847.158	21793
847.294	21701
847.429	21915
847.565	21789
847.701	21888
847.837	21485
847.972	21469
848.108	21580
848.244	21561
848.379	21488
848.515	21329
848.65	21287
848.786	21416
848.921	21329
849.057	21431
849.192	21523
849.328	21386
849.463	21469
849.598	21454
849.734	21203
849.869	21127
850.004	21089
850.14	21146
850.275	21005
850.41	21017
850.545	21009
850.68	20960
850.815	21096
850.95	21138
851.085	21310
851.22	21412
851.355	21214
851.49	21127
851.625	21135
851.76	21096
851.895	20960
852.03	21062
852.165	21146
852.299	21051
852.434	21116
852.569	21127
852.703	21112
852.838	21062
852.973	21249
853.107	21252
853.242	21024
853.376	20967
853.511	20902
853.645	20872
853.78	21005
853.914	21047
854.048	20861
854.183	20872
854.317	21070
854.451	21123
854.585	20933
854.72	20887
854.854	20967
854.988	20845
855.122	21009
855.256	20739
855.39	20921
855.524	21013
855.658	20967
855.792	20948
855.926	20971
856.06	21085
856.194	21074
856.327	20921
856.461	20823
856.595	20891
856.729	20902
856.862	21184
856.996	20918
857.13	21005
857.263	21055
857.397	21108
857.53	20902
857.664	21032
857.797	20975
857.931	20956
858.064	20952
858.197	21024
858.331	20963
858.464	20800
858.597	20857
858.731	20891
858.864	20861
858.997	20906
859.13	20914
859.263	20998
859.396	20982
859.529	20838
859.662	20956
859.795	21024
859.928	20937
860.061	21135
860.194	21165
860.327	21070
860.46	20998
860.592	21009
860.725	21116
860.858	21119
860.99	20990
861.123	20823
861.256	20883
861.388	20986
861.521	21671
861.653	20804
861.786	20838
861.918	20781
862.05	20868
862.183	20804
862.315	20921
862.447	20948
862.58	20925
862.712	20560
862.844	20674
862.976	20765
863.108	20712
863.24	21123
863.372	20663
863.504	20564
863.636	20655
863.768	20712
863.9	20682
864.032	20594
864.164	20617
864.296	20693
864.428	20731
864.559	20758
864.691	20583
864.823	20507
864.954	20598
865.086	20636
865.217	20670
865.349	20492
865.48	20571
865.612	20609
865.743	20697
865.875	20670
866.006	20568
866.137	20579
866.269	20583
866.4	20568
866.531	20549
866.662	20457
866.793	20495
866.924	20446
867.055	20556
867.186	20609
867.317	20412
867.448	20473
867.579	20476
867.71	20469
867.841	20442
867.972	20488
868.103	20457
868.233	20434
868.364	20476
868.495	20621
868.625	20777
868.756	20826
868.886	20632
869.017	20712
869.147	20845
869.278	20948
869.408	20674
869.539	20739
869.669	20895
869.799	20682
869.929	20902
870.06	20883
870.19	21169
870.32	20971
870.45	21066
870.58	21104
870.71	21180
870.84	21249
870.97	21085
871.1	21070
871.23	21344
871.36	21313
871.489	21233
871.619	21310
871.749	21359
871.879	21370
872.008	21492
872.138	21397
872.267	21283
872.397	21252
872.526	21096
872.656	21207
872.785	21211
872.915	21321
873.044	21302
873.173	21321
873.303	21477
873.432	21435
873.561	21458
873.69	21355
873.819	21317
873.948	21447
874.077	21275
874.206	21302
874.335	21348
874.464	21439
874.593	21633
874.722	21557
874.851	21713
874.979	21641
875.108	21637
875.237	21526
875.365	21401
875.494	21477
875.623	21637
875.751	21557
875.88	21622
876.008	21660
876.136	21591
876.265	21930
876.393	22204
876.521	22078
876.65	22051
876.778	21945
876.906	21918
877.034	21861
877.162	21953
877.29	22040
877.418	21945
877.546	21968
877.674	22006
877.802	21895
877.93	21915
878.058	21899
878.185	21831
878.313	21934
878.441	21892
878.568	21816
878.696	21812
878.824	22109
878.951	22002
879.079	22105
879.206	22131
879.333	22059
879.461	21968
879.588	22002
879.715	22093
879.842	22253
879.97	22124
880.097	21743
880.224	21865
880.351	21797
880.478	21766
880.605	21846
880.732	21781
880.859	21926
880.986	21793
881.112	21743
881.239	21679
881.366	21523
881.493	21386
881.619	21317
881.746	21454
881.872	21382
881.999	21397
882.125	21348
882.252	21473
882.378	21359
882.505	21420
882.631	21256
882.757	21081
882.883	21211
883.01	21036
883.136	21001
883.262	20883
883.388	20910
883.514	21119
883.64	21123
883.766	20986
883.892	20807
884.018	20910
884.143	21001
884.269	21123
884.395	20701
884.52	20541
884.646	20663
884.772	20613
884.897	20575
885.023	20720
885.148	20746
885.274	20880
885.399	20815
885.524	20617
885.65	20750
885.775	20667
885.9	20716
886.025	20902
886.15	20754
886.275	20693
886.4	20518
886.525	20724
886.65	20511
886.775	20636
886.9	20807
887.025	20880
887.149	20575
887.274	20499
887.399	20450
887.523	20457
887.648	20385
887.773	20358
887.897	20552
888.021	20488
888.146	20370
888.27	20518
888.395	20549
888.519	20461
888.643	20571
888.767	20488
888.891	20358
889.015	20267
889.139	20286
889.263	20115
889.387	20347
889.511	20530
889.635	20412
889.759	20317
889.883	20210
890.006	20328
890.13	20374
890.254	20229
890.377	20168
890.501	19993
890.624	20005
890.748	20050
890.871	19871
890.995	19833
891.118	19746
891.241	20008
891.364	19864
891.488	20024
891.611	19803
891.734	19837
891.857	19868
891.98	19902
892.103	19959
892.226	19769
892.349	19765
892.471	19582
892.594	19670
892.717	19753
892.839	19776
892.962	19742
893.085	19753
893.207	19719
893.33	19666
893.452	19674
893.575	19826
893.697	19693
893.819	19852
893.941	19951
894.064	19776
894.186	19708
894.308	19563
894.43	19776
894.552	19849
894.674	19913
894.796	19723
894.918	19727
895.04	19693
895.161	19864
895.283	19833
895.405	19875
895.526	19738
895.648	19799
895.769	19780
895.891	19708
896.012	19822
896.134	19807
896.255	19772
896.376	19708
896.498	19826
896.619	19719
896.74	19715
896.861	19784
896.982	20054
897.103	20134
897.224	20046
897.345	20065
897.466	19932
897.587	20050
897.708	20168
897.828	20092
897.949	19970
898.07	19833
898.19	19871
898.311	20065
898.431	20031
898.552	19974
898.672	20069
898.792	19978
898.913	19928
899.033	19894
899.153	19761
899.273	19643
899.393	19849
899.513	19830
899.633	19784
899.753	19715
899.873	19784
899.993	19772
900.113	19746
900.232	19704
900.352	19799
900.472	19632
900.591	19491
900.711	19590
900.83	19544
900.95	19616
901.069	19658
901.189	19388
901.308	19168
901.427	19072
901.546	19164
901.665	19152
901.784	19103
901.904	19069
902.023	18905
902.141	18738
902.26	18661
902.379	18753
902.498	18642
902.617	18688
902.735	18601
902.854	18563
902.973	18540
903.091	18342
903.21	18369
903.328	18388
903.446	18213
903.565	18159
903.683	18163
903.801	17984
903.919	18053
904.038	17965
904.156	17977
904.274	17996
904.392	17931
904.51	17904
904.627	17821
904.745	17988
904.863	17958
904.981	17676
905.098	17543
905.216	17535
905.334	17505
905.451	17497
905.569	17512
905.686	17638
905.803	17535
905.921	17315
906.038	17471
906.155	17410
906.272	17170
906.389	17292
906.506	17075
906.623	17022
906.74	17067
906.857	16934
906.974	17105
907.091	17159
907.208	17197
907.324	17056
907.441	16911
907.557	16782
907.674	16854
907.79	16721
907.907	16797
908.023	16835
908.139	16793
908.256	16752
908.372	16675
908.488	16733
908.604	16538
908.72	16466
908.836	16645
908.952	16584
909.068	16489
909.184	16516
909.3	16508
909.415	16603
909.531	16489
909.647	16329
909.762	16291
909.878	16188
909.993	16318
910.108	16211
910.224	16116
910.339	16215
910.454	16177
910.57	16090
910.685	15926
910.8	16173
910.915	16124
911.03	16002
911.145	15846
911.259	15854
911.374	15846
911.489	15755
911.604	15652
911.718	15553
911.833	15557
911.947	15534
912.062	15439
912.176	15564
912.291	15606
912.405	15603
912.519	15759
912.633	15835
912.748	15603
912.862	15641
912.976	15420
913.09	15351
913.204	15317
913.318	15370
913.431	15435
913.545	15477
913.659	15428
913.772	15329
913.886	15275
914	15195
914.113	15283
914.226	15268
914.34	15195
914.453	15119
914.566	15203
914.68	15146
914.793	15017
914.906	14842
915.019	14796
915.132	14754
915.245	14777
915.358	14834
915.47	14807
915.583	14842
915.696	14804
915.809	14849
915.921	14998
916.034	14815
916.146	14788
916.259	14689
916.371	14804
916.483	14727
916.595	14640
916.708	14629
916.82	14610
916.932	14644
917.044	14552
917.156	14648
917.268	14495
917.38	14533
917.491	14476
917.603	14381
917.715	14568
917.826	14587
917.938	14495
918.049	14328
918.161	14434
918.272	14629
918.384	14526
918.495	14492
918.606	14290
918.717	14225
918.828	14263
918.939	14256
919.05	14103
919.161	14256
919.272	14043
919.383	14115
919.494	14358
919.604	14495
919.715	14256
919.826	14096
919.936	14149
920.047	14313
920.157	14305
920.267	14434
920.378	14244
920.488	14183
920.598	14366
920.708	14530
920.818	14412
920.928	14408
921.038	14522
921.148	14366
921.258	14183
921.368	14077
921.477	14027
921.587	13997
921.697	13765
921.806	14031
921.916	13776
922.025	13655
922.134	13651
922.244	13567
922.353	13658
922.462	13567
922.571	13403
922.68	13327
922.789	13343
922.898	13293
923.007	13187
923.116	13339
923.224	13228
923.333	13274
923.442	13080
923.55	13038
923.659	13095
923.767	13228
923.876	13118
923.984	13118
924.092	12962
924.201	13050
924.309	13008
924.417	13061
924.525	12913
924.633	12977
924.741	13807
924.849	12711
924.956	12856
925.064	12768
925.172	12563
925.279	12688
925.387	12692
925.494	12627
925.602	12795
925.709	12772
925.816	12646
925.924	12601
926.031	12700
926.138	12639
926.245	12669
926.352	12540
926.459	12696
926.566	12715
926.673	12448
926.779	12445
926.886	12391
926.993	12315
927.099	12224
927.206	12258
927.312	12239
927.419	12372
927.525	12277
927.631	12300
927.737	12110
927.843	12057
927.95	12011
928.056	12087
928.162	12167
928.267	12144
928.373	12570
928.479	12201
928.585	11863
928.69	12007
928.796	12038
928.901	11931
929.007	11882
929.112	11973
929.218	11874
929.323	11923
929.428	11783
929.533	11988
929.638	11760
929.743	11828
929.848	11851
929.953	11710
930.058	11741
930.163	11535
930.267	11596
930.372	11676
930.477	11486
930.581	11733
930.685	11592
930.79	11398
930.894	11425
930.998	11364
931.103	11505
931.207	11231
931.311	11048
931.415	11037
931.519	10786
931.623	10744
