Data from test_V78500241_3456.txt Node
Date: Fri Mar 25 15:33:55 CST 2022
User: usil
Spectrometer: V785-0024
Trigger mode: 0
Integration Time (sec): 4.000000E-1
Scans to average: 1
Nonlinearity correction enabled: false
Boxcar width: 0
Storing dark spectrum: false
XAxis mode: Wavelengths
Number of Pixels in Spectrum: 1024
>>>>>Begin Spectral Data<<<<<
801.071	27424
801.214	27222
801.356	26982
801.499	27001
801.641	26899
801.783	26739
801.926	26883
802.068	26804
802.211	26781
802.353	26762
802.496	26625
802.638	26358
802.78	26457
802.923	26351
803.065	26248
803.208	26221
803.35	26339
803.492	26594
803.635	26552
803.777	26419
803.919	26549
804.061	27062
804.204	26724
804.346	26560
804.488	26530
804.63	26564
804.773	26415
804.915	26549
805.057	26648
805.199	26587
805.341	26667
805.483	26693
805.626	26549
805.768	26484
805.91	26712
806.052	26727
806.194	26575
806.336	26743
806.478	26682
806.62	26587
806.762	26689
806.904	26956
807.046	27184
807.188	27211
807.33	27135
807.472	27131
807.614	27024
807.756	26967
807.898	27005
808.04	26887
808.182	26944
808.324	27020
808.465	26944
808.607	27047
808.749	27294
808.891	27386
809.033	27504
809.174	27424
809.316	27199
809.458	27207
809.6	27119
809.741	27348
809.883	27408
810.025	27553
810.166	27603
810.308	27561
810.45	27450
810.591	27397
810.733	27245
810.875	27211
811.016	27135
811.158	27062
811.299	27344
811.441	27325
811.582	27393
811.724	27275
811.865	27249
812.007	27260
812.148	27055
812.29	27431
812.431	27405
812.573	27549
812.714	27652
812.855	27660
812.997	27888
813.138	27934
813.279	27926
813.421	27770
813.562	27774
813.703	27511
813.845	27458
813.986	27131
814.127	27036
814.268	27024
814.41	26967
814.551	26979
814.692	27017
814.833	26891
814.974	26861
815.115	26895
815.256	26861
815.397	26895
815.539	26868
815.68	26674
815.821	26609
815.962	26785
816.103	26758
816.244	26621
816.385	26412
816.526	26415
816.666	26138
816.807	26168
816.948	26195
817.089	26385
817.23	26119
817.371	26214
817.512	26199
817.653	26180
817.793	26092
817.934	26111
818.075	26103
818.216	26271
818.356	26195
818.497	26035
818.638	25871
818.778	25898
818.919	26065
819.06	25986
819.2	26119
819.341	26199
819.481	26244
819.622	26298
819.762	26492
819.903	26415
820.043	26568
820.184	26313
820.324	26339
820.465	26328
820.605	26278
820.746	26309
820.886	26077
821.026	26183
821.167	26248
821.307	26294
821.447	26202
821.588	26115
821.728	25928
821.868	25856
822.008	25723
822.149	25639
822.289	25578
822.429	25266
822.569	25392
822.709	25244
822.849	25194
822.99	25232
823.13	25072
823.27	25156
823.41	24939
823.55	24947
823.69	24924
823.83	24966
823.97	24882
824.11	24726
824.25	24719
824.389	24738
824.529	24871
824.669	24817
824.809	24875
824.949	24932
825.089	24779
825.228	24798
825.368	24601
825.508	24684
825.648	24623
825.787	24631
825.927	24848
826.067	24635
826.206	24764
826.346	24601
826.485	24753
826.625	24669
826.765	24837
826.904	24753
827.044	24388
827.183	24426
827.323	24483
827.462	24490
827.601	24395
827.741	24334
827.88	24433
828.02	24235
828.159	24330
828.298	24388
828.437	24403
828.577	24315
828.716	24460
828.855	24186
828.994	24026
829.134	24098
829.273	24041
829.412	24060
829.551	23950
829.69	24026
829.829	24022
829.968	24232
830.107	24205
830.246	24163
830.385	23908
830.524	23912
830.663	23912
830.802	23752
830.941	23714
831.08	23707
831.219	23745
831.357	23828
831.496	23980
831.635	23539
831.774	23668
831.913	23516
832.051	23531
832.19	23589
832.329	23539
832.467	23406
832.606	23395
832.744	23353
832.883	23296
833.022	23372
833.16	23360
833.299	23364
833.437	23410
833.576	23490
833.714	23459
833.852	23505
833.991	23577
834.129	23452
834.267	23535
834.406	23512
834.544	23493
834.682	23448
834.821	23364
834.959	23520
835.097	23360
835.235	23558
835.373	23406
835.511	23497
835.65	23303
835.788	23299
835.926	23109
836.064	23181
836.202	23280
836.34	23277
836.478	23330
836.615	23239
836.753	23280
836.891	23410
837.029	23250
837.167	23299
837.305	23254
837.443	23174
837.58	23083
837.718	23284
837.856	23197
837.993	23044
838.131	23162
838.269	23029
838.406	23079
838.544	23056
838.681	22793
838.819	22736
838.956	22577
839.094	22588
839.231	22694
839.369	22763
839.506	22980
839.643	22771
839.781	22660
839.918	22535
840.055	22626
840.193	22611
840.33	22603
840.467	22459
840.604	22637
840.742	22873
840.879	22497
841.016	22451
841.153	22421
841.29	22557
841.427	22512
841.564	22611
841.701	22637
841.838	22481
841.975	22500
842.112	22436
842.249	22356
842.385	22318
842.522	22516
842.659	22432
842.796	22382
842.933	22207
843.069	22215
843.206	22246
843.343	22379
843.479	22234
843.616	22303
843.752	22158
843.889	22029
844.025	22150
844.162	22150
844.298	22272
844.435	22051
844.571	22013
844.708	22242
844.844	22268
844.98	22280
845.117	22207
845.253	21987
845.389	22021
845.525	22059
845.661	21857
845.798	21835
845.934	21869
846.07	21880
846.206	21968
846.342	21911
846.478	21804
846.614	21698
846.75	21450
846.886	21500
847.022	21667
847.158	21667
847.294	21583
847.429	21580
847.565	21542
847.701	21762
847.837	21408
847.972	21252
848.108	21397
848.244	21511
848.379	21199
848.515	21237
848.65	21154
848.786	21138
848.921	21070
849.057	21264
849.192	21226
849.328	21344
849.463	21150
849.598	21074
849.734	21032
849.869	20963
850.004	20929
850.14	21009
850.275	20864
850.41	20800
850.545	20933
850.68	20925
850.815	21100
850.95	20899
851.085	21119
851.22	21013
851.355	20944
851.49	20910
851.625	20956
851.76	20952
851.895	20899
852.03	20815
852.165	20933
852.299	20899
852.434	21024
852.569	21013
852.703	20918
852.838	20960
852.973	20994
853.107	21104
853.242	20834
853.376	20705
853.511	20629
853.645	20651
853.78	20845
853.914	20727
854.048	20655
854.183	20750
854.317	20621
854.451	20982
854.585	20800
854.72	20758
854.854	20868
854.988	20697
855.122	20807
855.256	20549
855.39	20777
855.524	20826
855.658	20762
855.792	20705
855.926	20781
856.06	20727
856.194	20769
856.327	20785
856.461	20674
856.595	20644
856.729	20701
856.862	20857
856.996	20750
857.13	20895
857.263	20876
857.397	20826
857.53	20826
857.664	20750
857.797	20899
857.931	20883
858.064	20765
858.197	20773
858.331	20792
858.464	20708
858.597	20655
858.731	20750
858.864	20872
858.997	20689
859.13	20765
859.263	20697
859.396	20811
859.529	20613
859.662	20739
859.795	20678
859.928	20762
860.061	20929
860.194	20842
860.327	20826
860.46	20712
860.592	20788
860.725	20819
860.858	20906
860.99	20845
861.123	20727
861.256	20667
861.388	20769
861.521	21374
861.653	20560
861.786	20571
861.918	20697
862.05	20594
862.183	20670
862.315	20781
862.447	20754
862.58	20613
862.712	20499
862.844	20358
862.976	20568
863.108	20617
863.24	20918
863.372	20301
863.504	20495
863.636	20514
863.768	20434
863.9	20537
864.032	20320
864.164	20541
864.296	20526
864.428	20625
864.559	20556
864.691	20568
864.823	20431
864.954	20545
865.086	20423
865.217	20396
865.349	20377
865.48	20278
865.612	20275
865.743	20533
865.875	20377
866.006	20347
866.137	20381
866.269	20336
866.4	20336
866.531	20301
866.662	20423
866.793	20298
866.924	20229
867.055	20248
867.186	20431
867.317	20309
867.448	20412
867.579	20301
867.71	20237
867.841	20187
867.972	20294
868.103	20324
868.233	20419
868.364	20404
868.495	20450
868.625	20549
868.756	20735
868.886	20427
869.017	20503
869.147	20518
869.278	20648
869.408	20503
869.539	20552
869.669	20632
869.799	20602
869.929	20678
870.06	20594
870.19	20807
870.32	20792
870.45	20960
870.58	20929
870.71	21093
870.84	21154
870.97	21028
871.1	20891
871.23	21245
871.36	21112
871.489	21173
871.619	21077
871.749	21256
871.879	21192
872.008	21279
872.138	21066
872.267	21184
872.397	21058
872.526	20994
872.656	21051
872.785	20982
872.915	21249
873.044	21332
873.173	21116
873.303	21291
873.432	21256
873.561	21294
873.69	21199
873.819	21184
873.948	21233
874.077	21313
874.206	21157
874.335	21211
874.464	21336
874.593	21370
874.722	21359
874.851	21424
874.979	21344
875.108	21431
875.237	21458
875.365	21275
875.494	21382
875.623	21614
875.751	21431
875.88	21386
876.008	21515
876.136	21694
876.265	21846
876.393	21941
876.521	21998
876.65	21873
876.778	21842
876.906	21755
877.034	21690
877.162	21766
877.29	21766
877.418	21770
877.546	21781
877.674	21648
877.802	21717
877.93	21888
878.058	21755
878.185	21644
878.313	21690
878.441	21759
878.568	21595
878.696	21743
878.824	21743
878.951	21884
879.079	21922
879.206	22105
879.333	21983
879.461	21827
879.588	21888
879.715	21983
879.842	22055
879.97	21903
880.097	21682
880.224	21603
880.351	21774
880.478	21641
880.605	21591
880.732	21614
880.859	21876
880.986	21545
881.112	21553
881.239	21439
881.366	21420
881.493	21135
881.619	21211
881.746	21089
881.872	21077
881.999	21104
882.125	21112
882.252	21211
882.378	21150
882.505	21325
882.631	21055
882.757	20910
882.883	20963
883.01	20868
883.136	20735
883.262	20689
883.388	20853
883.514	21009
883.64	20941
883.766	20762
883.892	20590
884.018	20655
884.143	20864
884.269	20914
884.395	20651
884.52	20454
884.646	20602
884.772	20492
884.897	20419
885.023	20587
885.148	20629
885.274	20636
885.399	20602
885.524	20571
885.65	20606
885.775	20587
885.9	20434
886.025	20598
886.15	20549
886.275	20488
886.4	20343
886.525	20488
886.65	20583
886.775	20389
886.9	20503
887.025	20807
887.149	20476
887.274	20351
887.399	20343
887.523	20377
887.648	20176
887.773	20172
887.897	20408
888.021	20343
888.146	20320
888.27	20355
888.395	20275
888.519	20347
888.643	20336
888.767	20400
888.891	20149
889.015	20145
889.139	20256
889.263	20084
889.387	20168
889.511	20320
889.635	20301
889.759	20111
889.883	20062
890.006	20138
890.13	20225
890.254	19974
890.377	20103
890.501	19734
890.624	19913
890.748	19845
890.871	19746
890.995	19601
891.118	19750
891.241	19624
891.364	19780
891.488	19818
891.611	19795
891.734	19746
891.857	19643
891.98	19719
892.103	19750
892.226	19620
892.349	19601
892.471	19609
892.594	19635
892.717	19635
892.839	19548
892.962	19616
893.085	19742
893.207	19601
893.33	19445
893.452	19487
893.575	19693
893.697	19628
893.819	19883
893.941	19738
894.064	19670
894.186	19521
894.308	19483
894.43	19723
894.552	19734
894.674	19689
894.796	19552
894.918	19597
895.04	19624
895.161	19674
895.283	19830
895.405	19480
895.526	19571
895.648	19647
895.769	19624
895.891	19681
896.012	19681
896.134	19746
896.255	19571
896.376	19567
896.498	19521
896.619	19597
896.74	19647
896.861	19616
896.982	19955
897.103	20126
897.224	19868
897.345	19849
897.466	19708
897.587	19871
897.708	19928
897.828	19940
897.949	19689
898.07	19696
898.19	19841
898.311	19898
898.431	19845
898.552	19890
898.672	19849
898.792	20050
898.913	19928
899.033	19883
899.153	19666
899.273	19514
899.393	19681
899.513	19590
899.633	19677
899.753	19635
899.873	19499
899.993	19540
900.113	19605
900.232	19445
900.352	19403
900.472	19392
900.591	19362
900.711	19365
900.83	19354
900.95	19453
901.069	19411
901.189	19228
901.308	19065
901.427	19004
901.546	19012
901.665	18985
901.784	19038
901.904	18814
902.023	18726
902.141	18681
902.26	18467
902.379	18540
902.498	18608
902.617	18357
902.735	18521
902.854	18418
902.973	18384
903.091	18258
903.21	18144
903.328	18159
903.446	18019
903.565	17954
903.683	17878
903.801	17817
903.919	17969
904.038	17897
904.156	17752
904.274	17783
904.392	17752
904.51	17703
904.627	17752
904.745	17771
904.863	17790
904.981	17509
905.098	17509
905.216	17398
905.334	17452
905.451	17478
905.569	17505
905.686	17395
905.803	17383
905.921	17208
906.038	17353
906.155	17334
906.272	17102
906.389	17223
906.506	16980
906.623	17022
906.74	16953
906.857	16729
906.974	16816
907.091	17010
907.208	17079
907.324	16961
907.441	16809
907.557	16637
907.674	16713
907.79	16550
907.907	16634
908.023	16683
908.139	16630
908.256	16656
908.372	16561
908.488	16561
908.604	16455
908.72	16325
908.836	16481
908.952	16310
909.068	16421
909.184	16519
909.3	16436
909.415	16436
909.531	16348
909.647	16135
909.762	16116
909.878	16150
909.993	16135
910.108	16048
910.224	16055
910.339	16025
910.454	15979
910.57	15835
910.685	15778
910.8	16154
910.915	16067
911.03	15899
911.145	15766
911.259	15705
911.374	15736
911.489	15701
911.604	15637
911.718	15450
911.833	15504
911.947	15416
912.062	15272
912.176	15443
912.291	15584
912.405	15523
912.519	15595
912.633	15629
912.748	15511
912.862	15473
912.976	15264
913.09	15081
913.204	15211
913.318	15241
913.431	15393
913.545	15340
913.659	15405
913.772	15226
913.886	15173
914	15195
914.113	15192
914.226	15268
914.34	15043
914.453	14921
914.566	15195
914.68	14921
914.793	14986
914.906	14830
915.019	14678
915.132	14602
915.245	14720
915.358	14712
915.47	14735
915.583	14739
915.696	14697
915.809	14895
915.921	14823
916.034	14705
916.146	14644
916.259	14632
916.371	14689
916.483	14575
916.595	14495
916.708	14552
916.82	14583
916.932	14575
917.044	14454
917.156	14457
917.268	14347
917.38	14415
917.491	14362
917.603	14446
917.715	14427
917.826	14473
917.938	14320
918.049	14206
918.161	14404
918.272	14469
918.384	14461
918.495	14351
918.606	14119
918.717	14043
918.828	14123
918.939	14191
919.05	14020
919.161	14069
919.272	13909
919.383	14077
919.494	14168
919.604	14389
919.715	14180
919.826	13997
919.936	14096
920.047	14077
920.157	14096
920.267	14278
920.378	14183
920.488	14107
920.598	14267
920.708	14438
920.818	14305
920.928	14278
921.038	14351
921.148	14336
921.258	14016
921.368	13982
921.477	13890
921.587	13868
921.697	13685
921.806	13868
921.916	13677
922.025	13502
922.134	13495
922.244	13506
922.353	13578
922.462	13441
922.571	13270
922.68	13278
922.789	13080
922.898	13255
923.007	13069
923.116	13114
923.224	13110
923.333	13168
923.442	13000
923.55	12954
923.659	12981
923.767	13114
923.876	12913
923.984	13034
924.092	12932
924.201	13027
924.309	12916
924.417	12897
924.525	12798
924.633	12798
924.741	13674
924.849	12604
924.956	12772
925.064	12639
925.172	12570
925.279	12517
925.387	12597
925.494	12509
925.602	12703
925.709	12650
925.816	12498
925.924	12528
926.031	12684
926.138	12544
926.245	12582
926.352	12429
926.459	12566
926.566	12654
926.673	12479
926.779	12277
926.886	12311
926.993	12213
927.099	12171
927.206	12190
927.312	12091
927.419	12144
927.525	12167
927.631	12182
927.737	12136
927.843	12007
927.95	11942
928.056	11935
928.162	12022
928.267	12079
928.373	12532
928.479	12144
928.585	11882
928.69	11954
928.796	11984
928.901	11889
929.007	11714
929.112	11851
929.218	11809
929.323	11824
929.428	11748
929.533	11863
929.638	11634
929.743	11676
929.848	11741
929.953	11691
930.058	11543
930.163	11372
930.267	11387
930.372	11528
930.477	11307
930.581	11665
930.685	11486
930.79	11402
930.894	11341
930.998	11315
931.103	11330
931.207	11033
931.311	10976
931.415	10923
931.519	10774
931.623	10729
