Data from test_V78500241_150.txt Node
Date: Fri Mar 25 15:10:54 CST 2022
User: usil
Spectrometer: V785-0024
Trigger mode: 0
Integration Time (sec): 4.000000E-1
Scans to average: 1
Nonlinearity correction enabled: false
Boxcar width: 0
Storing dark spectrum: false
XAxis mode: Wavelengths
Number of Pixels in Spectrum: 1024
>>>>>Begin Spectral Data<<<<<
801.071	27903
801.214	27968
801.356	27739
801.499	27671
801.641	27610
801.783	27583
801.926	27526
802.068	27526
802.211	27469
802.353	27245
802.496	27313
802.638	27203
802.78	27157
802.923	27077
803.065	26929
803.208	27009
803.35	27165
803.492	27184
803.635	27142
803.777	27074
803.919	27317
804.061	27610
804.204	27268
804.346	27104
804.488	27268
804.63	27264
804.773	27017
804.915	27119
805.057	27397
805.199	27161
805.341	27180
805.483	27310
805.626	27241
805.768	27165
805.91	27367
806.052	27435
806.194	27237
806.336	27481
806.478	27355
806.62	27214
806.762	27393
806.904	27359
807.046	27793
807.188	27553
807.33	27720
807.472	27667
807.614	27492
807.756	27526
807.898	27504
808.04	27431
808.182	27450
808.324	27500
808.465	27427
808.607	27717
808.749	27812
808.891	27968
809.033	28044
809.174	27941
809.316	27819
809.458	27819
809.6	27759
809.741	27903
809.883	27930
810.025	28048
810.166	28143
810.308	28032
810.45	27964
810.591	27953
810.733	27652
810.875	27694
811.016	27572
811.158	27724
811.299	27804
811.441	27816
811.582	27793
811.724	27804
811.865	27713
812.007	27819
812.148	27648
812.29	27686
812.431	27785
812.573	28128
812.714	28196
812.855	28234
812.997	28268
813.138	28516
813.279	28401
813.421	28344
813.562	28200
813.703	28025
813.845	27899
813.986	27629
814.127	27526
814.268	27359
814.41	27408
814.551	27401
814.692	27511
814.833	27431
814.974	27329
815.115	27435
815.256	27226
815.397	27169
815.539	27180
815.68	27096
815.821	26883
815.962	27096
816.103	27089
816.244	26925
816.385	26948
816.526	26906
816.666	26644
816.807	26545
816.948	26556
817.089	26693
817.23	26492
817.371	26598
817.512	26663
817.653	26438
817.793	26552
817.934	26602
818.075	26587
818.216	26507
818.356	26461
818.497	26263
818.638	26202
818.778	26142
818.919	26100
819.06	26294
819.2	26499
819.341	26499
819.481	26545
819.622	26705
819.762	26659
819.903	26716
820.043	26667
820.184	26488
820.324	26355
820.465	26667
820.605	26431
820.746	26579
820.886	26294
821.026	26480
821.167	26518
821.307	26518
821.447	26328
821.588	26248
821.728	26237
821.868	25993
822.008	25963
822.149	25776
822.289	25925
822.429	25518
822.569	25544
822.709	25613
822.849	25396
822.99	25350
823.13	25422
823.27	25263
823.41	25156
823.55	25091
823.69	25145
823.83	25217
823.97	25050
824.11	24935
824.25	25038
824.389	24772
824.529	25008
824.669	24928
824.809	25027
824.949	25004
825.089	25015
825.228	24958
825.368	24817
825.508	24741
825.648	24749
825.787	24928
825.927	24829
826.067	24817
826.206	24745
826.346	24924
826.485	24798
826.625	24783
826.765	24806
826.904	24783
827.044	24532
827.183	24563
827.323	24407
827.462	24532
827.601	24540
827.741	24448
827.88	24536
828.02	24300
828.159	24441
828.298	24399
828.437	24445
828.577	24399
828.716	24650
828.855	24369
828.994	24232
829.134	24182
829.273	24190
829.412	24102
829.551	24068
829.69	24254
829.829	24205
829.968	24346
830.107	24304
830.246	24064
830.385	24102
830.524	23950
830.663	23874
830.802	23756
830.941	23718
831.08	23748
831.219	23668
831.357	23638
831.496	23908
831.635	23794
831.774	23619
831.913	23577
832.051	23600
832.19	23497
832.329	23421
832.467	23318
832.606	23303
832.744	23265
832.883	23444
833.022	23269
833.16	23349
833.299	23414
833.437	23353
833.576	23372
833.714	23429
833.852	23558
833.991	23455
834.129	23448
834.267	23356
834.406	23463
834.544	23398
834.682	23417
834.821	23337
834.959	23482
835.097	23303
835.235	23364
835.373	23341
835.511	23364
835.65	23121
835.788	23094
835.926	23025
836.064	22869
836.202	23060
836.34	23105
836.478	23235
836.615	23216
836.753	23231
836.891	23341
837.029	23239
837.167	23239
837.305	23098
837.443	23071
837.58	22919
837.718	23025
837.856	23006
837.993	23056
838.131	23052
838.269	23018
838.406	22953
838.544	22873
838.681	22736
838.819	22672
838.956	22398
839.094	22455
839.231	22626
839.369	22645
839.506	22885
839.643	22668
839.781	22299
839.918	22390
840.055	22440
840.193	22485
840.33	22352
840.467	22428
840.604	22432
840.742	22611
840.879	22162
841.016	22341
841.153	22234
841.29	22493
841.427	22314
841.564	22352
841.701	22428
841.838	22242
841.975	22204
842.112	22219
842.249	22226
842.385	21979
842.522	22363
842.659	22093
842.796	22029
842.933	22067
843.069	22128
843.206	22166
843.343	22086
843.479	22166
843.616	22032
843.752	21854
843.889	21720
844.025	21975
844.162	21770
844.298	21991
844.435	21918
844.571	21701
844.708	21915
844.844	22036
844.98	22044
845.117	21831
845.253	21842
845.389	21656
845.525	21819
845.661	21633
845.798	21587
845.934	21538
846.07	21553
846.206	21629
846.342	21583
846.478	21568
846.614	21268
846.75	21249
846.886	21279
847.022	21302
847.158	21245
847.294	21214
847.429	21378
847.565	21104
847.701	21553
847.837	20998
847.972	20925
848.108	21127
848.244	21142
848.379	20834
848.515	20933
848.65	20853
848.786	20815
848.921	21017
849.057	20975
849.192	20990
849.328	20883
849.463	20857
849.598	20815
849.734	20830
849.869	20667
850.004	20606
850.14	20526
850.275	20598
850.41	20522
850.545	20530
850.68	20473
850.815	20556
850.95	20541
851.085	20731
851.22	20629
851.355	20522
851.49	20590
851.625	20473
851.76	20545
851.895	20492
852.03	20488
852.165	20514
852.299	20590
852.434	20705
852.569	20575
852.703	20571
852.838	20568
852.973	20739
853.107	20720
853.242	20511
853.376	20415
853.511	20317
853.645	20320
853.78	20530
853.914	20370
854.048	20419
854.183	20450
854.317	20271
854.451	20579
854.585	20381
854.72	20355
854.854	20412
854.988	20328
855.122	20404
855.256	20153
855.39	20256
855.524	20495
855.658	20434
855.792	20366
855.926	20336
856.06	20400
856.194	20526
856.327	20267
856.461	20415
856.595	20271
856.729	20370
856.862	20492
856.996	20415
857.13	20381
857.263	20522
857.397	20579
857.53	20298
857.664	20469
857.797	20454
857.931	20438
858.064	20427
858.197	20488
858.331	20301
858.464	20339
858.597	20278
858.731	20305
858.864	20275
858.997	20309
859.13	20301
859.263	20309
859.396	20446
859.529	20206
859.662	20298
859.795	20187
859.928	20218
860.061	20446
860.194	20355
860.327	20362
860.46	20324
860.592	20431
860.725	20526
860.858	20355
860.99	20275
861.123	20290
861.256	20248
861.388	20294
861.521	21100
861.653	20237
861.786	20107
861.918	20214
862.05	20301
862.183	20347
862.315	20370
862.447	20347
862.58	20381
862.712	20176
862.844	19963
862.976	20172
863.108	19986
863.24	20461
863.372	19978
863.504	19928
863.636	19989
863.768	20035
863.9	20005
864.032	19959
864.164	19944
864.296	20115
864.428	20084
864.559	20115
864.691	20233
864.823	20024
864.954	20050
865.086	19898
865.217	19925
865.349	19959
865.48	19978
865.612	19951
865.743	20073
865.875	19917
866.006	20020
866.137	19902
866.269	19864
866.4	19921
866.531	19830
866.662	19799
866.793	19925
866.924	19974
867.055	19951
867.186	19894
867.317	19917
867.448	19799
867.579	19780
867.71	19742
867.841	19830
867.972	19879
868.103	19906
868.233	19879
868.364	19837
868.495	19921
868.625	19986
868.756	20145
868.886	20005
869.017	20073
869.147	20263
869.278	20240
869.408	20191
869.539	20115
869.669	20122
869.799	20103
869.929	20164
870.06	20157
870.19	20454
870.32	20286
870.45	20545
870.58	20457
870.71	20549
870.84	20602
870.97	20518
871.1	20473
871.23	20613
871.36	20765
871.489	20492
871.619	20651
871.749	20724
871.879	20674
872.008	20811
872.138	20693
872.267	20648
872.397	20609
872.526	20480
872.656	20602
872.785	20571
872.915	20648
873.044	20754
873.173	20796
873.303	20640
873.432	20807
873.561	20746
873.69	20769
873.819	20644
873.948	20800
874.077	20735
874.206	20602
874.335	20781
874.464	20944
874.593	21009
874.722	20910
874.851	21001
874.979	20914
875.108	21142
875.237	20887
875.365	20857
875.494	20960
875.623	21032
875.751	20952
875.88	20880
876.008	21020
876.136	21085
876.265	21389
876.393	21473
876.521	21469
876.65	21496
876.778	21359
876.906	21298
877.034	21195
877.162	21313
877.29	21249
877.418	21355
877.546	21329
877.674	21272
877.802	21359
877.93	21321
878.058	21294
878.185	21214
878.313	21367
878.441	21340
878.568	21199
878.696	21180
878.824	21439
878.951	21462
879.079	21447
879.206	21633
879.333	21408
879.461	21488
879.588	21466
879.715	21549
879.842	21568
879.97	21310
880.097	21233
880.224	21169
880.351	21055
880.478	21222
880.605	21047
880.732	21165
880.859	21389
880.986	21142
881.112	21154
881.239	21017
881.366	20853
881.493	20773
881.619	20644
881.746	20705
881.872	20785
881.999	20708
882.125	20621
882.252	20720
882.378	20838
882.505	20823
882.631	20587
882.757	20530
882.883	20454
883.01	20571
883.136	20400
883.262	20446
883.388	20336
883.514	20552
883.64	20518
883.766	20370
883.892	20199
884.018	20328
884.143	20412
884.269	20530
884.395	20149
884.52	20248
884.646	20161
884.772	20119
884.897	20046
885.023	20100
885.148	20248
885.274	20210
885.399	20221
885.524	20187
885.65	20172
885.775	20191
885.9	20225
886.025	20206
886.15	20145
886.275	20062
886.4	20077
886.525	20145
886.65	20062
886.775	20039
886.9	20191
887.025	20256
887.149	20081
887.274	19997
887.399	19799
887.523	19909
887.648	19826
887.773	19750
887.897	19944
888.021	19944
888.146	19845
888.27	19803
888.395	19898
888.519	19959
888.643	19902
888.767	19944
888.891	19791
889.015	19693
889.139	19742
889.263	19639
889.387	19761
889.511	19746
889.635	19769
889.759	19635
889.883	19605
890.006	19616
890.13	19700
890.254	19563
890.377	19544
890.501	19403
890.624	19362
890.748	19506
890.871	19308
890.995	19255
891.118	19145
891.241	19403
891.364	19145
891.488	19403
891.611	19289
891.734	19259
891.857	19316
891.98	19282
892.103	19274
892.226	19274
892.349	19266
892.471	19088
892.594	19251
892.717	19129
892.839	19141
892.962	19236
893.085	19225
893.207	19099
893.33	19027
893.452	19107
893.575	19209
893.697	19156
893.819	19206
893.941	19430
894.064	19335
894.186	19198
894.308	19053
894.43	19293
894.552	19369
894.674	19373
894.796	19076
894.918	19297
895.04	19076
895.161	19251
895.283	19217
895.405	19168
895.526	19217
895.648	19118
895.769	19164
895.891	19160
896.012	19213
896.134	19198
896.255	19259
896.376	19027
896.498	19187
896.619	19324
896.74	19206
896.861	19331
896.982	19582
897.103	19651
897.224	19388
897.345	19430
897.466	19301
897.587	19567
897.708	19609
897.828	19377
897.949	19339
898.07	19259
898.19	19384
898.311	19499
898.431	19327
898.552	19392
898.672	19529
898.792	19358
898.913	19369
899.033	19225
899.153	19293
899.273	19202
899.393	19129
899.513	19171
899.633	19148
899.753	19148
899.873	19114
899.993	19190
900.113	19118
900.232	19118
900.352	19053
900.472	19057
900.591	18958
900.711	19107
900.83	18981
900.95	19107
901.069	19061
901.189	18875
901.308	18696
901.427	18528
901.546	18582
901.665	18597
901.784	18544
901.904	18262
902.023	18399
902.141	18121
902.26	18083
902.379	18102
902.498	17973
902.617	17969
902.735	18034
902.854	18003
902.973	17923
903.091	17748
903.21	17703
903.328	17760
903.446	17661
903.565	17528
903.683	17600
903.801	17410
903.919	17440
904.038	17554
904.156	17303
904.274	17330
904.392	17452
904.51	17349
904.627	17334
904.745	17337
904.863	17288
904.981	17067
905.098	16987
905.216	16949
905.334	17048
905.451	17124
905.569	16987
905.686	17029
905.803	16980
905.921	16801
906.038	16847
906.155	16797
906.272	16717
906.389	16645
906.506	16603
906.623	16508
906.74	16538
906.857	16459
906.974	16538
907.091	16607
907.208	16713
907.324	16489
907.441	16440
907.557	16253
907.674	16242
907.79	16166
907.907	16177
908.023	16192
908.139	16185
908.256	16291
908.372	16063
908.488	16090
908.604	15991
908.72	15926
908.836	15922
908.952	15873
909.068	15956
909.184	15975
909.3	15869
909.415	15941
909.531	15937
909.647	15724
909.762	15694
909.878	15675
909.993	15644
910.108	15591
910.224	15622
910.339	15652
910.454	15564
910.57	15359
910.685	15351
910.8	15682
910.915	15682
911.03	15530
911.145	15325
911.259	15218
911.374	15302
911.489	15176
911.604	15013
911.718	15089
911.833	14963
911.947	14838
912.062	14811
912.176	14861
912.291	14899
912.405	14994
912.519	15138
912.633	15138
912.748	14986
912.862	15024
912.976	14868
913.09	14678
913.204	14815
913.318	14743
913.431	14937
913.545	14807
913.659	14815
913.772	14804
913.886	14579
914	14655
914.113	14754
914.226	14727
914.34	14670
914.453	14617
914.566	14636
914.68	14492
914.793	14446
914.906	14309
915.019	14172
915.132	14164
915.245	14240
915.358	14305
915.47	14267
915.583	14202
915.696	14339
915.809	14370
915.921	14457
916.034	14149
916.146	14115
916.259	14206
916.371	14301
916.483	14187
916.595	14077
916.708	14077
916.82	14081
916.932	14180
917.044	14126
917.156	14008
917.268	13955
917.38	13940
917.491	13849
917.603	13913
917.715	13997
917.826	13959
917.938	13875
918.049	13799
918.161	13902
918.272	14096
918.384	14062
918.495	13841
918.606	13681
918.717	13689
918.828	13696
918.939	13742
919.05	13605
919.161	13704
919.272	13575
919.383	13445
919.494	13746
919.604	13833
919.715	13727
919.826	13480
919.936	13632
920.047	13685
920.157	13696
920.267	13765
920.378	13685
920.488	13586
920.598	13826
920.708	14020
920.818	13731
920.928	13822
921.038	13917
921.148	13868
921.258	13636
921.368	13449
921.477	13457
921.587	13434
921.697	13331
921.806	13468
921.916	13362
922.025	13023
922.134	13129
922.244	13031
922.353	13126
922.462	12966
922.571	12859
922.68	12798
922.789	12650
922.898	12692
923.007	12604
923.116	12620
923.224	12753
923.333	12654
923.442	12551
923.55	12574
923.659	12494
923.767	12589
923.876	12532
923.984	12566
924.092	12361
924.201	12441
924.309	12464
924.417	12448
924.525	12372
924.633	12391
924.741	13156
924.849	12239
924.956	12338
925.064	12136
925.172	12220
925.279	12197
925.387	12136
925.494	12175
925.602	12304
925.709	12239
925.816	12057
925.924	12178
926.031	12281
926.138	12205
926.245	12140
926.352	12076
926.459	12140
926.566	12121
926.673	12083
926.779	11916
926.886	11988
926.993	11840
927.099	11783
927.206	11665
927.312	11703
927.419	11802
927.525	11733
927.631	11798
927.737	11661
927.843	11627
927.95	11425
928.056	11608
928.162	11672
928.267	11707
928.373	12155
928.479	11668
928.585	11471
928.69	11532
928.796	11554
928.901	11360
929.007	11261
929.112	11433
929.218	11436
929.323	11364
929.428	11345
929.533	11425
929.638	11242
929.743	11277
929.848	11387
929.953	11322
930.058	11056
930.163	11037
930.267	11067
930.372	11273
930.477	10957
930.581	11307
930.685	11128
930.79	11003
930.894	10862
930.998	10877
931.103	11025
931.207	10641
931.311	10656
931.415	10577
931.519	10360
931.623	10325
