Data from test_V78500241_1211.txt Node
Date: Fri Mar 25 15:18:17 CST 2022
User: usil
Spectrometer: V785-0024
Trigger mode: 0
Integration Time (sec): 4.000000E-1
Scans to average: 1
Nonlinearity correction enabled: false
Boxcar width: 0
Storing dark spectrum: false
XAxis mode: Wavelengths
Number of Pixels in Spectrum: 1024
>>>>>Begin Spectral Data<<<<<
801.071	28109
801.214	28044
801.356	27880
801.499	27766
801.641	27724
801.783	27675
801.926	27679
802.068	27637
802.211	27625
802.353	27599
802.496	27412
802.638	27340
802.78	27416
802.923	27450
803.065	27275
803.208	27485
803.35	27424
803.492	27557
803.635	27564
803.777	27435
803.919	27633
804.061	28025
804.204	27804
804.346	27492
804.488	27481
804.63	27576
804.773	27507
804.915	27686
805.057	27690
805.199	27519
805.341	27762
805.483	27800
805.626	27686
805.768	27698
805.91	27682
806.052	27743
806.194	27660
806.336	27960
806.478	27838
806.62	27656
806.762	27899
806.904	27937
807.046	28379
807.188	28337
807.33	28352
807.472	28261
807.614	28177
807.756	28162
807.898	27998
808.04	28090
808.182	28086
808.324	27907
808.465	28051
808.607	28242
808.749	28325
808.891	28478
809.033	28611
809.174	28542
809.316	28443
809.458	28363
809.6	28310
809.741	28584
809.883	28470
810.025	28763
810.166	28675
810.308	28649
810.45	28721
810.591	28660
810.733	28516
810.875	28341
811.016	28379
811.158	28333
811.299	28466
811.441	28447
811.582	28523
811.724	28485
811.865	28580
812.007	28360
812.148	28443
812.29	28432
812.431	28580
812.573	28778
812.714	28930
812.855	28961
812.997	28927
813.138	29246
813.279	29098
813.421	29006
813.562	28881
813.703	28843
813.845	28542
813.986	28470
814.127	28257
814.268	28185
814.41	28238
814.551	28109
814.692	28192
814.833	28162
814.974	28078
815.115	28048
815.256	27998
815.397	27983
815.539	27964
815.68	27953
815.821	27861
815.962	27861
816.103	27876
816.244	27907
816.385	27778
816.526	27656
816.666	27542
816.807	27378
816.948	27405
817.089	27622
817.23	27431
817.371	27393
817.512	27355
817.653	27408
817.793	27374
817.934	27386
818.075	27329
818.216	27412
818.356	27378
818.497	27180
818.638	27203
818.778	27165
818.919	27123
819.06	27176
819.2	27298
819.341	27454
819.481	27466
819.622	27545
819.762	27778
819.903	27641
820.043	27694
820.184	27504
820.324	27492
820.465	27580
820.605	27553
820.746	27625
820.886	27412
821.026	27458
821.167	27511
821.307	27549
821.447	27450
821.588	27386
821.728	27283
821.868	27100
822.008	26887
822.149	26876
822.289	26857
822.429	26617
822.569	26518
822.709	26541
822.849	26465
822.99	26336
823.13	26408
823.27	26488
823.41	26229
823.55	26096
823.69	26278
823.83	26240
823.97	26149
824.11	26062
824.25	26039
824.389	26012
824.529	26069
824.669	26115
824.809	26145
824.949	26187
825.089	26195
825.228	26202
825.368	26111
825.508	25959
825.648	26050
825.787	25947
825.927	26088
826.067	25932
826.206	25776
826.346	26005
826.485	26001
826.625	26039
826.765	26035
826.904	26043
827.044	25742
827.183	25811
827.323	25674
827.462	25708
827.601	25635
827.741	25651
827.88	25769
828.02	25453
828.159	25609
828.298	25719
828.437	25845
828.577	25502
828.716	25791
828.855	25681
828.994	25316
829.134	25392
829.273	25346
829.412	25407
829.551	25217
829.69	25350
829.829	25415
829.968	25514
830.107	25472
830.246	25419
830.385	25343
830.524	25198
830.663	25164
830.802	25099
830.941	25114
831.08	24981
831.219	25088
831.357	25118
831.496	25160
831.635	25034
831.774	24989
831.913	24992
832.051	24810
832.19	24897
832.329	24776
832.467	24707
832.606	24692
832.744	24536
832.883	24734
833.022	24669
833.16	24566
833.299	24719
833.437	24688
833.576	24840
833.714	24639
833.852	24677
833.991	24734
834.129	24787
834.267	24821
834.406	24719
834.544	24760
834.682	24730
834.821	24810
834.959	25008
835.097	24673
835.235	24745
835.373	24776
835.511	24646
835.65	24582
835.788	24593
835.926	24566
836.064	24471
836.202	24403
836.34	24585
836.478	24604
836.615	24673
836.753	24536
836.891	24745
837.029	24608
837.167	24593
837.305	24563
837.443	24582
837.58	24475
837.718	24494
837.856	24456
837.993	24429
838.131	24319
838.269	24190
838.406	24319
838.544	24144
838.681	24041
838.819	23996
838.956	23950
839.094	23843
839.231	23939
839.369	24026
839.506	24388
839.643	24045
839.781	23920
839.918	23836
840.055	23942
840.193	23874
840.33	23809
840.467	23786
840.604	23821
840.742	24041
840.879	23707
841.016	23722
841.153	23756
841.29	23939
841.427	23718
841.564	23798
841.701	23832
841.838	23767
841.975	23672
842.112	23558
842.249	23733
842.385	23535
842.522	23760
842.659	23596
842.796	23486
842.933	23619
843.069	23402
843.206	23554
843.343	23676
843.479	23539
843.616	23482
843.752	23353
843.889	23421
844.025	23520
844.162	23364
844.298	23478
844.435	23315
844.571	23296
844.708	23311
844.844	23455
844.98	23425
845.117	23406
845.253	23368
845.389	23102
845.525	23242
845.661	23178
845.798	22991
845.934	23090
846.07	23075
846.206	23140
846.342	23235
846.478	23037
846.614	23010
846.75	22668
846.886	22752
847.022	22816
847.158	22854
847.294	22774
847.429	22949
847.565	22774
847.701	22930
847.837	22504
847.972	22565
848.108	22698
848.244	22584
848.379	22436
848.515	22356
848.65	22303
848.786	22405
848.921	22303
849.057	22481
849.192	22462
849.328	22402
849.463	22348
849.598	22443
849.734	22291
849.869	22128
850.004	22139
850.14	22200
850.275	22029
850.41	22105
850.545	22063
850.68	22131
850.815	22207
850.95	22105
851.085	22413
851.22	22295
851.355	22200
851.49	22204
851.625	22032
851.76	22101
851.895	22055
852.03	22032
852.165	22200
852.299	22154
852.434	22207
852.569	22154
852.703	22173
852.838	22173
852.973	22291
853.107	22272
853.242	22166
853.376	22063
853.511	21789
853.645	21899
853.78	22093
853.914	21975
854.048	21915
854.183	21964
854.317	21934
854.451	22177
854.585	21956
854.72	21918
854.854	22078
854.988	21869
855.122	21854
855.256	21823
855.39	21854
855.524	22044
855.658	21842
855.792	21926
855.926	21945
856.06	21956
856.194	21979
856.327	21869
856.461	21915
856.595	21918
856.729	21907
856.862	22070
856.996	22135
857.13	21850
857.263	21964
857.397	22166
857.53	21903
857.664	22029
857.797	22010
857.931	21892
858.064	21998
858.197	21953
858.331	21918
858.464	21918
858.597	21808
858.731	21911
858.864	21953
858.997	21865
859.13	21968
859.263	21937
859.396	22093
859.529	21941
859.662	21869
859.795	21869
859.928	21911
860.061	22021
860.194	22234
860.327	21983
860.46	21983
860.592	22036
860.725	22188
860.858	22093
860.99	22006
861.123	21899
861.256	21911
861.388	21949
861.521	22698
861.653	21812
861.786	21736
861.918	21816
862.05	21785
862.183	21827
862.315	21876
862.447	21895
862.58	21835
862.712	21583
862.844	21603
862.976	21698
863.108	21804
863.24	22169
863.372	21648
863.504	21747
863.636	21633
863.768	21736
863.9	21667
864.032	21599
864.164	21660
864.296	21576
864.428	21797
864.559	21751
864.691	21751
864.823	21770
864.954	21732
865.086	21557
865.217	21622
865.349	21523
865.48	21496
865.612	21473
865.743	21667
865.875	21595
866.006	21447
866.137	21561
866.269	21561
866.4	21469
866.531	21549
866.662	21405
866.793	21523
866.924	21530
867.055	21583
867.186	21587
867.317	21405
867.448	21431
867.579	21408
867.71	21351
867.841	21428
867.972	21439
868.103	21325
868.233	21561
868.364	21473
868.495	21557
868.625	21789
868.756	21732
868.886	21606
869.017	21656
869.147	21816
869.278	21743
869.408	21751
869.539	21618
869.669	21797
869.799	21660
869.929	21956
870.06	21755
870.19	22013
870.32	22105
870.45	22090
870.58	22173
870.71	22242
870.84	22177
870.97	22367
871.1	22021
871.23	22280
871.36	22303
871.489	22223
871.619	22344
871.749	22371
871.879	22188
872.008	22284
872.138	22200
872.267	22299
872.397	22116
872.526	22177
872.656	22181
872.785	22200
872.915	22295
873.044	22417
873.173	22207
873.303	22436
873.432	22268
873.561	22443
873.69	22325
873.819	22363
873.948	22462
874.077	22306
874.206	22276
874.335	22337
874.464	22489
874.593	22504
874.722	22451
874.851	22565
874.979	22615
875.108	22561
875.237	22402
875.365	22527
875.494	22573
875.623	22675
875.751	22554
875.88	22596
876.008	22740
876.136	22801
876.265	22942
876.393	22961
876.521	22965
876.65	22915
876.778	22957
876.906	22942
877.034	22908
877.162	22847
877.29	22744
877.418	22869
877.546	22869
877.674	22999
877.802	22862
877.93	22923
878.058	22820
878.185	22656
878.313	22831
878.441	22816
878.568	22710
878.696	22816
878.824	22934
878.951	22976
879.079	23033
879.206	23284
879.333	23018
879.461	22908
879.588	23056
879.715	23086
879.842	23140
879.97	22995
880.097	22607
880.224	22729
880.351	22736
880.478	22698
880.605	22679
880.732	22736
880.859	22972
880.986	22812
881.112	22569
881.239	22519
881.366	22409
881.493	22276
881.619	22265
881.746	22333
881.872	22306
881.999	22348
882.125	22363
882.252	22234
882.378	22192
882.505	22402
882.631	22166
882.757	21991
882.883	22006
883.01	21979
883.136	21819
883.262	21789
883.388	21869
883.514	22021
883.64	22017
883.766	21835
883.892	21808
884.018	21759
884.143	21823
884.269	21903
884.395	21564
884.52	21462
884.646	21610
884.772	21477
884.897	21469
885.023	21545
885.148	21641
885.274	21663
885.399	21698
885.524	21610
885.65	21644
885.775	21633
885.9	21564
886.025	21561
886.15	21641
886.275	21595
886.4	21469
886.525	21523
886.65	21580
886.775	21572
886.9	21686
887.025	21751
887.149	21561
887.274	21351
887.399	21313
887.523	21408
887.648	21386
887.773	21298
887.897	21477
888.021	21321
888.146	21199
888.27	21405
888.395	21389
888.519	21310
888.643	21359
888.767	21329
888.891	21252
889.015	20963
889.139	21226
889.263	21127
889.387	21264
889.511	21348
889.635	21233
889.759	21074
889.883	21157
890.006	21188
890.13	21302
890.254	21017
890.377	21112
890.501	20925
890.624	20883
890.748	20967
890.871	20826
890.995	20785
891.118	20750
891.241	20667
891.364	20686
891.488	20861
891.611	20838
891.734	20754
891.857	20712
891.98	20712
892.103	20834
892.226	20689
892.349	20663
892.471	20408
892.594	20560
892.717	20697
892.839	20636
892.962	20746
893.085	20655
893.207	20594
893.33	20488
893.452	20541
893.575	20629
893.697	20545
893.819	20682
893.941	20785
894.064	20731
894.186	20590
894.308	20499
894.43	20701
894.552	20819
894.674	20746
894.796	20625
894.918	20446
895.04	20568
895.161	20629
895.283	20697
895.405	20598
895.526	20606
895.648	20549
895.769	20625
895.891	20651
896.012	20716
896.134	20629
896.255	20560
896.376	20552
896.498	20644
896.619	20644
896.74	20716
896.861	20590
896.982	20880
897.103	20998
897.224	20849
897.345	20883
897.466	20819
897.587	20769
897.708	20842
897.828	20857
897.949	20746
898.07	20682
898.19	20720
898.311	20762
898.431	20758
898.552	20746
898.672	20853
898.792	20914
898.913	20819
899.033	20731
899.153	20571
899.273	20484
899.393	20602
899.513	20511
899.633	20541
899.753	20552
899.873	20396
899.993	20495
900.113	20412
900.232	20526
900.352	20522
900.472	20351
900.591	20343
900.711	20400
900.83	20202
900.95	20351
901.069	20343
901.189	20107
901.308	19944
901.427	19890
901.546	19856
901.665	19959
901.784	19917
901.904	19746
902.023	19639
902.141	19460
902.26	19491
902.379	19518
902.498	19312
902.617	19426
902.735	19392
902.854	19343
902.973	19247
903.091	19076
903.21	19034
903.328	19038
903.446	18989
903.565	18913
903.683	18958
903.801	18768
903.919	18852
904.038	18810
904.156	18620
904.274	18738
904.392	18582
904.51	18563
904.627	18677
904.745	18741
904.863	18631
904.981	18490
905.098	18342
905.216	18262
905.334	18254
905.451	18251
905.569	18300
905.686	18315
905.803	18292
905.921	18136
906.038	18144
906.155	18148
906.272	17980
906.389	17946
906.506	17851
906.623	17885
906.74	17821
906.857	17634
906.974	17855
907.091	17863
907.208	17836
907.324	17847
907.441	17684
907.557	17634
907.674	17501
907.79	17524
907.907	17512
908.023	17585
908.139	17478
908.256	17459
908.372	17448
908.488	17372
908.604	17292
908.72	17220
908.836	17193
908.952	17212
909.068	17406
909.184	17318
909.3	17246
909.415	17387
909.531	17246
909.647	16972
909.762	16984
909.878	16927
909.993	16976
910.108	16938
910.224	16915
910.339	16900
910.454	16740
910.57	16721
910.685	16828
910.8	16972
910.915	16801
911.03	16729
911.145	16519
911.259	16565
911.374	16500
911.489	16424
911.604	16481
911.718	16306
911.833	16306
911.947	16276
912.062	16101
912.176	16280
912.291	16177
912.405	16261
912.519	16382
912.633	16462
912.748	16363
912.862	16196
912.976	16169
913.09	15979
913.204	16048
913.318	16090
913.431	16158
913.545	16116
913.659	16101
913.772	16105
913.886	15937
914	15968
914.113	15903
914.226	15964
914.34	15953
914.453	15762
914.566	15953
914.68	15755
914.793	15793
914.906	15564
915.019	15606
915.132	15420
915.245	15481
915.358	15523
915.47	15462
915.583	15431
915.696	15500
915.809	15603
915.921	15545
916.034	15542
916.146	15340
916.259	15351
916.371	15431
916.483	15443
916.595	15378
916.708	15222
916.82	15332
916.932	15332
917.044	15313
917.156	15176
917.268	15127
917.38	15180
917.491	15237
917.603	15093
917.715	15176
917.826	15176
917.938	15093
918.049	14887
918.161	15138
918.272	15089
918.384	15135
918.495	14906
918.606	14807
918.717	14792
918.828	14944
918.939	14914
919.05	14754
919.161	14834
919.272	14686
919.383	14750
919.494	14906
919.604	15039
919.715	14944
919.826	14785
919.936	14868
920.047	14868
920.157	14830
920.267	14956
920.378	14994
920.488	14887
920.598	14937
920.708	15123
920.818	14948
920.928	14960
921.038	15131
921.148	15055
921.258	14773
921.368	14606
921.477	14625
921.587	14484
921.697	14396
921.806	14514
921.916	14488
922.025	14206
922.134	14225
922.244	14138
922.353	14237
922.462	14119
922.571	13997
922.68	13909
922.789	13864
922.898	13841
923.007	13765
923.116	13830
923.224	13868
923.333	13772
923.442	13746
923.55	13681
923.659	13750
923.767	13677
923.876	13651
923.984	13582
924.092	13609
924.201	13533
924.309	13636
924.417	13624
924.525	13350
924.633	13537
924.741	14237
924.849	13324
924.956	13434
925.064	13259
925.172	13171
925.279	13228
925.387	13209
925.494	13206
925.602	13282
925.709	13362
925.816	13110
925.924	13206
926.031	13274
926.138	13202
926.245	13202
926.352	13069
926.459	13270
926.566	13198
926.673	13114
926.779	12920
926.886	13031
926.993	12745
927.099	12798
927.206	12711
927.312	12692
927.419	12886
927.525	12772
927.631	12848
927.737	12662
927.843	12589
927.95	12490
928.056	12635
928.162	12658
928.267	12540
928.373	13137
928.479	12681
928.585	12429
928.69	12563
928.796	12620
928.901	12380
929.007	12308
929.112	12498
929.218	12479
929.323	12414
929.428	12426
929.533	12464
929.638	12216
929.743	12372
929.848	12270
929.953	12311
930.058	12159
930.163	12038
930.267	11927
930.372	12175
930.477	11946
930.581	12175
930.685	12045
930.79	11870
930.894	11817
930.998	11813
931.103	11889
931.207	11649
931.311	11589
931.415	11478
931.519	11349
931.623	11231
