Data from test_V78500241_1121.txt Node
Date: Fri Mar 25 15:17:39 CST 2022
User: usil
Spectrometer: V785-0024
Trigger mode: 0
Integration Time (sec): 4.000000E-1
Scans to average: 1
Nonlinearity correction enabled: false
Boxcar width: 0
Storing dark spectrum: false
XAxis mode: Wavelengths
Number of Pixels in Spectrum: 1024
>>>>>Begin Spectral Data<<<<<
801.071	28234
801.214	28169
801.356	27876
801.499	27846
801.641	27797
801.783	27701
801.926	27739
802.068	27854
802.211	27625
802.353	27663
802.496	27545
802.638	27420
802.78	27485
802.923	27393
803.065	27386
803.208	27431
803.35	27545
803.492	27511
803.635	27572
803.777	27576
803.919	27625
804.061	27827
804.204	27671
804.346	27629
804.488	27622
804.63	27599
804.773	27614
804.915	27739
805.057	27732
805.199	27641
805.341	27644
805.483	27785
805.626	27857
805.768	27496
805.91	27728
806.052	27671
806.194	27606
806.336	27888
806.478	27812
806.62	27622
806.762	27895
806.904	28078
807.046	28272
807.188	28272
807.33	28246
807.472	28242
807.614	28135
807.756	28246
807.898	28135
808.04	28139
808.182	27983
808.324	28055
808.465	28124
808.607	28310
808.749	28382
808.891	28497
809.033	28497
809.174	28352
809.316	28348
809.458	28367
809.6	28413
809.741	28432
809.883	28523
810.025	28603
810.166	28691
810.308	28626
810.45	28535
810.591	28622
810.733	28405
810.875	28413
811.016	28363
811.158	28215
811.299	28580
811.441	28771
811.582	28554
811.724	28436
811.865	28409
812.007	28398
812.148	28333
812.29	28519
812.431	28725
812.573	28824
812.714	28934
812.855	29056
812.997	29029
813.138	29307
813.279	29071
813.421	29006
813.562	28858
813.703	28740
813.845	28691
813.986	28386
814.127	28352
814.268	28196
814.41	28188
814.551	28074
814.692	28322
814.833	28040
814.974	28188
815.115	28143
815.256	28131
815.397	28036
815.539	27945
815.68	27941
815.821	27873
815.962	28097
816.103	27926
816.244	27861
816.385	27606
816.526	27698
816.666	27473
816.807	27348
816.948	27690
817.089	27561
817.23	27568
817.371	27424
817.512	27488
817.653	27492
817.793	27458
817.934	27416
818.075	27427
818.216	27519
818.356	27393
818.497	27329
818.638	27252
818.778	27218
818.919	27306
819.06	27188
819.2	27306
819.341	27298
819.481	27523
819.622	27515
819.762	27728
819.903	27641
820.043	27641
820.184	27523
820.324	27713
820.465	27591
820.605	27599
820.746	27622
820.886	27473
821.026	27568
821.167	27538
821.307	27644
821.447	27420
821.588	27370
821.728	27188
821.868	26918
822.008	26906
822.149	26975
822.289	26880
822.429	26602
822.569	26724
822.709	26617
822.849	26495
822.99	26469
823.13	26545
823.27	26404
823.41	26347
823.55	26081
823.69	26339
823.83	26298
823.97	26248
824.11	26138
824.25	26157
824.389	26161
824.529	26366
824.669	26180
824.809	26290
824.949	26180
825.089	26286
825.228	26202
825.368	26069
825.508	26046
825.648	25959
825.787	26050
825.927	26145
826.067	26100
826.206	26016
826.346	26062
826.485	26115
826.625	26062
826.765	26153
826.904	26092
827.044	25791
827.183	25704
827.323	25791
827.462	25780
827.601	25875
827.741	25704
827.88	25715
828.02	25571
828.159	25807
828.298	25799
828.437	25799
828.577	25643
828.716	25830
828.855	25670
828.994	25491
829.134	25476
829.273	25510
829.412	25506
829.551	25327
829.69	25377
829.829	25483
829.968	25525
830.107	25666
830.246	25434
830.385	25514
830.524	25324
830.663	25297
830.802	25061
830.941	25095
831.08	25118
831.219	25110
831.357	25129
831.496	25312
831.635	25137
831.774	25061
831.913	24958
832.051	24943
832.19	24859
832.329	24829
832.467	24829
832.606	24821
832.744	24783
832.883	24677
833.022	24772
833.16	24829
833.299	24749
833.437	24795
833.576	24821
833.714	24821
833.852	24692
833.991	24673
834.129	25061
834.267	24973
834.406	24886
834.544	24848
834.682	24810
834.821	24935
834.959	24970
835.097	24738
835.235	24859
835.373	24795
835.511	24863
835.65	24734
835.788	24722
835.926	24582
836.064	24502
836.202	24467
836.34	24692
836.478	24814
836.615	24612
836.753	24707
836.891	24707
837.029	24798
837.167	24616
837.305	24502
837.443	24582
837.58	24483
837.718	24612
837.856	24521
837.993	24342
838.131	24460
838.269	24334
838.406	24372
838.544	24289
838.681	24155
838.819	24038
838.956	24003
839.094	23999
839.231	23984
839.369	24163
839.506	24330
839.643	24201
839.781	23923
839.918	24003
840.055	23996
840.193	23980
840.33	23954
840.467	23863
840.604	23996
840.742	24095
840.879	23699
841.016	23931
841.153	23821
841.29	23931
841.427	23828
841.564	23980
841.701	23843
841.838	23893
841.975	23710
842.112	23798
842.249	23718
842.385	23695
842.522	23859
842.659	23707
842.796	23722
842.933	23573
843.069	23539
843.206	23630
843.343	23783
843.479	23672
843.616	23748
843.752	23455
843.889	23585
844.025	23535
844.162	23509
844.298	23562
844.435	23429
844.571	23364
844.708	23414
844.844	23634
844.98	23490
845.117	23551
845.253	23414
845.389	23235
845.525	23326
845.661	23242
845.798	23189
845.934	23250
846.07	23113
846.206	23299
846.342	23315
846.478	23208
846.614	22942
846.75	22687
846.886	22820
847.022	22904
847.158	22942
847.294	22790
847.429	22980
847.565	22740
847.701	23109
847.837	22736
847.972	22561
848.108	22668
848.244	22645
848.379	22516
848.515	22557
848.65	22500
848.786	22455
848.921	22493
849.057	22523
849.192	22596
849.328	22485
849.463	22474
849.598	22523
849.734	22306
849.869	22428
850.004	22238
850.14	22242
850.275	22158
850.41	22162
850.545	22166
850.68	22093
850.815	22329
850.95	22196
851.085	22443
851.22	22333
851.355	22276
851.49	22242
851.625	22204
851.76	22223
851.895	22139
852.03	22029
852.165	22344
852.299	22181
852.434	22421
852.569	22268
852.703	22246
852.838	22363
852.973	22421
853.107	22341
853.242	22112
853.376	22067
853.511	22006
853.645	21975
853.78	22158
853.914	22200
854.048	22112
854.183	22086
854.317	22078
854.451	22265
854.585	22067
854.72	21979
854.854	22093
854.988	21941
855.122	22101
855.256	21983
855.39	22006
855.524	22128
855.658	22147
855.792	22120
855.926	21983
856.06	22067
856.194	22188
856.327	22120
856.461	21953
856.595	22010
856.729	22010
856.862	22105
856.996	22048
857.13	22101
857.263	22348
857.397	22090
857.53	22055
857.664	22006
857.797	21998
857.931	22067
858.064	22078
858.197	22101
858.331	22097
858.464	22086
858.597	21987
858.731	21975
858.864	21979
858.997	22158
859.13	22086
859.263	22002
859.396	22192
859.529	22067
859.662	21899
859.795	22002
859.928	22109
860.061	22135
860.194	22177
860.327	22120
860.46	22017
860.592	22070
860.725	22242
860.858	22143
860.99	22124
861.123	22051
861.256	22013
861.388	21983
861.521	22843
861.653	21949
861.786	21835
861.918	21884
862.05	21892
862.183	21953
862.315	22029
862.447	22074
862.58	21934
862.712	21732
862.844	21759
862.976	21884
863.108	21759
863.24	22215
863.372	21751
863.504	21648
863.636	21835
863.768	21778
863.9	21724
864.032	21785
864.164	21671
864.296	21789
864.428	21960
864.559	21804
864.691	21785
864.823	21854
864.954	21720
865.086	21705
865.217	21713
865.349	21530
865.48	21686
865.612	21713
865.743	21743
865.875	21595
866.006	21572
866.137	21587
866.269	21572
866.4	21564
866.531	21580
866.662	21397
866.793	21656
866.924	21580
867.055	21599
867.186	21629
867.317	21492
867.448	21507
867.579	21549
867.71	21488
867.841	21466
867.972	21682
868.103	21549
868.233	21599
868.364	21618
868.495	21660
868.625	21732
868.756	21865
868.886	21705
869.017	21819
869.147	21895
869.278	21998
869.408	21926
869.539	21778
869.669	21827
869.799	21816
869.929	21934
870.06	21922
870.19	22139
870.32	22112
870.45	22150
870.58	22154
870.71	22173
870.84	22188
870.97	22375
871.1	22192
871.23	22299
871.36	22299
871.489	22386
871.619	22284
871.749	22344
871.879	22386
872.008	22466
872.138	22531
872.267	22405
872.397	22344
872.526	22242
872.656	22280
872.785	22295
872.915	22348
873.044	22371
873.173	22417
873.303	22519
873.432	22428
873.561	22382
873.69	22443
873.819	22481
873.948	22649
874.077	22382
874.206	22402
874.335	22478
874.464	22481
874.593	22603
874.722	22588
874.851	22615
874.979	22702
875.108	22637
875.237	22634
875.365	22535
875.494	22679
875.623	22649
875.751	22634
875.88	22512
876.008	22824
876.136	22797
876.265	22930
876.393	23162
876.521	23060
876.65	23056
876.778	23014
876.906	22957
877.034	23037
877.162	23178
877.29	22843
877.418	23037
877.546	23098
877.674	22862
877.802	22957
877.93	22938
878.058	22847
878.185	22889
878.313	22915
878.441	22953
878.568	22809
878.696	22820
878.824	22900
878.951	23022
879.079	23075
879.206	23174
879.333	23079
879.461	22892
879.588	23098
879.715	23132
879.842	23296
879.97	22946
880.097	22892
880.224	22824
880.351	22885
880.478	22744
880.605	22721
880.732	22694
880.859	22930
880.986	22778
881.112	22755
881.239	22649
881.366	22455
881.493	22535
881.619	22299
881.746	22421
881.872	22379
881.999	22375
882.125	22390
882.252	22413
882.378	22360
882.505	22481
882.631	22348
882.757	22021
882.883	22120
883.01	22158
883.136	21975
883.262	21911
883.388	21983
883.514	22112
883.64	22078
883.766	22082
883.892	21915
884.018	21808
884.143	21827
884.269	22162
884.395	21736
884.52	21587
884.646	21793
884.772	21701
884.897	21553
885.023	21694
885.148	21842
885.274	21720
885.399	21804
885.524	21770
885.65	21736
885.775	21751
885.9	21606
886.025	21686
886.15	21717
886.275	21713
886.4	21641
886.525	21667
886.65	21511
886.775	21576
886.9	21804
887.025	21888
887.149	21656
887.274	21473
887.399	21511
887.523	21416
887.648	21405
887.773	21393
887.897	21576
888.021	21336
888.146	21431
888.27	21523
888.395	21538
888.519	21428
888.643	21382
888.767	21363
888.891	21370
889.015	21275
889.139	21332
889.263	21161
889.387	21298
889.511	21420
889.635	21294
889.759	21230
889.883	21302
890.006	21218
890.13	21268
890.254	21192
890.377	21066
890.501	21013
890.624	20895
890.748	21028
890.871	20838
890.995	20705
891.118	20815
891.241	20838
891.364	20899
891.488	20853
891.611	20750
891.734	20849
891.857	20845
891.98	20861
892.103	20769
892.226	20785
892.349	20781
892.471	20598
892.594	20727
892.717	20765
892.839	20636
892.962	20708
893.085	20769
893.207	20670
893.33	20480
893.452	20587
893.575	20781
893.697	20632
893.819	20800
893.941	20823
894.064	20883
894.186	20492
894.308	20663
894.43	20682
894.552	20845
894.674	20758
894.796	20602
894.918	20598
895.04	20682
895.161	20712
895.283	20708
895.405	20663
895.526	20739
895.648	20590
895.769	20651
895.891	20629
896.012	20716
896.134	20663
896.255	20625
896.376	20632
896.498	20629
896.619	20708
896.74	20651
896.861	20781
896.982	20990
897.103	21058
897.224	20887
897.345	20960
897.466	20887
897.587	20899
897.708	20971
897.828	20834
897.949	20686
898.07	20720
898.19	20864
898.311	20826
898.431	20750
898.552	20857
898.672	20872
898.792	20899
898.913	20868
899.033	20754
899.153	20682
899.273	20571
899.393	20552
899.513	20530
899.633	20476
899.753	20655
899.873	20545
899.993	20663
900.113	20469
900.232	20514
900.352	20560
900.472	20446
900.591	20290
900.711	20320
900.83	20282
900.95	20438
901.069	20473
901.189	20218
901.308	20039
901.427	19951
901.546	19993
901.665	20008
901.784	19875
901.904	19841
902.023	19712
902.141	19597
902.26	19525
902.379	19578
902.498	19506
902.617	19434
902.735	19369
902.854	19449
902.973	19354
903.091	19141
903.21	19137
903.328	19015
903.446	18966
903.565	18901
903.683	18920
903.801	18783
903.919	18901
904.038	18897
904.156	18681
904.274	18852
904.392	18650
904.51	18665
904.627	18707
904.745	18749
904.863	18707
904.981	18460
905.098	18384
905.216	18410
905.334	18350
905.451	18483
905.569	18342
905.686	18460
905.803	18273
905.921	18190
906.038	18281
906.155	18133
906.272	18041
906.389	18041
906.506	17901
906.623	17958
906.74	17817
906.857	17863
906.974	17885
907.091	17897
907.208	18091
907.324	17824
907.441	17714
907.557	17714
907.674	17596
907.79	17554
907.907	17539
908.023	17627
908.139	17566
908.256	17608
908.372	17551
908.488	17486
908.604	17299
908.72	17280
908.836	17356
908.952	17292
909.068	17318
909.184	17436
909.3	17269
909.415	17414
909.531	17349
909.647	17174
909.762	16923
909.878	16957
909.993	17018
910.108	16961
910.224	16930
910.339	17041
910.454	16858
910.57	16778
910.685	16649
910.8	16968
910.915	16976
911.03	16748
911.145	16713
911.259	16683
911.374	16592
911.489	16637
911.604	16504
911.718	16284
911.833	16325
911.947	16196
912.062	16074
912.176	16371
912.291	16295
912.405	16306
912.519	16493
912.633	16356
912.748	16481
912.862	16287
912.976	16200
913.09	16086
913.204	16162
913.318	16192
913.431	16192
913.545	16295
913.659	16284
913.772	16086
913.886	16059
914	15918
914.113	15987
914.226	16044
914.34	16055
914.453	15755
914.566	15987
914.68	15945
914.793	15785
914.906	15572
915.019	15580
915.132	15485
915.245	15599
915.358	15553
915.47	15580
915.583	15656
915.696	15629
915.809	15530
915.921	15633
916.034	15549
916.146	15321
916.259	15416
916.371	15477
916.483	15519
916.595	15382
916.708	15260
916.82	15443
916.932	15275
917.044	15279
917.156	15294
917.268	15146
917.38	15112
917.491	15116
917.603	15119
917.715	15135
917.826	15214
917.938	15066
918.049	15001
918.161	15127
918.272	15230
918.384	15180
918.495	15085
918.606	14994
918.717	14842
918.828	14975
918.939	14914
919.05	14800
919.161	14944
919.272	14697
919.383	14777
919.494	14933
919.604	15081
919.715	14925
919.826	14864
919.936	14838
920.047	14937
920.157	14819
920.267	14956
920.378	14861
920.488	14838
920.598	15051
920.708	15142
920.818	14933
920.928	14971
921.038	15192
921.148	14979
921.258	14826
921.368	14735
921.477	14678
921.587	14594
921.697	14442
921.806	14731
921.916	14377
922.025	14267
922.134	14339
922.244	14142
922.353	14259
922.462	14050
922.571	14077
922.68	13833
922.789	13879
922.898	13898
923.007	13814
923.116	13970
923.224	13822
923.333	13898
923.442	13746
923.55	13575
923.659	13704
923.767	13647
923.876	13651
923.984	13685
924.092	13586
924.201	13674
924.309	13552
924.417	13491
924.525	13502
924.633	13537
924.741	14415
924.849	13373
924.956	13457
925.064	13244
925.172	13278
925.279	13308
925.387	13297
925.494	13289
925.602	13388
925.709	13316
925.816	13141
925.924	13236
926.031	13369
926.138	13179
926.245	13304
926.352	13187
926.459	13183
926.566	13255
926.673	13076
926.779	13042
926.886	12981
926.993	12848
927.099	12833
927.206	12814
927.312	12840
927.419	12791
927.525	12711
927.631	12856
927.737	12654
927.843	12703
927.95	12635
928.056	12646
928.162	12673
928.267	12700
928.373	13160
928.479	12665
928.585	12506
928.69	12627
928.796	12623
928.901	12429
929.007	12369
929.112	12475
929.218	12403
929.323	12353
929.428	12369
929.533	12418
929.638	12369
929.743	12338
929.848	12361
929.953	12216
930.058	12205
930.163	12053
930.267	12060
930.372	12057
930.477	12007
930.581	12266
930.685	12079
930.79	11931
930.894	11969
930.998	11889
931.103	12060
931.207	11619
931.311	11573
931.415	11490
931.519	11284
931.623	11280
