Data from test_V78500241_2406.txt Node
Date: Fri Mar 25 15:26:36 CST 2022
User: usil
Spectrometer: V785-0024
Trigger mode: 0
Integration Time (sec): 4.000000E-1
Scans to average: 1
Nonlinearity correction enabled: false
Boxcar width: 0
Storing dark spectrum: false
XAxis mode: Wavelengths
Number of Pixels in Spectrum: 1024
>>>>>Begin Spectral Data<<<<<
801.071	27287
801.214	27127
801.356	27131
801.499	26990
801.641	26667
801.783	26773
801.926	26838
802.068	26902
802.211	26796
802.353	26556
802.496	26419
802.638	26385
802.78	26393
802.923	26476
803.065	26290
803.208	26294
803.35	26301
803.492	26495
803.635	26708
803.777	26473
803.919	26423
804.061	26842
804.204	26689
804.346	26613
804.488	26427
804.63	26670
804.773	26514
804.915	26568
805.057	26579
805.199	26587
805.341	26754
805.483	26796
805.626	26629
805.768	26526
805.91	26811
806.052	26743
806.194	26526
806.336	26754
806.478	26781
806.62	26720
806.762	26708
806.904	26788
807.046	26975
807.188	27184
807.33	27184
807.472	27100
807.614	26994
807.756	27047
807.898	26861
808.04	27009
808.182	26929
808.324	26823
808.465	26940
808.607	27249
808.749	27359
808.891	27416
809.033	27469
809.174	27408
809.316	27245
809.458	27249
809.6	27302
809.741	27466
809.883	27401
810.025	27515
810.166	27519
810.308	27572
810.45	27447
810.591	27561
810.733	27279
810.875	27344
811.016	27203
811.158	27135
811.299	27393
811.441	27496
811.582	27382
811.724	27264
811.865	27245
812.007	27283
812.148	27119
812.29	27252
812.431	27359
812.573	27504
812.714	27625
812.855	27762
812.997	27819
813.138	28010
813.279	27895
813.421	27808
813.562	27732
813.703	27450
813.845	27466
813.986	27100
814.127	27051
814.268	27001
814.41	26921
814.551	26864
814.692	26986
814.833	26815
814.974	26777
815.115	26952
815.256	26830
815.397	26777
815.539	26773
815.68	26842
815.821	26636
815.962	26861
816.103	26568
816.244	26568
816.385	26465
816.526	26568
816.666	26278
816.807	26119
816.948	26218
817.089	26339
817.23	26119
817.371	26115
817.512	26225
817.653	26183
817.793	26069
817.934	26187
818.075	26244
818.216	26168
818.356	26058
818.497	25982
818.638	25871
818.778	25909
818.919	25944
819.06	26119
819.2	25982
819.341	26103
819.481	26161
819.622	26259
819.762	26648
819.903	26423
820.043	26469
820.184	26267
820.324	26286
820.465	26317
820.605	26298
820.746	26218
820.886	26199
821.026	26267
821.167	26282
821.307	26286
821.447	26138
821.588	26005
821.728	26043
821.868	25750
822.008	25662
822.149	25635
822.289	25635
822.429	25422
822.569	25346
822.709	25514
822.849	25145
822.99	24985
823.13	25076
823.27	25046
823.41	25027
823.55	24935
823.69	24981
823.83	24871
823.97	24954
824.11	24882
824.25	24677
824.389	24764
824.529	24814
824.669	24768
824.809	24932
824.949	24996
825.089	24878
825.228	24829
825.368	24700
825.508	24627
825.648	24711
825.787	24707
825.927	24760
826.067	24650
826.206	24582
826.346	24760
826.485	24726
826.625	24551
826.765	24890
826.904	24631
827.044	24403
827.183	24403
827.323	24414
827.462	24399
827.601	24334
827.741	24323
827.88	24437
828.02	24296
828.159	24338
828.298	24441
828.437	24376
828.577	24304
828.716	24509
828.855	24327
828.994	23980
829.134	24083
829.273	23946
829.412	24053
829.551	24133
829.69	23980
829.829	24247
829.968	24167
830.107	24152
830.246	24163
830.385	24076
830.524	23988
830.663	23901
830.802	23832
830.941	23676
831.08	23790
831.219	23794
831.357	23802
831.496	24007
831.635	23832
831.774	23764
831.913	23604
832.051	23474
832.19	23486
832.329	23566
832.467	23372
832.606	23440
832.744	23452
832.883	23372
833.022	23334
833.16	23356
833.299	23455
833.437	23406
833.576	23436
833.714	23459
833.852	23497
833.991	23516
834.129	23554
834.267	23642
834.406	23493
834.544	23452
834.682	23558
834.821	23516
834.959	23611
835.097	23406
835.235	23627
835.373	23398
835.511	23402
835.65	23265
835.788	23235
835.926	23140
836.064	23216
836.202	23094
836.34	23326
836.478	23345
836.615	23239
836.753	23356
836.891	23296
837.029	23360
837.167	23178
837.305	23102
837.443	23193
837.58	23083
837.718	23155
837.856	23113
837.993	23140
838.131	23094
838.269	22991
838.406	22911
838.544	22949
838.681	22892
838.819	22721
838.956	22713
839.094	22656
839.231	22637
839.369	22968
839.506	22999
839.643	22866
839.781	22626
839.918	22607
840.055	22485
840.193	22622
840.33	22478
840.467	22603
840.604	22474
840.742	22755
840.879	22268
841.016	22413
841.153	22493
841.29	22672
841.427	22596
841.564	22478
841.701	22386
841.838	22535
841.975	22489
842.112	22466
842.249	22303
842.385	22280
842.522	22565
842.659	22360
842.796	22306
842.933	22325
843.069	22207
843.206	22215
843.343	22284
843.479	22386
843.616	22253
843.752	22074
843.889	22013
844.025	22131
844.162	22105
844.298	22287
844.435	22078
844.571	21983
844.708	22120
844.844	22204
844.98	22276
845.117	22226
845.253	21949
845.389	21865
845.525	21884
845.661	21991
845.798	21774
845.934	21899
846.07	21732
846.206	21873
846.342	21911
846.478	21679
846.614	21622
846.75	21511
846.886	21485
847.022	21523
847.158	21641
847.294	21534
847.429	21542
847.565	21511
847.701	21751
847.837	21195
847.972	21199
848.108	21275
848.244	21329
848.379	21024
848.515	21146
848.65	21085
848.786	21241
848.921	21100
849.057	21294
849.192	21108
849.328	21138
849.463	21089
849.598	21127
849.734	21104
849.869	21036
850.004	20998
850.14	20982
850.275	20963
850.41	20765
850.545	20895
850.68	20861
850.815	20918
850.95	20918
851.085	21074
851.22	21081
851.355	20891
851.49	21017
851.625	20826
851.76	20735
851.895	20781
852.03	20796
852.165	20914
852.299	20933
852.434	20979
852.569	20868
852.703	20868
852.838	20979
852.973	21032
853.107	20971
853.242	20925
853.376	20705
853.511	20625
853.645	20769
853.78	20872
853.914	20743
854.048	20583
854.183	20644
854.317	20834
854.451	20842
854.585	20769
854.72	20731
854.854	20773
854.988	20762
855.122	20758
855.256	20731
855.39	20697
855.524	20765
855.658	20849
855.792	20739
855.926	20868
856.06	20933
856.194	20842
856.327	20682
856.461	20697
856.595	20689
856.729	20910
856.862	20769
856.996	20792
857.13	20811
857.263	20986
857.397	20876
857.53	20617
857.664	20762
857.797	20731
857.931	20845
858.064	20629
858.197	20864
858.331	20823
858.464	20648
858.597	20636
858.731	20598
858.864	20724
858.997	20640
859.13	20716
859.263	20708
859.396	20853
859.529	20720
859.662	20514
859.795	20682
859.928	20788
860.061	20880
860.194	20861
860.327	20845
860.46	20830
860.592	20815
860.725	20876
860.858	20804
860.99	20773
861.123	20571
861.256	20667
861.388	20708
861.521	21306
861.653	20552
861.786	20552
861.918	20583
862.05	20667
862.183	20640
862.315	20644
862.447	20583
862.58	20708
862.712	20469
862.844	20446
862.976	20457
863.108	20533
863.24	20815
863.372	20366
863.504	20381
863.636	20381
863.768	20446
863.9	20362
864.032	20374
864.164	20412
864.296	20457
864.428	20511
864.559	20571
864.691	20533
864.823	20583
864.954	20374
865.086	20461
865.217	20377
865.349	20294
865.48	20351
865.612	20408
865.743	20438
865.875	20492
866.006	20339
866.137	20389
866.269	20317
866.4	20328
866.531	20240
866.662	20206
866.793	20248
866.924	20381
867.055	20199
867.186	20294
867.317	20298
867.448	20172
867.579	20298
867.71	20134
867.841	20199
867.972	20275
868.103	20282
868.233	20298
868.364	20298
868.495	20377
868.625	20488
868.756	20640
868.886	20415
869.017	20526
869.147	20537
869.278	20689
869.408	20533
869.539	20514
869.669	20583
869.799	20473
869.929	20492
870.06	20689
870.19	20823
870.32	20804
870.45	20853
870.58	20906
870.71	21093
870.84	20990
870.97	20941
871.1	20891
871.23	20994
871.36	21074
871.489	21020
871.619	21146
871.749	21096
871.879	21142
872.008	21169
872.138	21081
872.267	21058
872.397	20933
872.526	20910
872.656	20979
872.785	20933
872.915	21119
873.044	21211
873.173	21226
873.303	21150
873.432	21249
873.561	21199
873.69	21119
873.819	21062
873.948	21298
874.077	21203
874.206	21135
874.335	21024
874.464	21275
874.593	21450
874.722	21306
874.851	21526
874.979	21454
875.108	21378
875.237	21359
875.365	21249
875.494	21351
875.623	21515
875.751	21355
875.88	21344
876.008	21580
876.136	21450
876.265	21827
876.393	21918
876.521	21918
876.65	21926
876.778	21705
876.906	21637
877.034	21686
877.162	21724
877.29	21675
877.418	21713
877.546	21743
877.674	21709
877.802	21770
877.93	21713
878.058	21759
878.185	21660
878.313	21663
878.441	21747
878.568	21454
878.696	21652
878.824	21663
878.951	21671
879.079	21888
879.206	22048
879.333	21953
879.461	21785
879.588	21804
879.715	21895
879.842	22055
879.97	21778
880.097	21633
880.224	21568
880.351	21561
880.478	21561
880.605	21519
880.732	21618
880.859	21838
880.986	21572
881.112	21606
881.239	21393
881.366	21332
881.493	21279
881.619	21074
881.746	21138
881.872	21252
881.999	21207
882.125	21066
882.252	21138
882.378	21207
882.505	21176
882.631	20887
882.757	20956
882.883	21043
883.01	20941
883.136	20830
883.262	20868
883.388	20762
883.514	20891
883.64	20899
883.766	20731
883.892	20762
884.018	20739
884.143	20754
884.269	20849
884.395	20613
884.52	20473
884.646	20579
884.772	20537
884.897	20412
885.023	20438
885.148	20625
885.274	20552
885.399	20602
885.524	20507
885.65	20503
885.775	20530
885.9	20377
886.025	20583
886.15	20609
886.275	20374
886.4	20427
886.525	20404
886.65	20442
886.775	20324
886.9	20537
887.025	20712
887.149	20469
887.274	20237
887.399	20286
887.523	20248
887.648	20339
887.773	20122
887.897	20259
888.021	20263
888.146	20191
888.27	20442
888.395	20423
888.519	20282
888.643	20229
888.767	20214
888.891	20180
889.015	20024
889.139	20126
889.263	20069
889.387	20202
889.511	20332
889.635	20103
889.759	20073
889.883	20016
890.006	20069
890.13	20195
890.254	19951
890.377	20050
890.501	19852
890.624	19791
890.748	19883
890.871	19719
890.995	19681
891.118	19647
891.241	19658
891.364	19624
891.488	19651
891.611	19651
891.734	19681
891.857	19723
891.98	19723
892.103	19780
892.226	19674
892.349	19575
892.471	19518
892.594	19647
892.717	19620
892.839	19594
892.962	19575
893.085	19537
893.207	19556
893.33	19411
893.452	19502
893.575	19628
893.697	19651
893.819	19582
893.941	19731
894.064	19693
894.186	19495
894.308	19529
894.43	19575
894.552	19784
894.674	19616
894.796	19449
894.918	19628
895.04	19472
895.161	19674
895.283	19674
895.405	19480
895.526	19609
895.648	19620
895.769	19518
895.891	19643
896.012	19655
896.134	19666
896.255	19651
896.376	19499
896.498	19605
896.619	19643
896.74	19643
896.861	19624
896.982	19978
897.103	20043
897.224	19902
897.345	19715
897.466	19674
897.587	19723
897.708	19967
897.828	19761
897.949	19750
898.07	19613
898.19	19769
898.311	19868
898.431	19715
898.552	19852
898.672	19864
898.792	19868
898.913	19784
899.033	19715
899.153	19586
899.273	19559
899.393	19556
899.513	19582
899.633	19502
899.753	19582
899.873	19521
899.993	19556
900.113	19514
900.232	19518
900.352	19422
900.472	19396
900.591	19400
900.711	19362
900.83	19381
900.95	19487
901.069	19457
901.189	19263
901.308	18924
901.427	19034
901.546	18981
901.665	18894
901.784	18916
901.904	18935
902.023	18700
902.141	18684
902.26	18502
902.379	18650
902.498	18528
902.617	18384
902.735	18483
902.854	18448
902.973	18319
903.091	18190
903.21	18136
903.328	18159
903.446	18091
903.565	17939
903.683	17927
903.801	17779
903.919	17904
904.038	17878
904.156	17836
904.274	17710
904.392	17790
904.51	17558
904.627	17661
904.745	17722
904.863	17870
904.981	17471
905.098	17414
905.216	17383
905.334	17448
905.451	17341
905.569	17322
905.686	17277
905.803	17261
905.921	17250
906.038	17334
906.155	17258
906.272	17064
906.389	17090
906.506	16885
906.623	16980
906.74	16923
906.857	16885
906.974	16854
907.091	16946
907.208	16938
907.324	16923
907.441	16771
907.557	16725
907.674	16599
907.79	16626
907.907	16561
908.023	16580
908.139	16626
908.256	16558
908.372	16611
908.488	16474
908.604	16394
908.72	16356
908.836	16504
908.952	16322
909.068	16478
909.184	16512
909.3	16432
909.415	16329
909.531	16394
909.647	16109
909.762	15998
909.878	16078
909.993	16093
910.108	16040
910.224	16032
910.339	16059
910.454	15884
910.57	15945
910.685	15857
910.8	16071
910.915	16029
911.03	15926
911.145	15641
911.259	15739
911.374	15732
911.489	15610
911.604	15515
911.718	15511
911.833	15561
911.947	15348
912.062	15268
912.176	15420
912.291	15545
912.405	15447
912.519	15671
912.633	15652
912.748	15500
912.862	15412
912.976	15332
913.09	15157
913.204	15260
913.318	15268
913.431	15344
913.545	15367
913.659	15382
913.772	15214
913.886	15089
914	15089
914.113	15150
914.226	15218
914.34	15047
914.453	15051
914.566	15119
914.68	14906
914.793	15036
914.906	14746
915.019	14731
915.132	14689
915.245	14610
915.358	14708
915.47	14697
915.583	14720
915.696	14708
915.809	14781
915.921	14804
916.034	14610
916.146	14606
916.259	14575
916.371	14648
916.483	14613
916.595	14564
916.708	14541
916.82	14590
916.932	14488
917.044	14495
917.156	14434
917.268	14347
917.38	14347
917.491	14275
917.603	14389
917.715	14385
917.826	14389
917.938	14237
918.049	14126
918.161	14339
918.272	14415
918.384	14480
918.495	14305
918.606	14050
918.717	14039
918.828	14130
918.939	14153
919.05	14115
919.161	14123
919.272	13947
919.383	14088
919.494	14100
919.604	14362
919.715	14073
919.826	13898
919.936	14100
920.047	14157
920.157	14039
920.267	14328
920.378	14119
920.488	14054
920.598	14164
920.708	14377
920.818	14214
920.928	14187
921.038	14381
921.148	14263
921.258	14024
921.368	14012
921.477	13856
921.587	13795
921.697	13780
921.806	13830
921.916	13693
922.025	13434
922.134	13559
922.244	13438
922.353	13537
922.462	13289
922.571	13278
922.68	13171
922.789	13129
922.898	13088
923.007	13099
923.116	13160
923.224	13213
923.333	13061
923.442	13057
923.55	12947
923.659	12916
923.767	13023
923.876	12943
923.984	13027
924.092	12840
924.201	12981
924.309	12848
924.417	12817
924.525	12840
924.633	12863
924.741	13719
924.849	12593
924.956	12859
925.064	12639
925.172	12513
925.279	12563
925.387	12601
925.494	12517
925.602	12681
925.709	12623
925.816	12521
925.924	12513
926.031	12631
926.138	12525
926.245	12471
926.352	12384
926.459	12547
926.566	12566
926.673	12479
926.779	12365
926.886	12285
926.993	12220
927.099	12205
927.206	12102
927.312	12102
927.419	12243
927.525	12266
927.631	12182
927.737	12011
927.843	12003
927.95	11923
928.056	12003
928.162	12019
928.267	12038
928.373	12612
928.479	12125
928.585	11783
928.69	11916
928.796	11965
928.901	11874
929.007	11570
929.112	11779
929.218	11794
929.323	11783
929.428	11718
929.533	11912
929.638	11684
929.743	11691
929.848	11665
929.953	11714
930.058	11589
930.163	11398
930.267	11395
930.372	11532
930.477	11349
930.581	11646
930.685	11505
930.79	11322
930.894	11341
930.998	11265
931.103	11436
931.207	11056
931.311	11037
931.415	10980
931.519	10691
931.623	10752
