Data from test_V78500241_1676.txt Node
Date: Fri Mar 25 15:21:31 CST 2022
User: usil
Spectrometer: V785-0024
Trigger mode: 0
Integration Time (sec): 4.000000E-1
Scans to average: 1
Nonlinearity correction enabled: false
Boxcar width: 0
Storing dark spectrum: false
XAxis mode: Wavelengths
Number of Pixels in Spectrum: 1024
>>>>>Begin Spectral Data<<<<<
801.071	28044
801.214	27876
801.356	27610
801.499	27485
801.641	27363
801.783	27496
801.926	27507
802.068	27542
802.211	27427
802.353	27245
802.496	27096
802.638	27074
802.78	27077
802.923	27070
803.065	27058
803.208	27070
803.35	27108
803.492	27241
803.635	27218
803.777	27188
803.919	27279
804.061	27667
804.204	27291
804.346	27249
804.488	27313
804.63	27348
804.773	27222
804.915	27291
805.057	27439
805.199	27214
805.341	27397
805.483	27542
805.626	27496
805.768	27359
805.91	27329
806.052	27443
806.194	27469
806.336	27797
806.478	27386
806.62	27427
806.762	27561
806.904	27637
807.046	27918
807.188	27911
807.33	27907
807.472	27922
807.614	27880
807.756	27766
807.898	27698
808.04	27804
808.182	27576
808.324	27690
808.465	27880
808.607	27816
808.749	28040
808.891	28238
809.033	28379
809.174	28093
809.316	28025
809.458	28158
809.6	28093
809.741	28124
809.883	28230
810.025	28333
810.166	28382
810.308	28489
810.45	28238
810.591	28314
810.733	28105
810.875	27975
811.016	27983
811.158	27979
811.299	28192
811.441	28147
811.582	28093
811.724	28055
811.865	28040
812.007	27983
812.148	28139
812.29	28128
812.431	28424
812.573	28398
812.714	28535
812.855	28630
812.997	28660
813.138	28900
813.279	28672
813.421	28622
813.562	28519
813.703	28295
813.845	28253
813.986	28013
814.127	27880
814.268	27857
814.41	27819
814.551	27804
814.692	27854
814.833	27736
814.974	27785
815.115	27701
815.256	27606
815.397	27698
815.539	27603
815.68	27496
815.821	27511
815.962	27488
816.103	27644
816.244	27431
816.385	27469
816.526	27363
816.666	27150
816.807	27055
816.948	27123
817.089	27093
817.23	27074
817.371	27173
817.512	26979
817.653	27055
817.793	27013
817.934	27024
818.075	27058
818.216	27165
818.356	26956
818.497	27020
818.638	26823
818.778	26788
818.919	26708
819.06	26838
819.2	27024
819.341	27024
819.481	27085
819.622	27287
819.762	27386
819.903	27351
820.043	27207
820.184	27188
820.324	27150
820.465	27089
820.605	27207
820.746	27135
820.886	26929
821.026	27173
821.167	27058
821.307	27313
821.447	27108
821.588	26998
821.728	26853
821.868	26743
822.008	26632
822.149	26552
822.289	26480
822.429	26240
822.569	26237
822.709	26233
822.849	26020
822.99	26073
823.13	25917
823.27	25974
823.41	25883
823.55	25757
823.69	25852
823.83	25841
823.97	25795
824.11	25552
824.25	25571
824.389	25689
824.529	25833
824.669	25772
824.809	25944
824.949	25761
825.089	25525
825.228	25666
825.368	25525
825.508	25540
825.648	25518
825.787	25693
825.927	25677
826.067	25491
826.206	25613
826.346	25689
826.485	25411
826.625	25400
826.765	25655
826.904	25586
827.044	25304
827.183	25316
827.323	25240
827.462	25438
827.601	25228
827.741	25312
827.88	25285
828.02	25103
828.159	25278
828.298	25384
828.437	25179
828.577	25285
828.716	25312
828.855	25278
828.994	24985
829.134	24909
829.273	25103
829.412	24951
829.551	24844
829.69	24920
829.829	24935
829.968	24989
830.107	25031
830.246	24920
830.385	24837
830.524	24852
830.663	24734
830.802	24696
830.941	24578
831.08	24517
831.219	24700
831.357	24631
831.496	24791
831.635	24612
831.774	24448
831.913	24536
832.051	24498
832.19	24296
832.329	24445
832.467	24201
832.606	24155
832.744	24239
832.883	24300
833.022	24228
833.16	24190
833.299	24273
833.437	24311
833.576	24334
833.714	24361
833.852	24232
833.991	24418
834.129	24388
834.267	24338
834.406	24289
834.544	24338
834.682	24304
834.821	24178
834.959	24471
835.097	24262
835.235	24407
835.373	24186
835.511	24251
835.65	24194
835.788	24129
835.926	24053
836.064	24011
836.202	23988
836.34	24270
836.478	24182
836.615	24072
836.753	24159
836.891	24224
837.029	24155
837.167	24174
837.305	24167
837.443	24022
837.58	23969
837.718	24095
837.856	23939
837.993	23996
838.131	23965
838.269	23942
838.406	23764
838.544	23843
838.681	23684
838.819	23707
838.956	23417
839.094	23554
839.231	23505
839.369	23615
839.506	23920
839.643	23760
839.781	23455
839.918	23414
840.055	23376
840.193	23345
840.33	23455
840.467	23242
840.604	23398
840.742	23558
840.879	23227
841.016	23239
841.153	23212
841.29	23398
841.427	23341
841.564	23471
841.701	23326
841.838	23410
841.975	23143
842.112	23353
842.249	23204
842.385	22999
842.522	23345
842.659	23124
842.796	23090
842.933	23086
843.069	23090
843.206	23128
843.343	23216
843.479	23048
843.616	23155
843.752	22946
843.889	22908
844.025	23029
844.162	22984
844.298	22972
844.435	22869
844.571	22816
844.708	22953
844.844	23143
844.98	23056
845.117	23022
845.253	22835
845.389	22824
845.525	22786
845.661	22710
845.798	22645
845.934	22736
846.07	22687
846.206	22713
846.342	22733
846.478	22592
846.614	22451
846.75	22405
846.886	22181
847.022	22493
847.158	22455
847.294	22428
847.429	22428
847.565	22291
847.701	22717
847.837	22226
847.972	22067
848.108	22124
848.244	22166
848.379	22067
848.515	22124
848.65	21964
848.786	21915
848.921	21987
849.057	21949
849.192	22150
849.328	22017
849.463	22097
849.598	21937
849.734	21743
849.869	21812
850.004	21679
850.14	21682
850.275	21808
850.41	21694
850.545	21785
850.68	21652
850.815	21694
850.95	21755
851.085	21964
851.22	21838
851.355	21884
851.49	21789
851.625	21675
851.76	21682
851.895	21682
852.03	21576
852.165	21743
852.299	21679
852.434	21785
852.569	21755
852.703	21781
852.838	21774
852.973	21869
853.107	21850
853.242	21690
853.376	21507
853.511	21412
853.645	21580
853.78	21618
853.914	21675
854.048	21507
854.183	21420
854.317	21610
854.451	21739
854.585	21603
854.72	21424
854.854	21637
854.988	21431
855.122	21515
855.256	21473
855.39	21545
855.524	21561
855.658	21553
855.792	21671
855.926	21534
856.06	21599
856.194	21682
856.327	21568
856.461	21374
856.595	21450
856.729	21568
856.862	21648
856.996	21534
857.13	21739
857.263	21568
857.397	21618
857.53	21572
857.664	21561
857.797	21545
857.931	21717
858.064	21549
858.197	21686
858.331	21629
858.464	21450
858.597	21439
858.731	21568
858.864	21523
858.997	21504
859.13	21610
859.263	21488
859.396	21679
859.529	21534
859.662	21606
859.795	21458
859.928	21450
860.061	21644
860.194	21781
860.327	21724
860.46	21515
860.592	21610
860.725	21698
860.858	21576
860.99	21561
861.123	21534
861.256	21530
861.388	21466
861.521	22303
861.653	21473
861.786	21367
861.918	21336
862.05	21447
862.183	21576
862.315	21428
862.447	21511
862.58	21477
862.712	21351
862.844	21112
862.976	21291
863.108	21268
863.24	21827
863.372	21173
863.504	21252
863.636	21306
863.768	21336
863.9	21287
864.032	21180
864.164	21157
864.296	21218
864.428	21416
864.559	21226
864.691	21340
864.823	21279
864.954	21291
865.086	21218
865.217	21230
865.349	21123
865.48	21112
865.612	21188
865.743	21256
865.875	21089
866.006	21077
866.137	21123
866.269	21203
866.4	21108
866.531	21195
866.662	21036
866.793	21131
866.924	21211
867.055	21142
867.186	21051
867.317	21112
867.448	21036
867.579	21108
867.71	20941
867.841	21055
867.972	21074
868.103	21039
868.233	21146
868.364	21093
868.495	21268
868.625	21317
868.756	21439
868.886	21306
869.017	21214
869.147	21344
869.278	21382
869.408	21272
869.539	21272
869.669	21393
869.799	21241
869.929	21561
870.06	21405
870.19	21644
870.32	21530
870.45	21606
870.58	21823
870.71	21861
870.84	21781
870.97	21667
871.1	21709
871.23	21941
871.36	21911
871.489	21793
871.619	21918
871.749	21861
871.879	21797
872.008	22120
872.138	21869
872.267	21888
872.397	21857
872.526	21728
872.656	21846
872.785	21751
872.915	21850
873.044	22032
873.173	21892
873.303	21991
873.432	22010
873.561	22006
873.69	22006
873.819	21994
873.948	21991
874.077	22017
874.206	21857
874.335	21873
874.464	21994
874.593	22280
874.722	22070
874.851	22242
874.979	22131
875.108	22268
875.237	22162
875.365	22112
875.494	22284
875.623	22230
875.751	22177
875.88	22097
876.008	22135
876.136	22402
876.265	22508
876.393	22664
876.521	22641
876.65	22554
876.778	22569
876.906	22447
877.034	22402
877.162	22527
877.29	22493
877.418	22447
877.546	22573
877.674	22497
877.802	22455
877.93	22447
878.058	22596
878.185	22493
878.313	22474
878.441	22497
878.568	22363
878.696	22398
878.824	22474
878.951	22557
879.079	22649
879.206	22869
879.333	22679
879.461	22599
879.588	22580
879.715	22626
879.842	22843
879.97	22527
880.097	22356
880.224	22234
880.351	22303
880.478	22402
880.605	22253
880.732	22455
880.859	22573
880.986	22310
881.112	22367
881.239	22067
881.366	21964
881.493	21945
881.619	21926
881.746	21953
881.872	21934
881.999	21831
882.125	21789
882.252	21922
882.378	21812
882.505	21956
882.631	21778
882.757	21526
882.883	21671
883.01	21644
883.136	21515
883.262	21485
883.388	21564
883.514	21549
883.64	21660
883.766	21534
883.892	21287
884.018	21454
884.143	21530
884.269	21504
884.395	21313
884.52	21329
884.646	21298
884.772	21123
884.897	21100
885.023	21104
885.148	21443
885.274	21340
885.399	21287
885.524	21260
885.65	21188
885.775	21203
885.9	21256
886.025	21321
886.15	21344
886.275	21207
886.4	21081
886.525	21222
886.65	21230
886.775	21157
886.9	21431
887.025	21542
887.149	21093
887.274	21089
887.399	21066
887.523	21039
887.648	20937
887.773	20918
887.897	21074
888.021	21032
888.146	20982
888.27	21089
888.395	21180
888.519	21070
888.643	21100
888.767	21066
888.891	20834
889.015	20781
889.139	20849
889.263	20758
889.387	20891
889.511	20929
889.635	20872
889.759	20807
889.883	20819
890.006	20765
890.13	21009
890.254	20777
890.377	20674
890.501	20537
890.624	20495
890.748	20621
890.871	20469
890.995	20282
891.118	20286
891.241	20305
891.364	20530
891.488	20473
891.611	20393
891.734	20332
891.857	20339
891.98	20351
892.103	20351
892.226	20374
892.349	20313
892.471	20077
892.594	20138
892.717	20423
892.839	20248
892.962	20275
893.085	20343
893.207	20225
893.33	20233
893.452	20263
893.575	20328
893.697	20282
893.819	20469
893.941	20476
894.064	20415
894.186	20206
894.308	20145
894.43	20336
894.552	20461
894.674	20427
894.796	20122
894.918	20275
895.04	20180
895.161	20351
895.283	20161
895.405	20202
895.526	20218
895.648	20210
895.769	20210
895.891	20263
896.012	20393
896.134	20286
896.255	20328
896.376	20286
896.498	20233
896.619	20267
896.74	20294
896.861	20351
896.982	20590
897.103	20815
897.224	20571
897.345	20530
897.466	20393
897.587	20454
897.708	20564
897.828	20495
897.949	20507
898.07	20339
898.19	20476
898.311	20480
898.431	20404
898.552	20377
898.672	20507
898.792	20469
898.913	20465
899.033	20488
899.153	20210
899.273	20191
899.393	20138
899.513	20206
899.633	20168
899.753	20225
899.873	20130
899.993	20142
900.113	20149
900.232	20142
900.352	20130
900.472	19986
900.591	19894
900.711	20027
900.83	19909
900.95	20077
901.069	20164
901.189	19879
901.308	19635
901.427	19540
901.546	19529
901.665	19472
901.784	19635
901.904	19324
902.023	19282
902.141	19076
902.26	19141
902.379	19206
902.498	19107
902.617	19027
902.735	19038
902.854	19076
902.973	18985
903.091	18837
903.21	18764
903.328	18787
903.446	18642
903.565	18585
903.683	18684
903.801	18528
903.919	18563
904.038	18555
904.156	18323
904.274	18445
904.392	18235
904.51	18239
904.627	18330
904.745	18410
904.863	18399
904.981	18133
905.098	17939
905.216	18068
905.334	17927
905.451	18019
905.569	17916
905.686	18034
905.803	17939
905.921	17726
906.038	17977
906.155	17832
906.272	17786
906.389	17649
906.506	17562
906.623	17627
906.74	17585
906.857	17337
906.974	17448
907.091	17592
907.208	17638
907.324	17512
907.441	17448
907.557	17414
907.674	17235
907.79	17220
907.907	17189
908.023	17193
908.139	17227
908.256	17132
908.372	17117
908.488	17162
908.604	17018
908.72	16930
908.836	16938
908.952	16881
909.068	16957
909.184	17025
909.3	16866
909.415	17041
909.531	16881
909.647	16706
909.762	16812
909.878	16687
909.993	16592
910.108	16679
910.224	16573
910.339	16618
910.454	16538
910.57	16455
910.685	16447
910.8	16580
910.915	16588
911.03	16516
911.145	16291
911.259	16211
911.374	16287
911.489	16173
911.604	16188
911.718	16078
911.833	15934
911.947	15869
912.062	15759
912.176	16006
912.291	15953
912.405	15972
912.519	16097
912.633	16215
912.748	15930
912.862	15956
912.976	15880
913.09	15694
913.204	15781
913.318	15899
913.431	15941
913.545	15857
913.659	15876
913.772	15732
913.886	15694
914	15675
914.113	15656
914.226	15667
914.34	15751
914.453	15572
914.566	15591
914.68	15553
914.793	15561
914.906	15275
915.019	15230
915.132	15161
915.245	15222
915.358	15214
915.47	15237
915.583	15199
915.696	15203
915.809	15389
915.921	15298
916.034	15138
916.146	15150
916.259	15146
916.371	15264
916.483	15150
916.595	15138
916.708	14963
916.82	15108
916.932	15089
917.044	14948
917.156	15020
917.268	14819
917.38	14899
917.491	14811
917.603	14872
917.715	14895
917.826	14971
917.938	14750
918.049	14693
918.161	14967
918.272	14910
918.384	14941
918.495	14743
918.606	14598
918.717	14575
918.828	14571
918.939	14720
919.05	14571
919.161	14640
919.272	14412
919.383	14590
919.494	14575
919.604	14857
919.715	14541
919.826	14465
919.936	14526
920.047	14640
920.157	14617
920.267	14762
920.378	14594
920.488	14473
920.598	14731
920.708	14887
920.818	14651
920.928	14724
921.038	14845
921.148	14785
921.258	14564
921.368	14355
921.477	14419
921.587	14389
921.697	14138
921.806	14309
921.916	14138
922.025	14031
922.134	13917
922.244	13947
922.353	14001
922.462	13814
922.571	13830
922.68	13613
922.789	13571
922.898	13662
923.007	13556
923.116	13681
923.224	13658
923.333	13518
923.442	13426
923.55	13381
923.659	13491
923.767	13468
923.876	13415
923.984	13487
924.092	13350
924.201	13373
924.309	13350
924.417	13407
924.525	13251
924.633	13266
924.741	14062
924.849	13095
924.956	13225
925.064	13072
925.172	12916
925.279	12993
925.387	13015
925.494	13008
925.602	13050
925.709	13126
925.816	12848
925.924	12913
926.031	12993
926.138	12954
926.245	12928
926.352	12867
926.459	12993
926.566	13110
926.673	12886
926.779	12745
926.886	12791
926.993	12593
927.099	12585
927.206	12570
927.312	12612
927.419	12601
927.525	12551
927.631	12536
927.737	12429
927.843	12448
927.95	12292
928.056	12471
928.162	12429
928.267	12334
928.373	12905
928.479	12532
928.585	12235
928.69	12251
928.796	12399
928.901	12311
929.007	12136
929.112	12289
929.218	12190
929.323	12152
929.428	12136
929.533	12304
929.638	12060
929.743	12049
929.848	12175
929.953	12041
930.058	11904
930.163	11760
930.267	11885
930.372	11889
930.477	11809
930.581	11988
930.685	11832
930.79	11680
930.894	11691
930.998	11691
931.103	11836
931.207	11436
931.311	11395
931.415	11212
931.519	11117
931.623	11029
