Data from test_V78500241_2954.txt Node
Date: Fri Mar 25 15:30:25 CST 2022
User: usil
Spectrometer: V785-0024
Trigger mode: 0
Integration Time (sec): 4.000000E-1
Scans to average: 1
Nonlinearity correction enabled: false
Boxcar width: 0
Storing dark spectrum: false
XAxis mode: Wavelengths
Number of Pixels in Spectrum: 1024
>>>>>Begin Spectral Data<<<<<
801.071	27051
801.214	27100
801.356	26826
801.499	26788
801.641	26564
801.783	26663
801.926	26659
802.068	26587
802.211	26613
802.353	26476
802.496	26393
802.638	26408
802.78	26317
802.923	26317
803.065	26058
803.208	26256
803.35	26225
803.492	26419
803.635	26499
803.777	26282
803.919	26396
804.061	26655
804.204	26351
804.346	26389
804.488	26298
804.63	26404
804.773	26290
804.915	26423
805.057	26552
805.199	26301
805.341	26499
805.483	26503
805.626	26594
805.768	26480
805.91	26476
806.052	26655
806.194	26537
806.336	26739
806.478	26393
806.62	26587
806.762	26613
806.904	26754
807.046	26880
807.188	26982
807.33	26933
807.472	27017
807.614	26880
807.756	26921
807.898	26785
808.04	26754
808.182	26674
808.324	26678
808.465	26777
808.607	26921
808.749	27233
808.891	27313
809.033	27252
809.174	27127
809.316	27058
809.458	27146
809.6	27195
809.741	27302
809.883	27252
810.025	27408
810.166	27393
810.308	27367
810.45	27348
810.591	27203
810.733	27154
810.875	27051
811.016	26963
811.158	27001
811.299	27211
811.441	27249
811.582	27306
811.724	27188
811.865	27138
812.007	27112
812.148	27104
812.29	27131
812.431	27287
812.573	27363
812.714	27564
812.855	27576
812.997	27781
813.138	27804
813.279	27854
813.421	27587
813.562	27511
813.703	27351
813.845	27329
813.986	27100
814.127	26883
814.268	26842
814.41	26868
814.551	26716
814.692	26849
814.833	26636
814.974	26781
815.115	26689
815.256	26659
815.397	26659
815.539	26545
815.68	26453
815.821	26533
815.962	26476
816.103	26427
816.244	26415
816.385	26381
816.526	26214
816.666	26020
816.807	25986
816.948	26043
817.089	26157
817.23	26001
817.371	26054
817.512	26024
817.653	25917
817.793	25928
817.934	26005
818.075	25928
818.216	26065
818.356	25989
818.497	25822
818.638	25723
818.778	25868
818.919	25799
819.06	25803
819.2	25864
819.341	25936
819.481	25993
819.622	26180
819.762	26324
819.903	26172
820.043	26210
820.184	26027
820.324	26126
820.465	26111
820.605	26084
820.746	26027
820.886	25947
821.026	26096
821.167	25856
821.307	26115
821.447	25970
821.588	25852
821.728	25757
821.868	25780
822.008	25559
822.149	25499
822.289	25483
822.429	25164
822.569	25065
822.709	25194
822.849	24932
822.99	24970
823.13	24878
823.27	24852
823.41	24734
823.55	24741
823.69	24791
823.83	24700
823.97	24696
824.11	24486
824.25	24486
824.389	24574
824.529	24787
824.669	24593
824.809	24688
824.949	24684
825.089	24585
825.228	24582
825.368	24372
825.508	24467
825.648	24464
825.787	24494
825.927	24448
826.067	24403
826.206	24509
826.346	24502
826.485	24551
826.625	24403
826.765	24509
826.904	24456
827.044	24228
827.183	24292
827.323	24041
827.462	24262
827.601	24152
827.741	24068
827.88	24228
828.02	23996
828.159	24190
828.298	24155
828.437	24159
828.577	24015
828.716	24121
828.855	24110
828.994	23851
829.134	23779
829.273	23817
829.412	23790
829.551	23843
829.69	23756
829.829	23889
829.968	23878
830.107	23973
830.246	23863
830.385	23665
830.524	23718
830.663	23608
830.802	23524
830.941	23482
831.08	23467
831.219	23668
831.357	23558
831.496	23642
831.635	23448
831.774	23322
831.913	23258
832.051	23212
832.19	23269
832.329	23166
832.467	23117
832.606	23124
832.744	23041
832.883	23143
833.022	23064
833.16	23174
833.299	23178
833.437	23174
833.576	23178
833.714	23223
833.852	23170
833.991	23105
834.129	23318
834.267	23273
834.406	23193
834.544	23174
834.682	23143
834.821	23200
834.959	23292
835.097	23105
835.235	23277
835.373	23147
835.511	23124
835.65	23025
835.788	23018
835.926	23094
836.064	22900
836.202	22946
836.34	23010
836.478	23151
836.615	22980
836.753	23052
836.891	23010
837.029	22919
837.167	23041
837.305	22869
837.443	22896
837.58	22805
837.718	22953
837.856	22831
837.993	22904
838.131	22774
838.269	22801
838.406	22790
838.544	22596
838.681	22649
838.819	22527
838.956	22261
839.094	22409
839.231	22554
839.369	22402
839.506	22694
839.643	22592
839.781	22363
839.918	22242
840.055	22291
840.193	22322
840.33	22329
840.467	22379
840.604	22375
840.742	22516
840.879	22139
841.016	22154
841.153	22272
841.29	22318
841.427	22333
841.564	22192
841.701	22280
841.838	22234
841.975	22211
842.112	22135
842.249	22192
842.385	22154
842.522	22253
842.659	22166
842.796	22158
842.933	22150
843.069	21964
843.206	22017
843.343	22093
843.479	22188
843.616	22006
843.752	21854
843.889	21861
844.025	21888
844.162	21812
844.298	21960
844.435	21724
844.571	21873
844.708	21854
844.844	21808
844.98	22032
845.117	21956
845.253	21705
845.389	21648
845.525	21633
845.661	21682
845.798	21443
845.934	21679
846.07	21576
846.206	21515
846.342	21644
846.478	21492
846.614	21450
846.75	21287
846.886	21344
847.022	21389
847.158	21252
847.294	21321
847.429	21310
847.565	21222
847.701	21370
847.837	20994
847.972	20982
848.108	21188
848.244	21089
848.379	20861
848.515	20842
848.65	20845
848.786	20815
848.921	20872
849.057	20952
849.192	20880
849.328	20956
849.463	20800
849.598	20914
849.734	20762
849.869	20689
850.004	20674
850.14	20697
850.275	20617
850.41	20492
850.545	20609
850.68	20583
850.815	20644
850.95	20716
851.085	20838
851.22	20769
851.355	20693
851.49	20625
851.625	20708
851.76	20552
851.895	20568
852.03	20511
852.165	20625
852.299	20594
852.434	20724
852.569	20670
852.703	20598
852.838	20575
852.973	20765
853.107	20834
853.242	20560
853.376	20389
853.511	20434
853.645	20526
853.78	20583
853.914	20571
854.048	20374
854.183	20427
854.317	20404
854.451	20663
854.585	20556
854.72	20423
854.854	20552
854.988	20389
855.122	20454
855.256	20294
855.39	20537
855.524	20549
855.658	20514
855.792	20492
855.926	20488
856.06	20568
856.194	20492
856.327	20450
856.461	20488
856.595	20336
856.729	20351
856.862	20484
856.996	20450
857.13	20473
857.263	20644
857.397	20583
857.53	20427
857.664	20579
857.797	20412
857.931	20564
858.064	20511
858.197	20629
858.331	20419
858.464	20408
858.597	20377
858.731	20370
858.864	20332
858.997	20457
859.13	20461
859.263	20423
859.396	20499
859.529	20427
859.662	20381
859.795	20419
859.928	20415
860.061	20579
860.194	20556
860.327	20484
860.46	20457
860.592	20480
860.725	20579
860.858	20556
860.99	20438
861.123	20408
861.256	20339
861.388	20431
861.521	20948
861.653	20355
861.786	20271
861.918	20259
862.05	20298
862.183	20355
862.315	20332
862.447	20488
862.58	20362
862.712	20366
862.844	20130
862.976	20343
863.108	20248
863.24	20632
863.372	20092
863.504	20233
863.636	20161
863.768	20103
863.9	20199
864.032	20187
864.164	20138
864.296	20259
864.428	20317
864.559	20252
864.691	20214
864.823	20244
864.954	20183
865.086	20107
865.217	20161
865.349	20050
865.48	20172
865.612	20073
865.743	20187
865.875	20008
866.006	19947
866.137	20058
866.269	20100
866.4	19947
866.531	20145
866.662	19986
866.793	19887
866.924	19978
867.055	20145
867.186	20062
867.317	20115
867.448	19959
867.579	19959
867.71	19967
867.841	20031
867.972	20027
868.103	20065
868.233	20016
868.364	20077
868.495	20092
868.625	20294
868.756	20317
868.886	20153
869.017	20355
869.147	20343
869.278	20313
869.408	20271
869.539	20218
869.669	20320
869.799	20294
869.929	20358
870.06	20389
870.19	20495
870.32	20575
870.45	20625
870.58	20686
870.71	20773
870.84	20689
870.97	20659
871.1	20697
871.23	20720
871.36	20948
871.489	20781
871.619	20853
871.749	20857
871.879	21093
872.008	21001
872.138	20960
872.267	20826
872.397	20651
872.526	20640
872.656	20682
872.785	20708
872.915	20921
873.044	21039
873.173	20941
873.303	20986
873.432	20960
873.561	20967
873.69	20963
873.819	21013
873.948	21005
874.077	20872
874.206	20849
874.335	20838
874.464	21104
874.593	21112
874.722	21043
874.851	21146
874.979	21169
875.108	21173
875.237	21058
875.365	21024
875.494	21093
875.623	21150
875.751	21062
875.88	21214
876.008	21310
876.136	21313
876.265	21564
876.393	21671
876.521	21652
876.65	21629
876.778	21553
876.906	21572
877.034	21534
877.162	21511
877.29	21469
877.418	21561
877.546	21401
877.674	21424
877.802	21523
877.93	21401
878.058	21450
878.185	21355
878.313	21485
878.441	21450
878.568	21268
878.696	21488
878.824	21595
878.951	21637
879.079	21625
879.206	21793
879.333	21553
879.461	21454
879.588	21713
879.715	21637
879.842	21660
879.97	21523
880.097	21321
880.224	21264
880.351	21306
880.478	21393
880.605	21264
880.732	21313
880.859	21511
880.986	21450
881.112	21348
881.239	21291
881.366	21146
881.493	20906
881.619	20956
881.746	20960
881.872	20849
881.999	20963
882.125	20800
882.252	20914
882.378	20823
882.505	21116
882.631	20765
882.757	20712
882.883	20693
883.01	20609
883.136	20526
883.262	20412
883.388	20484
883.514	20670
883.64	20511
883.766	20514
883.892	20343
884.018	20355
884.143	20560
884.269	20625
884.395	20328
884.52	20244
884.646	20294
884.772	20195
884.897	20145
885.023	20419
885.148	20225
885.274	20476
885.399	20271
885.524	20237
885.65	20301
885.775	20237
885.9	20336
886.025	20256
886.15	20199
886.275	20263
886.4	20096
886.525	20275
886.65	20172
886.775	20164
886.9	20351
887.025	20457
887.149	20240
887.274	20100
887.399	19928
887.523	19955
887.648	19936
887.773	19982
887.897	20100
888.021	20054
888.146	20008
888.27	20100
888.395	20001
888.519	20016
888.643	20115
888.767	20157
888.891	19925
889.015	19811
889.139	19875
889.263	19742
889.387	19925
889.511	20012
889.635	20081
889.759	19822
889.883	19814
890.006	19913
890.13	19989
890.254	19788
890.377	19742
890.501	19670
890.624	19632
890.748	19548
890.871	19521
890.995	19472
891.118	19331
891.241	19377
891.364	19457
891.488	19616
891.611	19441
891.734	19381
891.857	19483
891.98	19525
892.103	19365
892.226	19411
892.349	19430
892.471	19240
892.594	19441
892.717	19362
892.839	19373
892.962	19411
893.085	19407
893.207	19377
893.33	19091
893.452	19331
893.575	19365
893.697	19217
893.819	19487
893.941	19483
894.064	19571
894.186	19282
894.308	19198
894.43	19430
894.552	19559
894.674	19464
894.796	19316
894.918	19285
895.04	19263
895.161	19312
895.283	19392
895.405	19308
895.526	19228
895.648	19308
895.769	19316
895.891	19400
896.012	19514
896.134	19407
896.255	19411
896.376	19335
896.498	19419
896.619	19327
896.74	19407
896.861	19426
896.982	19727
897.103	19731
897.224	19628
897.345	19632
897.466	19563
897.587	19533
897.708	19685
897.828	19628
897.949	19533
898.07	19362
898.19	19548
898.311	19677
898.431	19476
898.552	19696
898.672	19597
898.792	19521
898.913	19510
899.033	19502
899.153	19354
899.273	19373
899.393	19403
899.513	19388
899.633	19335
899.753	19331
899.873	19312
899.993	19392
900.113	19282
900.232	19247
900.352	19244
900.472	19137
900.591	19148
900.711	19324
900.83	19038
900.95	19129
901.069	19202
901.189	19042
901.308	18833
901.427	18688
901.546	18772
901.665	18700
901.784	18684
901.904	18684
902.023	18540
902.141	18353
902.26	18262
902.379	18330
902.498	18247
902.617	18247
902.735	18277
902.854	18167
902.973	18190
903.091	17958
903.21	17870
903.328	18026
903.446	17863
903.565	17859
903.683	17813
903.801	17642
903.919	17726
904.038	17737
904.156	17596
904.274	17642
904.392	17467
904.51	17547
904.627	17581
904.745	17592
904.863	17528
904.981	17296
905.098	17189
905.216	17132
905.334	17284
905.451	17265
905.569	17162
905.686	17204
905.803	17166
905.921	16900
906.038	16961
906.155	17086
906.272	16938
906.389	16858
906.506	16831
906.623	16790
906.74	16653
906.857	16599
906.974	16603
907.091	16824
907.208	16877
907.324	16736
907.441	16634
907.557	16554
907.674	16405
907.79	16428
907.907	16447
908.023	16474
908.139	16443
908.256	16360
908.372	16318
908.488	16276
908.604	16147
908.72	16029
908.836	16200
908.952	16120
909.068	16211
909.184	16276
909.3	16200
909.415	16242
909.531	16246
909.647	15941
909.762	15816
909.878	15918
909.993	15930
910.108	15838
910.224	15785
910.339	15850
910.454	15709
910.57	15816
910.685	15660
910.8	15892
910.915	15861
911.03	15656
911.145	15576
911.259	15473
911.374	15564
911.489	15428
911.604	15355
911.718	15218
911.833	15203
911.947	15230
912.062	15180
912.176	15294
912.291	15321
912.405	15336
912.519	15348
912.633	15485
912.748	15214
912.862	15256
912.976	15077
913.09	15066
913.204	15089
913.318	15116
913.431	15252
913.545	15157
913.659	15180
913.772	14998
913.886	14948
914	14819
914.113	14914
914.226	15024
914.34	14937
914.453	14823
914.566	14933
914.68	14758
914.793	14754
914.906	14545
915.019	14533
915.132	14442
915.245	14480
915.358	14583
915.47	14587
915.583	14541
915.696	14549
915.809	14678
915.921	14632
916.034	14450
916.146	14400
916.259	14339
916.371	14480
916.483	14450
916.595	14351
916.708	14309
916.82	14358
916.932	14290
917.044	14320
917.156	14317
917.268	14252
917.38	14225
917.491	14157
917.603	14183
917.715	14324
917.826	14290
917.938	14065
918.049	14130
918.161	14142
918.272	14278
918.384	14275
918.495	14096
918.606	13917
918.717	13879
918.828	14005
918.939	14024
919.05	13837
919.161	14024
919.272	13750
919.383	13769
919.494	13963
919.604	14153
919.715	13982
919.826	13887
919.936	13841
920.047	13997
920.157	13887
920.267	14149
920.378	13932
920.488	13906
920.598	14195
920.708	14324
920.818	14100
920.928	13936
921.038	14172
921.148	14153
921.258	13955
921.368	13799
921.477	13719
921.587	13700
921.697	13529
921.806	13681
921.916	13514
922.025	13415
922.134	13411
922.244	13335
922.353	13377
922.462	13175
922.571	13168
922.68	12943
922.789	13019
922.898	13038
923.007	12932
923.116	13110
923.224	13046
923.333	12977
923.442	12833
923.55	12764
923.659	12905
923.767	12779
923.876	12829
923.984	12916
924.092	12787
924.201	12749
924.309	12673
924.417	12719
924.525	12627
924.633	12688
924.741	13441
924.849	12509
924.956	12547
925.064	12509
925.172	12372
925.279	12464
925.387	12338
925.494	12384
925.602	12517
925.709	12452
925.816	12270
925.924	12357
926.031	12479
926.138	12281
926.245	12414
926.352	12300
926.459	12350
926.566	12452
926.673	12228
926.779	12235
926.886	12216
926.993	12049
927.099	12038
927.206	11950
927.312	11885
927.419	12034
927.525	12003
927.631	12076
927.737	11855
927.843	11897
927.95	11726
928.056	11832
928.162	11908
928.267	11908
928.373	12460
928.479	11916
928.585	11707
928.69	11847
928.796	11939
928.901	11737
929.007	11619
929.112	11783
929.218	11646
929.323	11638
929.428	11722
929.533	11771
929.638	11493
929.743	11577
929.848	11615
929.953	11493
930.058	11512
930.163	11250
930.267	11212
930.372	11463
930.477	11174
930.581	11455
930.685	11242
930.79	11220
930.894	11090
930.998	11166
931.103	11246
931.207	10881
931.311	10896
931.415	10755
931.519	10580
931.623	10634
