Data from test_V78500241_2797.txt Node
Date: Fri Mar 25 15:29:20 CST 2022
User: usil
Spectrometer: V785-0024
Trigger mode: 0
Integration Time (sec): 4.000000E-1
Scans to average: 1
Nonlinearity correction enabled: false
Boxcar width: 0
Storing dark spectrum: false
XAxis mode: Wavelengths
Number of Pixels in Spectrum: 1024
>>>>>Begin Spectral Data<<<<<
801.071	27096
801.214	27108
801.356	26994
801.499	26868
801.641	26796
801.783	26712
801.926	26731
802.068	26773
802.211	26621
802.353	26686
802.496	26461
802.638	26423
802.78	26305
802.923	26286
803.065	26263
803.208	26218
803.35	26400
803.492	26461
803.635	26564
803.777	26545
803.919	26450
804.061	26876
804.204	26621
804.346	26355
804.488	26476
804.63	26537
804.773	26328
804.915	26545
805.057	26629
805.199	26431
805.341	26492
805.483	26743
805.626	26632
805.768	26617
805.91	26632
806.052	26602
806.194	26705
806.336	26655
806.478	26613
806.62	26674
806.762	26731
806.904	26906
807.046	27047
807.188	27036
807.33	27093
807.472	26994
807.614	27055
807.756	27005
807.898	26899
808.04	26906
808.182	26800
808.324	26804
808.465	26944
808.607	27195
808.749	27195
808.891	27313
809.033	27291
809.174	27260
809.316	27180
809.458	27188
809.6	27279
809.741	27294
809.883	27310
810.025	27443
810.166	27427
810.308	27557
810.45	27340
810.591	27332
810.733	27275
810.875	27188
811.016	27138
811.158	27135
811.299	27218
811.441	27302
811.582	27279
811.724	27146
811.865	27112
812.007	27336
812.148	27256
812.29	27306
812.431	27412
812.573	27481
812.714	27648
812.855	27709
812.997	27812
813.138	27785
813.279	27945
813.421	27701
813.562	27595
813.703	27481
813.845	27439
813.986	27085
814.127	27058
814.268	26769
814.41	26876
814.551	26830
814.692	26880
814.833	26823
814.974	26777
815.115	26918
815.256	26674
815.397	26746
815.539	26724
815.68	26644
815.821	26663
815.962	26716
816.103	26735
816.244	26530
816.385	26374
816.526	26366
816.666	26199
816.807	26126
816.948	26161
817.089	26202
817.23	26157
817.371	26164
817.512	26130
817.653	26138
817.793	25982
817.934	26073
818.075	26183
818.216	26107
818.356	26138
818.497	25959
818.638	25902
818.778	25799
818.919	25795
819.06	25944
819.2	26100
819.341	26050
819.481	25993
819.622	26305
819.762	26453
819.903	26339
820.043	26309
820.184	26259
820.324	26324
820.465	26229
820.605	26130
820.746	26313
820.886	26084
821.026	26225
821.167	26168
821.307	26210
821.447	26111
821.588	25982
821.728	25963
821.868	25822
822.008	25495
822.149	25556
822.289	25559
822.429	25304
822.569	25247
822.709	25365
822.849	25084
822.99	25069
823.13	25088
823.27	24932
823.41	24859
823.55	24696
823.69	24897
823.83	24882
823.97	24897
824.11	24570
824.25	24620
824.389	24688
824.529	24711
824.669	24776
824.809	24730
824.949	24875
825.089	24867
825.228	24707
825.368	24555
825.508	24517
825.648	24498
825.787	24623
825.927	24703
826.067	24612
826.206	24612
826.346	24654
826.485	24604
826.625	24715
826.765	24715
826.904	24677
827.044	24395
827.183	24418
827.323	24414
827.462	24414
827.601	24319
827.741	24327
827.88	24376
828.02	24102
828.159	24315
828.298	24304
828.437	24254
828.577	24342
828.716	24384
828.855	24174
828.994	24053
829.134	24060
829.273	24117
829.412	24018
829.551	24022
829.69	24060
829.829	24057
829.968	24038
830.107	23969
830.246	24159
830.385	23889
830.524	23942
830.663	23946
830.802	23767
830.941	23665
831.08	23608
831.219	23707
831.357	23630
831.496	23665
831.635	23604
831.774	23448
831.913	23531
832.051	23478
832.19	23402
832.329	23482
832.467	23284
832.606	23322
832.744	23220
832.883	23326
833.022	23280
833.16	23353
833.299	23383
833.437	23322
833.576	23330
833.714	23379
833.852	23410
833.991	23406
834.129	23372
834.267	23455
834.406	23318
834.544	23501
834.682	23337
834.821	23414
834.959	23474
835.097	23292
835.235	23356
835.373	23258
835.511	23337
835.65	23193
835.788	23151
835.926	23132
836.064	22965
836.202	23014
836.34	23189
836.478	23277
836.615	23098
836.753	23086
836.891	23174
837.029	23235
837.167	23166
837.305	23121
837.443	23010
837.58	22961
837.718	23083
837.856	23083
837.993	22889
838.131	22995
838.269	22873
838.406	22919
838.544	22831
838.681	22626
838.819	22733
838.956	22504
839.094	22493
839.231	22554
839.369	22710
839.506	22873
839.643	22805
839.781	22379
839.918	22474
840.055	22584
840.193	22390
840.33	22363
840.467	22470
840.604	22516
840.742	22675
840.879	22356
841.016	22405
841.153	22363
841.29	22459
841.427	22432
841.564	22451
841.701	22481
841.838	22447
841.975	22272
842.112	22443
842.249	22284
842.385	22188
842.522	22459
842.659	22230
842.796	22158
842.933	22223
843.069	22128
843.206	22257
843.343	22215
843.479	22150
843.616	22147
843.752	21941
843.889	21899
844.025	22017
844.162	21854
844.298	22059
844.435	21846
844.571	21922
844.708	21930
844.844	22200
844.98	22059
845.117	21945
845.253	21918
845.389	21892
845.525	21899
845.661	21789
845.798	21781
845.934	21800
846.07	21705
846.206	21759
846.342	21793
846.478	21629
846.614	21599
846.75	21401
846.886	21389
847.022	21431
847.158	21473
847.294	21488
847.429	21477
847.565	21447
847.701	21717
847.837	21085
847.972	21077
848.108	21260
848.244	21264
848.379	21028
848.515	21062
848.65	21089
848.786	20990
848.921	21066
849.057	21173
849.192	21150
849.328	20998
849.463	21047
849.598	21009
849.734	20944
849.869	20918
850.004	20880
850.14	20834
850.275	20769
850.41	20655
850.545	20659
850.68	20682
850.815	20800
850.95	20750
851.085	21032
851.22	20815
851.355	20777
851.49	20746
851.625	20701
851.76	20754
851.895	20716
852.03	20712
852.165	20876
852.299	20819
852.434	20868
852.569	20887
852.703	20807
852.838	20788
852.973	20906
853.107	20975
853.242	20648
853.376	20609
853.511	20518
853.645	20583
853.78	20651
853.914	20720
854.048	20587
854.183	20571
854.317	20682
854.451	20872
854.585	20590
854.72	20701
854.854	20632
854.988	20568
855.122	20674
855.256	20457
855.39	20655
855.524	20712
855.658	20678
855.792	20701
855.926	20705
856.06	20689
856.194	20697
856.327	20651
856.461	20545
856.595	20473
856.729	20571
856.862	20602
856.996	20724
857.13	20701
857.263	20746
857.397	20678
857.53	20594
857.664	20640
857.797	20758
857.931	20777
858.064	20541
858.197	20712
858.331	20682
858.464	20514
858.597	20438
858.731	20701
858.864	20568
858.997	20473
859.13	20640
859.263	20697
859.396	20750
859.529	20571
859.662	20568
859.795	20560
859.928	20724
860.061	20632
860.194	20804
860.327	20632
860.46	20686
860.592	20785
860.725	20762
860.858	20735
860.99	20579
861.123	20564
861.256	20537
861.388	20545
861.521	21287
861.653	20514
861.786	20347
861.918	20412
862.05	20526
862.183	20552
862.315	20522
862.447	20609
862.58	20522
862.712	20233
862.844	20419
862.976	20385
863.108	20473
863.24	20883
863.372	20347
863.504	20381
863.636	20355
863.768	20415
863.9	20256
864.032	20324
864.164	20294
864.296	20263
864.428	20434
864.559	20404
864.691	20427
864.823	20317
864.954	20195
865.086	20324
865.217	20309
865.349	20206
865.48	20176
865.612	20180
865.743	20336
865.875	20218
866.006	20271
866.137	20298
866.269	20176
866.4	20336
866.531	20107
866.662	20111
866.793	20046
866.924	20240
867.055	20199
867.186	20202
867.317	20142
867.448	20134
867.579	20164
867.71	20210
867.841	19951
867.972	20187
868.103	20195
868.233	20168
868.364	20218
868.495	20328
868.625	20389
868.756	20469
868.886	20305
869.017	20347
869.147	20480
869.278	20552
869.408	20434
869.539	20457
869.669	20541
869.799	20442
869.929	20530
870.06	20617
870.19	20895
870.32	20697
870.45	20823
870.58	20819
870.71	20857
870.84	20994
870.97	20910
871.1	20861
871.23	20918
871.36	21062
871.489	20948
871.619	21066
871.749	21032
871.879	20906
872.008	21093
872.138	21055
872.267	21077
872.397	20800
872.526	20899
872.656	20758
872.785	20902
872.915	21036
873.044	21135
873.173	21058
873.303	21112
873.432	21093
873.561	21093
873.69	21100
873.819	21089
873.948	21184
874.077	21051
874.206	21005
874.335	21043
874.464	21218
874.593	21310
874.722	21272
874.851	21272
874.979	21298
875.108	21287
875.237	21199
875.365	21192
875.494	21203
875.623	21359
875.751	21249
875.88	21348
876.008	21428
876.136	21538
876.265	21603
876.393	21797
876.521	21842
876.65	21827
876.778	21690
876.906	21641
877.034	21667
877.162	21698
877.29	21618
877.418	21660
877.546	21568
877.674	21660
877.802	21648
877.93	21625
878.058	21603
878.185	21485
878.313	21504
878.441	21603
878.568	21420
878.696	21523
878.824	21564
878.951	21713
879.079	21873
879.206	21880
879.333	21690
879.461	21610
879.588	21781
879.715	21869
879.842	22002
879.97	21648
880.097	21504
880.224	21393
880.351	21504
880.478	21568
880.605	21279
880.732	21473
880.859	21637
880.986	21511
881.112	21523
881.239	21260
881.366	21264
881.493	21207
881.619	21093
881.746	21066
881.872	21066
881.999	21009
882.125	20967
882.252	21138
882.378	20948
882.505	21085
882.631	20861
882.757	20796
882.883	20819
883.01	20689
883.136	20667
883.262	20602
883.388	20514
883.514	20731
883.64	20785
883.766	20655
883.892	20541
884.018	20598
884.143	20674
884.269	20716
884.395	20415
884.52	20362
884.646	20457
884.772	20343
884.897	20282
885.023	20507
885.148	20552
885.274	20484
885.399	20492
885.524	20488
885.65	20492
885.775	20400
885.9	20366
886.025	20602
886.15	20461
886.275	20336
886.4	20358
886.525	20366
886.65	20309
886.775	20328
886.9	20442
887.025	20575
887.149	20290
887.274	20206
887.399	20027
887.523	20183
887.648	20096
887.773	20111
887.897	20199
888.021	20240
888.146	20199
888.27	20233
888.395	20362
888.519	20256
888.643	20096
888.767	20225
888.891	20126
889.015	20054
889.139	19993
889.263	19974
889.387	20043
889.511	20263
889.635	20122
889.759	19913
889.883	20016
890.006	20016
890.13	20020
890.254	19917
890.377	19982
890.501	19712
890.624	19788
890.748	19826
890.871	19563
890.995	19605
891.118	19521
891.241	19567
891.364	19559
891.488	19674
891.611	19529
891.734	19620
891.857	19567
891.98	19594
892.103	19628
892.226	19514
892.349	19510
892.471	19415
892.594	19544
892.717	19544
892.839	19453
892.962	19578
893.085	19537
893.207	19548
893.33	19396
893.452	19415
893.575	19483
893.697	19445
893.819	19601
893.941	19723
894.064	19742
894.186	19419
894.308	19430
894.43	19510
894.552	19613
894.674	19594
894.796	19358
894.918	19460
895.04	19365
895.161	19571
895.283	19472
895.405	19335
895.526	19369
895.648	19567
895.769	19518
895.891	19495
896.012	19540
896.134	19594
896.255	19495
896.376	19403
896.498	19544
896.619	19502
896.74	19472
896.861	19514
896.982	19795
897.103	19883
897.224	19677
897.345	19776
897.466	19674
897.587	19685
897.708	19822
897.828	19746
897.949	19727
898.07	19540
898.19	19616
898.311	19860
898.431	19757
898.552	19746
898.672	19731
898.792	19845
898.913	19715
899.033	19632
899.153	19540
899.273	19274
899.393	19499
899.513	19472
899.633	19499
899.753	19457
899.873	19453
899.993	19495
900.113	19392
900.232	19324
900.352	19457
900.472	19251
900.591	19225
900.711	19369
900.83	19175
900.95	19259
901.069	19354
901.189	19175
901.308	18966
901.427	18859
901.546	18913
901.665	18791
901.784	18829
901.904	18738
902.023	18684
902.141	18395
902.26	18467
902.379	18426
902.498	18399
902.617	18289
902.735	18391
902.854	18365
902.973	18407
903.091	18049
903.21	18098
903.328	18087
903.446	17920
903.565	17904
903.683	17771
903.801	17665
903.919	17840
904.038	17851
904.156	17634
904.274	17726
904.392	17703
904.51	17657
904.627	17619
904.745	17585
904.863	17676
904.981	17444
905.098	17227
905.216	17368
905.334	17391
905.451	17269
905.569	17353
905.686	17337
905.803	17288
905.921	17094
906.038	17113
906.155	17083
906.272	17079
906.389	16972
906.506	16987
906.623	16976
906.74	16793
906.857	16656
906.974	16809
907.091	16930
907.208	16923
907.324	16904
907.441	16736
907.557	16577
907.674	16656
907.79	16622
907.907	16516
908.023	16573
908.139	16577
908.256	16493
908.372	16428
908.488	16455
908.604	16375
908.72	16333
908.836	16394
908.952	16253
909.068	16375
909.184	16500
909.3	16249
909.415	16443
909.531	16394
909.647	16013
909.762	15991
909.878	15956
909.993	16051
910.108	15892
910.224	15930
910.339	15915
910.454	15816
910.57	15869
910.685	15755
910.8	16036
910.915	15918
911.03	15800
911.145	15561
911.259	15629
911.374	15614
911.489	15530
911.604	15469
911.718	15279
911.833	15370
911.947	15397
912.062	15241
912.176	15439
912.291	15279
912.405	15393
912.519	15564
912.633	15492
912.748	15443
912.862	15287
912.976	15233
913.09	15097
913.204	15161
913.318	15211
913.431	15252
913.545	15203
913.659	15283
913.772	15127
913.886	15093
914	15028
914.113	15116
914.226	15112
914.34	15135
914.453	14929
914.566	15032
914.68	14849
914.793	14944
914.906	14606
915.019	14670
915.132	14579
915.245	14674
915.358	14564
915.47	14621
915.583	14568
915.696	14648
915.809	14735
915.921	14686
916.034	14552
916.146	14499
916.259	14492
916.371	14621
916.483	14499
916.595	14423
916.708	14355
916.82	14412
916.932	14431
917.044	14362
917.156	14381
917.268	14278
917.38	14248
917.491	14191
917.603	14294
917.715	14370
917.826	14305
917.938	14286
918.049	14149
918.161	14233
918.272	14339
918.384	14381
918.495	14339
918.606	14126
918.717	13944
918.828	14058
918.939	14130
919.05	13997
919.161	13974
919.272	13769
919.383	13849
919.494	14096
919.604	14142
919.715	13986
919.826	13913
919.936	13993
920.047	14134
920.157	14054
920.267	14195
920.378	14008
920.488	14001
920.598	14153
920.708	14244
920.818	14206
920.928	14202
921.038	14370
921.148	14259
921.258	14031
921.368	13883
921.477	13818
921.587	13837
921.697	13582
921.806	13845
921.916	13670
922.025	13483
922.134	13403
922.244	13343
922.353	13460
922.462	13358
922.571	13228
922.68	13095
922.789	13110
922.898	13065
923.007	13114
923.116	13069
923.224	13076
923.333	13019
923.442	12947
923.55	12882
923.659	12939
923.767	12970
923.876	12909
923.984	12973
924.092	12817
924.201	12848
924.309	12779
924.417	12764
924.525	12722
924.633	12787
924.741	13502
924.849	12627
924.956	12741
925.064	12486
925.172	12555
925.279	12437
925.387	12544
925.494	12563
925.602	12665
925.709	12559
925.816	12422
925.924	12479
926.031	12582
926.138	12502
926.245	12517
926.352	12243
926.459	12517
926.566	12521
926.673	12369
926.779	12334
926.886	12262
926.993	12167
927.099	12129
927.206	11965
927.312	12030
927.419	12083
927.525	12057
927.631	12117
927.737	11980
927.843	11904
927.95	11855
928.056	11920
928.162	12019
928.267	12049
928.373	12585
928.479	11988
928.585	11767
928.69	11904
928.796	11885
928.901	11722
929.007	11596
929.112	11786
929.218	11752
929.323	11680
929.428	11649
929.533	11745
929.638	11604
929.743	11672
929.848	11737
929.953	11672
930.058	11490
930.163	11421
930.267	11326
930.372	11562
930.477	11307
930.581	11516
930.685	11440
930.79	11235
930.894	11318
930.998	11204
931.103	11368
931.207	11060
931.311	10892
931.415	10831
931.519	10675
931.623	10592
