Data from test_V78500241_3221.txt Node
Date: Fri Mar 25 15:32:17 CST 2022
User: usil
Spectrometer: V785-0024
Trigger mode: 0
Integration Time (sec): 4.000000E-1
Scans to average: 1
Nonlinearity correction enabled: false
Boxcar width: 0
Storing dark spectrum: false
XAxis mode: Wavelengths
Number of Pixels in Spectrum: 1024
>>>>>Begin Spectral Data<<<<<
801.071	27108
801.214	27028
801.356	26887
801.499	26815
801.641	26777
801.783	26777
801.926	26781
802.068	26693
802.211	26708
802.353	26651
802.496	26518
802.638	26476
802.78	26427
802.923	26259
803.065	26252
803.208	26256
803.35	26351
803.492	26446
803.635	26514
803.777	26442
803.919	26522
804.061	26815
804.204	26579
804.346	26552
804.488	26442
804.63	26556
804.773	26393
804.915	26560
805.057	26712
805.199	26461
805.341	26560
805.483	26727
805.626	26598
805.768	26583
805.91	26537
806.052	26712
806.194	26659
806.336	26739
806.478	26625
806.62	26583
806.762	26754
806.904	26868
807.046	27085
807.188	27241
807.33	26982
807.472	27036
807.614	27047
807.756	26975
807.898	26864
808.04	26880
808.182	26845
808.324	26872
808.465	27001
808.607	27165
808.749	27192
808.891	27150
809.033	27443
809.174	27245
809.316	27302
809.458	27302
809.6	27051
809.741	27389
809.883	27454
810.025	27386
810.166	27534
810.308	27408
810.45	27408
810.591	27454
810.733	27317
810.875	27195
811.016	27173
811.158	27138
811.299	27363
811.441	27443
811.582	27447
811.724	27192
811.865	27127
812.007	27256
812.148	27287
812.29	27272
812.431	27367
812.573	27587
812.714	27637
812.855	27717
812.997	27960
813.138	27979
813.279	27804
813.421	27694
813.562	27717
813.703	27447
813.845	27412
813.986	27036
814.127	27028
814.268	26891
814.41	26971
814.551	26842
814.692	26956
814.833	26739
814.974	26804
815.115	26979
815.256	26727
815.397	26804
815.539	26800
815.68	26739
815.821	26575
815.962	26773
816.103	26606
816.244	26503
816.385	26507
816.526	26358
816.666	26210
816.807	26092
816.948	26183
817.089	26271
817.23	26092
817.371	26134
817.512	26100
817.653	26199
817.793	26168
817.934	26077
818.075	26039
818.216	26404
818.356	26096
818.497	26065
818.638	25928
818.778	25890
818.919	25830
819.06	25913
819.2	26073
819.341	26161
819.481	26092
819.622	26324
819.762	26522
819.903	26320
820.043	26336
820.184	26332
820.324	26362
820.465	26389
820.605	26324
820.746	26195
820.886	26058
821.026	26237
821.167	26183
821.307	26161
821.447	26138
821.588	26035
821.728	25936
821.868	25712
822.008	25620
822.149	25521
822.289	25594
822.429	25453
822.569	25335
822.709	25369
822.849	25129
822.99	25202
823.13	25091
823.27	25148
823.41	24871
823.55	24920
823.69	24962
823.83	24996
823.97	24810
824.11	24749
824.25	24719
824.389	24684
824.529	24768
824.669	24757
824.809	24753
824.949	24787
825.089	24753
825.228	24741
825.368	24525
825.508	24639
825.648	24669
825.787	24532
825.927	24738
826.067	24448
826.206	24669
826.346	24555
826.485	24802
826.625	24700
826.765	24722
826.904	24620
827.044	24452
827.183	24467
827.323	24350
827.462	24399
827.601	24289
827.741	24182
827.88	24365
828.02	24319
828.159	24300
828.298	24277
828.437	24395
828.577	24292
828.716	24407
828.855	24395
828.994	24015
829.134	24064
829.273	24178
829.412	24049
829.551	23980
829.69	24030
829.829	24121
829.968	24106
830.107	24136
830.246	24114
830.385	24057
830.524	23908
830.663	23908
830.802	23783
830.941	23790
831.08	23619
831.219	23840
831.357	23760
831.496	23897
831.635	23665
831.774	23528
831.913	23608
832.051	23535
832.19	23448
832.329	23524
832.467	23524
832.606	23356
832.744	23147
832.883	23307
833.022	23448
833.16	23318
833.299	23421
833.437	23433
833.576	23387
833.714	23505
833.852	23516
833.991	23554
834.129	23440
834.267	23436
834.406	23463
834.544	23436
834.682	23512
834.821	23334
834.959	23520
835.097	23444
835.235	23531
835.373	23547
835.511	23417
835.65	23353
835.788	23269
835.926	23273
836.064	23094
836.202	23140
836.34	23250
836.478	23341
836.615	23269
836.753	23349
836.891	23478
837.029	23292
837.167	23170
837.305	23223
837.443	23326
837.58	23140
837.718	23162
837.856	23162
837.993	23064
838.131	23105
838.269	23037
838.406	23010
838.544	22938
838.681	22816
838.819	22698
838.956	22603
839.094	22577
839.231	22774
839.369	22873
839.506	22892
839.643	22835
839.781	22683
839.918	22622
840.055	22702
840.193	22481
840.33	22459
840.467	22599
840.604	22577
840.742	22774
840.879	22303
841.016	22512
841.153	22436
841.29	22645
841.427	22424
841.564	22607
841.701	22527
841.838	22432
841.975	22371
842.112	22508
842.249	22379
842.385	22379
842.522	22561
842.659	22413
842.796	22356
842.933	22352
843.069	22291
843.206	22215
843.343	22470
843.479	22402
843.616	22280
843.752	22006
843.889	22101
844.025	22318
844.162	22246
844.298	22200
844.435	22086
844.571	22150
844.708	22055
844.844	22299
844.98	22082
845.117	22192
845.253	22067
845.389	21956
845.525	21987
845.661	21888
845.798	21831
845.934	21831
846.07	21838
846.206	21785
846.342	21968
846.478	21827
846.614	21625
846.75	21492
846.886	21686
847.022	21648
847.158	21599
847.294	21701
847.429	21542
847.565	21564
847.701	21797
847.837	21275
847.972	21241
848.108	21363
848.244	21230
848.379	21138
848.515	21112
848.65	21108
848.786	21245
848.921	21226
849.057	21260
849.192	21226
849.328	21195
849.463	21211
849.598	21218
849.734	21077
849.869	21131
850.004	20861
850.14	20861
850.275	20952
850.41	20861
850.545	20762
850.68	20967
850.815	20998
850.95	20834
851.085	21055
851.22	20952
851.355	21005
851.49	20891
851.625	20998
851.76	20910
851.895	20876
852.03	20781
852.165	20952
852.299	20986
852.434	21096
852.569	20857
852.703	20960
852.838	21062
852.973	21062
853.107	20975
853.242	20902
853.376	20861
853.511	20560
853.645	20796
853.78	20956
853.914	20792
854.048	20743
854.183	20746
854.317	20712
854.451	21013
854.585	20785
854.72	20701
854.854	20883
854.988	20648
855.122	20834
855.256	20571
855.39	20720
855.524	20796
855.658	20815
855.792	20785
855.926	20754
856.06	20746
856.194	20853
856.327	20686
856.461	20682
856.595	20632
856.729	20815
856.862	20811
856.996	20792
857.13	20861
857.263	21089
857.397	20792
857.53	20800
857.664	20792
857.797	20792
857.931	20933
858.064	20712
858.197	20910
858.331	20712
858.464	20693
858.597	20556
858.731	20659
858.864	20754
858.997	20651
859.13	20804
859.263	20815
859.396	20895
859.529	20773
859.662	20720
859.795	20686
859.928	20815
860.061	20819
860.194	20815
860.327	20899
860.46	20887
860.592	20792
860.725	20849
860.858	20823
860.99	20689
861.123	20594
861.256	20735
861.388	20613
861.521	21359
861.653	20716
861.786	20606
861.918	20602
862.05	20724
862.183	20667
862.315	20773
862.447	20823
862.58	20659
862.712	20514
862.844	20415
862.976	20609
863.108	20507
863.24	20777
863.372	20332
863.504	20415
863.636	20423
863.768	20541
863.9	20499
864.032	20370
864.164	20438
864.296	20412
864.428	20651
864.559	20560
864.691	20503
864.823	20461
864.954	20454
865.086	20560
865.217	20404
865.349	20294
865.48	20317
865.612	20351
865.743	20518
865.875	20385
866.006	20404
866.137	20370
866.269	20286
866.4	20301
866.531	20317
866.662	20381
866.793	20317
866.924	20313
867.055	20305
867.186	20282
867.317	20377
867.448	20298
867.579	20252
867.71	20202
867.841	20244
867.972	20358
868.103	20282
868.233	20248
868.364	20275
868.495	20370
868.625	20480
868.756	20606
868.886	20495
869.017	20594
869.147	20648
869.278	20594
869.408	20522
869.539	20579
869.669	20648
869.799	20568
869.929	20678
870.06	20716
870.19	20796
870.32	20868
870.45	20857
870.58	20895
870.71	21070
870.84	21116
870.97	20906
871.1	20979
871.23	21077
871.36	21135
871.489	21055
871.619	21131
871.749	21176
871.879	21096
872.008	21252
872.138	21176
872.267	21146
872.397	21039
872.526	21036
872.656	21017
872.785	21001
872.915	21112
873.044	21287
873.173	21180
873.303	21230
873.432	21214
873.561	21310
873.69	21173
873.819	21131
873.948	21260
874.077	21226
874.206	21116
874.335	21135
874.464	21283
874.593	21359
874.722	21386
874.851	21492
874.979	21462
875.108	21431
875.237	21348
875.365	21192
875.494	21367
875.623	21473
875.751	21424
875.88	21420
876.008	21587
876.136	21614
876.265	21915
876.393	21964
876.521	21808
876.65	21930
876.778	21857
876.906	21755
877.034	21724
877.162	21759
877.29	21774
877.418	21682
877.546	21736
877.674	21804
877.802	21888
877.93	21671
878.058	21686
878.185	21778
878.313	21747
878.441	21762
878.568	21614
878.696	21705
878.824	21789
878.951	21831
879.079	22086
879.206	22029
879.333	21960
879.461	21755
879.588	21785
879.715	21960
879.842	22078
879.97	22010
880.097	21724
880.224	21633
880.351	21591
880.478	21701
880.605	21557
880.732	21591
880.859	21781
880.986	21644
881.112	21595
881.239	21492
881.366	21264
881.493	21279
881.619	21173
881.746	21329
881.872	21207
881.999	21108
882.125	21123
882.252	21195
882.378	21233
882.505	21260
882.631	21074
882.757	20853
882.883	20982
883.01	20883
883.136	20891
883.262	20670
883.388	20807
883.514	20861
883.64	20994
883.766	20830
883.892	20629
884.018	20743
884.143	20910
884.269	20937
884.395	20701
884.52	20469
884.646	20473
884.772	20488
884.897	20442
885.023	20606
885.148	20552
885.274	20701
885.399	20636
885.524	20545
885.65	20499
885.775	20530
885.9	20431
886.025	20617
886.15	20640
886.275	20465
886.4	20507
886.525	20560
886.65	20503
886.775	20370
886.9	20667
887.025	20621
887.149	20457
887.274	20305
887.399	20263
887.523	20278
887.648	20126
887.773	20225
887.897	20339
888.021	20286
888.146	20309
888.27	20366
888.395	20309
888.519	20385
888.643	20317
888.767	20362
888.891	20233
889.015	20202
889.139	20294
889.263	20103
889.387	20191
889.511	20271
889.635	20267
889.759	20081
889.883	20016
890.006	20145
890.13	20221
890.254	20069
890.377	20054
890.501	19906
890.624	19868
890.748	19909
890.871	19708
890.995	19693
891.118	19647
891.241	19594
891.364	19712
891.488	19780
891.611	19704
891.734	19632
891.857	19776
891.98	19643
892.103	19624
892.226	19708
892.349	19719
892.471	19620
892.594	19540
892.717	19639
892.839	19582
892.962	19651
893.085	19708
893.207	19632
893.33	19346
893.452	19567
893.575	19647
893.697	19518
893.819	19772
893.941	19818
894.064	19750
894.186	19582
894.308	19476
894.43	19734
894.552	19788
894.674	19803
894.796	19575
894.918	19655
895.04	19624
895.161	19712
895.283	19609
895.405	19548
895.526	19674
895.648	19586
895.769	19624
895.891	19590
896.012	19689
896.134	19655
896.255	19597
896.376	19499
896.498	19681
896.619	19693
896.74	19647
896.861	19685
896.982	19989
897.103	20043
897.224	19879
897.345	19681
897.466	19712
897.587	19772
897.708	19967
897.828	19845
897.949	19814
898.07	19727
898.19	19635
898.311	19906
898.431	19830
898.552	19894
898.672	19951
898.792	19879
898.913	19856
899.033	19803
899.153	19670
899.273	19499
899.393	19616
899.513	19639
899.633	19575
899.753	19655
899.873	19529
899.993	19609
900.113	19445
900.232	19597
900.352	19529
900.472	19339
900.591	19350
900.711	19358
900.83	19236
900.95	19491
901.069	19472
901.189	19228
901.308	19042
901.427	18951
901.546	19072
901.665	18882
901.784	18962
901.904	18779
902.023	18817
902.141	18563
902.26	18578
902.379	18612
902.498	18418
902.617	18513
902.735	18620
902.854	18658
902.973	18365
903.091	18262
903.21	18079
903.328	18133
903.446	18148
903.565	18030
903.683	17992
903.801	17893
903.919	17992
904.038	17904
904.156	17756
904.274	17836
904.392	17786
904.51	17783
904.627	17821
904.745	17779
904.863	17771
904.981	17532
905.098	17429
905.216	17379
905.334	17463
905.451	17535
905.569	17459
905.686	17509
905.803	17509
905.921	17220
906.038	17444
906.155	17296
906.272	17242
906.389	17231
906.506	16980
906.623	16961
906.74	16957
906.857	16843
906.974	16892
907.091	17041
907.208	17098
907.324	16942
907.441	16824
907.557	16717
907.674	16793
907.79	16622
907.907	16812
908.023	16660
908.139	16706
908.256	16668
908.372	16535
908.488	16577
908.604	16443
908.72	16363
908.836	16440
908.952	16375
909.068	16432
909.184	16588
909.3	16508
909.415	16451
909.531	16356
909.647	16162
909.762	16173
909.878	16086
909.993	16101
910.108	16188
910.224	16074
910.339	16158
910.454	15949
910.57	16013
910.685	15953
910.8	16200
910.915	16074
911.03	16044
911.145	15835
911.259	15720
911.374	15766
911.489	15606
911.604	15618
911.718	15469
911.833	15610
911.947	15393
912.062	15306
912.176	15561
912.291	15466
912.405	15534
912.519	15686
912.633	15671
912.748	15477
912.862	15454
912.976	15336
913.09	15218
913.204	15252
913.318	15298
913.431	15408
913.545	15382
913.659	15462
913.772	15218
913.886	15089
914	15058
914.113	15180
914.226	15325
914.34	15226
914.453	15055
914.566	15108
914.68	15058
914.793	14941
914.906	14804
915.019	14754
915.132	14686
915.245	14758
915.358	14735
915.47	14792
915.583	14807
915.696	14682
915.809	14830
915.921	14876
916.034	14625
916.146	14636
916.259	14667
916.371	14693
916.483	14712
916.595	14583
916.708	14541
916.82	14549
916.932	14541
917.044	14434
917.156	14484
917.268	14377
917.38	14434
917.491	14370
917.603	14396
917.715	14511
917.826	14571
917.938	14393
918.049	14275
918.161	14355
918.272	14450
918.384	14511
918.495	14282
918.606	14084
918.717	14164
918.828	14214
918.939	14336
919.05	14119
919.161	14054
919.272	13936
919.383	14035
919.494	14229
919.604	14358
919.715	14115
919.826	14039
919.936	14145
920.047	14210
920.157	14180
920.267	14400
920.378	14134
920.488	14005
920.598	14263
920.708	14434
920.818	14248
920.928	14244
921.038	14385
921.148	14347
921.258	13993
921.368	13913
921.477	13970
921.587	13906
921.697	13769
921.806	13898
921.916	13830
922.025	13609
922.134	13571
922.244	13449
922.353	13628
922.462	13480
922.571	13335
922.68	13122
922.789	13141
922.898	13209
923.007	13103
923.116	13175
923.224	13103
923.333	13259
923.442	13091
923.55	13031
923.659	12962
923.767	13088
923.876	13072
923.984	13027
924.092	12848
924.201	12958
924.309	13008
924.417	12947
924.525	12856
924.633	12916
924.741	13750
924.849	12646
924.956	12779
925.064	12684
925.172	12467
925.279	12639
925.387	12662
925.494	12681
925.602	12726
925.709	12711
925.816	12513
925.924	12635
926.031	12646
926.138	12604
926.245	12627
926.352	12448
926.459	12597
926.566	12635
926.673	12509
926.779	12372
926.886	12289
926.993	12220
927.099	12224
927.206	12129
927.312	12136
927.419	12228
927.525	12243
927.631	12209
927.737	12129
927.843	11942
927.95	11908
928.056	12041
928.162	12030
928.267	12159
928.373	12593
928.479	12098
928.585	11973
928.69	12019
928.796	12041
928.901	11859
929.007	11802
929.112	11870
929.218	11817
929.323	11733
929.428	11790
929.533	11882
929.638	11684
929.743	11726
929.848	11741
929.953	11726
930.058	11547
930.163	11421
930.267	11516
930.372	11638
930.477	11364
930.581	11672
930.685	11455
930.79	11292
930.894	11341
930.998	11326
931.103	11448
931.207	11052
931.311	11029
931.415	10938
931.519	10725
931.623	10664
