Data from test_V78500241_1546.txt Node
Date: Fri Mar 25 15:20:37 CST 2022
User: usil
Spectrometer: V785-0024
Trigger mode: 0
Integration Time (sec): 4.000000E-1
Scans to average: 1
Nonlinearity correction enabled: false
Boxcar width: 0
Storing dark spectrum: false
XAxis mode: Wavelengths
Number of Pixels in Spectrum: 1024
>>>>>Begin Spectral Data<<<<<
801.071	27819
801.214	27736
801.356	27405
801.499	27462
801.641	27355
801.783	27264
801.926	27496
802.068	27260
802.211	27214
802.353	27119
802.496	27081
802.638	26967
802.78	27001
802.923	26948
803.065	26823
803.208	26906
803.35	26979
803.492	26971
803.635	27154
803.777	26990
803.919	27127
804.061	27466
804.204	27268
804.346	27051
804.488	26940
804.63	27207
804.773	27104
804.915	27058
805.057	27180
805.199	27161
805.341	27241
805.483	27313
805.626	27256
805.768	27058
805.91	27218
806.052	27310
806.194	27226
806.336	27496
806.478	27279
806.62	27306
806.762	27488
806.904	27583
807.046	27739
807.188	27637
807.33	27679
807.472	27720
807.614	27682
807.756	27690
807.898	27443
808.04	27614
808.182	27420
808.324	27530
808.465	27618
808.607	27846
808.749	27804
808.891	27911
809.033	28169
809.174	27953
809.316	27960
809.458	27892
809.6	27797
809.741	28055
809.883	28055
810.025	28268
810.166	28257
810.308	28230
810.45	28162
810.591	28036
810.733	27861
810.875	27842
811.016	27831
811.158	27804
811.299	27991
811.441	28116
811.582	28021
811.724	27956
811.865	27781
812.007	27903
812.148	27819
812.29	28006
812.431	28032
812.573	28200
812.714	28337
812.855	28535
812.997	28588
813.138	28710
813.279	28557
813.421	28470
813.562	28325
813.703	28287
813.845	28143
813.986	27789
814.127	27785
814.268	27633
814.41	27690
814.551	27549
814.692	27705
814.833	27500
814.974	27485
815.115	27660
815.256	27431
815.397	27507
815.539	27507
815.68	27420
815.821	27386
815.962	27504
816.103	27447
816.244	27211
816.385	27047
816.526	27104
816.666	26963
816.807	26781
816.948	26952
817.089	27077
817.23	26902
817.371	26845
817.512	26880
817.653	26895
817.793	26826
817.934	26899
818.075	26963
818.216	26762
818.356	26868
818.497	26629
818.638	26632
818.778	26602
818.919	26598
819.06	26792
819.2	26762
819.341	26819
819.481	26948
819.622	26952
819.762	27256
819.903	27146
820.043	27017
820.184	26937
820.324	26883
820.465	27013
820.605	26979
820.746	26952
820.886	26918
821.026	26929
821.167	26998
821.307	27051
821.447	26899
821.588	26807
821.728	26438
821.868	26503
822.008	26480
822.149	26343
822.289	26404
822.429	26069
822.569	26077
822.709	25944
822.849	25928
822.99	25856
823.13	25944
823.27	25772
823.41	25613
823.55	25483
823.69	25548
823.83	25765
823.97	25693
824.11	25400
824.25	25537
824.389	25396
824.529	25620
824.669	25487
824.809	25575
824.949	25563
825.089	25506
825.228	25586
825.368	25301
825.508	25400
825.648	25525
825.787	25358
825.927	25407
826.067	25365
826.206	25308
826.346	25339
826.485	25285
826.625	25320
826.765	25464
826.904	25419
827.044	25168
827.183	25107
827.323	25099
827.462	25072
827.601	25137
827.741	24992
827.88	24992
828.02	24970
828.159	24951
828.298	25141
828.437	25099
828.577	25179
828.716	25088
828.855	24920
828.994	24928
829.134	24635
829.273	24806
829.412	24684
829.551	24715
829.69	24749
829.829	24681
829.968	24970
830.107	24798
830.246	24661
830.385	24654
830.524	24757
830.663	24528
830.802	24418
830.941	24384
831.08	24395
831.219	24464
831.357	24525
831.496	24574
831.635	24334
831.774	24342
831.913	24334
832.051	24285
832.19	24235
832.329	24205
832.467	24129
832.606	24072
832.744	23988
832.883	24053
833.022	24091
833.16	24030
833.299	24110
833.437	24079
833.576	24220
833.714	24152
833.852	24239
833.991	24136
834.129	24095
834.267	24007
834.406	24098
834.544	24209
834.682	24174
834.821	24136
834.959	24372
835.097	24041
835.235	24251
835.373	24049
835.511	24087
835.65	23923
835.788	23908
835.926	23836
836.064	23775
836.202	23798
836.34	23851
836.478	23973
836.615	23866
836.753	23927
836.891	24102
837.029	24007
837.167	23741
837.305	23771
837.443	23855
837.58	23615
837.718	23863
837.856	23813
837.993	23779
838.131	23649
838.269	23585
838.406	23718
838.544	23577
838.681	23524
838.819	23379
838.956	23322
839.094	23376
839.231	23277
839.369	23341
839.506	23722
839.643	23372
839.781	23288
839.918	23159
840.055	23181
840.193	23220
840.33	23185
840.467	23109
840.604	23258
840.742	23478
840.879	22972
841.016	23037
841.153	22991
841.29	23235
841.427	23189
841.564	23067
841.701	23033
841.838	23071
841.975	23071
842.112	23003
842.249	22961
842.385	22892
842.522	22980
842.659	22828
842.796	22923
842.933	22885
843.069	22858
843.206	22873
843.343	22995
843.479	22915
843.616	22850
843.752	22634
843.889	22725
844.025	22771
844.162	22687
844.298	22702
844.435	22710
844.571	22634
844.708	22660
844.844	22828
844.98	22729
845.117	22831
845.253	22626
845.389	22554
845.525	22466
845.661	22546
845.798	22333
845.934	22451
846.07	22333
846.206	22413
846.342	22485
846.478	22405
846.614	22230
846.75	22101
846.886	22059
847.022	22234
847.158	22177
847.294	22158
847.429	22265
847.565	22032
847.701	22382
847.837	21987
847.972	21785
848.108	21979
848.244	21979
848.379	21823
848.515	21781
848.65	21652
848.786	21759
848.921	21732
849.057	21789
849.192	21816
849.328	21747
849.463	21675
849.598	21698
849.734	21622
849.869	21606
850.004	21469
850.14	21530
850.275	21580
850.41	21458
850.545	21568
850.68	21469
850.815	21458
850.95	21553
851.085	21736
851.22	21622
851.355	21557
851.49	21545
851.625	21519
851.76	21481
851.895	21428
852.03	21428
852.165	21458
852.299	21469
852.434	21549
852.569	21591
852.703	21386
852.838	21599
852.973	21705
853.107	21694
853.242	21424
853.376	21336
853.511	21378
853.645	21214
853.78	21443
853.914	21393
854.048	21351
854.183	21260
854.317	21298
854.451	21447
854.585	21416
854.72	21264
854.854	21378
854.988	21283
855.122	21382
855.256	21195
855.39	21264
855.524	21370
855.658	21344
855.792	21199
855.926	21283
856.06	21424
856.194	21450
856.327	21363
856.461	21260
856.595	21180
856.729	21298
856.862	21428
856.996	21214
857.13	21359
857.263	21302
857.397	21340
857.53	21340
857.664	21359
857.797	21279
857.931	21530
858.064	21268
858.197	21306
858.331	21321
858.464	21374
858.597	21161
858.731	21359
858.864	21351
858.997	21275
859.13	21367
859.263	21359
859.396	21351
859.529	21226
859.662	21272
859.795	21283
859.928	21291
860.061	21439
860.194	21610
860.327	21424
860.46	21348
860.592	21435
860.725	21408
860.858	21355
860.99	21332
861.123	21264
861.256	21306
861.388	21268
861.521	21987
861.653	21062
861.786	21173
861.918	21188
862.05	21199
862.183	21260
862.315	21249
862.447	21351
862.58	21344
862.712	20906
862.844	20990
862.976	21123
863.108	21005
863.24	21310
863.372	20948
863.504	20986
863.636	21047
863.768	21085
863.9	20944
864.032	20967
864.164	20941
864.296	20979
864.428	21100
864.559	21138
864.691	21020
864.823	21085
864.954	20971
865.086	20906
865.217	20819
865.349	20864
865.48	20815
865.612	20910
865.743	21066
865.875	20944
866.006	20785
866.137	20845
866.269	20941
866.4	20853
866.531	20918
866.662	20815
866.793	20845
866.924	20819
867.055	20982
867.186	20842
867.317	20815
867.448	20788
867.579	20765
867.71	20804
867.841	20853
867.972	20830
868.103	20883
868.233	20796
868.364	20834
868.495	20891
868.625	21043
868.756	21157
868.886	20986
869.017	21020
869.147	21150
869.278	21222
869.408	21173
869.539	21138
869.669	21161
869.799	21142
869.929	21218
870.06	21264
870.19	21374
870.32	21435
870.45	21416
870.58	21488
870.71	21500
870.84	21603
870.97	21447
871.1	21393
871.23	21739
871.36	21705
871.489	21583
871.619	21766
871.749	21717
871.879	21778
872.008	21732
872.138	21671
872.267	21728
872.397	21576
872.526	21530
872.656	21412
872.785	21481
872.915	21667
873.044	21759
873.173	21781
873.303	21698
873.432	21800
873.561	21816
873.69	21762
873.819	21743
873.948	21762
874.077	21671
874.206	21660
874.335	21656
874.464	21888
874.593	21907
874.722	21808
874.851	21941
874.979	21930
875.108	21960
875.237	21827
875.365	21835
875.494	21911
875.623	22059
875.751	21846
875.88	22021
876.008	22051
876.136	22166
876.265	22284
876.393	22432
876.521	22409
876.65	22265
876.778	22428
876.906	22257
877.034	22242
877.162	22428
877.29	22265
877.418	22238
877.546	22291
877.674	22177
877.802	22314
877.93	22211
878.058	22432
878.185	22082
878.313	22306
878.441	22249
878.568	22124
878.696	22356
878.824	22451
878.951	22314
879.079	22474
879.206	22577
879.333	22428
879.461	22322
879.588	22413
879.715	22531
879.842	22497
879.97	22306
880.097	22188
880.224	22173
880.351	22219
880.478	21979
880.605	22074
880.732	22097
880.859	22272
880.986	22162
881.112	22150
881.239	21968
881.366	21778
881.493	21819
881.619	21724
881.746	21614
881.872	21698
881.999	21641
882.125	21618
882.252	21724
882.378	21572
882.505	21747
882.631	21511
882.757	21458
882.883	21386
883.01	21439
883.136	21329
883.262	21287
883.388	21203
883.514	21321
883.64	21488
883.766	21313
883.892	21142
884.018	21051
884.143	21321
884.269	21420
884.395	21074
884.52	20899
884.646	20956
884.772	20902
884.897	20918
885.023	21058
885.148	21081
885.274	21157
885.399	21119
885.524	21066
885.65	21020
885.775	21066
885.9	20975
886.025	21176
886.15	21043
886.275	20967
886.4	20979
886.525	20925
886.65	20845
886.775	20868
886.9	21131
887.025	21165
887.149	20986
887.274	20815
887.399	20705
887.523	20686
887.648	20731
887.773	20739
887.897	20864
888.021	20804
888.146	20678
888.27	20845
888.395	20834
888.519	20765
888.643	20842
888.767	20754
888.891	20720
889.015	20575
889.139	20689
889.263	20530
889.387	20788
889.511	20739
889.635	20731
889.759	20530
889.883	20511
890.006	20541
890.13	20667
890.254	20526
890.377	20450
890.501	20381
890.624	20396
890.748	20461
890.871	20317
890.995	20081
891.118	20103
891.241	20130
891.364	20130
891.488	20237
891.611	20058
891.734	20172
891.857	20180
891.98	20119
892.103	20138
892.226	20199
892.349	20088
892.471	20031
892.594	20031
892.717	20142
892.839	19875
892.962	20081
893.085	20092
893.207	20024
893.33	19974
893.452	19947
893.575	20111
893.697	20012
893.819	20107
893.941	20275
894.064	20115
894.186	19997
894.308	19936
894.43	20221
894.552	20237
894.674	20107
894.796	19875
894.918	19951
895.04	19963
895.161	20119
895.283	20134
895.405	19909
895.526	19963
895.648	20035
895.769	20046
895.891	20122
896.012	20107
896.134	20172
896.255	20016
896.376	20073
896.498	20039
896.619	20073
896.74	20069
896.861	20092
896.982	20278
897.103	20366
897.224	20267
897.345	20256
897.466	20199
897.587	20294
897.708	20328
897.828	20199
897.949	20225
898.07	20180
898.19	20126
898.311	20206
898.431	20172
898.552	20244
898.672	20374
898.792	20263
898.913	20210
899.033	20199
899.153	20134
899.273	19883
899.393	20073
899.513	19989
899.633	20001
899.753	20027
899.873	19978
899.993	20008
900.113	19951
900.232	20092
900.352	20031
900.472	19803
900.591	19826
900.711	19750
900.83	19742
900.95	19830
901.069	19868
901.189	19662
901.308	19476
901.427	19415
901.546	19381
901.665	19506
901.784	19392
901.904	19179
902.023	19225
902.141	18966
902.26	18954
902.379	19076
902.498	18905
902.617	18886
902.735	18943
902.854	19004
902.973	18817
903.091	18620
903.21	18547
903.328	18494
903.446	18521
903.565	18350
903.683	18403
903.801	18338
903.919	18327
904.038	18327
904.156	18178
904.274	18232
904.392	18186
904.51	18091
904.627	18197
904.745	18129
904.863	18216
904.981	17843
905.098	17745
905.216	17843
905.334	17783
905.451	17790
905.569	17832
905.686	17851
905.803	17798
905.921	17577
906.038	17710
906.155	17703
906.272	17528
906.389	17486
906.506	17402
906.623	17372
906.74	17383
906.857	17303
906.974	17239
907.091	17334
907.208	17448
907.324	17341
907.441	17292
907.557	17136
907.674	17029
907.79	16911
907.907	17037
908.023	17109
908.139	17006
908.256	16984
908.372	17037
908.488	16949
908.604	16771
908.72	16797
908.836	16820
908.952	16729
909.068	16839
909.184	16869
909.3	16915
909.415	16805
909.531	16805
909.647	16584
909.762	16531
909.878	16603
909.993	16512
910.108	16542
910.224	16459
910.339	16512
910.454	16280
910.57	16284
910.685	16272
910.8	16546
910.915	16421
911.03	16367
911.145	16090
911.259	16147
911.374	16082
911.489	16032
911.604	15994
911.718	15823
911.833	15865
911.947	15747
912.062	15587
912.176	15823
912.291	15774
912.405	15785
912.519	15903
912.633	15987
912.748	15838
912.862	15804
912.976	15618
913.09	15515
913.204	15644
913.318	15637
913.431	15759
913.545	15686
913.659	15808
913.772	15545
913.886	15431
914	15462
914.113	15545
914.226	15542
914.34	15523
914.453	15306
914.566	15568
914.68	15313
914.793	15313
914.906	15112
915.019	15100
915.132	15020
915.245	15043
915.358	15119
915.47	15051
915.583	15077
915.696	15104
915.809	15184
915.921	15188
916.034	14891
916.146	14998
916.259	14895
916.371	15093
916.483	14990
916.595	14895
916.708	14868
916.82	14853
916.932	14861
917.044	14815
917.156	14849
917.268	14644
917.38	14735
917.491	14758
917.603	14762
917.715	14785
917.826	14750
917.938	14648
918.049	14537
918.161	14518
918.272	14781
918.384	14693
918.495	14640
918.606	14457
918.717	14377
918.828	14549
918.939	14526
919.05	14343
919.161	14438
919.272	14305
919.383	14244
919.494	14389
919.604	14712
919.715	14454
919.826	14412
919.936	14434
920.047	14579
920.157	14408
920.267	14697
920.378	14393
920.488	14374
920.598	14533
920.708	14705
920.818	14415
920.928	14651
921.038	14750
921.148	14788
921.258	14461
921.368	14336
921.477	14240
921.587	14096
921.697	13986
921.806	14130
921.916	13978
922.025	13909
922.134	13856
922.244	13772
922.353	13765
922.462	13658
922.571	13727
922.68	13559
922.789	13457
922.898	13506
923.007	13438
923.116	13506
923.224	13407
923.333	13434
923.442	13434
923.55	13293
923.659	13343
923.767	13365
923.876	13171
923.984	13358
924.092	13156
924.201	13225
924.309	13198
924.417	13225
924.525	13103
924.633	13095
924.741	13955
924.849	12905
924.956	13038
925.064	12951
925.172	12852
925.279	12844
925.387	12947
925.494	12856
925.602	12993
925.709	12856
925.816	12791
925.924	12817
926.031	12943
926.138	12852
926.245	12814
926.352	12696
926.459	12951
926.566	12802
926.673	12768
926.779	12635
926.886	12604
926.993	12475
927.099	12399
927.206	12323
927.312	12380
927.419	12528
927.525	12414
927.631	12498
927.737	12376
927.843	12384
927.95	12167
928.056	12296
928.162	12258
928.267	12258
928.373	12958
928.479	12327
928.585	12175
928.69	12167
928.796	12330
928.901	12045
929.007	12068
929.112	12072
929.218	12095
929.323	12019
929.428	12034
929.533	12190
929.638	11980
929.743	11988
929.848	11935
929.953	11984
930.058	11828
930.163	11665
930.267	11676
930.372	11901
930.477	11630
930.581	11840
930.685	11729
930.79	11532
930.894	11649
930.998	11520
931.103	11649
931.207	11318
931.311	11307
931.415	11212
931.519	10980
931.623	10938
