Data from test_V78500241_1710.txt Node
Date: Fri Mar 25 15:21:45 CST 2022
User: usil
Spectrometer: V785-0024
Trigger mode: 0
Integration Time (sec): 4.000000E-1
Scans to average: 1
Nonlinearity correction enabled: false
Boxcar width: 0
Storing dark spectrum: false
XAxis mode: Wavelengths
Number of Pixels in Spectrum: 1024
>>>>>Begin Spectral Data<<<<<
801.071	27641
801.214	27492
801.356	27405
801.499	27302
801.641	27135
801.783	27176
801.926	27108
802.068	27192
802.211	27184
802.353	27032
802.496	26826
802.638	26880
802.78	26895
802.923	26625
803.065	26640
803.208	26667
803.35	26785
803.492	26887
803.635	27047
803.777	26944
803.919	27043
804.061	27252
804.204	27070
804.346	26963
804.488	26914
804.63	27043
804.773	26883
804.915	27062
805.057	27157
805.199	26902
805.341	27017
805.483	27157
805.626	27112
805.768	26960
805.91	27047
806.052	27077
806.194	27036
806.336	27237
806.478	27017
806.62	27169
806.762	27104
806.904	27420
807.046	27561
807.188	27473
807.33	27431
807.472	27526
807.614	27485
807.756	27534
807.898	27447
808.04	27294
808.182	27359
808.324	27386
808.465	27492
808.607	27690
808.749	27686
808.891	27854
809.033	27880
809.174	27785
809.316	27644
809.458	27663
809.6	27603
809.741	27739
809.883	27785
810.025	27991
810.166	28112
810.308	28032
810.45	27994
810.591	27838
810.733	27698
810.875	27671
811.016	27591
811.158	27526
811.299	27823
811.441	27846
811.582	27945
811.724	27857
811.865	27778
812.007	27625
812.148	27736
812.29	27679
812.431	27918
812.573	28032
812.714	27956
812.855	28314
812.997	28265
813.138	28405
813.279	28344
813.421	28405
813.562	28177
813.703	28120
813.845	27930
813.986	27781
814.127	27576
814.268	27344
814.41	27462
814.551	27435
814.692	27481
814.833	27340
814.974	27359
815.115	27393
815.256	27173
815.397	27241
815.539	27298
815.68	27089
815.821	27146
815.962	27131
816.103	27138
816.244	27043
816.385	27104
816.526	26948
816.666	26769
816.807	26834
816.948	26678
817.089	26724
817.23	26731
817.371	26678
817.512	26724
817.653	26682
817.793	26632
817.934	26689
818.075	26617
818.216	26769
818.356	26648
818.497	26571
818.638	26484
818.778	26442
818.919	26465
819.06	26484
819.2	26575
819.341	26651
819.481	26590
819.622	26792
819.762	26902
819.903	27001
820.043	26758
820.184	26838
820.324	26800
820.465	26845
820.605	26754
820.746	26769
820.886	26693
821.026	26689
821.167	26686
821.307	26819
821.447	26708
821.588	26609
821.728	26514
821.868	26389
822.008	26043
822.149	26161
822.289	26199
822.429	25788
822.569	25868
822.709	25860
822.849	25548
822.99	25537
823.13	25514
823.27	25651
823.41	25426
823.55	25365
823.69	25441
823.83	25567
823.97	25559
824.11	25240
824.25	25263
824.389	25308
824.529	25217
824.669	25278
824.809	25392
824.949	25464
825.089	25346
825.228	25274
825.368	25099
825.508	25194
825.648	25156
825.787	25190
825.927	25236
826.067	25168
826.206	24894
826.346	25152
826.485	25148
826.625	25110
826.765	25160
826.904	25221
827.044	24905
827.183	24856
827.323	24844
827.462	24981
827.601	24913
827.741	24783
827.88	24905
828.02	24631
828.159	24791
828.298	24783
828.437	24920
828.577	24810
828.716	24802
828.855	24749
828.994	24517
829.134	24566
829.273	24601
829.412	24486
829.551	24509
829.69	24673
829.829	24566
829.968	24650
830.107	24768
830.246	24521
830.385	24509
830.524	24361
830.663	24418
830.802	24311
830.941	24182
831.08	24110
831.219	24243
831.357	24262
831.496	24509
831.635	24224
831.774	24155
831.913	24018
832.051	23939
832.19	23878
832.329	23946
832.467	23923
832.606	23836
832.744	23786
832.883	23699
833.022	23824
833.16	23821
833.299	23870
833.437	23866
833.576	23870
833.714	23855
833.852	23878
833.991	23961
834.129	23927
834.267	24034
834.406	24007
834.544	23980
834.682	23859
834.821	23828
834.959	24053
835.097	23897
835.235	23950
835.373	23901
835.511	23927
835.65	23771
835.788	23779
835.926	23657
836.064	23551
836.202	23604
836.34	23726
836.478	23874
836.615	23695
836.753	23748
836.891	23904
837.029	23737
837.167	23684
837.305	23729
837.443	23657
837.58	23570
837.718	23608
837.856	23535
837.993	23589
838.131	23608
838.269	23524
838.406	23554
838.544	23406
838.681	23273
838.819	23083
838.956	23029
839.094	23094
839.231	23181
839.369	23349
839.506	23383
839.643	23345
839.781	22987
839.918	23098
840.055	22965
840.193	23170
840.33	23033
840.467	23086
840.604	23060
840.742	23345
840.879	22927
841.016	22999
841.153	23037
841.29	22980
841.427	23003
841.564	23010
841.701	23109
841.838	22908
841.975	22847
842.112	22900
842.249	22835
842.385	22596
842.522	22915
842.659	22706
842.796	22782
842.933	22755
843.069	22592
843.206	22713
843.343	22759
843.479	22790
843.616	22748
843.752	22687
843.889	22565
844.025	22763
844.162	22561
844.298	22512
844.435	22672
844.571	22500
844.708	22577
844.844	22797
844.98	22569
845.117	22641
845.253	22428
845.389	22375
845.525	22390
845.661	22436
845.798	22405
845.934	22299
846.07	22223
846.206	22291
846.342	22440
846.478	22219
846.614	22150
846.75	21960
846.886	22013
847.022	22059
847.158	21956
847.294	22090
847.429	22090
847.565	21945
847.701	22173
847.837	21762
847.972	21755
848.108	21736
848.244	21827
848.379	21660
848.515	21614
848.65	21564
848.786	21663
848.921	21595
849.057	21739
849.192	21747
849.328	21648
849.463	21641
849.598	21587
849.734	21511
849.869	21496
850.004	21428
850.14	21374
850.275	21249
850.41	21260
850.545	21329
850.68	21287
850.815	21317
850.95	21302
851.085	21564
851.22	21408
851.355	21389
851.49	21252
851.625	21420
851.76	21294
851.895	21138
852.03	21332
852.165	21393
852.299	21325
852.434	21507
852.569	21370
852.703	21435
852.838	21386
852.973	21511
853.107	21511
853.242	21298
853.376	21077
853.511	21081
853.645	21123
853.78	21256
853.914	21131
854.048	21135
854.183	21233
854.317	21207
854.451	21351
854.585	21260
854.72	21176
854.854	21199
854.988	21017
855.122	21317
855.256	20952
855.39	21150
855.524	21317
855.658	21157
855.792	21066
855.926	21165
856.06	21260
856.194	21317
856.327	21104
856.461	21150
856.595	21157
856.729	21138
856.862	21260
856.996	21207
857.13	21264
857.263	21218
857.397	21294
857.53	21146
857.664	21211
857.797	21252
857.931	21264
858.064	21287
858.197	21260
858.331	21119
858.464	21131
858.597	21058
858.731	21146
858.864	21154
858.997	21116
859.13	21123
859.263	21039
859.396	21161
859.529	21150
859.662	21146
859.795	21127
859.928	21218
860.061	21370
860.194	21378
860.327	21260
860.46	21146
860.592	21302
860.725	21397
860.858	21195
860.99	21195
861.123	21150
861.256	21032
861.388	21298
861.521	21903
861.653	21089
861.786	20967
861.918	21001
862.05	21024
862.183	20998
862.315	21119
862.447	21386
862.58	21161
862.712	20868
862.844	20819
862.976	20902
863.108	20830
863.24	21329
863.372	20876
863.504	20868
863.636	20804
863.768	20921
863.9	20887
864.032	20826
864.164	20754
864.296	20937
864.428	21112
864.559	20861
864.691	20948
864.823	20861
864.954	20785
865.086	20838
865.217	20800
865.349	20655
865.48	20830
865.612	20788
865.743	20891
865.875	20853
866.006	20689
866.137	20883
866.269	20735
866.4	20701
866.531	20693
866.662	20594
866.793	20659
866.924	20769
867.055	20659
867.186	20807
867.317	20648
867.448	20708
867.579	20606
867.71	20609
867.841	20663
867.972	20724
868.103	20659
868.233	20743
868.364	20621
868.495	20876
868.625	20845
868.756	21039
868.886	21024
869.017	20979
869.147	21074
869.278	21062
869.408	21058
869.539	21017
869.669	20857
869.799	20994
869.929	21043
870.06	21108
870.19	21370
870.32	21161
870.45	21119
870.58	21401
870.71	21500
870.84	21389
870.97	21416
871.1	21466
871.23	21447
871.36	21538
871.489	21576
871.619	21511
871.749	21545
871.879	21511
872.008	21591
872.138	21523
872.267	21618
872.397	21416
872.526	21492
872.656	21393
872.785	21507
872.915	21549
873.044	21606
873.173	21667
873.303	21652
873.432	21766
873.561	21686
873.69	21583
873.819	21690
873.948	21686
874.077	21606
874.206	21625
874.335	21587
874.464	21720
874.593	21835
874.722	21800
874.851	21892
874.979	21827
875.108	21953
875.237	21789
875.365	21736
875.494	21793
875.623	21941
875.751	21865
875.88	21892
876.008	21793
876.136	21850
876.265	22196
876.393	22310
876.521	22367
876.65	22329
876.778	22173
876.906	22166
877.034	22318
877.162	22268
877.29	22192
877.418	22219
877.546	22200
877.674	22268
877.802	22314
877.93	22200
878.058	22093
878.185	22048
878.313	22135
878.441	22177
878.568	21945
878.696	22135
878.824	22192
878.951	22215
879.079	22261
879.206	22550
879.333	22303
879.461	22211
879.588	22234
879.715	22325
879.842	22436
879.97	22287
880.097	22059
880.224	22036
880.351	22139
880.478	22105
880.605	21953
880.732	21975
880.859	22200
880.986	21945
881.112	22082
881.239	21956
881.366	21701
881.493	21766
881.619	21603
881.746	21553
881.872	21580
881.999	21603
882.125	21447
882.252	21682
882.378	21424
882.505	21644
882.631	21393
882.757	21317
882.883	21325
883.01	21287
883.136	21256
883.262	21150
883.388	21211
883.514	21230
883.64	21458
883.766	21169
883.892	21013
884.018	21047
884.143	21252
884.269	21401
884.395	21062
884.52	20994
884.646	20918
884.772	20868
884.897	20899
885.023	20918
885.148	21005
885.274	21009
885.399	21013
885.524	20971
885.65	20777
885.775	20960
885.9	21001
886.025	21119
886.15	21039
886.275	20785
886.4	20823
886.525	20929
886.65	20819
886.775	20819
886.9	21154
887.025	20986
887.149	20887
887.274	20735
887.399	20758
887.523	20686
887.648	20693
887.773	20735
887.897	20815
888.021	20735
888.146	20617
888.27	20811
888.395	20746
888.519	20682
888.643	20724
888.767	20769
888.891	20571
889.015	20450
889.139	20492
889.263	20503
889.387	20651
889.511	20598
889.635	20629
889.759	20545
889.883	20537
890.006	20488
890.13	20583
890.254	20499
890.377	20484
890.501	20263
890.624	20229
890.748	20377
890.871	20092
890.995	20035
891.118	19940
891.241	20077
891.364	20103
891.488	20286
891.611	20069
891.734	20050
891.857	20126
891.98	20008
892.103	20199
892.226	19951
892.349	19898
892.471	19750
892.594	19917
892.717	20005
892.839	19974
892.962	19940
893.085	19986
893.207	20065
893.33	19879
893.452	19993
893.575	20084
893.697	20039
893.819	20115
893.941	20237
894.064	20020
894.186	19951
894.308	19845
894.43	20073
894.552	20111
894.674	20111
894.796	19974
894.918	19993
895.04	19947
895.161	20058
895.283	20005
895.405	19940
895.526	19955
895.648	19894
895.769	19955
895.891	20069
896.012	20081
896.134	19982
896.255	19921
896.376	20005
896.498	19997
896.619	19989
896.74	19993
896.861	20081
896.982	20275
897.103	20450
897.224	20126
897.345	20240
897.466	20111
897.587	20153
897.708	20218
897.828	20233
897.949	20263
898.07	20050
898.19	20043
898.311	20161
898.431	20081
898.552	20191
898.672	20267
898.792	20210
898.913	20294
899.033	20050
899.153	19974
899.273	19906
899.393	19944
899.513	20084
899.633	19978
899.753	19970
899.873	19845
899.993	19940
900.113	19864
900.232	19963
900.352	19947
900.472	19772
900.591	19731
900.711	19681
900.83	19723
900.95	19742
901.069	19845
901.189	19639
901.308	19373
901.427	19282
901.546	19270
901.665	19312
901.784	19297
901.904	19183
902.023	19072
902.141	18848
902.26	18886
902.379	18939
902.498	18871
902.617	18817
902.735	18848
902.854	18840
902.973	18642
903.091	18639
903.21	18578
903.328	18471
903.446	18311
903.565	18346
903.683	18273
903.801	18216
903.919	18273
904.038	18159
904.156	17969
904.274	18190
904.392	18022
904.51	17984
904.627	18083
904.745	18133
904.863	18106
904.981	17847
905.098	17843
905.216	17764
905.334	17851
905.451	17707
905.569	17695
905.686	17764
905.803	17691
905.921	17493
906.038	17596
906.155	17505
906.272	17452
906.389	17493
906.506	17261
906.623	17246
906.74	17216
906.857	17083
906.974	17311
907.091	17303
907.208	17414
907.324	17216
907.441	17045
907.557	17064
907.674	16972
907.79	16919
907.907	16904
908.023	17052
908.139	17052
908.256	16915
908.372	16987
908.488	16953
908.604	16736
908.72	16672
908.836	16691
908.952	16664
909.068	16828
909.184	16782
909.3	16664
909.415	16694
909.531	16778
909.647	16398
909.762	16352
909.878	16333
909.993	16379
910.108	16363
910.224	16363
910.339	16360
910.454	16268
910.57	16219
910.685	16344
910.8	16402
910.915	16398
911.03	16234
911.145	16021
911.259	16124
911.374	16120
911.489	15941
911.604	15930
911.718	15781
911.833	15789
911.947	15625
912.062	15488
912.176	15770
912.291	15759
912.405	15755
912.519	16013
912.633	15979
912.748	15675
912.862	15736
912.976	15728
913.09	15428
913.204	15549
913.318	15656
913.431	15751
913.545	15686
913.659	15774
913.772	15568
913.886	15408
914	15393
914.113	15530
914.226	15542
914.34	15428
914.453	15344
914.566	15374
914.68	15275
914.793	15237
914.906	15127
915.019	14967
915.132	14963
915.245	15062
915.358	15028
915.47	14967
915.583	14963
915.696	14963
915.809	15119
915.921	15093
916.034	14918
916.146	14861
916.259	14918
916.371	14948
916.483	14883
916.595	14788
916.708	14868
916.82	14876
916.932	14777
917.044	14693
917.156	14804
917.268	14602
917.38	14617
917.491	14579
917.603	14629
917.715	14648
917.826	14754
917.938	14541
918.049	14590
918.161	14613
918.272	14697
918.384	14750
918.495	14610
918.606	14488
918.717	14332
918.828	14412
918.939	14408
919.05	14389
919.161	14442
919.272	14256
919.383	14286
919.494	14541
919.604	14583
919.715	14442
919.826	14290
919.936	14339
920.047	14381
920.157	14343
920.267	14587
920.378	14400
920.488	14233
920.598	14518
920.708	14708
920.818	14518
920.928	14442
921.038	14735
921.148	14629
921.258	14377
921.368	14278
921.477	14191
921.587	14157
921.697	14088
921.806	14172
921.916	13944
922.025	13753
922.134	13772
922.244	13723
922.353	13742
922.462	13582
922.571	13586
922.68	13480
922.789	13419
922.898	13392
923.007	13384
923.116	13430
923.224	13381
923.333	13438
923.442	13240
923.55	13251
923.659	13278
923.767	13259
923.876	13209
923.984	13171
924.092	13080
924.201	13308
924.309	13156
924.417	13149
924.525	13103
924.633	13095
924.741	13837
924.849	12844
924.956	13008
925.064	12833
925.172	12837
925.279	12886
925.387	12798
925.494	12882
925.602	12932
925.709	12840
925.816	12707
925.924	12798
926.031	12848
926.138	12787
926.245	12814
926.352	12764
926.459	12798
926.566	12837
926.673	12665
926.779	12597
926.886	12460
926.993	12426
927.099	12380
927.206	12380
927.312	12388
927.419	12509
927.525	12376
927.631	12388
927.737	12266
927.843	12304
927.95	12110
928.056	12224
928.162	12254
928.267	12304
928.373	12890
928.479	12258
928.585	12019
928.69	12121
928.796	12220
928.901	12095
929.007	11988
929.112	12057
929.218	12022
929.323	11996
929.428	11980
929.533	12007
929.638	11855
929.743	11840
929.848	11904
929.953	11916
930.058	11901
930.163	11570
930.267	11703
930.372	11817
930.477	11630
930.581	11847
930.685	11733
930.79	11516
930.894	11604
930.998	11497
931.103	11547
931.207	11220
931.311	11277
931.415	11178
931.519	10831
931.623	10877
