Data from test_V78500241_125.txt Node
Date: Fri Mar 25 15:10:43 CST 2022
User: usil
Spectrometer: V785-0024
Trigger mode: 0
Integration Time (sec): 4.000000E-1
Scans to average: 1
Nonlinearity correction enabled: false
Boxcar width: 0
Storing dark spectrum: false
XAxis mode: Wavelengths
Number of Pixels in Spectrum: 1024
>>>>>Begin Spectral Data<<<<<
801.071	28360
801.214	28219
801.356	27998
801.499	27899
801.641	27831
801.783	27747
801.926	27671
802.068	27686
802.211	27656
802.353	27622
802.496	27363
802.638	27348
802.78	27359
802.923	27230
803.065	27211
803.208	27332
803.35	27348
803.492	27412
803.635	27526
803.777	27230
803.919	27507
804.061	27907
804.204	27557
804.346	27408
804.488	27378
804.63	27287
804.773	27351
804.915	27401
805.057	27507
805.199	27439
805.341	27435
805.483	27557
805.626	27576
805.768	27450
805.91	27553
806.052	27652
806.194	27523
806.336	27682
806.478	27523
806.62	27542
806.762	27504
806.904	27785
807.046	27934
807.188	27812
807.33	27899
807.472	27945
807.614	27755
807.756	27892
807.898	27785
808.04	27667
808.182	27709
808.324	27530
808.465	27625
808.607	27793
808.749	28029
808.891	28006
809.033	28158
809.174	28162
809.316	28059
809.458	27991
809.6	27899
809.741	28109
809.883	28044
810.025	28295
810.166	28116
810.308	28207
810.45	28097
810.591	28169
810.733	28036
810.875	27876
811.016	27873
811.158	27850
811.299	27964
811.441	28051
811.582	28063
811.724	27930
811.865	28025
812.007	27949
812.148	28055
812.29	27994
812.431	28219
812.573	28166
812.714	28207
812.855	28508
812.997	28413
813.138	28592
813.279	28440
813.421	28341
813.562	28337
813.703	28188
813.845	28131
813.986	27914
814.127	27736
814.268	27424
814.41	27534
814.551	27553
814.692	27606
814.833	27542
814.974	27370
815.115	27580
815.256	27332
815.397	27237
815.539	27515
815.68	27317
815.821	27310
815.962	27367
816.103	27260
816.244	27161
816.385	27005
816.526	27100
816.666	26914
816.807	26667
816.948	26769
817.089	26849
817.23	26750
817.371	26731
817.512	26705
817.653	26788
817.793	26590
817.934	26762
818.075	26720
818.216	26640
818.356	26629
818.497	26503
818.638	26415
818.778	26393
818.919	26355
819.06	26465
819.2	26556
819.341	26590
819.481	26743
819.622	26701
819.762	26967
819.903	26880
820.043	26792
820.184	26716
820.324	26659
820.465	26674
820.605	26826
820.746	26781
820.886	26511
821.026	26781
821.167	26720
821.307	26682
821.447	26598
821.588	26533
821.728	26423
821.868	26290
822.008	26054
822.149	26088
822.289	26027
822.429	25814
822.569	25734
822.709	25757
822.849	25556
822.99	25552
823.13	25529
823.27	25533
823.41	25400
823.55	25293
823.69	25396
823.83	25464
823.97	25240
824.11	25308
824.25	25228
824.389	25069
824.529	25232
824.669	25278
824.809	25297
824.949	25160
825.089	25190
825.228	25050
825.368	25008
825.508	24962
825.648	25099
825.787	25050
825.927	25072
826.067	24795
826.206	25027
826.346	24951
826.485	24939
826.625	24932
826.765	25019
826.904	24966
827.044	24779
827.183	24734
827.323	24745
827.462	24840
827.601	24722
827.741	24631
827.88	24795
828.02	24509
828.159	24597
828.298	24563
828.437	24684
828.577	24490
828.716	24669
828.855	24540
828.994	24369
829.134	24304
829.273	24437
829.412	24304
829.551	24403
829.69	24323
829.829	24216
829.968	24388
830.107	24361
830.246	24319
830.385	24296
830.524	24228
830.663	23946
830.802	24038
830.941	23840
831.08	24034
831.219	23988
831.357	23984
831.496	23946
831.635	23878
831.774	23855
831.913	23805
832.051	23775
832.19	23676
832.329	23775
832.467	23505
832.606	23547
832.744	23539
832.883	23615
833.022	23406
833.16	23493
833.299	23703
833.437	23573
833.576	23528
833.714	23554
833.852	23623
833.991	23619
834.129	23608
834.267	23547
834.406	23463
834.544	23589
834.682	23619
834.821	23486
834.959	23699
835.097	23531
835.235	23573
835.373	23509
835.511	23474
835.65	23490
835.788	23372
835.926	23322
836.064	23075
836.202	23231
836.34	23345
836.478	23478
836.615	23322
836.753	23360
836.891	23318
837.029	23307
837.167	23330
837.305	23178
837.443	23136
837.58	23246
837.718	23269
837.856	23269
837.993	23094
838.131	23143
838.269	23086
838.406	23113
838.544	23003
838.681	22744
838.819	22812
838.956	22626
839.094	22622
839.231	22748
839.369	22729
839.506	23071
839.643	22828
839.781	22660
839.918	22508
840.055	22542
840.193	22497
840.33	22573
840.467	22550
840.604	22645
840.742	22763
840.879	22398
841.016	22261
841.153	22363
841.29	22546
841.427	22489
841.564	22557
841.701	22531
841.838	22337
841.975	22417
842.112	22363
842.249	22265
842.385	22265
842.522	22379
842.659	22299
842.796	22223
842.933	22265
843.069	22207
843.206	22181
843.343	22109
843.479	22238
843.616	22177
843.752	21876
843.889	22044
844.025	22131
844.162	21960
844.298	22101
844.435	21953
844.571	21884
844.708	22029
844.844	22112
844.98	22025
845.117	22040
845.253	21979
845.389	21850
845.525	21918
845.661	21743
845.798	21625
845.934	21816
846.07	21698
846.206	21644
846.342	21682
846.478	21690
846.614	21386
846.75	21408
846.886	21401
847.022	21424
847.158	21431
847.294	21408
847.429	21443
847.565	21454
847.701	21660
847.837	21104
847.972	21089
848.108	21112
848.244	21169
848.379	21001
848.515	20941
848.65	20956
848.786	21043
848.921	21024
849.057	21051
849.192	21138
849.328	21127
849.463	20941
849.598	20929
849.734	20899
849.869	20868
850.004	20697
850.14	20727
850.275	20807
850.41	20598
850.545	20640
850.68	20750
850.815	20659
850.95	20526
851.085	20895
851.22	20807
851.355	20773
851.49	20655
851.625	20598
851.76	20629
851.895	20598
852.03	20640
852.165	20640
852.299	20716
852.434	20731
852.569	20746
852.703	20583
852.838	20758
852.973	20819
853.107	20845
853.242	20743
853.376	20415
853.511	20374
853.645	20450
853.78	20651
853.914	20613
854.048	20415
854.183	20404
854.317	20602
854.451	20727
854.585	20533
854.72	20476
854.854	20533
854.988	20571
855.122	20530
855.256	20408
855.39	20560
855.524	20579
855.658	20541
855.792	20541
855.926	20632
856.06	20613
856.194	20552
856.327	20404
856.461	20469
856.595	20469
856.729	20438
856.862	20708
856.996	20511
857.13	20644
857.263	20621
857.397	20579
857.53	20469
857.664	20613
857.797	20613
857.931	20537
858.064	20434
858.197	20648
858.331	20427
858.464	20385
858.597	20370
858.731	20492
858.864	20404
858.997	20396
859.13	20473
859.263	20488
859.396	20507
859.529	20450
859.662	20404
859.795	20541
859.928	20465
860.061	20629
860.194	20651
860.327	20568
860.46	20484
860.592	20530
860.725	20556
860.858	20640
860.99	20480
861.123	20324
861.256	20290
861.388	20492
861.521	21222
861.653	20355
861.786	20263
861.918	20328
862.05	20423
862.183	20514
862.315	20442
862.447	20450
862.58	20412
862.712	20244
862.844	20126
862.976	20176
863.108	20187
863.24	20526
863.372	20073
863.504	20168
863.636	20077
863.768	20305
863.9	20233
864.032	20035
864.164	20107
864.296	20202
864.428	20343
864.559	20199
864.691	20218
864.823	20050
864.954	20115
865.086	20122
865.217	20065
865.349	20046
865.48	19944
865.612	20073
865.743	20126
865.875	19997
866.006	20046
866.137	20111
866.269	20088
866.4	20024
866.531	19944
866.662	19837
866.793	19955
866.924	20024
867.055	20073
867.186	19928
867.317	19902
867.448	19860
867.579	19921
867.71	19921
867.841	20050
867.972	20012
868.103	20035
868.233	19982
868.364	20012
868.495	20020
868.625	20237
868.756	20404
868.886	20130
869.017	20191
869.147	20298
869.278	20218
869.408	20313
869.539	20199
869.669	20278
869.799	20366
869.929	20358
870.06	20389
870.19	20454
870.32	20511
870.45	20587
870.58	20583
870.71	20758
870.84	20640
870.97	20644
871.1	20655
871.23	20731
871.36	20777
871.489	20663
871.619	20838
871.749	20811
871.879	20971
872.008	20914
872.138	20834
872.267	20773
872.397	20716
872.526	20629
872.656	20590
872.785	20503
872.915	20819
873.044	20857
873.173	20815
873.303	20906
873.432	20895
873.561	20880
873.69	20941
873.819	20880
873.948	20952
874.077	20902
874.206	20811
874.335	20823
874.464	20998
874.593	21070
874.722	20990
874.851	21070
874.979	21077
875.108	21081
875.237	21123
875.365	21032
875.494	21127
875.623	21104
875.751	21112
875.88	21062
876.008	21211
876.136	21252
876.265	21622
876.393	21481
876.521	21466
876.65	21561
876.778	21488
876.906	21431
877.034	21386
877.162	21431
877.29	21363
877.418	21443
877.546	21488
877.674	21428
877.802	21466
877.93	21549
878.058	21348
878.185	21184
878.313	21397
878.441	21469
878.568	21214
878.696	21481
878.824	21435
878.951	21481
879.079	21542
879.206	21667
879.333	21637
879.461	21462
879.588	21557
879.715	21705
879.842	21717
879.97	21492
880.097	21325
880.224	21233
880.351	21317
880.478	21260
880.605	21272
880.732	21302
880.859	21576
880.986	21302
881.112	21283
881.239	21135
881.366	20979
881.493	20960
881.619	20785
881.746	20868
881.872	20731
881.999	20906
882.125	20743
882.252	20830
882.378	20682
882.505	20929
882.631	20708
882.757	20625
882.883	20659
883.01	20587
883.136	20526
883.262	20480
883.388	20480
883.514	20560
883.64	20583
883.766	20564
883.892	20358
884.018	20438
884.143	20560
884.269	20632
884.395	20389
884.52	20282
884.646	20267
884.772	20138
884.897	19989
885.023	20305
885.148	20434
885.274	20282
885.399	20309
885.524	20275
885.65	20240
885.775	20324
885.9	20176
886.025	20240
886.15	20252
886.275	20202
886.4	20206
886.525	20206
886.65	20149
886.775	20092
886.9	20290
887.025	20473
887.149	20145
887.274	20012
887.399	19883
887.523	19947
887.648	19963
887.773	19940
887.897	20005
888.021	19989
888.146	20020
888.27	20100
888.395	20096
888.519	19890
888.643	19955
888.767	19967
888.891	19932
889.015	19772
889.139	19780
889.263	19750
889.387	19902
889.511	20069
889.635	19791
889.759	19708
889.883	19776
890.006	19875
890.13	19788
890.254	19681
890.377	19738
890.501	19499
890.624	19548
890.748	19575
890.871	19464
890.995	19411
891.118	19289
891.241	19460
891.364	19430
891.488	19521
891.611	19270
891.734	19365
891.857	19339
891.98	19362
892.103	19464
892.226	19373
892.349	19247
892.471	19240
892.594	19270
892.717	19278
892.839	19236
892.962	19285
893.085	19373
893.207	19285
893.33	19209
893.452	19240
893.575	19285
893.697	19209
893.819	19381
893.941	19460
894.064	19422
894.186	19019
894.308	19232
894.43	19324
894.552	19472
894.674	19445
894.796	19175
894.918	19255
895.04	19354
895.161	19449
895.283	19396
895.405	19179
895.526	19312
895.648	19270
895.769	19304
895.891	19331
896.012	19480
896.134	19274
896.255	19430
896.376	19278
896.498	19282
896.619	19392
896.74	19316
896.861	19426
896.982	19609
897.103	19791
897.224	19578
897.345	19597
897.466	19388
897.587	19510
897.708	19753
897.828	19594
897.949	19510
898.07	19240
898.19	19495
898.311	19666
898.431	19491
898.552	19529
898.672	19616
898.792	19559
898.913	19438
899.033	19373
899.153	19320
899.273	19236
899.393	19316
899.513	19221
899.633	19259
899.753	19384
899.873	19247
899.993	19293
900.113	19156
900.232	19255
900.352	19168
900.472	19126
900.591	19008
900.711	19050
900.83	19046
900.95	19126
901.069	19072
901.189	19031
901.308	18749
901.427	18692
901.546	18696
901.665	18646
901.784	18681
901.904	18608
902.023	18342
902.141	18129
902.26	18174
902.379	18266
902.498	18194
902.617	18133
902.735	18205
902.854	18026
902.973	18022
903.091	17893
903.21	17866
903.328	17843
903.446	17752
903.565	17691
903.683	17687
903.801	17592
903.919	17634
904.038	17642
904.156	17414
904.274	17497
904.392	17444
904.51	17421
904.627	17364
904.745	17444
904.863	17539
904.981	17170
905.098	17060
905.216	17143
905.334	17132
905.451	17079
905.569	17025
905.686	17071
905.803	17010
905.921	16908
906.038	16980
906.155	16972
906.272	16854
906.389	16793
906.506	16679
906.623	16637
906.74	16577
906.857	16634
906.974	16497
907.091	16717
907.208	16755
907.324	16675
907.441	16512
907.557	16428
907.674	16200
907.79	16322
907.907	16242
908.023	16390
908.139	16242
908.256	16234
908.372	16215
908.488	16295
908.604	16059
908.72	15911
908.836	16093
908.952	16071
909.068	16067
909.184	16051
909.3	15972
909.415	16051
909.531	15953
909.647	15835
909.762	15793
909.878	15728
909.993	15701
910.108	15755
910.224	15705
910.339	15717
910.454	15553
910.57	15557
910.685	15473
910.8	15705
910.915	15660
911.03	15488
911.145	15348
911.259	15294
911.374	15351
911.489	15233
911.604	15142
911.718	15047
911.833	14994
911.947	14910
912.062	14788
912.176	15097
912.291	14967
912.405	14979
912.519	15173
912.633	15214
912.748	15074
912.862	14982
912.976	14876
913.09	14762
913.204	14834
913.318	14781
913.431	14842
913.545	14937
913.659	14975
913.772	14792
913.886	14777
914	14705
914.113	14902
914.226	14720
914.34	14735
914.453	14583
914.566	14819
914.68	14648
914.793	14632
914.906	14389
915.019	14358
915.132	14278
915.245	14278
915.358	14336
915.47	14434
915.583	14412
915.696	14385
915.809	14511
915.921	14461
916.034	14229
916.146	14191
916.259	14195
916.371	14206
916.483	14263
916.595	14164
916.708	14084
916.82	14126
916.932	14111
917.044	14161
917.156	14073
917.268	13967
917.38	14039
917.491	14012
917.603	13921
917.715	14065
917.826	14081
917.938	13894
918.049	13887
918.161	13993
918.272	14024
918.384	14008
918.495	13940
918.606	13719
918.717	13700
918.828	13769
918.939	13822
919.05	13658
919.161	13712
919.272	13506
919.383	13647
919.494	13704
919.604	13883
919.715	13833
919.826	13605
919.936	13708
920.047	13811
920.157	13734
920.267	13906
920.378	13731
920.488	13689
920.598	13951
920.708	14050
920.818	13811
920.928	13780
921.038	13970
921.148	13955
921.258	13677
921.368	13590
921.477	13529
921.587	13403
921.697	13331
921.806	13521
921.916	13403
922.025	13171
922.134	13175
922.244	13133
922.353	13122
922.462	12970
922.571	12871
922.68	12753
922.789	12696
922.898	12760
923.007	12559
923.116	12825
923.224	12635
923.333	12688
923.442	12540
923.55	12544
923.659	12574
923.767	12646
923.876	12426
923.984	12563
924.092	12490
924.201	12483
924.309	12574
924.417	12525
924.525	12426
924.633	12452
924.741	13236
924.849	12220
924.956	12391
925.064	12300
925.172	12140
925.279	12136
925.387	12213
925.494	12213
925.602	12308
925.709	12277
925.816	12133
925.924	12247
926.031	12232
926.138	12194
926.245	12216
926.352	12068
926.459	12228
926.566	12194
926.673	12064
926.779	12015
926.886	12015
926.993	11882
927.099	11809
927.206	11764
927.312	11741
927.419	11813
927.525	11824
927.631	11817
927.737	11760
927.843	11695
927.95	11471
928.056	11661
928.162	11661
928.267	11726
928.373	12136
928.479	11752
928.585	11455
928.69	11577
928.796	11589
928.901	11539
929.007	11387
929.112	11528
929.218	11478
929.323	11379
929.428	11402
929.533	11486
929.638	11429
929.743	11307
929.848	11497
929.953	11265
930.058	11223
930.163	11033
930.267	11075
930.372	11296
930.477	11052
930.581	11258
930.685	11090
930.79	10965
930.894	10942
930.998	10968
931.103	11098
931.207	10740
931.311	10668
931.415	10519
931.519	10428
931.623	10299
