Data from test_V78500241_2264.txt Node
Date: Fri Mar 25 15:25:37 CST 2022
User: usil
Spectrometer: V785-0024
Trigger mode: 0
Integration Time (sec): 4.000000E-1
Scans to average: 1
Nonlinearity correction enabled: false
Boxcar width: 0
Storing dark spectrum: false
XAxis mode: Wavelengths
Number of Pixels in Spectrum: 1024
>>>>>Begin Spectral Data<<<<<
801.071	27648
801.214	27530
801.356	27447
801.499	27233
801.641	27245
801.783	27047
801.926	27203
802.068	27188
802.211	27093
802.353	27119
802.496	26701
802.638	26796
802.78	26743
802.923	26667
803.065	26769
803.208	26811
803.35	26686
803.492	26940
803.635	26849
803.777	26918
803.919	26929
804.061	27283
804.204	27017
804.346	26857
804.488	26819
804.63	26914
804.773	26933
804.915	27036
805.057	27047
805.199	26891
805.341	27070
805.483	27039
805.626	27100
805.768	26979
805.91	27131
806.052	27047
806.194	27017
806.336	27256
806.478	27047
806.62	27013
806.762	27245
806.904	27363
807.046	27686
807.188	27450
807.33	27454
807.472	27663
807.614	27496
807.756	27504
807.898	27355
808.04	27218
808.182	27401
808.324	27313
808.465	27348
808.607	27675
808.749	27705
808.891	27736
809.033	27930
809.174	27808
809.316	27698
809.458	27663
809.6	27599
809.741	27690
809.883	27755
810.025	27892
810.166	28055
810.308	27941
810.45	27979
810.591	27861
810.733	27759
810.875	27622
811.016	27618
811.158	27603
811.299	27720
811.441	27785
811.582	27816
811.724	27606
811.865	27739
812.007	27766
812.148	27652
812.29	27625
812.431	27861
812.573	27998
812.714	28006
812.855	28162
812.997	28360
813.138	28440
813.279	28394
813.421	28109
813.562	28078
813.703	28013
813.845	27873
813.986	27705
814.127	27443
814.268	27481
814.41	27325
814.551	27408
814.692	27287
814.833	27359
814.974	27477
815.115	27462
815.256	27332
815.397	27165
815.539	27142
815.68	27199
815.821	27047
815.962	27077
816.103	27233
816.244	26998
816.385	27013
816.526	26853
816.666	26811
816.807	26705
816.948	26556
817.089	26708
817.23	26617
817.371	26686
817.512	26636
817.653	26743
817.793	26606
817.934	26575
818.075	26754
818.216	26705
818.356	26560
818.497	26537
818.638	26278
818.778	26320
818.919	26678
819.06	26461
819.2	26537
819.341	26727
819.481	26708
819.622	26712
819.762	26940
819.903	26826
820.043	26819
820.184	26697
820.324	26758
820.465	26891
820.605	26758
820.746	26678
820.886	26480
821.026	26644
821.167	26762
821.307	26853
821.447	26617
821.588	26564
821.728	26507
821.868	26317
822.008	26134
822.149	26126
822.289	26115
822.429	25841
822.569	25746
822.709	25761
822.849	25715
822.99	25712
823.13	25655
823.27	25468
823.41	25487
823.55	25434
823.69	25373
823.83	25483
823.97	25312
824.11	25251
824.25	25141
824.389	25164
824.529	25354
824.669	25209
824.809	25346
824.949	25293
825.089	25430
825.228	25251
825.368	25103
825.508	25034
825.648	25118
825.787	25183
825.927	25209
826.067	25137
826.206	24977
826.346	25183
826.485	25133
826.625	24992
826.765	25228
826.904	25194
827.044	24909
827.183	24951
827.323	24852
827.462	24882
827.601	24935
827.741	24837
827.88	24848
828.02	24745
828.159	24814
828.298	24973
828.437	24916
828.577	24806
828.716	24886
828.855	24897
828.994	24661
829.134	24536
829.273	24574
829.412	24471
829.551	24525
829.69	24521
829.829	24544
829.968	24540
830.107	24703
830.246	24585
830.385	24437
830.524	24388
830.663	24342
830.802	24292
830.941	24167
831.08	24087
831.219	24216
831.357	24296
831.496	24407
831.635	24045
831.774	24091
831.913	24117
832.051	23992
832.19	23908
832.329	23980
832.467	23783
832.606	23851
832.744	23790
832.883	23821
833.022	23771
833.16	23767
833.299	23752
833.437	23893
833.576	23821
833.714	23916
833.852	24003
833.991	23859
834.129	23874
834.267	23996
834.406	23893
834.544	23969
834.682	23901
834.821	23863
834.959	24011
835.097	23790
835.235	23893
835.373	23969
835.511	23733
835.65	23828
835.788	23638
835.926	23577
836.064	23539
836.202	23604
836.34	23771
836.478	23847
836.615	23687
836.753	23783
836.891	23863
837.029	23699
837.167	23710
837.305	23547
837.443	23646
837.58	23433
837.718	23608
837.856	23649
837.993	23421
838.131	23482
838.269	23402
838.406	23410
838.544	23307
838.681	23402
838.819	23071
838.956	23064
839.094	22946
839.231	23094
839.369	23159
839.506	23368
839.643	23303
839.781	22980
839.918	22991
840.055	22930
840.193	22896
840.33	22938
840.467	22980
840.604	23022
840.742	23197
840.879	22691
841.016	22854
841.153	22786
841.29	22938
841.427	22934
841.564	22869
841.701	22980
841.838	22972
841.975	22790
842.112	22987
842.249	22744
842.385	22713
842.522	22835
842.659	22675
842.796	22618
842.933	22611
843.069	22668
843.206	22725
843.343	22835
843.479	22694
843.616	22748
843.752	22504
843.889	22440
844.025	22569
844.162	22459
844.298	22538
844.435	22497
844.571	22375
844.708	22455
844.844	22535
844.98	22622
845.117	22596
845.253	22371
845.389	22421
845.525	22348
845.661	22352
845.798	22280
845.934	22246
846.07	22143
846.206	22192
846.342	22272
846.478	22185
846.614	21960
846.75	21930
846.886	22010
847.022	22017
847.158	22021
847.294	21953
847.429	21960
847.565	21956
847.701	22185
847.837	21644
847.972	21667
848.108	21785
848.244	21785
848.379	21618
848.515	21515
848.65	21447
848.786	21439
848.921	21572
849.057	21572
849.192	21553
849.328	21587
849.463	21530
849.598	21424
849.734	21466
849.869	21363
850.004	21260
850.14	21291
850.275	21378
850.41	21161
850.545	21157
850.68	21332
850.815	21336
850.95	21298
851.085	21507
851.22	21237
851.355	21336
851.49	21252
851.625	21272
851.76	21157
851.895	21237
852.03	21256
852.165	21222
852.299	21351
852.434	21332
852.569	21291
852.703	21367
852.838	21291
852.973	21359
853.107	21447
853.242	21222
853.376	21298
853.511	20994
853.645	21013
853.78	21260
853.914	21036
854.048	21135
854.183	21077
854.317	21237
854.451	21173
854.585	21131
854.72	21047
854.854	21192
854.988	20960
855.122	21055
855.256	21047
855.39	21135
855.524	21135
855.658	21283
855.792	21108
855.926	21150
856.06	21070
856.194	21150
856.327	21066
856.461	21074
856.595	21173
856.729	21100
856.862	21233
856.996	21188
857.13	21157
857.263	21252
857.397	21203
857.53	21135
857.664	21009
857.797	21150
857.931	21218
858.064	21203
858.197	21154
858.331	21112
858.464	21066
858.597	20975
858.731	21104
858.864	21081
858.997	21169
859.13	21089
859.263	21093
859.396	21165
859.529	21112
859.662	21108
859.795	21062
859.928	21245
860.061	21226
860.194	21241
860.327	21184
860.46	21127
860.592	21176
860.725	21306
860.858	21298
860.99	21032
861.123	20944
861.256	21062
861.388	21207
861.521	21842
861.653	21039
861.786	20933
861.918	20880
862.05	20910
862.183	21146
862.315	21070
862.447	21058
862.58	20979
862.712	20868
862.844	20735
862.976	20918
863.108	20952
863.24	21104
863.372	20796
863.504	20849
863.636	20830
863.768	20914
863.9	20887
864.032	20708
864.164	20800
864.296	20834
864.428	20979
864.559	20967
864.691	20823
864.823	20838
864.954	20796
865.086	20788
865.217	20701
865.349	20629
865.48	20804
865.612	20743
865.743	20845
865.875	20670
866.006	20739
866.137	20720
866.269	20765
866.4	20796
866.531	20629
866.662	20594
866.793	20522
866.924	20670
867.055	20724
867.186	20655
867.317	20640
867.448	20651
867.579	20693
867.71	20670
867.841	20488
867.972	20606
868.103	20663
868.233	20724
868.364	20629
868.495	20838
868.625	20929
868.756	21047
868.886	20834
869.017	20811
869.147	20982
869.278	21009
869.408	20864
869.539	20960
869.669	20986
869.799	20826
869.929	21001
870.06	20925
870.19	21180
870.32	21127
870.45	21237
870.58	21199
870.71	21272
870.84	21310
870.97	21310
871.1	21264
871.23	21485
871.36	21431
871.489	21367
871.619	21515
871.749	21492
871.879	21488
872.008	21549
872.138	21549
872.267	21420
872.397	21428
872.526	21310
872.656	21302
872.785	21454
872.915	21504
873.044	21576
873.173	21564
873.303	21428
873.432	21614
873.561	21591
873.69	21466
873.819	21466
873.948	21530
874.077	21542
874.206	21401
874.335	21507
874.464	21511
874.593	21747
874.722	21701
874.851	21739
874.979	21755
875.108	21766
875.237	21694
875.365	21587
875.494	21701
875.623	21827
875.751	21679
875.88	21701
876.008	21831
876.136	21911
876.265	22105
876.393	22379
876.521	22219
876.65	22177
876.778	22044
876.906	22086
877.034	21937
877.162	22044
877.29	22070
877.418	22040
877.546	22154
877.674	22143
877.802	22070
877.93	22032
878.058	22055
878.185	21918
878.313	22093
878.441	22120
878.568	22006
878.696	21964
878.824	22154
878.951	22082
879.079	22230
879.206	22310
879.333	22219
879.461	22204
879.588	22188
879.715	22173
879.842	22386
879.97	22124
880.097	21979
880.224	21888
880.351	22025
880.478	21842
880.605	21972
880.732	21873
880.859	22105
880.986	21854
881.112	21854
881.239	21903
881.366	21576
881.493	21458
881.619	21439
881.746	21595
881.872	21515
881.999	21294
882.125	21469
882.252	21431
882.378	21313
882.505	21656
882.631	21268
882.757	21222
882.883	21245
883.01	21169
883.136	21203
883.262	21100
883.388	20967
883.514	21264
883.64	21211
883.766	21081
883.892	21017
884.018	20914
884.143	21245
884.269	21154
884.395	20838
884.52	20845
884.646	20941
884.772	20845
884.897	20785
885.023	20868
885.148	20967
885.274	20948
885.399	21043
885.524	20921
885.65	20796
885.775	20830
885.9	20712
886.025	20933
886.15	20876
886.275	20777
886.4	20705
886.525	20804
886.65	20838
886.775	20689
886.9	20944
887.025	21089
887.149	20796
887.274	20621
887.399	20598
887.523	20526
887.648	20552
887.773	20606
887.897	20594
888.021	20613
888.146	20488
888.27	20583
888.395	20716
888.519	20674
888.643	20568
888.767	20693
888.891	20427
889.015	20465
889.139	20393
889.263	20404
889.387	20526
889.511	20632
889.635	20594
889.759	20332
889.883	20454
890.006	20461
890.13	20480
890.254	20324
890.377	20294
890.501	20050
890.624	20183
890.748	20202
890.871	20092
890.995	19959
891.118	19921
891.241	19967
891.364	20016
891.488	20008
891.611	20008
891.734	19978
891.857	20092
891.98	19909
892.103	20012
892.226	19890
892.349	19890
892.471	19734
892.594	19890
892.717	19894
892.839	19830
892.962	19944
893.085	19868
893.207	19963
893.33	19780
893.452	19700
893.575	19902
893.697	19894
893.819	20122
893.941	20054
894.064	19951
894.186	19890
894.308	19841
894.43	19955
894.552	19993
894.674	19936
894.796	19807
894.918	19830
895.04	19833
895.161	19955
895.283	19959
895.405	19807
895.526	19864
895.648	19974
895.769	19879
895.891	19890
896.012	19974
896.134	20008
896.255	19913
896.376	19822
896.498	19765
896.619	19989
896.74	19902
896.861	20024
896.982	20271
897.103	20374
897.224	20126
897.345	20157
897.466	20027
897.587	20126
897.708	20358
897.828	20244
897.949	19978
898.07	19894
898.19	20043
898.311	20221
898.431	20103
898.552	20130
898.672	20100
898.792	20233
898.913	20142
899.033	20001
899.153	19803
899.273	19826
899.393	19959
899.513	19909
899.633	20001
899.753	19890
899.873	19708
899.993	19875
900.113	19765
900.232	19871
900.352	19769
900.472	19753
900.591	19590
900.711	19727
900.83	19632
900.95	19750
901.069	19712
901.189	19491
901.308	19266
901.427	19206
901.546	19263
901.665	19304
901.784	19198
901.904	19110
902.023	18977
902.141	18821
902.26	18661
902.379	18859
902.498	18730
902.617	18665
902.735	18707
902.854	18738
902.973	18719
903.091	18471
903.21	18418
903.328	18452
903.446	18289
903.565	18254
903.683	18239
903.801	18148
903.919	18133
904.038	18254
904.156	18041
904.274	18098
904.392	17980
904.51	18045
904.627	17965
904.745	18019
904.863	18034
904.981	17786
905.098	17790
905.216	17638
905.334	17729
905.451	17733
905.569	17767
905.686	17703
905.803	17676
905.921	17520
906.038	17554
906.155	17490
906.272	17391
906.389	17341
906.506	17246
906.623	17136
906.74	17185
906.857	17155
906.974	17056
907.091	17181
907.208	17379
907.324	17250
907.441	17022
907.557	16923
907.674	16949
907.79	16862
907.907	16839
908.023	16927
908.139	16919
908.256	16885
908.372	16797
908.488	16873
908.604	16691
908.72	16626
908.836	16641
908.952	16622
909.068	16786
909.184	16717
909.3	16660
909.415	16687
909.531	16565
909.647	16394
909.762	16360
909.878	16299
909.993	16333
910.108	16386
910.224	16219
910.339	16447
910.454	16234
910.57	16215
910.685	16021
910.8	16284
910.915	16276
911.03	16169
911.145	16025
911.259	15918
911.374	16040
911.489	15831
911.604	15747
911.718	15641
911.833	15785
911.947	15538
912.062	15485
912.176	15618
912.291	15682
912.405	15641
912.519	15800
912.633	15823
912.748	15637
912.862	15705
912.976	15557
913.09	15382
913.204	15454
913.318	15557
913.431	15629
913.545	15496
913.659	15568
913.772	15481
913.886	15363
914	15363
914.113	15435
914.226	15435
914.34	15306
914.453	15135
914.566	15321
914.68	15176
914.793	15085
914.906	14941
915.019	14933
915.132	14826
915.245	14895
915.358	14906
915.47	14887
915.583	14952
915.696	14948
915.809	15013
915.921	15024
916.034	14853
916.146	14758
916.259	14819
916.371	14804
916.483	14804
916.595	14746
916.708	14743
916.82	14785
916.932	14758
917.044	14834
917.156	14689
917.268	14594
917.38	14590
917.491	14530
917.603	14568
917.715	14667
917.826	14640
917.938	14446
918.049	14434
918.161	14560
918.272	14625
918.384	14750
918.495	14522
918.606	14332
918.717	14199
918.828	14396
918.939	14313
919.05	14244
919.161	14214
919.272	14164
919.383	14233
919.494	14408
919.604	14461
919.715	14267
919.826	14290
919.936	14214
920.047	14385
920.157	14358
920.267	14503
920.378	14351
920.488	14259
920.598	14484
920.708	14568
920.818	14480
920.928	14514
921.038	14564
921.148	14530
921.258	14237
921.368	14111
921.477	14069
921.587	14043
921.697	13989
921.806	14031
921.916	13970
922.025	13765
922.134	13696
922.244	13677
922.353	13700
922.462	13590
922.571	13457
922.68	13392
922.789	13354
922.898	13396
923.007	13236
923.116	13422
923.224	13232
923.333	13346
923.442	13331
923.55	13156
923.659	13091
923.767	13304
923.876	13099
923.984	13145
924.092	13072
924.201	13095
924.309	13019
924.417	13061
924.525	12951
924.633	13019
924.741	13753
924.849	12802
924.956	12848
925.064	12749
925.172	12726
925.279	12726
925.387	12798
925.494	12802
925.602	12913
925.709	12726
925.816	12631
925.924	12707
926.031	12764
926.138	12814
926.245	12715
926.352	12623
926.459	12764
926.566	12662
926.673	12620
926.779	12441
926.886	12509
926.993	12391
927.099	12380
927.206	12391
927.312	12357
927.419	12437
927.525	12384
927.631	12414
927.737	12224
927.843	12228
927.95	12072
928.056	12136
928.162	12152
928.267	12247
928.373	12833
928.479	12251
928.585	12026
928.69	12117
928.796	12079
928.901	11935
929.007	11802
929.112	12060
929.218	11999
929.323	11969
929.428	11912
929.533	12049
929.638	11878
929.743	11851
929.848	11916
929.953	11866
930.058	11649
930.163	11577
930.267	11642
930.372	11726
930.477	11543
930.581	11737
930.685	11672
930.79	11520
930.894	11554
930.998	11425
931.103	11589
931.207	11311
931.311	11170
931.415	11098
931.519	10904
931.623	10828
