Data from test_V78500241_165.txt Node
Date: Fri Mar 25 15:11:00 CST 2022
User: usil
Spectrometer: V785-0024
Trigger mode: 0
Integration Time (sec): 4.000000E-1
Scans to average: 1
Nonlinearity correction enabled: false
Boxcar width: 0
Storing dark spectrum: false
XAxis mode: Wavelengths
Number of Pixels in Spectrum: 1024
>>>>>Begin Spectral Data<<<<<
801.071	27823
801.214	27759
801.356	27747
801.499	27477
801.641	27473
801.783	27458
801.926	27450
802.068	27393
802.211	27306
802.353	27287
802.496	27024
802.638	26975
802.78	27192
802.923	27047
803.065	26940
803.208	26842
803.35	26994
803.492	27108
803.635	27032
803.777	27074
803.919	27245
804.061	27386
804.204	27199
804.346	26986
804.488	26921
804.63	27020
804.773	26906
804.915	27096
805.057	27169
805.199	27024
805.341	26979
805.483	27214
805.626	27051
805.768	27104
805.91	27252
806.052	27138
806.194	27192
806.336	27317
806.478	27085
806.62	27180
806.762	27287
806.904	27431
807.046	27553
807.188	27481
807.33	27595
807.472	27625
807.614	27393
807.756	27450
807.898	27359
808.04	27245
808.182	27291
808.324	27264
808.465	27439
808.607	27660
808.749	27789
808.891	27644
809.033	27956
809.174	27846
809.316	27641
809.458	27842
809.6	27804
809.741	27728
809.883	27736
810.025	27975
810.166	27941
810.308	27907
810.45	27873
810.591	27648
810.733	27606
810.875	27724
811.016	27671
811.158	27538
811.299	27633
811.441	27751
811.582	27751
811.724	27701
811.865	27698
812.007	27603
812.148	27526
812.29	27599
812.431	27747
812.573	27907
812.714	28032
812.855	28067
812.997	28181
813.138	28409
813.279	28200
813.421	28128
813.562	28036
813.703	27914
813.845	27686
813.986	27572
814.127	27454
814.268	27207
814.41	27287
814.551	27222
814.692	27218
814.833	27218
814.974	27116
815.115	27066
815.256	27112
815.397	27165
815.539	27039
815.68	27036
815.821	26815
815.962	27024
816.103	27104
816.244	26944
816.385	26720
816.526	26796
816.666	26476
816.807	26427
816.948	26541
817.089	26564
817.23	26514
817.371	26514
817.512	26473
817.653	26336
817.793	26400
817.934	26408
818.075	26465
818.216	26400
818.356	26362
818.497	26389
818.638	26168
818.778	25940
818.919	26073
819.06	26024
819.2	26282
819.341	26324
819.481	26218
819.622	26427
819.762	26594
819.903	26636
820.043	26408
820.184	26484
820.324	26374
820.465	26404
820.605	26370
820.746	26442
820.886	26317
821.026	26309
821.167	26320
821.307	26598
821.447	26324
821.588	26290
821.728	26172
821.868	25856
822.008	25830
822.149	25788
822.289	25753
822.429	25502
822.569	25358
822.709	25369
822.849	25289
822.99	25369
823.13	25175
823.27	25206
823.41	24947
823.55	24989
823.69	25065
823.83	25118
823.97	25015
824.11	24787
824.25	24859
824.389	24890
824.529	24916
824.669	24894
824.809	24947
824.949	25023
825.089	24977
825.228	24924
825.368	24719
825.508	24738
825.648	24593
825.787	24703
825.927	24783
826.067	24658
826.206	24585
826.346	24635
826.485	24669
826.625	24661
826.765	24707
826.904	24673
827.044	24494
827.183	24334
827.323	24357
827.462	24407
827.601	24357
827.741	24403
827.88	24380
828.02	24251
828.159	24254
828.298	24388
828.437	24403
828.577	24410
828.716	24410
828.855	24330
828.994	24197
829.134	24110
829.273	24133
829.412	24102
829.551	24064
829.69	24102
829.829	24171
829.968	24102
830.107	24178
830.246	24072
830.385	23882
830.524	23927
830.663	23748
830.802	23695
830.941	23577
831.08	23608
831.219	23684
831.357	23680
831.496	23786
831.635	23710
831.774	23531
831.913	23577
832.051	23474
832.19	23455
832.329	23345
832.467	23296
832.606	23181
832.744	23189
832.883	23269
833.022	23235
833.16	23227
833.299	23337
833.437	23414
833.576	23315
833.714	23227
833.852	23429
833.991	23383
834.129	23398
834.267	23292
834.406	23406
834.544	23322
834.682	23227
834.821	23334
834.959	23459
835.097	23185
835.235	23391
835.373	23334
835.511	23307
835.65	23204
835.788	23189
835.926	22995
836.064	22995
836.202	22896
836.34	23098
836.478	23102
836.615	23071
836.753	23147
836.891	23105
837.029	23105
837.167	23105
837.305	23037
837.443	22881
837.58	22995
837.718	22923
837.856	22889
837.993	22904
838.131	22968
838.269	22706
838.406	22649
838.544	22778
838.681	22523
838.819	22607
838.956	22424
839.094	22261
839.231	22428
839.369	22645
839.506	22812
839.643	22607
839.781	22348
839.918	22379
840.055	22341
840.193	22363
840.33	22356
840.467	22280
840.604	22303
840.742	22531
840.879	22135
841.016	22299
841.153	22234
841.29	22303
841.427	22261
841.564	22394
841.701	22246
841.838	22116
841.975	22204
842.112	22188
842.249	22040
842.385	22063
842.522	22177
842.659	22048
842.796	21880
842.933	21972
843.069	21945
843.206	22017
843.343	22143
843.479	22059
843.616	22010
843.752	21804
843.889	21759
844.025	21907
844.162	21781
844.298	21850
844.435	21770
844.571	21770
844.708	21865
844.844	21972
844.98	21956
845.117	21869
845.253	21629
845.389	21656
845.525	21736
845.661	21751
845.798	21458
845.934	21606
846.07	21367
846.206	21675
846.342	21675
846.478	21545
846.614	21272
846.75	21252
846.886	21252
847.022	21332
847.158	21283
847.294	21241
847.429	21214
847.565	21184
847.701	21538
847.837	21013
847.972	21001
848.108	21089
848.244	21020
848.379	20811
848.515	20918
848.65	20830
848.786	20842
848.921	20807
849.057	20937
849.192	20819
849.328	20891
849.463	20925
849.598	20826
849.734	20651
849.869	20686
850.004	20609
850.14	20583
850.275	20514
850.41	20415
850.545	20473
850.68	20602
850.815	20594
850.95	20537
851.085	20701
851.22	20686
851.355	20594
851.49	20556
851.625	20465
851.76	20446
851.895	20301
852.03	20366
852.165	20469
852.299	20556
852.434	20625
852.569	20648
852.703	20579
852.838	20571
852.973	20644
853.107	20606
853.242	20492
853.376	20404
853.511	20237
853.645	20396
853.78	20484
853.914	20343
854.048	20320
854.183	20317
854.317	20545
854.451	20434
854.585	20377
854.72	20286
854.854	20415
854.988	20362
855.122	20438
855.256	20092
855.39	20381
855.524	20317
855.658	20396
855.792	20358
855.926	20415
856.06	20309
856.194	20526
856.327	20317
856.461	20271
856.595	20294
856.729	20282
856.862	20237
856.996	20461
857.13	20526
857.263	20549
857.397	20374
857.53	20320
857.664	20465
857.797	20393
857.931	20419
858.064	20309
858.197	20377
858.331	20278
858.464	20218
858.597	20240
858.731	20248
858.864	20180
858.997	20324
859.13	20324
859.263	20286
859.396	20259
859.529	20263
859.662	20290
859.795	20263
859.928	20290
860.061	20461
860.194	20404
860.327	20320
860.46	20309
860.592	20419
860.725	20473
860.858	20320
860.99	20267
861.123	20271
861.256	20221
861.388	20374
861.521	20971
861.653	20176
861.786	20164
861.918	20218
862.05	20168
862.183	20263
862.315	20275
862.447	20377
862.58	20309
862.712	20020
862.844	19959
862.976	20142
863.108	20054
863.24	20415
863.372	19978
863.504	20149
863.636	20001
863.768	20005
863.9	20046
864.032	19909
864.164	19925
864.296	19967
864.428	20153
864.559	19986
864.691	20039
864.823	20012
864.954	19993
865.086	20020
865.217	19879
865.349	19753
865.48	19875
865.612	19811
865.743	20065
865.875	19928
866.006	19879
866.137	20069
866.269	19826
866.4	19902
866.531	19852
866.662	19788
866.793	19761
866.924	19883
867.055	19757
867.186	19803
867.317	19887
867.448	19811
867.579	19852
867.71	19742
867.841	19776
867.972	19856
868.103	19826
868.233	19894
868.364	19967
868.495	19970
868.625	19925
868.756	20046
868.886	20001
869.017	20024
869.147	20130
869.278	20187
869.408	20024
869.539	20073
869.669	19982
869.799	20149
869.929	20339
870.06	20172
870.19	20313
870.32	20355
870.45	20419
870.58	20480
870.71	20530
870.84	20613
870.97	20495
871.1	20408
871.23	20667
871.36	20617
871.489	20560
871.619	20621
871.749	20754
871.879	20697
872.008	20712
872.138	20708
872.267	20689
872.397	20514
872.526	20590
872.656	20533
872.785	20480
872.915	20724
873.044	20769
873.173	20640
873.303	20701
873.432	20716
873.561	20762
873.69	20689
873.819	20720
873.948	20758
874.077	20712
874.206	20621
874.335	20629
874.464	20941
874.593	20986
874.722	20895
874.851	20868
874.979	20887
875.108	21005
875.237	20811
875.365	20849
875.494	20921
875.623	21024
875.751	20826
875.88	20933
876.008	21036
876.136	21142
876.265	21291
876.393	21443
876.521	21488
876.65	21332
876.778	21275
876.906	21211
877.034	21340
877.162	21298
877.29	21306
877.418	21321
877.546	21329
877.674	21291
877.802	21237
877.93	21264
878.058	21237
878.185	21146
878.313	21237
878.441	21382
878.568	21138
878.696	21222
878.824	21306
878.951	21397
879.079	21534
879.206	21587
879.333	21606
879.461	21355
879.588	21435
879.715	21561
879.842	21511
879.97	21370
880.097	21051
880.224	21077
880.351	21093
880.478	21089
880.605	21112
880.732	21024
880.859	21321
880.986	21268
881.112	21093
881.239	21051
881.366	20811
881.493	20804
881.619	20693
881.746	20697
881.872	20746
881.999	20609
882.125	20663
882.252	20701
882.378	20640
882.505	20880
882.631	20564
882.757	20518
882.883	20663
883.01	20533
883.136	20355
883.262	20355
883.388	20202
883.514	20400
883.64	20457
883.766	20438
883.892	20221
884.018	20248
884.143	20233
884.269	20431
884.395	20180
884.52	20054
884.646	20130
884.772	20020
884.897	20016
885.023	20142
885.148	20149
885.274	20320
885.399	20195
885.524	20043
885.65	20103
885.775	20054
885.9	20065
886.025	20332
886.15	20134
886.275	20005
886.4	19845
886.525	20005
886.65	20073
886.775	20054
886.9	20176
887.025	20317
887.149	20195
887.274	19845
887.399	19818
887.523	19974
887.648	19742
887.773	19814
887.897	19974
888.021	19837
888.146	19788
888.27	19894
888.395	19887
888.519	19906
888.643	19925
888.767	19875
888.891	19685
889.015	19628
889.139	19601
889.263	19685
889.387	19715
889.511	19898
889.635	19780
889.759	19552
889.883	19582
890.006	19712
890.13	19814
890.254	19628
890.377	19521
890.501	19407
890.624	19324
890.748	19396
890.871	19225
890.995	19221
891.118	19175
891.241	19255
891.364	19164
891.488	19422
891.611	19247
891.734	19297
891.857	19308
891.98	19221
892.103	19335
892.226	19202
892.349	19175
892.471	19145
892.594	19213
892.717	19152
892.839	19099
892.962	19160
893.085	19118
893.207	19133
893.33	18932
893.452	18981
893.575	19183
893.697	19183
893.819	19365
893.941	19304
894.064	19316
894.186	19103
894.308	19019
894.43	19171
894.552	19297
894.674	19285
894.796	19053
894.918	19004
895.04	19076
895.161	19209
895.283	19122
895.405	19156
895.526	19118
895.648	19156
895.769	19141
895.891	19240
896.012	19247
896.134	19266
896.255	19057
896.376	19114
896.498	19156
896.619	19381
896.74	19187
896.861	19308
896.982	19552
897.103	19715
897.224	19457
897.345	19403
897.466	19384
897.587	19392
897.708	19529
897.828	19358
897.949	19422
898.07	19194
898.19	19312
898.311	19476
898.431	19278
898.552	19400
898.672	19377
898.792	19422
898.913	19453
899.033	19369
899.153	19145
899.273	19118
899.393	19187
899.513	19126
899.633	19126
899.753	19244
899.873	19114
899.993	19183
900.113	19084
900.232	19061
900.352	19012
900.472	18966
900.591	18973
900.711	18878
900.83	18905
900.95	19031
901.069	19023
901.189	18871
901.308	18521
901.427	18498
901.546	18551
901.665	18551
901.784	18490
901.904	18422
902.023	18319
902.141	18186
902.26	18079
902.379	18133
902.498	17999
902.617	17980
902.735	17984
902.854	17984
902.973	17935
903.091	17805
903.21	17691
903.328	17783
903.446	17634
903.565	17592
903.683	17554
903.801	17311
903.919	17486
904.038	17520
904.156	17315
904.274	17421
904.392	17368
904.51	17250
904.627	17334
904.745	17296
904.863	17299
904.981	17170
905.098	16949
905.216	16946
905.334	17124
905.451	16869
905.569	16987
905.686	17098
905.803	16995
905.921	16850
906.038	16877
906.155	16721
906.272	16664
906.389	16721
906.506	16504
906.623	16523
906.74	16500
906.857	16417
906.974	16413
907.091	16618
907.208	16645
907.324	16558
907.441	16375
907.557	16219
907.674	16363
907.79	16109
907.907	16128
908.023	16257
908.139	16268
908.256	16147
908.372	16112
908.488	16082
908.604	15873
908.72	15842
908.836	15884
908.952	15854
909.068	15911
909.184	16032
909.3	15949
909.415	15922
909.531	15983
909.647	15675
909.762	15606
909.878	15728
909.993	15720
910.108	15618
910.224	15553
910.339	15507
910.454	15469
910.57	15454
910.685	15412
910.8	15686
910.915	15549
911.03	15386
911.145	15264
911.259	15264
911.374	15264
911.489	15093
911.604	15081
911.718	14994
911.833	14986
911.947	14811
912.062	14838
912.176	15028
912.291	15039
912.405	14925
912.519	15169
912.633	15146
912.748	14975
912.862	14918
912.976	14868
913.09	14655
913.204	14610
913.318	14773
913.431	14891
913.545	14777
913.659	14864
913.772	14826
913.886	14670
914	14602
914.113	14663
914.226	14743
914.34	14731
914.453	14499
914.566	14724
914.68	14431
914.793	14476
914.906	14336
915.019	14199
915.132	14240
915.245	14248
915.358	14252
915.47	14271
915.583	14282
915.696	14172
915.809	14187
915.921	14290
916.034	14115
916.146	14092
916.259	14111
916.371	14248
916.483	14180
916.595	14107
916.708	14172
916.82	14065
916.932	14027
917.044	14088
917.156	14020
917.268	13967
917.38	13944
917.491	13887
917.603	13822
917.715	13890
917.826	13993
917.938	13746
918.049	13696
918.161	13807
918.272	14054
918.384	14084
918.495	13811
918.606	13788
918.717	13628
918.828	13750
918.939	13708
919.05	13586
919.161	13586
919.272	13396
919.383	13594
919.494	13750
919.604	13951
919.715	13597
919.826	13632
919.936	13662
920.047	13723
920.157	13632
920.267	13932
920.378	13597
920.488	13571
920.598	13784
920.708	13898
920.818	13868
920.928	13879
921.038	14035
921.148	13833
921.258	13655
921.368	13510
921.477	13381
921.587	13445
921.697	13194
921.806	13430
921.916	13312
922.025	13065
922.134	13004
922.244	12996
922.353	13031
922.462	12894
922.571	12878
922.68	12616
922.789	12783
922.898	12669
923.007	12589
923.116	12787
923.224	12734
923.333	12707
923.442	12521
923.55	12433
923.659	12578
923.767	12585
923.876	12407
923.984	12608
924.092	12445
924.201	12475
924.309	12426
924.417	12407
924.525	12426
924.633	12380
924.741	13126
924.849	12258
924.956	12410
925.064	12133
925.172	12030
925.279	12163
925.387	12273
925.494	12152
925.602	12342
925.709	12216
925.816	12038
925.924	12087
926.031	12155
926.138	12133
926.245	12125
926.352	12034
926.459	12159
926.566	12136
926.673	12038
926.779	11866
926.886	11923
926.993	11764
927.099	11783
927.206	11665
927.312	11718
927.419	11691
927.525	11695
927.631	11764
927.737	11680
927.843	11665
927.95	11516
928.056	11642
928.162	11668
928.267	11596
928.373	12136
928.479	11657
928.585	11421
928.69	11627
928.796	11638
928.901	11364
929.007	11345
929.112	11387
929.218	11436
929.323	11406
929.428	11299
929.533	11444
929.638	11258
929.743	11292
929.848	11299
929.953	11280
930.058	11181
930.163	11037
930.267	11018
930.372	11174
930.477	10991
930.581	11098
930.685	11185
930.79	10896
930.894	10987
930.998	10896
931.103	11071
931.207	10622
931.311	10531
931.415	10485
931.519	10352
931.623	10310
