Data from test_V78500241_3140.txt Node
Date: Fri Mar 25 15:31:43 CST 2022
User: usil
Spectrometer: V785-0024
Trigger mode: 0
Integration Time (sec): 4.000000E-1
Scans to average: 1
Nonlinearity correction enabled: false
Boxcar width: 0
Storing dark spectrum: false
XAxis mode: Wavelengths
Number of Pixels in Spectrum: 1024
>>>>>Begin Spectral Data<<<<<
801.071	27237
801.214	27074
801.356	26925
801.499	26975
801.641	26762
801.783	26712
801.926	26716
802.068	26568
802.211	26526
802.353	26617
802.496	26526
802.638	26412
802.78	26389
802.923	26225
803.065	26248
803.208	26237
803.35	26259
803.492	26530
803.635	26507
803.777	26324
803.919	26537
804.061	26792
804.204	26499
804.346	26396
804.488	26393
804.63	26415
804.773	26423
804.915	26438
805.057	26590
805.199	26518
805.341	26556
805.483	26545
805.626	26640
805.768	26446
805.91	26594
806.052	26735
806.194	26473
806.336	26720
806.478	26522
806.62	26606
806.762	26720
806.904	26842
807.046	27020
807.188	27116
807.33	26891
807.472	26982
807.614	27043
807.756	26933
807.898	26971
808.04	26781
808.182	26773
808.324	26823
808.465	26857
808.607	26979
808.749	27146
808.891	27310
809.033	27344
809.174	27195
809.316	27157
809.458	27165
809.6	27104
809.741	27214
809.883	27283
810.025	27458
810.166	27291
810.308	27427
810.45	27374
810.591	27412
810.733	27374
810.875	27169
811.016	27062
811.158	27119
811.299	27291
811.441	27302
811.582	27359
811.724	27108
811.865	27135
812.007	27169
812.148	27249
812.29	27180
812.431	27325
812.573	27561
812.714	27553
812.855	27774
812.997	27633
813.138	27873
813.279	27797
813.421	27720
813.562	27564
813.703	27504
813.845	27317
813.986	27055
814.127	27001
814.268	26868
814.41	26800
814.551	26670
814.692	26834
814.833	26815
814.974	26746
815.115	26918
815.256	26842
815.397	26720
815.539	26727
815.68	26686
815.821	26537
815.962	26735
816.103	26537
816.244	26457
816.385	26381
816.526	26336
816.666	26214
816.807	26157
816.948	26164
817.089	26164
817.23	26081
817.371	26058
817.512	26100
817.653	26183
817.793	26157
817.934	25955
818.075	26126
818.216	26122
818.356	26077
818.497	26054
818.638	25887
818.778	25909
818.919	25978
819.06	25898
819.2	25944
819.341	26031
819.481	26107
819.622	26237
819.762	26351
819.903	26259
820.043	26271
820.184	26233
820.324	26199
820.465	26324
820.605	26149
820.746	26119
820.886	26008
821.026	26210
821.167	26126
821.307	26214
821.447	26046
821.588	26008
821.728	25868
821.868	25795
822.008	25578
822.149	25468
822.289	25472
822.429	25316
822.569	25232
822.709	25278
822.849	25099
822.99	24920
823.13	24992
823.27	25012
823.41	24878
823.55	24757
823.69	24913
823.83	24882
823.97	24734
824.11	24585
824.25	24597
824.389	24741
824.529	24692
824.669	24623
824.809	24726
824.949	24703
825.089	24726
825.228	24681
825.368	24475
825.508	24490
825.648	24486
825.787	24589
825.927	24517
826.067	24445
826.206	24525
826.346	24490
826.485	24639
826.625	24540
826.765	24673
826.904	24559
827.044	24334
827.183	24327
827.323	24140
827.462	24300
827.601	24311
827.741	24281
827.88	24353
828.02	24140
828.159	24262
828.298	24228
828.437	24338
828.577	24285
828.716	24410
828.855	24167
828.994	23817
829.134	24007
829.273	23950
829.412	24011
829.551	23885
829.69	24018
829.829	24121
829.968	24045
830.107	24091
830.246	23961
830.385	23904
830.524	23908
830.663	23851
830.802	23695
830.941	23486
831.08	23562
831.219	23531
831.357	23539
831.496	23707
831.635	23547
831.774	23414
831.913	23436
832.051	23471
832.19	23284
832.329	23292
832.467	23356
832.606	23204
832.744	23216
832.883	23132
833.022	23231
833.16	23372
833.299	23280
833.437	23246
833.576	23353
833.714	23364
833.852	23398
833.991	23467
834.129	23383
834.267	23368
834.406	23307
834.544	23315
834.682	23452
834.821	23231
834.959	23653
835.097	23223
835.235	23406
835.373	23406
835.511	23284
835.65	23220
835.788	23117
835.926	23025
836.064	22919
836.202	22923
836.34	23307
836.478	23197
836.615	23102
836.753	23212
836.891	23231
837.029	23166
837.167	23044
837.305	23121
837.443	23060
837.58	23010
837.718	23025
837.856	23025
837.993	23044
838.131	23075
838.269	22854
838.406	22946
838.544	22885
838.681	22733
838.819	22702
838.956	22481
839.094	22481
839.231	22523
839.369	22660
839.506	22835
839.643	22793
839.781	22542
839.918	22455
840.055	22523
840.193	22447
840.33	22447
840.467	22455
840.604	22462
840.742	22725
840.879	22306
841.016	22287
841.153	22276
841.29	22497
841.427	22504
841.564	22493
841.701	22421
841.838	22295
841.975	22352
842.112	22318
842.249	22363
842.385	22166
842.522	22466
842.659	22204
842.796	22291
842.933	22268
843.069	22169
843.206	22051
843.343	22219
843.479	22192
843.616	22268
843.752	21934
843.889	21968
844.025	22086
844.162	22036
844.298	21918
844.435	21888
844.571	21964
844.708	21953
844.844	22166
844.98	21975
845.117	22051
845.253	21964
845.389	21774
845.525	21930
845.661	21762
845.798	21656
845.934	21686
846.07	21625
846.206	21804
846.342	21838
846.478	21652
846.614	21462
846.75	21428
846.886	21367
847.022	21485
847.158	21435
847.294	21363
847.429	21469
847.565	21443
847.701	21614
847.837	21233
847.972	21028
848.108	21256
848.244	21245
848.379	21089
848.515	21013
848.65	20971
848.786	20921
848.921	20960
849.057	21066
849.192	21150
849.328	21009
849.463	21070
849.598	20933
849.734	20918
849.869	20777
850.004	20731
850.14	20701
850.275	20834
850.41	20819
850.545	20743
850.68	20670
850.815	20830
850.95	20743
851.085	20956
851.22	20849
851.355	20815
851.49	20773
851.625	20781
851.76	20781
851.895	20712
852.03	20754
852.165	20826
852.299	20708
852.434	20785
852.569	20773
852.703	20769
852.838	20830
852.973	20880
853.107	20960
853.242	20674
853.376	20644
853.511	20469
853.645	20545
853.78	20781
853.914	20609
854.048	20579
854.183	20587
854.317	20674
854.451	20838
854.585	20617
854.72	20552
854.854	20594
854.988	20545
855.122	20731
855.256	20541
855.39	20625
855.524	20785
855.658	20686
855.792	20613
855.926	20606
856.06	20609
856.194	20640
856.327	20522
856.461	20663
856.595	20629
856.729	20552
856.862	20735
856.996	20712
857.13	20716
857.263	20613
857.397	20682
857.53	20571
857.664	20613
857.797	20735
857.931	20765
858.064	20670
858.197	20838
858.331	20590
858.464	20530
858.597	20560
858.731	20606
858.864	20609
858.997	20617
859.13	20556
859.263	20659
859.396	20689
859.529	20651
859.662	20579
859.795	20476
859.928	20670
860.061	20845
860.194	20864
860.327	20743
860.46	20632
860.592	20697
860.725	20891
860.858	20575
860.99	20606
861.123	20537
861.256	20522
861.388	20735
861.521	21047
861.653	20503
861.786	20400
861.918	20454
862.05	20522
862.183	20541
862.315	20431
862.447	20739
862.58	20526
862.712	20400
862.844	20362
862.976	20404
863.108	20431
863.24	20777
863.372	20256
863.504	20355
863.636	20290
863.768	20366
863.9	20355
864.032	20328
864.164	20278
864.296	20355
864.428	20454
864.559	20480
864.691	20431
864.823	20431
864.954	20183
865.086	20362
865.217	20267
865.349	20100
865.48	20218
865.612	20256
865.743	20263
865.875	20214
866.006	20195
866.137	20301
866.269	20320
866.4	20309
866.531	20309
866.662	20187
866.793	20153
866.924	20206
867.055	20077
867.186	20199
867.317	20088
867.448	20062
867.579	20172
867.71	20096
867.841	20027
867.972	20301
868.103	20134
868.233	20142
868.364	20202
868.495	20202
868.625	20404
868.756	20415
868.886	20377
869.017	20492
869.147	20488
869.278	20503
869.408	20419
869.539	20396
869.669	20442
869.799	20374
869.929	20617
870.06	20545
870.19	20754
870.32	20815
870.45	20735
870.58	20804
870.71	20921
870.84	20887
870.97	20773
871.1	20842
871.23	21032
871.36	20971
871.489	20937
871.619	21013
871.749	20887
871.879	21039
872.008	21116
872.138	21024
872.267	21017
872.397	20910
872.526	20823
872.656	20887
872.785	20788
872.915	21119
873.044	21138
873.173	21100
873.303	21100
873.432	21214
873.561	21226
873.69	21100
873.819	21116
873.948	21176
874.077	21089
874.206	20990
874.335	21005
874.464	21123
874.593	21317
874.722	21268
874.851	21336
874.979	21291
875.108	21306
875.237	21272
875.365	21169
875.494	21272
875.623	21526
875.751	21298
875.88	21245
876.008	21428
876.136	21519
876.265	21671
876.393	21800
876.521	21778
876.65	21656
876.778	21705
876.906	21694
877.034	21648
877.162	21701
877.29	21576
877.418	21743
877.546	21694
877.674	21622
877.802	21622
877.93	21690
878.058	21435
878.185	21618
878.313	21587
878.441	21644
878.568	21500
878.696	21641
878.824	21656
878.951	21819
879.079	21823
879.206	21968
879.333	21667
879.461	21568
879.588	21804
879.715	21747
879.842	21953
879.97	21644
880.097	21587
880.224	21431
880.351	21412
880.478	21428
880.605	21420
880.732	21416
880.859	21663
880.986	21496
881.112	21587
881.239	21386
881.366	21096
881.493	21131
881.619	21119
881.746	21150
881.872	21005
881.999	20979
882.125	20891
882.252	20994
882.378	21058
882.505	21131
882.631	21051
882.757	20811
882.883	20880
883.01	20823
883.136	20754
883.262	20659
883.388	20640
883.514	20739
883.64	20853
883.766	20712
883.892	20522
884.018	20541
884.143	20769
884.269	20762
884.395	20480
884.52	20396
884.646	20514
884.772	20389
884.897	20305
885.023	20362
885.148	20495
885.274	20678
885.399	20454
885.524	20461
885.65	20419
885.775	20530
885.9	20454
886.025	20556
886.15	20423
886.275	20267
886.4	20381
886.525	20374
886.65	20419
886.775	20339
886.9	20476
887.025	20590
887.149	20442
887.274	20225
887.399	20107
887.523	20202
887.648	20126
887.773	20084
887.897	20286
888.021	20164
888.146	20191
888.27	20267
888.395	20248
888.519	20202
888.643	20286
888.767	20240
888.891	20073
889.015	19947
889.139	19940
889.263	20142
889.387	20027
889.511	20103
889.635	20107
889.759	19955
889.883	20016
890.006	19993
890.13	20069
890.254	19856
890.377	19936
890.501	19917
890.624	19693
890.748	19833
890.871	19658
890.995	19487
891.118	19529
891.241	19601
891.364	19556
891.488	19719
891.611	19609
891.734	19586
891.857	19635
891.98	19506
892.103	19639
892.226	19578
892.349	19491
892.471	19365
892.594	19441
892.717	19556
892.839	19597
892.962	19453
893.085	19502
893.207	19487
893.33	19251
893.452	19441
893.575	19590
893.697	19460
893.819	19605
893.941	19670
894.064	19548
894.186	19480
894.308	19430
894.43	19506
894.552	19746
894.674	19578
894.796	19495
894.918	19426
895.04	19480
895.161	19708
895.283	19544
895.405	19403
895.526	19491
895.648	19483
895.769	19392
895.891	19514
896.012	19457
896.134	19567
896.255	19499
896.376	19407
896.498	19609
896.619	19662
896.74	19567
896.861	19537
896.982	19845
897.103	19997
897.224	19811
897.345	19765
897.466	19540
897.587	19757
897.708	19826
897.828	19742
897.949	19681
898.07	19529
898.19	19635
898.311	19791
898.431	19685
898.552	19670
898.672	19811
898.792	19814
898.913	19860
899.033	19651
899.153	19533
899.273	19388
899.393	19552
899.513	19575
899.633	19483
899.753	19499
899.873	19468
899.993	19521
900.113	19460
900.232	19388
900.352	19343
900.472	19270
900.591	19228
900.711	19339
900.83	19190
900.95	19308
901.069	19274
901.189	19293
901.308	18920
901.427	18875
901.546	18913
901.665	18848
901.784	18985
901.904	18696
902.023	18639
902.141	18433
902.26	18289
902.379	18498
902.498	18399
902.617	18380
902.735	18517
902.854	18376
902.973	18422
903.091	18068
903.21	18114
903.328	18182
903.446	17942
903.565	17977
903.683	17954
903.801	17748
903.919	17813
904.038	17733
904.156	17714
904.274	17756
904.392	17642
904.51	17665
904.627	17668
904.745	17657
904.863	17642
904.981	17512
905.098	17345
905.216	17307
905.334	17444
905.451	17269
905.569	17197
905.686	17318
905.803	17280
905.921	17128
906.038	17174
906.155	17132
906.272	17052
906.389	16980
906.506	16847
906.623	16820
906.74	16843
906.857	16653
906.974	16793
907.091	16927
907.208	16892
907.324	16930
907.441	16873
907.557	16607
907.674	16535
907.79	16417
907.907	16497
908.023	16588
908.139	16630
908.256	16550
908.372	16527
908.488	16402
908.604	16306
908.72	16405
908.836	16325
908.952	16318
909.068	16352
909.184	16371
909.3	16337
909.415	16329
909.531	16253
909.647	16097
909.762	15987
909.878	15941
909.993	16036
910.108	15934
910.224	15964
910.339	16021
910.454	15869
910.57	15869
910.685	15736
910.8	16074
910.915	15926
911.03	15892
911.145	15713
911.259	15682
911.374	15660
911.489	15572
911.604	15603
911.718	15363
911.833	15492
911.947	15321
912.062	15226
912.176	15412
912.291	15530
912.405	15443
912.519	15477
912.633	15576
912.748	15389
912.862	15367
912.976	15245
913.09	15055
913.204	15154
913.318	15275
913.431	15245
913.545	15173
913.659	15245
913.772	15218
913.886	15013
914	14986
914.113	15020
914.226	15138
914.34	15043
914.453	14948
914.566	15005
914.68	14994
914.793	14819
914.906	14724
915.019	14667
915.132	14598
915.245	14537
915.358	14644
915.47	14579
915.583	14590
915.696	14651
915.809	14697
915.921	14750
916.034	14549
916.146	14545
916.259	14423
916.371	14602
916.483	14613
916.595	14499
916.708	14431
916.82	14393
916.932	14374
917.044	14438
917.156	14412
917.268	14317
917.38	14305
917.491	14294
917.603	14286
917.715	14278
917.826	14362
917.938	14313
918.049	14187
918.161	14240
918.272	14400
918.384	14408
918.495	14240
918.606	14073
918.717	13974
918.828	13982
918.939	14115
919.05	14020
919.161	14008
919.272	13879
919.383	13894
919.494	14134
919.604	14317
919.715	14077
919.826	13932
919.936	14058
920.047	14123
920.157	13951
920.267	14187
920.378	14001
920.488	13989
920.598	14168
920.708	14317
920.818	14202
920.928	14123
921.038	14282
921.148	14317
921.258	14050
921.368	13837
921.477	13837
921.587	13734
921.697	13689
921.806	13841
921.916	13712
922.025	13502
922.134	13426
922.244	13346
922.353	13502
922.462	13419
922.571	13202
922.68	13160
922.789	13042
922.898	13126
923.007	12905
923.116	13076
923.224	13080
923.333	13050
923.442	13008
923.55	12935
923.659	12859
923.767	12962
923.876	12886
923.984	13031
924.092	12757
924.201	12882
924.309	12814
924.417	12863
924.525	12768
924.633	12734
924.741	13605
924.849	12540
924.956	12669
925.064	12563
925.172	12448
925.279	12528
925.387	12612
925.494	12471
925.602	12700
925.709	12570
925.816	12407
925.924	12452
926.031	12547
926.138	12467
926.245	12532
926.352	12391
926.459	12437
926.566	12521
926.673	12395
926.779	12300
926.886	12266
926.993	12194
927.099	12133
927.206	12034
927.312	12007
927.419	12228
927.525	12114
927.631	12155
927.737	11973
927.843	11923
927.95	11889
928.056	11950
928.162	11973
928.267	11980
928.373	12574
928.479	11935
928.585	11775
928.69	11870
928.796	11939
928.901	11733
929.007	11691
929.112	11794
929.218	11790
929.323	11619
929.428	11627
929.533	11783
929.638	11596
929.743	11600
929.848	11760
929.953	11581
930.058	11505
930.163	11364
930.267	11360
930.372	11452
930.477	11311
930.581	11600
930.685	11406
930.79	11334
930.894	11337
930.998	11227
931.103	11376
931.207	11048
931.311	10980
931.415	10801
931.519	10691
931.623	10599
