Data from test_V78500241_1749.txt Node
Date: Fri Mar 25 15:22:02 CST 2022
User: usil
Spectrometer: V785-0024
Trigger mode: 0
Integration Time (sec): 4.000000E-1
Scans to average: 1
Nonlinearity correction enabled: false
Boxcar width: 0
Storing dark spectrum: false
XAxis mode: Wavelengths
Number of Pixels in Spectrum: 1024
>>>>>Begin Spectral Data<<<<<
801.071	27926
801.214	27816
801.356	27564
801.499	27519
801.641	27363
801.783	27401
801.926	27435
802.068	27287
802.211	27264
802.353	27260
802.496	27077
802.638	26990
802.78	27104
802.923	26979
803.065	26902
803.208	26944
803.35	26982
803.492	27211
803.635	27233
803.777	27146
803.919	27226
804.061	27496
804.204	27272
804.346	27176
804.488	27268
804.63	27294
804.773	27211
804.915	27275
805.057	27370
805.199	27188
805.341	27310
805.483	27427
805.626	27275
805.768	27249
805.91	27294
806.052	27283
806.194	27313
806.336	27466
806.478	27325
806.62	27401
806.762	27462
806.904	27473
807.046	28051
807.188	27838
807.33	27652
807.472	27720
807.614	27675
807.756	27663
807.898	27614
808.04	27606
808.182	27713
808.324	27679
808.465	27614
808.607	27835
808.749	27960
808.891	28105
809.033	28036
809.174	28124
809.316	27903
809.458	27941
809.6	27842
809.741	28017
809.883	28109
810.025	28230
810.166	28223
810.308	28306
810.45	28162
810.591	28116
810.733	27991
810.875	27960
811.016	27785
811.158	27869
811.299	27975
811.441	27975
811.582	28185
811.724	27861
811.865	27945
812.007	27983
812.148	27914
812.29	27968
812.431	28074
812.573	28268
812.714	28546
812.855	28436
812.997	28733
813.138	28660
813.279	28618
813.421	28485
813.562	28424
813.703	28230
813.845	28105
813.986	28070
814.127	27819
814.268	27770
814.41	27793
814.551	27648
814.692	27747
814.833	27580
814.974	27675
815.115	27682
815.256	27542
815.397	27526
815.539	27526
815.68	27622
815.821	27363
815.962	27367
816.103	27530
816.244	27306
816.385	27294
816.526	27165
816.666	26975
816.807	27051
816.948	27100
817.089	27074
817.23	27077
817.371	26834
817.512	26739
817.653	26921
817.793	26956
817.934	26921
818.075	26994
818.216	26960
818.356	26921
818.497	26796
818.638	26632
818.778	26613
818.919	26705
819.06	26667
819.2	26864
819.341	26857
819.481	26845
819.622	27074
819.762	27268
819.903	27203
820.043	27123
820.184	27161
820.324	27176
820.465	27195
820.605	26944
820.746	26948
820.886	26925
821.026	27104
821.167	26826
821.307	26956
821.447	26933
821.588	27043
821.728	26701
821.868	26492
822.008	26522
822.149	26404
822.289	26492
822.429	26180
822.569	26233
822.709	26168
822.849	26081
822.99	26012
823.13	25940
823.27	25822
823.41	25677
823.55	25514
823.69	25822
823.83	25898
823.97	25791
824.11	25613
824.25	25419
824.389	25609
824.529	25742
824.669	25643
824.809	25643
824.949	25719
825.089	25655
825.228	25647
825.368	25548
825.508	25491
825.648	25464
825.787	25441
825.927	25403
826.067	25285
826.206	25464
826.346	25548
826.485	25635
826.625	25556
826.765	25521
826.904	25362
827.044	25297
827.183	25285
827.323	25160
827.462	25301
827.601	25160
827.741	25072
827.88	25152
828.02	25061
828.159	25202
828.298	25171
828.437	25103
828.577	25126
828.716	25282
828.855	25050
828.994	24951
829.134	24871
829.273	25023
829.412	24806
829.551	24829
829.69	24943
829.829	24890
829.968	24985
830.107	24886
830.246	24928
830.385	24772
830.524	24829
830.663	24730
830.802	24654
830.941	24578
831.08	24380
831.219	24551
831.357	24753
831.496	24738
831.635	24578
831.774	24350
831.913	24311
832.051	24239
832.19	24346
832.329	24319
832.467	24117
832.606	24015
832.744	24155
832.883	24201
833.022	24114
833.16	24190
833.299	24273
833.437	24144
833.576	24289
833.714	24174
833.852	24273
833.991	24346
834.129	24270
834.267	24342
834.406	24247
834.544	24277
834.682	24277
834.821	24277
834.959	24376
835.097	24232
835.235	24315
835.373	24308
835.511	24174
835.65	24190
835.788	24068
835.926	24026
836.064	23878
836.202	23942
836.34	24110
836.478	24205
836.615	24083
836.753	23999
836.891	24152
837.029	24163
837.167	23977
837.305	24015
837.443	23977
837.58	24038
837.718	24011
837.856	23946
837.993	23798
838.131	23961
838.269	23859
838.406	23809
838.544	23802
838.681	23592
838.819	23577
838.956	23459
839.094	23341
839.231	23303
839.369	23775
839.506	23699
839.643	23570
839.781	23440
839.918	23334
840.055	23455
840.193	23410
840.33	23444
840.467	23349
840.604	23398
840.742	23497
840.879	23048
841.016	23128
841.153	23197
841.29	23436
841.427	23360
841.564	23322
841.701	23284
841.838	23235
841.975	23258
842.112	23246
842.249	23170
842.385	23064
842.522	23159
842.659	23311
842.796	23071
842.933	23132
843.069	23060
843.206	23041
843.343	23037
843.479	23128
843.616	23147
843.752	22881
843.889	22976
844.025	22911
844.162	22721
844.298	22881
844.435	22930
844.571	22942
844.708	22774
844.844	23006
844.98	23048
845.117	22938
845.253	22793
845.389	22649
845.525	22843
845.661	22744
845.798	22535
845.934	22588
846.07	22557
846.206	22577
846.342	22603
846.478	22489
846.614	22325
846.75	22265
846.886	22287
847.022	22371
847.158	22337
847.294	22291
847.429	22337
847.565	22230
847.701	22413
847.837	22055
847.972	21934
848.108	22154
848.244	22078
848.379	21922
848.515	21857
848.65	21934
848.786	21861
848.921	21819
849.057	21972
849.192	22021
849.328	21987
849.463	21873
849.598	21915
849.734	21835
849.869	21819
850.004	21698
850.14	21789
850.275	21690
850.41	21682
850.545	21622
850.68	21743
850.815	21728
850.95	21690
851.085	21812
851.22	21766
851.355	21644
851.49	21759
851.625	21637
851.76	21576
851.895	21583
852.03	21629
852.165	21679
852.299	21713
852.434	21724
852.569	21736
852.703	21633
852.838	21675
852.973	21755
853.107	21747
853.242	21591
853.376	21492
853.511	21351
853.645	21466
853.78	21644
853.914	21545
854.048	21431
854.183	21454
854.317	21488
854.451	21557
854.585	21469
854.72	21405
854.854	21549
854.988	21401
855.122	21397
855.256	21332
855.39	21542
855.524	21542
855.658	21507
855.792	21561
855.926	21580
856.06	21500
856.194	21701
856.327	21492
856.461	21310
856.595	21439
856.729	21488
856.862	21564
856.996	21401
857.13	21447
857.263	21660
857.397	21504
857.53	21587
857.664	21641
857.797	21606
857.931	21644
858.064	21633
858.197	21660
858.331	21580
858.464	21469
858.597	21435
858.731	21416
858.864	21454
858.997	21450
859.13	21530
859.263	21542
859.396	21538
859.529	21557
859.662	21405
859.795	21488
859.928	21488
860.061	21663
860.194	21728
860.327	21515
860.46	21641
860.592	21564
860.725	21660
860.858	21557
860.99	21523
861.123	21405
861.256	21587
861.388	21393
861.521	22204
861.653	21291
861.786	21321
861.918	21306
862.05	21329
862.183	21306
862.315	21401
862.447	21496
862.58	21378
862.712	21245
862.844	21192
862.976	21264
863.108	21291
863.24	21504
863.372	21077
863.504	21150
863.636	21195
863.768	21344
863.9	21233
864.032	21093
864.164	21157
864.296	21374
864.428	21203
864.559	21287
864.691	21302
864.823	21157
864.954	21203
865.086	21085
865.217	21283
865.349	21009
865.48	21188
865.612	21123
865.743	21359
865.875	21058
866.006	21013
866.137	21017
866.269	21036
866.4	21024
866.531	20998
866.662	21100
866.793	21051
866.924	21024
867.055	21089
867.186	20918
867.317	20979
867.448	20868
867.579	21116
867.71	20948
867.841	20986
867.972	21039
868.103	21028
868.233	20990
868.364	21085
868.495	21055
868.625	21329
868.756	21317
868.886	21230
869.017	21275
869.147	21272
869.278	21386
869.408	21138
869.539	21207
869.669	21370
869.799	21313
869.929	21420
870.06	21351
870.19	21469
870.32	21591
870.45	21561
870.58	21660
870.71	21800
870.84	21713
870.97	21625
871.1	21553
871.23	21895
871.36	21804
871.489	21698
871.619	21724
871.749	21903
871.879	21846
872.008	22067
872.138	21846
872.267	21911
872.397	21766
872.526	21667
872.656	21656
872.785	21671
872.915	21861
873.044	21953
873.173	21934
873.303	21930
873.432	21888
873.561	21861
873.69	21827
873.819	21865
873.948	21892
874.077	21934
874.206	21842
874.335	21899
874.464	21979
874.593	22059
874.722	22120
874.851	22154
874.979	22150
875.108	22177
875.237	22032
875.365	22032
875.494	22025
875.623	22086
875.751	22116
875.88	22135
876.008	22261
876.136	22390
876.265	22489
876.393	22645
876.521	22546
876.65	22557
876.778	22535
876.906	22424
877.034	22500
877.162	22489
877.29	22436
877.418	22527
877.546	22382
877.674	22565
877.802	22428
877.93	22424
878.058	22481
878.185	22303
878.313	22489
878.441	22409
878.568	22207
878.696	22375
878.824	22485
878.951	22508
879.079	22656
879.206	22740
879.333	22653
879.461	22607
879.588	22542
879.715	22615
879.842	22615
879.97	22527
880.097	22196
880.224	22295
880.351	22329
880.478	22162
880.605	22257
880.732	22333
880.859	22466
880.986	22287
881.112	22215
881.239	22177
881.366	21865
881.493	22051
881.619	21793
881.746	21842
881.872	21835
881.999	21778
882.125	21785
882.252	21869
882.378	21854
882.505	21937
882.631	21755
882.757	21572
882.883	21686
883.01	21557
883.136	21447
883.262	21386
883.388	21340
883.514	21492
883.64	21583
883.766	21374
883.892	21340
884.018	21302
884.143	21526
884.269	21587
884.395	21272
884.52	21165
884.646	21165
884.772	21123
884.897	21154
885.023	21043
885.148	21226
885.274	21355
885.399	21207
885.524	21211
885.65	21294
885.775	21268
885.9	21180
886.025	21397
886.15	21184
886.275	21135
886.4	21093
886.525	21146
886.65	21039
886.775	21039
886.9	21321
887.025	21313
887.149	21138
887.274	20971
887.399	21017
887.523	20982
887.648	20853
887.773	20960
887.897	21070
888.021	20948
888.146	20872
888.27	21009
888.395	20956
888.519	20967
888.643	20857
888.767	20967
888.891	20914
889.015	20872
889.139	20849
889.263	20788
889.387	20883
889.511	20899
889.635	20785
889.759	20724
889.883	20701
890.006	20716
890.13	20823
890.254	20613
890.377	20606
890.501	20507
890.624	20351
890.748	20594
890.871	20286
890.995	20286
891.118	20286
891.241	20377
891.364	20305
891.488	20412
891.611	20408
891.734	20419
891.857	20355
891.98	20202
892.103	20488
892.226	20282
892.349	20240
892.471	20107
892.594	20103
892.717	20244
892.839	20301
892.962	20252
893.085	20263
893.207	20263
893.33	20161
893.452	20134
893.575	20294
893.697	20278
893.819	20377
893.941	20503
894.064	20290
894.186	20103
894.308	20183
894.43	20286
894.552	20317
894.674	20332
894.796	20172
894.918	20172
895.04	20199
895.161	20202
895.283	20138
895.405	20130
895.526	20168
895.648	20271
895.769	20214
895.891	20244
896.012	20240
896.134	20240
896.255	20275
896.376	20229
896.498	20138
896.619	20248
896.74	20157
896.861	20275
896.982	20473
897.103	20629
897.224	20518
897.345	20484
897.466	20339
897.587	20446
897.708	20514
897.828	20381
897.949	20336
898.07	20267
898.19	20298
898.311	20427
898.431	20339
898.552	20476
898.672	20545
898.792	20503
898.913	20438
899.033	20385
899.153	20240
899.273	20073
899.393	20172
899.513	20199
899.633	20168
899.753	20130
899.873	20111
899.993	20191
900.113	20046
900.232	20145
900.352	20122
900.472	19959
900.591	19883
900.711	20001
900.83	19845
900.95	19989
901.069	20065
901.189	19738
901.308	19655
901.427	19514
901.546	19495
901.665	19552
901.784	19434
901.904	19419
902.023	19263
902.141	19152
902.26	19012
902.379	19076
902.498	19110
902.617	19027
902.735	19038
902.854	19057
902.973	18996
903.091	18772
903.21	18757
903.328	18719
903.446	18768
903.565	18540
903.683	18498
903.801	18372
903.919	18395
904.038	18433
904.156	18247
904.274	18372
904.392	18247
904.51	18266
904.627	18243
904.745	18216
904.863	18346
904.981	18026
905.098	17859
905.216	17969
905.334	17965
905.451	17992
905.569	17840
905.686	17920
905.803	17935
905.921	17714
906.038	17779
906.155	17741
906.272	17691
906.389	17771
906.506	17535
906.623	17410
906.74	17547
906.857	17459
906.974	17429
907.091	17592
907.208	17665
907.324	17471
907.441	17368
907.557	17178
907.674	17250
907.79	17261
907.907	17200
908.023	17208
908.139	17143
908.256	17086
908.372	17045
908.488	16999
908.604	16965
908.72	16782
908.836	16976
908.952	16927
909.068	16919
909.184	16923
909.3	16953
909.415	16965
909.531	16831
909.647	16577
909.762	16675
909.878	16664
909.993	16664
910.108	16653
910.224	16599
910.339	16615
910.454	16489
910.57	16459
910.685	16348
910.8	16603
910.915	16554
911.03	16466
911.145	16150
911.259	16093
911.374	16207
911.489	16040
911.604	16074
911.718	15994
911.833	16017
911.947	15854
912.062	15755
912.176	15895
912.291	15903
912.405	15884
912.519	16055
912.633	16025
912.748	16036
912.862	15869
912.976	15770
913.09	15633
913.204	15793
913.318	15838
913.431	15838
913.545	15861
913.659	15819
913.772	15614
913.886	15591
914	15530
914.113	15667
914.226	15720
914.34	15515
914.453	15439
914.566	15549
914.68	15439
914.793	15458
914.906	15291
915.019	15195
915.132	15081
915.245	15176
915.358	15165
915.47	15176
915.583	15192
915.696	15218
915.809	15317
915.921	15325
916.034	15024
916.146	15081
916.259	15017
916.371	15176
916.483	15127
916.595	14944
916.708	15013
916.82	15005
916.932	14990
917.044	14948
917.156	14975
917.268	14868
917.38	14883
917.491	14807
917.603	14777
917.715	14887
917.826	14948
917.938	14807
918.049	14583
918.161	14861
918.272	14902
918.384	14906
918.495	14708
918.606	14689
918.717	14488
918.828	14617
918.939	14579
919.05	14522
919.161	14511
919.272	14362
919.383	14511
919.494	14632
919.604	14868
919.715	14511
919.826	14499
919.936	14575
920.047	14587
920.157	14552
920.267	14758
920.378	14556
920.488	14526
920.598	14663
920.708	14811
920.818	14636
920.928	14625
921.038	14773
921.148	14868
921.258	14446
921.368	14427
921.477	14275
921.587	14294
921.697	14191
921.806	14225
921.916	14062
922.025	13963
922.134	13883
922.244	13852
922.353	13906
922.462	13784
922.571	13746
922.68	13636
922.789	13556
922.898	13552
923.007	13563
923.116	13502
923.224	13556
923.333	13506
923.442	13407
923.55	13373
923.659	13396
923.767	13365
923.876	13369
923.984	13438
924.092	13297
924.201	13285
924.309	13274
924.417	13350
924.525	13183
924.633	13183
924.741	14031
924.849	12954
924.956	13183
925.064	12966
925.172	12970
925.279	13019
925.387	12970
925.494	13019
925.602	13031
925.709	13110
925.816	12848
925.924	12973
926.031	13038
926.138	12958
926.245	12962
926.352	12817
926.459	12871
926.566	12935
926.673	12817
926.779	12741
926.886	12707
926.993	12490
927.099	12498
927.206	12498
927.312	12517
927.419	12654
927.525	12517
927.631	12509
927.737	12448
927.843	12441
927.95	12228
928.056	12372
928.162	12292
928.267	12388
928.373	13019
928.479	12380
928.585	12300
928.69	12346
928.796	12285
928.901	12239
929.007	12041
929.112	12186
929.218	12144
929.323	12136
929.428	12136
929.533	12209
929.638	11931
929.743	11988
929.848	12064
929.953	11961
930.058	11897
930.163	11779
930.267	11783
930.372	11843
930.477	11859
930.581	11950
930.685	11866
930.79	11653
930.894	11646
930.998	11688
931.103	11824
931.207	11398
931.311	11414
931.415	11197
931.519	11140
931.623	10999
