Data from test_V78500241_1940.txt Node
Date: Fri Mar 25 15:23:21 CST 2022
User: usil
Spectrometer: V785-0024
Trigger mode: 0
Integration Time (sec): 4.000000E-1
Scans to average: 1
Nonlinearity correction enabled: false
Boxcar width: 0
Storing dark spectrum: false
XAxis mode: Wavelengths
Number of Pixels in Spectrum: 1024
>>>>>Begin Spectral Data<<<<<
801.071	27808
801.214	27534
801.356	27412
801.499	27412
801.641	27222
801.783	27233
801.926	27298
802.068	27188
802.211	27218
802.353	27150
802.496	26883
802.638	26792
802.78	26804
802.923	26735
803.065	26716
803.208	26864
803.35	26876
803.492	26979
803.635	27024
803.777	26906
803.919	27058
804.061	27363
804.204	27135
804.346	26963
804.488	27009
804.63	26979
804.773	26937
804.915	26994
805.057	27176
805.199	27055
805.341	27047
805.483	27241
805.626	27173
805.768	27135
805.91	27104
806.052	27237
806.194	27017
806.336	27370
806.478	27313
806.62	27359
806.762	27321
806.904	27431
807.046	27549
807.188	27610
807.33	27561
807.472	27641
807.614	27519
807.756	27462
807.898	27500
808.04	27511
808.182	27469
808.324	27412
808.465	27382
808.607	27819
808.749	27895
808.891	27975
809.033	27876
809.174	27675
809.316	27812
809.458	27797
809.6	27766
809.741	28021
809.883	27835
810.025	28143
810.166	28086
810.308	27998
810.45	27937
810.591	27895
810.733	27789
810.875	27736
811.016	27682
811.158	27511
811.299	27842
811.441	27854
811.582	27930
811.724	27720
811.865	27705
812.007	27667
812.148	27781
812.29	27755
812.431	27972
812.573	28143
812.714	28230
812.855	28401
812.997	28401
813.138	28379
813.279	28531
813.421	28287
813.562	28265
813.703	28135
813.845	28086
813.986	27690
814.127	27690
814.268	27534
814.41	27526
814.551	27496
814.692	27515
814.833	27374
814.974	27564
815.115	27519
815.256	27363
815.397	27500
815.539	27340
815.68	27233
815.821	27207
815.962	27389
816.103	27233
816.244	27169
816.385	27184
816.526	26940
816.666	26842
816.807	26834
816.948	26902
817.089	26849
817.23	26838
817.371	26697
817.512	26788
817.653	26735
817.793	26765
817.934	26697
818.075	26800
818.216	26750
818.356	26861
818.497	26655
818.638	26465
818.778	26495
818.919	26419
819.06	26625
819.2	26674
819.341	26758
819.481	26701
819.622	26887
819.762	27135
819.903	27062
820.043	26948
820.184	26800
820.324	26975
820.465	26921
820.605	26891
820.746	26773
820.886	26765
821.026	26883
821.167	26830
821.307	26994
821.447	26804
821.588	26781
821.728	26492
821.868	26503
822.008	26218
822.149	26187
822.289	26305
822.429	26046
822.569	25875
822.709	25909
822.849	25757
822.99	25628
823.13	25742
823.27	25826
823.41	25696
823.55	25502
823.69	25476
823.83	25601
823.97	25468
824.11	25369
824.25	25278
824.389	25438
824.529	25411
824.669	25343
824.809	25445
824.949	25499
825.089	25426
825.228	25472
825.368	25236
825.508	25198
825.648	25278
825.787	25479
825.927	25365
826.067	25251
826.206	25263
826.346	25343
826.485	25343
826.625	25175
826.765	25354
826.904	25274
827.044	25023
827.183	24951
827.323	24920
827.462	24878
827.601	24985
827.741	24867
827.88	24996
828.02	24867
828.159	25000
828.298	24859
828.437	24977
828.577	25027
828.716	24985
828.855	24958
828.994	24642
829.134	24711
829.273	24760
829.412	24661
829.551	24703
829.69	24817
829.829	24616
829.968	24673
830.107	24696
830.246	24673
830.385	24525
830.524	24475
830.663	24471
830.802	24285
830.941	24346
831.08	24372
831.219	24342
831.357	24369
831.496	24536
831.635	24251
831.774	24129
831.913	24235
832.051	24216
832.19	24110
832.329	24098
832.467	24015
832.606	23961
832.744	23984
832.883	23961
833.022	23920
833.16	23798
833.299	24087
833.437	24060
833.576	23977
833.714	24129
833.852	24114
833.991	24106
834.129	24247
834.267	23946
834.406	23939
834.544	24171
834.682	24064
834.821	24018
834.959	24167
835.097	23984
835.235	24125
835.373	23973
835.511	23908
835.65	23893
835.788	23912
835.926	23836
836.064	23722
836.202	23824
836.34	23859
836.478	23973
836.615	23813
836.753	23847
836.891	23954
837.029	23805
837.167	23855
837.305	23771
837.443	23691
837.58	23649
837.718	23684
837.856	23653
837.993	23634
838.131	23680
838.269	23608
838.406	23707
838.544	23505
838.681	23379
838.819	23326
838.956	23197
839.094	23265
839.231	23231
839.369	23326
839.506	23608
839.643	23448
839.781	23250
839.918	23044
840.055	23208
840.193	23231
840.33	23041
840.467	23117
840.604	23052
840.742	23265
840.879	22938
841.016	22946
841.153	23025
841.29	23155
841.427	23067
841.564	23174
841.701	23117
841.838	23006
841.975	22881
842.112	22949
842.249	22995
842.385	22896
842.522	23075
842.659	22938
842.796	22797
842.933	22847
843.069	22831
843.206	22767
843.343	22911
843.479	22908
843.616	22927
843.752	22538
843.889	22645
844.025	22797
844.162	22607
844.298	22702
844.435	22740
844.571	22592
844.708	22592
844.844	22805
844.98	22881
845.117	22778
845.253	22634
845.389	22462
845.525	22455
845.661	22504
845.798	22375
845.934	22421
846.07	22169
846.206	22348
846.342	22523
846.478	22348
846.614	22226
846.75	22051
846.886	22173
847.022	22188
847.158	22097
847.294	22055
847.429	22120
847.565	22128
847.701	22303
847.837	21865
847.972	21926
848.108	22032
848.244	21880
848.379	21808
848.515	21667
848.65	21622
848.786	21629
848.921	21747
849.057	21918
849.192	21751
849.328	21774
849.463	21736
849.598	21667
849.734	21747
849.869	21705
850.004	21420
850.14	21485
850.275	21431
850.41	21526
850.545	21439
850.68	21428
850.815	21511
850.95	21450
851.085	21770
851.22	21686
851.355	21572
851.49	21424
851.625	21466
851.76	21412
851.895	21450
852.03	21412
852.165	21439
852.299	21439
852.434	21530
852.569	21481
852.703	21492
852.838	21564
852.973	21656
853.107	21580
853.242	21306
853.376	21283
853.511	21199
853.645	21340
853.78	21458
853.914	21412
854.048	21157
854.183	21310
854.317	21252
854.451	21473
854.585	21173
854.72	21397
854.854	21351
854.988	21112
855.122	21245
855.256	21146
855.39	21298
855.524	21401
855.658	21241
855.792	21310
855.926	21317
856.06	21329
856.194	21447
856.327	21241
856.461	21211
856.595	21195
856.729	21291
856.862	21477
856.996	21401
857.13	21291
857.263	21405
857.397	21424
857.53	21233
857.664	21306
857.797	21283
857.931	21336
858.064	21252
858.197	21332
858.331	21294
858.464	21329
858.597	21207
858.731	21291
858.864	21351
858.997	21272
859.13	21355
859.263	21283
859.396	21363
859.529	21291
859.662	21332
859.795	21260
859.928	21313
860.061	21458
860.194	21485
860.327	21355
860.46	21336
860.592	21405
860.725	21401
860.858	21325
860.99	21325
861.123	21207
861.256	21283
861.388	21355
861.521	21876
861.653	21230
861.786	21062
861.918	21096
862.05	21131
862.183	21188
862.315	21203
862.447	21176
862.58	21211
862.712	20994
862.844	20971
862.976	21138
863.108	21237
863.24	21408
863.372	20994
863.504	20868
863.636	20948
863.768	20998
863.9	20990
864.032	20937
864.164	20979
864.296	20979
864.428	21066
864.559	21032
864.691	21036
864.823	21070
864.954	20861
865.086	20956
865.217	20864
865.349	20861
865.48	20842
865.612	20880
865.743	20925
865.875	20914
866.006	20781
866.137	20887
866.269	20895
866.4	20906
866.531	20716
866.662	20720
866.793	20868
866.924	20891
867.055	20883
867.186	20887
867.317	20765
867.448	20716
867.579	20788
867.71	20804
867.841	20796
867.972	20823
868.103	20895
868.233	20838
868.364	20849
868.495	20868
868.625	21100
868.756	21176
868.886	21055
869.017	20952
869.147	21272
869.278	21150
869.408	21119
869.539	21055
869.669	21131
869.799	21077
869.929	21214
870.06	21222
870.19	21401
870.32	21298
870.45	21431
870.58	21454
870.71	21595
870.84	21519
870.97	21515
871.1	21458
871.23	21591
871.36	21644
871.489	21583
871.619	21694
871.749	21610
871.879	21663
872.008	21808
872.138	21713
872.267	21717
872.397	21599
872.526	21462
872.656	21515
872.785	21424
872.915	21686
873.044	21739
873.173	21641
873.303	21728
873.432	21778
873.561	21759
873.69	21701
873.819	21656
873.948	21770
874.077	21675
874.206	21656
874.335	21667
874.464	21743
874.593	21953
874.722	21880
874.851	21930
874.979	22002
875.108	22124
875.237	21850
875.365	21869
875.494	21899
875.623	22040
875.751	21835
875.88	21918
876.008	22032
876.136	21945
876.265	22242
876.393	22497
876.521	22375
876.65	22375
876.778	22363
876.906	22196
877.034	22215
877.162	22337
877.29	22204
877.418	22280
877.546	22219
877.674	22249
877.802	22261
877.93	22272
878.058	22093
878.185	22086
878.313	22276
878.441	22226
878.568	22036
878.696	22173
878.824	22238
878.951	22226
879.079	22356
879.206	22577
879.333	22500
879.461	22310
879.588	22462
879.715	22394
879.842	22398
879.97	22337
880.097	22059
880.224	22082
880.351	22105
880.478	22112
880.605	21941
880.732	22074
880.859	22329
880.986	21987
881.112	22074
881.239	21869
881.366	21838
881.493	21785
881.619	21622
881.746	21762
881.872	21557
881.999	21622
882.125	21587
882.252	21625
882.378	21641
882.505	21751
882.631	21523
882.757	21386
882.883	21435
883.01	21386
883.136	21435
883.262	21195
883.388	21298
883.514	21351
883.64	21462
883.766	21245
883.892	21226
884.018	21100
884.143	21252
884.269	21462
884.395	21081
884.52	20918
884.646	21043
884.772	20975
884.897	20883
885.023	20994
885.148	21127
885.274	21096
885.399	21157
885.524	20921
885.65	20963
885.775	21039
885.9	21017
886.025	21089
886.15	21074
886.275	21036
886.4	20887
886.525	20967
886.65	20994
886.775	20842
886.9	21077
887.025	21093
887.149	20986
887.274	20720
887.399	20796
887.523	20769
887.648	20765
887.773	20682
887.897	20815
888.021	20838
888.146	20754
888.27	20788
888.395	20762
888.519	20777
888.643	20716
888.767	20842
888.891	20708
889.015	20533
889.139	20663
889.263	20511
889.387	20686
889.511	20762
889.635	20720
889.759	20473
889.883	20606
890.006	20678
890.13	20537
890.254	20522
890.377	20549
890.501	20210
890.624	20202
890.748	20290
890.871	20199
890.995	20164
891.118	20096
891.241	20237
891.364	20210
891.488	20195
891.611	20191
891.734	20016
891.857	20240
891.98	20237
892.103	20225
892.226	20092
892.349	20202
892.471	19871
892.594	20081
892.717	20130
892.839	20020
892.962	20046
893.085	20172
893.207	20016
893.33	19883
893.452	20001
893.575	20088
893.697	19970
893.819	20183
893.941	20244
894.064	20229
894.186	19951
894.308	19913
894.43	20191
894.552	20233
894.674	20149
894.796	19967
894.918	20050
895.04	19906
895.161	20039
895.283	20161
895.405	20016
895.526	20107
895.648	19944
895.769	20062
895.891	20077
896.012	20130
896.134	19997
896.255	20050
896.376	19993
896.498	20161
896.619	20088
896.74	19993
896.861	20039
896.982	20233
897.103	20427
897.224	20320
897.345	20282
897.466	20138
897.587	20263
897.708	20412
897.828	20343
897.949	20202
898.07	20122
898.19	20244
898.311	20317
898.431	20115
898.552	20343
898.672	20294
898.792	20351
898.913	20294
899.033	20164
899.153	20027
899.273	20020
899.393	20084
899.513	20008
899.633	19970
899.753	19963
899.873	19913
899.993	20058
900.113	20008
900.232	20058
900.352	19947
900.472	19887
900.591	19731
900.711	19868
900.83	19811
900.95	19841
901.069	19852
901.189	19696
901.308	19476
901.427	19282
901.546	19297
901.665	19419
901.784	19301
901.904	19285
902.023	19164
902.141	19053
902.26	18951
902.379	18970
902.498	18871
902.617	18897
902.735	18806
902.854	18856
902.973	18719
903.091	18620
903.21	18684
903.328	18471
903.446	18460
903.565	18220
903.683	18361
903.801	18372
903.919	18266
904.038	18296
904.156	18079
904.274	18194
904.392	18076
904.51	18049
904.627	18125
904.745	18216
904.863	18102
904.981	18095
905.098	17824
905.216	17771
905.334	17863
905.451	17790
905.569	17790
905.686	17756
905.803	17737
905.921	17665
906.038	17634
906.155	17676
906.272	17520
906.389	17512
906.506	17216
906.623	17406
906.74	17288
906.857	17200
906.974	17216
907.091	17376
907.208	17448
907.324	17337
907.441	17166
907.557	17098
907.674	17128
907.79	16946
907.907	16995
908.023	17041
908.139	16976
908.256	17025
908.372	16953
908.488	16965
908.604	16839
908.72	16816
908.836	16816
908.952	16793
909.068	16790
909.184	16854
909.3	16771
909.415	16774
909.531	16809
909.647	16641
909.762	16596
909.878	16402
909.993	16481
910.108	16417
910.224	16371
910.339	16512
910.454	16310
910.57	16242
910.685	16192
910.8	16485
910.915	16474
911.03	16295
911.145	16120
911.259	16051
911.374	16116
911.489	15937
911.604	15945
911.718	15774
911.833	15816
911.947	15785
912.062	15671
912.176	15720
912.291	15793
912.405	15842
912.519	15972
912.633	15998
912.748	15793
912.862	15781
912.976	15633
913.09	15542
913.204	15690
913.318	15732
913.431	15724
913.545	15739
913.659	15709
913.772	15603
913.886	15450
914	15408
914.113	15504
914.226	15553
914.34	15515
914.453	15367
914.566	15481
914.68	15344
914.793	15287
914.906	15123
915.019	15013
915.132	15032
915.245	15032
915.358	15127
915.47	15077
915.583	15104
915.696	15169
915.809	15192
915.921	15047
916.034	14971
916.146	14960
916.259	14921
916.371	15036
916.483	14948
916.595	14880
916.708	14941
916.82	14826
916.932	14921
917.044	14746
917.156	14701
917.268	14724
917.38	14731
917.491	14651
917.603	14754
917.715	14750
917.826	14849
917.938	14663
918.049	14552
918.161	14670
918.272	14727
918.384	14765
918.495	14659
918.606	14514
918.717	14389
918.828	14499
918.939	14442
919.05	14377
919.161	14495
919.272	14172
919.383	14343
919.494	14537
919.604	14598
919.715	14507
919.826	14355
919.936	14313
920.047	14476
920.157	14457
920.267	14625
920.378	14427
920.488	14412
920.598	14583
920.708	14727
920.818	14560
920.928	14480
921.038	14765
921.148	14708
921.258	14408
921.368	14298
921.477	14267
921.587	14187
921.697	14008
921.806	14183
921.916	14046
922.025	13898
922.134	13769
922.244	13814
922.353	13864
922.462	13677
922.571	13571
922.68	13480
922.789	13438
922.898	13480
923.007	13373
923.116	13438
923.224	13343
923.333	13453
923.442	13381
923.55	13232
923.659	13358
923.767	13327
923.876	13274
923.984	13343
924.092	13137
924.201	13202
924.309	13149
924.417	13247
924.525	13091
924.633	13057
924.741	14035
924.849	12920
924.956	13084
925.064	12920
925.172	12798
925.279	12962
925.387	12913
925.494	12935
925.602	12996
925.709	12859
925.816	12821
925.924	12852
926.031	12913
926.138	12886
926.245	12897
926.352	12783
926.459	12829
926.566	12886
926.673	12715
926.779	12623
926.886	12658
926.993	12486
927.099	12437
927.206	12319
927.312	12384
927.419	12414
927.525	12327
927.631	12486
927.737	12311
927.843	12289
927.95	12205
928.056	12201
928.162	12262
928.267	12266
928.373	12730
928.479	12376
928.585	12049
928.69	12235
928.796	12247
928.901	12133
929.007	12003
929.112	12148
929.218	12049
929.323	12057
929.428	11992
929.533	12216
929.638	11882
929.743	11882
929.848	12026
929.953	11878
930.058	11760
930.163	11688
930.267	11737
930.372	11828
930.477	11657
930.581	11961
930.685	11779
930.79	11592
930.894	11562
930.998	11520
931.103	11707
931.207	11356
931.311	11246
931.415	11166
931.519	10980
931.623	10915
