Data from test_V78500241_1970.txt Node
Date: Fri Mar 25 15:23:34 CST 2022
User: usil
Spectrometer: V785-0024
Trigger mode: 0
Integration Time (sec): 4.000000E-1
Scans to average: 1
Nonlinearity correction enabled: false
Boxcar width: 0
Storing dark spectrum: false
XAxis mode: Wavelengths
Number of Pixels in Spectrum: 1024
>>>>>Begin Spectral Data<<<<<
801.071	27671
801.214	27812
801.356	27454
801.499	27370
801.641	27443
801.783	27302
801.926	27370
802.068	27374
802.211	27260
802.353	27260
802.496	27051
802.638	26891
802.78	26944
802.923	26990
803.065	26899
803.208	26929
803.35	27005
803.492	27077
803.635	27173
803.777	26986
803.919	27085
804.061	27416
804.204	27180
804.346	27085
804.488	27184
804.63	27272
804.773	27085
804.915	27264
805.057	27302
805.199	27184
805.341	27157
805.483	27397
805.626	27389
805.768	27154
805.91	27214
806.052	27325
806.194	27351
806.336	27561
806.478	27310
806.62	27386
806.762	27488
806.904	27580
807.046	27709
807.188	27675
807.33	27823
807.472	27736
807.614	27660
807.756	27705
807.898	27542
808.04	27545
808.182	27564
808.324	27504
808.465	27641
808.607	27934
808.749	27880
808.891	27876
809.033	28124
809.174	27838
809.316	27850
809.458	27846
809.6	27808
809.741	28048
809.883	28036
810.025	28188
810.166	28188
810.308	28021
810.45	28135
810.591	28116
810.733	27903
810.875	27747
811.016	27789
811.158	27732
811.299	27922
811.441	27930
811.582	28044
811.724	27903
811.865	27804
812.007	27903
812.148	27880
812.29	28074
812.431	27949
812.573	28128
812.714	28413
812.855	28424
812.997	28485
813.138	28481
813.279	28615
813.421	28367
813.562	28474
813.703	28204
813.845	28116
813.986	27972
814.127	27732
814.268	27553
814.41	27705
814.551	27633
814.692	27652
814.833	27511
814.974	27580
815.115	27572
815.256	27561
815.397	27545
815.539	27340
815.68	27599
815.821	27321
815.962	27348
816.103	27325
816.244	27207
816.385	27039
816.526	27085
816.666	26986
816.807	26872
816.948	26876
817.089	26906
817.23	26853
817.371	26956
817.512	26883
817.653	26895
817.793	26857
817.934	26830
818.075	26842
818.216	26910
818.356	26906
818.497	26815
818.638	26727
818.778	26606
818.919	26796
819.06	26758
819.2	26807
819.341	26921
819.481	26994
819.622	27017
819.762	27272
819.903	27192
820.043	27169
820.184	27017
820.324	26948
820.465	27116
820.605	26952
820.746	26861
820.886	26857
821.026	27017
821.167	26933
821.307	27058
821.447	26834
821.588	26731
821.728	26606
821.868	26533
822.008	26377
822.149	26358
822.289	26301
822.429	25951
822.569	26138
822.709	26107
822.849	25849
822.99	25917
823.13	25837
823.27	25841
823.41	25662
823.55	25696
823.69	25651
823.83	25685
823.97	25655
824.11	25434
824.25	25457
824.389	25533
824.529	25632
824.669	25514
824.809	25666
824.949	25540
825.089	25655
825.228	25537
825.368	25358
825.508	25362
825.648	25476
825.787	25445
825.927	25506
826.067	25449
826.206	25255
826.346	25377
826.485	25521
826.625	25225
826.765	25487
826.904	25464
827.044	25095
827.183	25145
827.323	25034
827.462	25072
827.601	25164
827.741	25069
827.88	25072
828.02	24951
828.159	25038
828.298	25103
828.437	25091
828.577	24970
828.716	25137
828.855	25012
828.994	24757
829.134	24741
829.273	24928
829.412	24802
829.551	24711
829.69	24787
829.829	24783
829.968	24878
830.107	24844
830.246	24848
830.385	24772
830.524	24798
830.663	24631
830.802	24658
830.941	24483
831.08	24384
831.219	24380
831.357	24498
831.496	24623
831.635	24384
831.774	24441
831.913	24270
832.051	24235
832.19	24144
832.329	24239
832.467	24136
832.606	24011
832.744	23958
832.883	24239
833.022	23958
833.16	24190
833.299	24087
833.437	24167
833.576	24117
833.714	24186
833.852	24209
833.991	24197
834.129	24292
834.267	24182
834.406	24266
834.544	24311
834.682	24140
834.821	24125
834.959	24277
835.097	24041
835.235	24228
835.373	24159
835.511	24167
835.65	23992
835.788	23973
835.926	23756
836.064	23714
836.202	23767
836.34	24026
836.478	24068
836.615	23973
836.753	23912
836.891	24038
837.029	23882
837.167	23847
837.305	23771
837.443	23847
837.58	23805
837.718	23939
837.856	23809
837.993	23680
838.131	23897
838.269	23737
838.406	23893
838.544	23691
838.681	23615
838.819	23573
838.956	23299
839.094	23254
839.231	23414
839.369	23387
839.506	23634
839.643	23642
839.781	23337
839.918	23254
840.055	23414
840.193	23250
840.33	23250
840.467	23132
840.604	23189
840.742	23570
840.879	23041
841.016	23159
841.153	23117
841.29	23337
841.427	23083
841.564	23109
841.701	23121
841.838	23204
841.975	23151
842.112	23140
842.249	23124
842.385	22980
842.522	23136
842.659	23037
842.796	22991
842.933	22927
843.069	22820
843.206	22915
843.343	23025
843.479	22991
843.616	22957
843.752	22839
843.889	22793
844.025	22759
844.162	22721
844.298	22866
844.435	22816
844.571	22664
844.708	22710
844.844	22854
844.98	22797
845.117	22854
845.253	22649
845.389	22675
845.525	22622
845.661	22561
845.798	22443
845.934	22561
846.07	22386
846.206	22375
846.342	22641
846.478	22481
846.614	22356
846.75	22143
846.886	22131
847.022	22402
847.158	22295
847.294	22150
847.429	22417
847.565	22116
847.701	22424
847.837	21953
847.972	21945
848.108	22090
848.244	22101
848.379	21736
848.515	21694
848.65	21797
848.786	21625
848.921	21797
849.057	21888
849.192	21831
849.328	21846
849.463	21797
849.598	21751
849.734	21747
849.869	21743
850.004	21587
850.14	21618
850.275	21599
850.41	21492
850.545	21549
850.68	21557
850.815	21523
850.95	21523
851.085	21698
851.22	21542
851.355	21652
851.49	21618
851.625	21644
851.76	21587
851.895	21447
852.03	21473
852.165	21507
852.299	21660
852.434	21641
852.569	21637
852.703	21542
852.838	21679
852.973	21641
853.107	21656
853.242	21492
853.376	21359
853.511	21313
853.645	21332
853.78	21443
853.914	21431
854.048	21332
854.183	21447
854.317	21355
854.451	21447
854.585	21370
854.72	21382
854.854	21416
854.988	21264
855.122	21454
855.256	21203
855.39	21370
855.524	21401
855.658	21450
855.792	21435
855.926	21416
856.06	21408
856.194	21386
856.327	21378
856.461	21344
856.595	21256
856.729	21401
856.862	21496
856.996	21439
857.13	21424
857.263	21393
857.397	21469
857.53	21412
857.664	21458
857.797	21549
857.931	21595
858.064	21397
858.197	21450
858.331	21310
858.464	21386
858.597	21291
858.731	21313
858.864	21294
858.997	21351
859.13	21401
859.263	21382
859.396	21515
859.529	21416
859.662	21386
859.795	21306
859.928	21340
860.061	21477
860.194	21553
860.327	21401
860.46	21367
860.592	21507
860.725	21462
860.858	21477
860.99	21386
861.123	21332
861.256	21435
861.388	21473
861.521	22128
861.653	21332
861.786	21058
861.918	21233
862.05	21272
862.183	21336
862.315	21291
862.447	21313
862.58	21363
862.712	21146
862.844	21039
862.976	21264
863.108	21112
863.24	21511
863.372	21142
863.504	21074
863.636	20963
863.768	21127
863.9	21123
864.032	20971
864.164	20982
864.296	21047
864.428	21169
864.559	21081
864.691	21138
864.823	21020
864.954	20990
865.086	21051
865.217	20982
865.349	20963
865.48	21017
865.612	21066
865.743	21268
865.875	21081
866.006	20891
866.137	21009
866.269	20921
866.4	21047
866.531	20929
866.662	20838
866.793	20963
866.924	20933
867.055	20979
867.186	20872
867.317	20823
867.448	20868
867.579	20967
867.71	20823
867.841	20769
867.972	20933
868.103	20853
868.233	20918
868.364	21013
868.495	21005
868.625	21146
868.756	21351
868.886	21226
869.017	21184
869.147	21233
869.278	21275
869.408	21291
869.539	21249
869.669	21329
869.799	21173
869.929	21245
870.06	21260
870.19	21359
870.32	21382
870.45	21473
870.58	21595
870.71	21603
870.84	21656
870.97	21542
871.1	21488
871.23	21797
871.36	21766
871.489	21572
871.619	21705
871.749	21728
871.879	21812
872.008	21808
872.138	21713
872.267	21781
872.397	21637
872.526	21610
872.656	21682
872.785	21545
872.915	21865
873.044	21854
873.173	21755
873.303	21899
873.432	21736
873.561	21812
873.69	21789
873.819	21774
873.948	21835
874.077	21823
874.206	21778
874.335	21774
874.464	21937
874.593	22093
874.722	21903
874.851	21945
874.979	22086
875.108	21960
875.237	21991
875.365	21869
875.494	21930
875.623	22063
875.751	21903
875.88	22067
876.008	22116
876.136	22173
876.265	22409
876.393	22489
876.521	22497
876.65	22459
876.778	22436
876.906	22367
877.034	22447
877.162	22371
877.29	22291
877.418	22333
877.546	22329
877.674	22253
877.802	22367
877.93	22314
878.058	22234
878.185	22200
878.313	22223
878.441	22352
878.568	22188
878.696	22261
878.824	22382
878.951	22344
879.079	22550
879.206	22577
879.333	22504
879.461	22333
879.588	22542
879.715	22535
879.842	22554
879.97	22436
880.097	22143
880.224	22261
880.351	22215
880.478	22204
880.605	22322
880.732	22230
880.859	22329
880.986	22143
881.112	22120
881.239	22017
881.366	21915
881.493	21812
881.619	21762
881.746	21903
881.872	21709
881.999	21827
882.125	21690
882.252	21739
882.378	21690
882.505	21819
882.631	21599
882.757	21477
882.883	21538
883.01	21450
883.136	21412
883.262	21256
883.388	21355
883.514	21462
883.64	21397
883.766	21393
883.892	21325
884.018	21275
884.143	21500
884.269	21534
884.395	21233
884.52	21230
884.646	21169
884.772	21028
884.897	20998
885.023	21093
885.148	21233
885.274	21233
885.399	21230
885.524	21188
885.65	21176
885.775	21077
885.9	21108
886.025	21283
886.15	21123
886.275	21077
886.4	21154
886.525	21119
886.65	20967
886.775	21058
886.9	21214
887.025	21283
887.149	21142
887.274	20876
887.399	20861
887.523	20891
887.648	20838
887.773	20880
887.897	20944
888.021	21005
888.146	20857
888.27	20998
888.395	21032
888.519	20857
888.643	20849
888.767	21039
888.891	20708
889.015	20606
889.139	20785
889.263	20606
889.387	20765
889.511	20914
889.635	20880
889.759	20701
889.883	20705
890.006	20682
890.13	20777
890.254	20785
890.377	20697
890.501	20556
890.624	20526
890.748	20564
890.871	20294
890.995	20396
891.118	20271
891.241	20278
891.364	20271
891.488	20294
891.611	20298
891.734	20324
891.857	20385
891.98	20282
892.103	20259
892.226	20317
892.349	20248
892.471	19978
892.594	20195
892.717	20252
892.839	20096
892.962	20252
893.085	20157
893.207	20195
893.33	20092
893.452	20103
893.575	20218
893.697	20096
893.819	20404
893.941	20423
894.064	20358
894.186	20153
894.308	20161
894.43	20278
894.552	20237
894.674	20393
894.796	20016
894.918	20096
895.04	20210
895.161	20218
895.283	20199
895.405	20145
895.526	20084
895.648	20134
895.769	20259
895.891	20206
896.012	20229
896.134	20130
896.255	20206
896.376	20096
896.498	20172
896.619	20187
896.74	20202
896.861	20324
896.982	20343
897.103	20636
897.224	20412
897.345	20218
897.466	20404
897.587	20366
897.708	20488
897.828	20381
897.949	20332
898.07	20176
898.19	20286
898.311	20328
898.431	20393
898.552	20484
898.672	20434
898.792	20499
898.913	20336
899.033	20240
899.153	20088
899.273	20062
899.393	20134
899.513	20180
899.633	20069
899.753	20092
899.873	20024
899.993	20065
900.113	20046
900.232	19967
900.352	19986
900.472	19906
900.591	19738
900.711	20012
900.83	19940
900.95	20012
901.069	19940
901.189	19639
901.308	19521
901.427	19472
901.546	19472
901.665	19472
901.784	19548
901.904	19346
902.023	19278
902.141	19160
902.26	19034
902.379	19206
902.498	18947
902.617	18935
902.735	18954
902.854	18985
902.973	18909
903.091	18692
903.21	18627
903.328	18578
903.446	18597
903.565	18544
903.683	18327
903.801	18315
903.919	18486
904.038	18479
904.156	18254
904.274	18304
904.392	18285
904.51	18243
904.627	18216
904.745	18235
904.863	18228
904.981	18060
905.098	17878
905.216	17920
905.334	17988
905.451	17851
905.569	17889
905.686	17980
905.803	17870
905.921	17703
906.038	17756
906.155	17745
906.272	17653
906.389	17665
906.506	17433
906.623	17448
906.74	17493
906.857	17448
906.974	17383
907.091	17429
907.208	17433
907.324	17387
907.441	17349
907.557	17174
907.674	17174
907.79	17105
907.907	17079
908.023	17136
908.139	17212
908.256	17174
908.372	17086
908.488	17151
908.604	16953
908.72	16862
908.836	16900
908.952	16805
909.068	16896
909.184	16972
909.3	16877
909.415	16900
909.531	16881
909.647	16790
909.762	16603
909.878	16569
909.993	16596
910.108	16481
910.224	16596
910.339	16645
910.454	16485
910.57	16417
910.685	16287
910.8	16546
910.915	16634
911.03	16390
911.145	16253
911.259	16154
911.374	16257
911.489	16086
911.604	16120
911.718	15960
911.833	16006
911.947	15785
912.062	15778
912.176	15949
912.291	15956
912.405	15865
912.519	15953
912.633	16063
912.748	15915
912.862	15846
912.976	15774
913.09	15656
913.204	15690
913.318	15846
913.431	15759
913.545	15770
913.659	15869
913.772	15732
913.886	15488
914	15561
914.113	15610
914.226	15743
914.34	15599
914.453	15500
914.566	15572
914.68	15542
914.793	15435
914.906	15169
915.019	15222
915.132	15081
915.245	15165
915.358	15119
915.47	15138
915.583	15157
915.696	15214
915.809	15192
915.921	15252
916.034	15127
916.146	15017
916.259	15032
916.371	15051
916.483	15001
916.595	15085
916.708	15017
916.82	15009
916.932	14819
917.044	15036
917.156	14880
917.268	14826
917.38	14807
917.491	14743
917.603	14640
917.715	14990
917.826	14853
917.938	14640
918.049	14659
918.161	14705
918.272	14910
918.384	14804
918.495	14659
918.606	14583
918.717	14446
918.828	14598
918.939	14625
919.05	14438
919.161	14560
919.272	14358
919.383	14434
919.494	14473
919.604	14788
919.715	14571
919.826	14450
919.936	14511
920.047	14606
920.157	14560
920.267	14724
920.378	14484
920.488	14454
920.598	14682
920.708	14861
920.818	14568
920.928	14682
921.038	14781
921.148	14800
921.258	14522
921.368	14412
921.477	14278
921.587	14225
921.697	14206
921.806	14290
921.916	14161
922.025	13811
922.134	13883
922.244	13849
922.353	13868
922.462	13803
922.571	13727
922.68	13567
922.789	13548
922.898	13525
923.007	13559
923.116	13594
923.224	13506
923.333	13495
923.442	13381
923.55	13255
923.659	13354
923.767	13487
923.876	13377
923.984	13426
924.092	13274
924.201	13381
924.309	13251
924.417	13236
924.525	13107
924.633	13179
924.741	13944
924.849	13069
924.956	13012
925.064	13034
925.172	12943
925.279	12920
925.387	12993
925.494	12996
925.602	12981
925.709	12981
925.816	12909
925.924	13000
926.031	12981
926.138	12909
926.245	12970
926.352	12779
926.459	12875
926.566	12973
926.673	12829
926.779	12650
926.886	12749
926.993	12589
927.099	12551
927.206	12532
927.312	12479
927.419	12483
927.525	12582
927.631	12483
927.737	12353
927.843	12365
927.95	12254
928.056	12300
928.162	12391
928.267	12395
928.373	12951
928.479	12372
928.585	12171
928.69	12270
928.796	12315
928.901	12182
929.007	12022
929.112	12254
929.218	12201
929.323	12114
929.428	12087
929.533	12190
929.638	11973
929.743	12068
929.848	12106
929.953	11992
930.058	11866
930.163	11802
930.267	11771
930.372	11878
930.477	11718
930.581	12007
930.685	11794
930.79	11695
930.894	11604
930.998	11608
931.103	11809
931.207	11406
931.311	11296
931.415	11235
931.519	11025
931.623	11102
