Data from test_V78500241_2597.txt Node
Date: Fri Mar 25 15:27:56 CST 2022
User: usil
Spectrometer: V785-0024
Trigger mode: 0
Integration Time (sec): 4.000000E-1
Scans to average: 1
Nonlinearity correction enabled: false
Boxcar width: 0
Storing dark spectrum: false
XAxis mode: Wavelengths
Number of Pixels in Spectrum: 1024
>>>>>Begin Spectral Data<<<<<
801.071	27310
801.214	26933
801.356	26956
801.499	26788
801.641	26693
801.783	26590
801.926	26872
802.068	26762
802.211	26579
802.353	26465
802.496	26453
802.638	26362
802.78	26286
802.923	26286
803.065	26206
803.208	26153
803.35	26324
803.492	26473
803.635	26606
803.777	26393
803.919	26469
804.061	26796
804.204	26453
804.346	26396
804.488	26229
804.63	26480
804.773	26343
804.915	26488
805.057	26621
805.199	26442
805.341	26651
805.483	26625
805.626	26434
805.768	26522
805.91	26587
806.052	26568
806.194	26412
806.336	26632
806.478	26469
806.62	26526
806.762	26708
806.904	26762
807.046	26982
807.188	27028
807.33	27009
807.472	27135
807.614	26872
807.756	26986
807.898	26963
808.04	26716
808.182	26815
808.324	26796
808.465	26933
808.607	26986
808.749	27165
808.891	27287
809.033	27329
809.174	27222
809.316	27184
809.458	27119
809.6	27169
809.741	27268
809.883	27283
810.025	27553
810.166	27412
810.308	27507
810.45	27317
810.591	27302
810.733	27192
810.875	27207
811.016	27081
811.158	27036
811.299	27180
811.441	27386
811.582	27447
811.724	27146
811.865	27116
812.007	26979
812.148	27146
812.29	27093
812.431	27355
812.573	27386
812.714	27637
812.855	27686
812.997	27724
813.138	27888
813.279	27800
813.421	27587
813.562	27610
813.703	27481
813.845	27355
813.986	27100
814.127	26975
814.268	26918
814.41	26842
814.551	26743
814.692	26998
814.833	26765
814.974	26762
815.115	26746
815.256	26682
815.397	26701
815.539	26640
815.68	26530
815.821	26537
815.962	26815
816.103	26495
816.244	26400
816.385	26526
816.526	26332
816.666	26130
816.807	26001
816.948	26191
817.089	26183
817.23	26138
817.371	26039
817.512	26062
817.653	26043
817.793	25947
817.934	26081
818.075	26107
818.216	26058
818.356	26084
818.497	25944
818.638	25947
818.778	25746
818.919	25704
819.06	26020
819.2	26103
819.341	26100
819.481	26046
819.622	26229
819.762	26362
819.903	26332
820.043	26377
820.184	26275
820.324	26202
820.465	26305
820.605	26298
820.746	26195
820.886	26081
821.026	26084
821.167	26088
821.307	26256
821.447	25986
821.588	25982
821.728	25833
821.868	25704
822.008	25392
822.149	25609
822.289	25635
822.429	25274
822.569	25327
822.709	25350
822.849	25129
822.99	25076
823.13	25057
823.27	24909
823.41	24939
823.55	24821
823.69	24905
823.83	24970
823.97	24939
824.11	24688
824.25	24673
824.389	24589
824.529	24692
824.669	24665
824.809	24867
824.949	24749
825.089	24787
825.228	24734
825.368	24551
825.508	24521
825.648	24677
825.787	24555
825.927	24658
826.067	24711
826.206	24612
826.346	24540
826.485	24692
826.625	24608
826.765	24658
826.904	24681
827.044	24315
827.183	24304
827.323	24369
827.462	24273
827.601	24330
827.741	24197
827.88	24388
828.02	24338
828.159	24235
828.298	24330
828.437	24334
828.577	24216
828.716	24353
828.855	24254
828.994	24083
829.134	23828
829.273	23901
829.412	23882
829.551	23908
829.69	23939
829.829	23946
829.968	24114
830.107	24030
830.246	24064
830.385	23950
830.524	24003
830.663	23908
830.802	23752
830.941	23543
831.08	23611
831.219	23748
831.357	23718
831.496	23866
831.635	23558
831.774	23505
831.913	23433
832.051	23410
832.19	23395
832.329	23318
832.467	23303
832.606	23197
832.744	23242
832.883	23337
833.022	23235
833.16	23273
833.299	23318
833.437	23318
833.576	23349
833.714	23368
833.852	23364
833.991	23448
834.129	23490
834.267	23341
834.406	23299
834.544	23368
834.682	23284
834.821	23322
834.959	23452
835.097	23345
835.235	23379
835.373	23372
835.511	23368
835.65	23197
835.788	23098
835.926	23162
836.064	23056
836.202	22949
836.34	23151
836.478	23353
836.615	23235
836.753	23071
836.891	23273
837.029	23246
837.167	23193
837.305	23086
837.443	23075
837.58	23037
837.718	23147
837.856	23094
837.993	23029
838.131	22984
838.269	22927
838.406	22953
838.544	22908
838.681	22786
838.819	22713
838.956	22531
839.094	22436
839.231	22664
839.369	22790
839.506	22968
839.643	22858
839.781	22470
839.918	22478
840.055	22637
840.193	22588
840.33	22504
840.467	22455
840.604	22561
840.742	22763
840.879	22432
841.016	22295
841.153	22428
841.29	22542
841.427	22318
841.564	22569
841.701	22615
841.838	22424
841.975	22360
842.112	22455
842.249	22417
842.385	22268
842.522	22447
842.659	22344
842.796	22257
842.933	22207
843.069	22253
843.206	22234
843.343	22356
843.479	22181
843.616	22310
843.752	22025
843.889	22029
844.025	22139
844.162	22059
844.298	22166
844.435	21987
844.571	22040
844.708	22105
844.844	22200
844.98	22051
845.117	22192
845.253	21956
845.389	21895
845.525	21857
845.661	21793
845.798	21785
845.934	21781
846.07	21724
846.206	21812
846.342	21907
846.478	21660
846.614	21538
846.75	21519
846.886	21614
847.022	21488
847.158	21595
847.294	21454
847.429	21500
847.565	21515
847.701	21690
847.837	21252
847.972	21199
848.108	21252
848.244	21256
848.379	21047
848.515	21157
848.65	21024
848.786	21077
848.921	21055
849.057	21275
849.192	21058
849.328	21116
849.463	21104
849.598	21005
849.734	20998
849.869	20979
850.004	20948
850.14	20853
850.275	20861
850.41	20788
850.545	20743
850.68	20868
850.815	20826
850.95	20937
851.085	21093
851.22	21017
851.355	20872
851.49	20811
851.625	20731
851.76	20823
851.895	20769
852.03	20769
852.165	20815
852.299	20876
852.434	20891
852.569	20880
852.703	20830
852.838	20754
852.973	20937
853.107	20918
853.242	20815
853.376	20777
853.511	20541
853.645	20625
853.78	20788
853.914	20613
854.048	20613
854.183	20629
854.317	20777
854.451	20876
854.585	20686
854.72	20663
854.854	20773
854.988	20667
855.122	20629
855.256	20537
855.39	20701
855.524	20689
855.658	20587
855.792	20735
855.926	20689
856.06	20655
856.194	20739
856.327	20625
856.461	20507
856.595	20640
856.729	20712
856.862	20796
856.996	20686
857.13	20743
857.263	20834
857.397	20895
857.53	20750
857.664	20769
857.797	20746
857.931	20876
858.064	20743
858.197	20678
858.331	20632
858.464	20609
858.597	20518
858.731	20629
858.864	20629
858.997	20655
859.13	20655
859.263	20606
859.396	20708
859.529	20708
859.662	20644
859.795	20579
859.928	20712
860.061	20834
860.194	20963
860.327	20765
860.46	20701
860.592	20948
860.725	20739
860.858	20655
860.99	20739
861.123	20644
861.256	20632
861.388	20651
861.521	21359
861.653	20533
861.786	20461
861.918	20556
862.05	20613
862.183	20644
862.315	20598
862.447	20613
862.58	20678
862.712	20400
862.844	20339
862.976	20609
863.108	20385
863.24	20967
863.372	20324
863.504	20366
863.636	20309
863.768	20511
863.9	20446
864.032	20221
864.164	20332
864.296	20514
864.428	20549
864.559	20446
864.691	20419
864.823	20404
864.954	20294
865.086	20446
865.217	20294
865.349	20172
865.48	20355
865.612	20347
865.743	20480
865.875	20286
866.006	20286
866.137	20210
866.269	20214
866.4	20355
866.531	20248
866.662	20248
866.793	20176
866.924	20225
867.055	20164
867.186	20317
867.317	20237
867.448	20237
867.579	20183
867.71	20191
867.841	20214
867.972	20256
868.103	20313
868.233	20298
868.364	20282
868.495	20355
868.625	20351
868.756	20594
868.886	20309
869.017	20396
869.147	20533
869.278	20602
869.408	20522
869.539	20461
869.669	20537
869.799	20598
869.929	20594
870.06	20617
870.19	20861
870.32	20769
870.45	20796
870.58	20937
870.71	20918
870.84	21013
870.97	20891
871.1	20800
871.23	21039
871.36	21074
871.489	20819
871.619	21055
871.749	21081
871.879	21150
872.008	21192
872.138	21085
872.267	21161
872.397	20937
872.526	20906
872.656	20971
872.785	20872
872.915	21249
873.044	21142
873.173	21104
873.303	21131
873.432	21184
873.561	21241
873.69	21165
873.819	21199
873.948	21093
874.077	21119
874.206	21207
874.335	21096
874.464	21218
874.593	21370
874.722	21256
874.851	21294
874.979	21344
875.108	21466
875.237	21367
875.365	21298
875.494	21332
875.623	21344
875.751	21329
875.88	21473
876.008	21549
876.136	21561
876.265	21751
876.393	21774
876.521	21827
876.65	21816
876.778	21774
876.906	21690
877.034	21698
877.162	21739
877.29	21675
877.418	21724
877.546	21743
877.674	21652
877.802	21812
877.93	21698
878.058	21633
878.185	21519
878.313	21679
878.441	21675
878.568	21542
878.696	21656
878.824	21682
878.951	21861
879.079	21892
879.206	21968
879.333	21991
879.461	21713
879.588	21774
879.715	21865
879.842	22032
879.97	21717
880.097	21553
880.224	21447
880.351	21583
880.478	21466
880.605	21496
880.732	21523
880.859	21778
880.986	21477
881.112	21523
881.239	21370
881.366	21325
881.493	21138
881.619	21028
881.746	21211
881.872	21154
881.999	20979
882.125	21024
882.252	21138
882.378	21131
882.505	21226
882.631	20960
882.757	20864
882.883	20986
883.01	20731
883.136	20716
883.262	20708
883.388	20613
883.514	20735
883.64	20842
883.766	20769
883.892	20549
884.018	20625
884.143	20785
884.269	20895
884.395	20480
884.52	20473
884.646	20545
884.772	20320
884.897	20332
885.023	20343
885.148	20606
885.274	20693
885.399	20457
885.524	20461
885.65	20446
885.775	20590
885.9	20457
886.025	20514
886.15	20594
886.275	20526
886.4	20294
886.525	20446
886.65	20423
886.775	20419
886.9	20568
887.025	20819
887.149	20499
887.274	20202
887.399	20252
887.523	20225
887.648	20202
887.773	20225
887.897	20214
888.021	20107
888.146	20134
888.27	20225
888.395	20305
888.519	20275
888.643	20180
888.767	20320
888.891	20149
889.015	20020
889.139	20107
889.263	20001
889.387	20145
889.511	20210
889.635	20240
889.759	20119
889.883	20001
890.006	20092
890.13	20035
890.254	19978
890.377	20016
890.501	19841
890.624	19765
890.748	19811
890.871	19681
890.995	19666
891.118	19609
891.241	19708
891.364	19586
891.488	19955
891.611	19578
891.734	19647
891.857	19586
891.98	19643
892.103	19674
892.226	19620
892.349	19586
892.471	19384
892.594	19571
892.717	19491
892.839	19571
892.962	19537
893.085	19635
893.207	19567
893.33	19480
893.452	19403
893.575	19556
893.697	19495
893.819	19708
893.941	19757
894.064	19693
894.186	19578
894.308	19544
894.43	19620
894.552	19727
894.674	19666
894.796	19407
894.918	19491
895.04	19537
895.161	19628
895.283	19605
895.405	19521
895.526	19632
895.648	19552
895.769	19567
895.891	19575
896.012	19597
896.134	19582
896.255	19578
896.376	19491
896.498	19480
896.619	19666
896.74	19575
896.861	19647
896.982	19871
897.103	19974
897.224	19890
897.345	19833
897.466	19715
897.587	19894
897.708	19967
897.828	19689
897.949	19723
898.07	19613
898.19	19666
898.311	19841
898.431	19750
898.552	19761
898.672	19765
898.792	19830
898.913	19704
899.033	19655
899.153	19563
899.273	19502
899.393	19590
899.513	19594
899.633	19434
899.753	19559
899.873	19464
899.993	19624
900.113	19453
900.232	19594
900.352	19499
900.472	19464
900.591	19339
900.711	19377
900.83	19225
900.95	19487
901.069	19362
901.189	19232
901.308	19034
901.427	18837
901.546	18966
901.665	18897
901.784	18935
901.904	18738
902.023	18776
902.141	18418
902.26	18502
902.379	18544
902.498	18467
902.617	18342
902.735	18566
902.854	18365
902.973	18281
903.091	18060
903.21	18174
903.328	18174
903.446	18060
903.565	17931
903.683	17961
903.801	17748
903.919	17843
904.038	17920
904.156	17680
904.274	17718
904.392	17661
904.51	17668
904.627	17691
904.745	17726
904.863	17695
904.981	17520
905.098	17368
905.216	17425
905.334	17433
905.451	17467
905.569	17349
905.686	17307
905.803	17337
905.921	17113
906.038	17254
906.155	17151
906.272	16984
906.389	17124
906.506	16866
906.623	16892
906.74	16965
906.857	16797
906.974	16820
907.091	16927
907.208	16953
907.324	16862
907.441	16790
907.557	16702
907.674	16569
907.79	16531
907.907	16565
908.023	16710
908.139	16656
908.256	16615
908.372	16508
908.488	16504
908.604	16436
908.72	16337
908.836	16306
908.952	16371
909.068	16371
909.184	16447
909.3	16325
909.415	16390
909.531	16382
909.647	16124
909.762	16071
909.878	16101
909.993	16067
910.108	16059
910.224	16059
910.339	16051
910.454	16002
910.57	15797
910.685	15895
910.8	15975
910.915	15934
911.03	15850
911.145	15728
911.259	15618
911.374	15641
911.489	15606
911.604	15473
911.718	15458
911.833	15507
911.947	15351
912.062	15389
912.176	15504
912.291	15557
912.405	15530
912.519	15641
912.633	15751
912.748	15496
912.862	15294
912.976	15245
913.09	15108
913.204	15279
913.318	15192
913.431	15287
913.545	15340
913.659	15382
913.772	15329
913.886	15100
914	15169
914.113	15074
914.226	15233
914.34	15100
914.453	15001
914.566	15062
914.68	14921
914.793	15009
914.906	14659
915.019	14788
915.132	14606
915.245	14777
915.358	14746
915.47	14640
915.583	14625
915.696	14697
915.809	14720
915.921	14804
916.034	14697
916.146	14522
916.259	14549
916.371	14693
916.483	14663
916.595	14568
916.708	14556
916.82	14427
916.932	14533
917.044	14442
917.156	14488
917.268	14336
917.38	14450
917.491	14377
917.603	14351
917.715	14473
917.826	14465
917.938	14142
918.049	14221
918.161	14248
918.272	14408
918.384	14408
918.495	14298
918.606	14092
918.717	14031
918.828	14058
918.939	14134
919.05	14073
919.161	14077
919.272	13871
919.383	14020
919.494	14084
919.604	14427
919.715	14016
919.826	14020
919.936	14024
920.047	14172
920.157	14062
920.267	14130
920.378	14168
920.488	14096
920.598	14229
920.708	14309
920.818	14195
920.928	14290
921.038	14480
921.148	14336
921.258	13989
921.368	13955
921.477	13784
921.587	13750
921.697	13632
921.806	13753
921.916	13674
922.025	13521
922.134	13499
922.244	13464
922.353	13430
922.462	13411
922.571	13274
922.68	13171
922.789	13072
922.898	13095
923.007	13137
923.116	13122
923.224	13110
923.333	13103
923.442	12958
923.55	12989
923.659	12935
923.767	13000
923.876	12859
923.984	13004
924.092	12935
924.201	12909
924.309	12909
924.417	12897
924.525	12837
924.633	12760
924.741	13613
924.849	12589
924.956	12749
925.064	12585
925.172	12445
925.279	12509
925.387	12650
925.494	12513
925.602	12673
925.709	12506
925.816	12426
925.924	12559
926.031	12620
926.138	12502
926.245	12601
926.352	12456
926.459	12551
926.566	12662
926.673	12494
926.779	12388
926.886	12292
926.993	12125
927.099	12114
927.206	12026
927.312	12114
927.419	12167
927.525	12117
927.631	12159
927.737	12060
927.843	11973
927.95	11840
928.056	11882
928.162	11954
928.267	12034
928.373	12574
928.479	12178
928.585	11767
928.69	11954
928.796	12019
928.901	11885
929.007	11665
929.112	11859
929.218	11824
929.323	11760
929.428	11722
929.533	11866
929.638	11619
929.743	11646
929.848	11642
929.953	11627
930.058	11608
930.163	11326
930.267	11448
930.372	11551
930.477	11280
930.581	11619
930.685	11421
930.79	11193
930.894	11337
930.998	11334
931.103	11315
931.207	10980
931.311	10984
931.415	10839
931.519	10767
931.623	10626
