Data from test_V78500241_247.txt Node
Date: Fri Mar 25 15:11:34 CST 2022
User: usil
Spectrometer: V785-0024
Trigger mode: 0
Integration Time (sec): 4.000000E-1
Scans to average: 1
Nonlinearity correction enabled: false
Boxcar width: 0
Storing dark spectrum: false
XAxis mode: Wavelengths
Number of Pixels in Spectrum: 1024
>>>>>Begin Spectral Data<<<<<
801.071	28352
801.214	28318
801.356	27983
801.499	27934
801.641	27804
801.783	27694
801.926	27869
802.068	27751
802.211	27720
802.353	27671
802.496	27496
802.638	27564
802.78	27458
802.923	27325
803.065	27294
803.208	27344
803.35	27378
803.492	27572
803.635	27656
803.777	27424
803.919	27538
804.061	27831
804.204	27583
804.346	27462
804.488	27466
804.63	27466
804.773	27329
804.915	27458
805.057	27686
805.199	27538
805.341	27534
805.483	27797
805.626	27606
805.768	27538
805.91	27736
806.052	27720
806.194	27660
806.336	27816
806.478	27762
806.62	27698
806.762	27857
806.904	27892
807.046	28105
807.188	28082
807.33	28017
807.472	28086
807.614	27972
807.756	27968
807.898	27918
808.04	27747
808.182	27785
808.324	27869
808.465	27880
808.607	27983
808.749	28120
808.891	28257
809.033	28421
809.174	28341
809.316	28173
809.458	28257
809.6	28169
809.741	28337
809.883	28451
810.025	28481
810.166	28531
810.308	28424
810.45	28569
810.591	28481
810.733	28238
810.875	28029
811.016	28090
811.158	28238
811.299	28105
811.441	28459
811.582	28223
811.724	28181
811.865	28093
812.007	28230
812.148	28051
812.29	28207
812.431	28284
812.573	28432
812.714	28554
812.855	28679
812.997	28733
813.138	28984
813.279	28820
813.421	28668
813.562	28729
813.703	28497
813.845	28451
813.986	28105
814.127	27884
814.268	27865
814.41	27994
814.551	27793
814.692	27869
814.833	27739
814.974	27724
815.115	27804
815.256	27583
815.397	27629
815.539	27580
815.68	27431
815.821	27561
815.962	27599
816.103	27526
816.244	27538
816.385	27351
816.526	27321
816.666	27173
816.807	27024
816.948	27116
817.089	27184
817.23	27085
817.371	27119
817.512	27020
817.653	27009
817.793	27039
817.934	27036
818.075	27039
818.216	27127
818.356	26979
818.497	26887
818.638	26754
818.778	26868
818.919	26823
819.06	26902
819.2	26883
819.341	26944
819.481	27039
819.622	27036
819.762	27279
819.903	27325
820.043	27184
820.184	27233
820.324	27131
820.465	27321
820.605	27146
820.746	27157
820.886	26910
821.026	27024
821.167	27112
821.307	27036
821.447	26921
821.588	26868
821.728	26845
821.868	26693
822.008	26438
822.149	26461
822.289	26423
822.429	26149
822.569	26199
822.709	25989
822.849	25894
822.99	25883
823.13	26031
823.27	25818
823.41	25712
823.55	25658
823.69	25822
823.83	25746
823.97	25681
824.11	25476
824.25	25521
824.389	25518
824.529	25601
824.669	25525
824.809	25624
824.949	25559
825.089	25540
825.228	25696
825.368	25403
825.508	25415
825.648	25293
825.787	25457
825.927	25422
826.067	25312
826.206	25381
826.346	25476
826.485	25525
826.625	25407
826.765	25495
826.904	25324
827.044	25103
827.183	24989
827.323	24958
827.462	25107
827.601	25076
827.741	24981
827.88	24981
828.02	25000
828.159	25129
828.298	25072
828.437	25099
828.577	25129
828.716	25266
828.855	24954
828.994	24715
829.134	24848
829.273	24601
829.412	24875
829.551	24700
829.69	24673
829.829	24779
829.968	24863
830.107	24741
830.246	24741
830.385	24650
830.524	24692
830.663	24566
830.802	24365
830.941	24330
831.08	24350
831.219	24342
831.357	24372
831.496	24585
831.635	24357
831.774	24216
831.913	24228
832.051	24133
832.19	24087
832.329	24155
832.467	24030
832.606	24007
832.744	23942
832.883	24015
833.022	23931
833.16	24038
833.299	23927
833.437	24110
833.576	24022
833.714	24018
833.852	24095
833.991	24053
834.129	24155
834.267	24079
834.406	23931
834.544	24133
834.682	24060
834.821	23946
834.959	24102
835.097	24018
835.235	23965
835.373	24098
835.511	24083
835.65	23847
835.788	23931
835.926	23771
836.064	23707
836.202	23748
836.34	23863
836.478	24011
836.615	23821
836.753	23764
836.891	23965
837.029	23965
837.167	23859
837.305	23767
837.443	23729
837.58	23760
837.718	23809
837.856	23726
837.993	23592
838.131	23646
838.269	23627
838.406	23611
838.544	23493
838.681	23455
838.819	23250
838.956	23212
839.094	23227
839.231	23326
839.369	23429
839.506	23676
839.643	23353
839.781	23212
839.918	23071
840.055	23170
840.193	23235
840.33	23041
840.467	22938
840.604	23208
840.742	23220
840.879	22892
841.016	23014
841.153	23029
841.29	23155
841.427	23128
841.564	23052
841.701	22965
841.838	22934
841.975	22900
842.112	22968
842.249	22733
842.385	22755
842.522	22854
842.659	22885
842.796	22805
842.933	22710
843.069	22706
843.206	22691
843.343	22934
843.479	22793
843.616	22797
843.752	22580
843.889	22565
844.025	22626
844.162	22421
844.298	22634
844.435	22603
844.571	22478
844.708	22565
844.844	22839
844.98	22565
845.117	22706
845.253	22554
845.389	22440
845.525	22447
845.661	22500
845.798	22310
845.934	22318
846.07	22299
846.206	22337
846.342	22287
846.478	22219
846.614	22070
846.75	21854
846.886	22051
847.022	21991
847.158	21979
847.294	22021
847.429	21994
847.565	22017
847.701	22219
847.837	21724
847.972	21679
848.108	21823
848.244	21789
848.379	21694
848.515	21564
848.65	21515
848.786	21614
848.921	21481
849.057	21705
849.192	21652
849.328	21622
849.463	21557
849.598	21507
849.734	21374
849.869	21408
850.004	21283
850.14	21313
850.275	21306
850.41	21188
850.545	21222
850.68	21344
850.815	21393
850.95	21313
851.085	21447
851.22	21389
851.355	21443
851.49	21283
851.625	21272
851.76	21283
851.895	21184
852.03	21207
852.165	21344
852.299	21431
852.434	21466
852.569	21420
852.703	21386
852.838	21393
852.973	21382
853.107	21435
853.242	21405
853.376	21123
853.511	21047
853.645	20933
853.78	21146
853.914	21150
854.048	21085
854.183	21104
854.317	21123
854.451	21310
854.585	21112
854.72	21085
854.854	21207
854.988	20937
855.122	21051
855.256	21039
855.39	21058
855.524	21195
855.658	21188
855.792	21085
855.926	21127
856.06	21176
856.194	21291
856.327	21192
856.461	21081
856.595	21100
856.729	21093
856.862	21142
856.996	21222
857.13	21211
857.263	21195
857.397	21165
857.53	20963
857.664	21135
857.797	21195
857.931	21245
858.064	21089
858.197	21233
858.331	21165
858.464	21009
858.597	20948
858.731	21104
858.864	21066
858.997	21081
859.13	21043
859.263	21055
859.396	21146
859.529	20982
859.662	21062
859.795	21055
859.928	21127
860.061	21241
860.194	21287
860.327	21138
860.46	21131
860.592	21005
860.725	21112
860.858	21119
860.99	21142
861.123	20906
861.256	20921
861.388	21058
861.521	21922
861.653	20952
861.786	20823
861.918	21005
862.05	21093
862.183	21020
862.315	21123
862.447	21123
862.58	21020
862.712	20861
862.844	20765
862.976	20853
863.108	20845
863.24	21226
863.372	20674
863.504	20674
863.636	20765
863.768	20895
863.9	20769
864.032	20670
864.164	20765
864.296	20826
864.428	20941
864.559	20876
864.691	20777
864.823	20758
864.954	20853
865.086	20785
865.217	20788
865.349	20484
865.48	20674
865.612	20606
865.743	20773
865.875	20674
866.006	20575
866.137	20716
866.269	20731
866.4	20598
866.531	20667
866.662	20594
866.793	20629
866.924	20579
867.055	20651
867.186	20667
867.317	20568
867.448	20476
867.579	20609
867.71	20507
867.841	20533
867.972	20636
868.103	20590
868.233	20689
868.364	20705
868.495	20773
868.625	20781
868.756	20861
868.886	20796
869.017	20773
869.147	20967
869.278	20960
869.408	20842
869.539	20804
869.669	20899
869.799	20929
869.929	21017
870.06	21085
870.19	21142
870.32	21077
870.45	21089
870.58	21108
870.71	21363
870.84	21332
870.97	21310
871.1	21245
871.23	21462
871.36	21511
871.489	21344
871.619	21313
871.749	21367
871.879	21526
872.008	21542
872.138	21405
872.267	21359
872.397	21447
872.526	21245
872.656	21260
872.785	21340
872.915	21397
873.044	21606
873.173	21511
873.303	21496
873.432	21443
873.561	21587
873.69	21435
873.819	21405
873.948	21523
874.077	21519
874.206	21359
874.335	21587
874.464	21469
874.593	21633
874.722	21587
874.851	21739
874.979	21720
875.108	21698
875.237	21515
875.365	21603
875.494	21629
875.623	21705
875.751	21720
875.88	21629
876.008	21778
876.136	22013
876.265	22185
876.393	22284
876.521	22120
876.65	22124
876.778	22063
876.906	21956
877.034	21930
877.162	22025
877.29	21991
877.418	22070
877.546	22032
877.674	22169
877.802	22128
877.93	22101
878.058	21987
878.185	22032
878.313	21998
878.441	21979
878.568	21838
878.696	22040
878.824	21873
878.951	22112
879.079	22257
879.206	22447
879.333	22333
879.461	22036
879.588	22196
879.715	22181
879.842	22348
879.97	22105
880.097	21850
880.224	21789
880.351	21979
880.478	21873
880.605	21736
880.732	21743
880.859	22090
880.986	21812
881.112	21873
881.239	21686
881.366	21587
881.493	21515
881.619	21542
881.746	21526
881.872	21450
881.999	21348
882.125	21382
882.252	21473
882.378	21492
882.505	21599
882.631	21401
882.757	21233
882.883	21195
883.01	21275
883.136	21089
883.262	21009
883.388	21001
883.514	21131
883.64	21230
883.766	21055
883.892	20952
884.018	20982
884.143	21131
884.269	21256
884.395	20998
884.52	20804
884.646	20868
884.772	20731
884.897	20670
885.023	20880
885.148	20925
885.274	20948
885.399	20910
885.524	20750
885.65	20864
885.775	20842
885.9	20785
886.025	20963
886.15	20785
886.275	20758
886.4	20674
886.525	20735
886.65	20773
886.775	20621
886.9	20819
887.025	20986
887.149	20777
887.274	20621
887.399	20575
887.523	20549
887.648	20537
887.773	20434
887.897	20663
888.021	20632
888.146	20492
888.27	20632
888.395	20682
888.519	20636
888.643	20598
888.767	20533
888.891	20495
889.015	20267
889.139	20305
889.263	20290
889.387	20560
889.511	20503
889.635	20385
889.759	20275
889.883	20324
890.006	20324
890.13	20446
890.254	20267
890.377	20324
890.501	20065
890.624	19951
890.748	20096
890.871	20027
890.995	20043
891.118	19852
891.241	19890
891.364	19875
891.488	20001
891.611	19841
891.734	20005
891.857	20012
891.98	19982
892.103	19864
892.226	20016
892.349	19894
892.471	19696
892.594	19871
892.717	19917
892.839	19845
892.962	19871
893.085	19906
893.207	19909
893.33	19727
893.452	19772
893.575	19932
893.697	19776
893.819	19997
893.941	20043
894.064	20016
894.186	19750
894.308	19689
894.43	19887
894.552	19970
894.674	19917
894.796	19731
894.918	19818
895.04	19902
895.161	19860
895.283	19917
895.405	19814
895.526	19772
895.648	19746
895.769	19837
895.891	20001
896.012	19928
896.134	19925
896.255	19898
896.376	19814
896.498	19860
896.619	19814
896.74	19856
896.861	19917
896.982	20176
897.103	20278
897.224	20073
897.345	20096
897.466	19989
897.587	20103
897.708	20126
897.828	20187
897.949	19967
898.07	19883
898.19	19955
898.311	20031
898.431	20008
898.552	19997
898.672	20153
898.792	20157
898.913	20031
899.033	19944
899.153	19879
899.273	19670
899.393	19883
899.513	19818
899.633	19674
899.753	19693
899.873	19681
899.993	19925
900.113	19734
900.232	19677
900.352	19738
900.472	19628
900.591	19586
900.711	19499
900.83	19422
900.95	19708
901.069	19670
901.189	19487
901.308	19289
901.427	19171
901.546	19164
901.665	19301
901.784	19141
901.904	19046
902.023	18833
902.141	18760
902.26	18776
902.379	18715
902.498	18639
902.617	18540
902.735	18620
902.854	18673
902.973	18627
903.091	18357
903.21	18273
903.328	18224
903.446	18281
903.565	18239
903.683	18190
903.801	17999
903.919	18038
904.038	18152
904.156	17977
904.274	17912
904.392	17988
904.51	17779
904.627	17885
904.745	17855
904.863	18007
904.981	17630
905.098	17619
905.216	17611
905.334	17668
905.451	17657
905.569	17448
905.686	17665
905.803	17608
905.921	17353
906.038	17505
906.155	17383
906.272	17303
906.389	17197
906.506	17155
906.623	17136
906.74	17143
906.857	17052
906.974	17029
907.091	17159
907.208	17265
907.324	17105
907.441	17067
907.557	16927
907.674	16812
907.79	16740
907.907	16862
908.023	16759
908.139	16809
908.256	16725
908.372	16664
908.488	16740
908.604	16527
908.72	16462
908.836	16542
908.952	16527
909.068	16504
909.184	16607
909.3	16504
909.415	16474
909.531	16375
909.647	16284
909.762	16200
909.878	16158
909.993	16196
910.108	16188
910.224	16253
910.339	16303
910.454	16101
910.57	16078
910.685	15945
910.8	16226
910.915	16196
911.03	16097
911.145	15800
911.259	15876
911.374	15998
911.489	15800
911.604	15709
911.718	15557
911.833	15538
911.947	15469
912.062	15367
912.176	15492
912.291	15469
912.405	15511
912.519	15671
912.633	15800
912.748	15519
912.862	15549
912.976	15485
913.09	15351
913.204	15298
913.318	15382
913.431	15481
913.545	15412
913.659	15481
913.772	15310
913.886	15260
914	15097
914.113	15249
914.226	15260
914.34	15260
914.453	15081
914.566	15245
914.68	15051
914.793	14952
914.906	14899
915.019	14830
915.132	14701
915.245	14800
915.358	14883
915.47	14826
915.583	14823
915.696	14834
915.809	14891
915.921	15077
916.034	14746
916.146	14712
916.259	14640
916.371	14777
916.483	14811
916.595	14590
916.708	14724
916.82	14739
916.932	14587
917.044	14621
917.156	14533
917.268	14522
917.38	14507
917.491	14419
917.603	14469
917.715	14438
917.826	14568
917.938	14294
918.049	14271
918.161	14473
918.272	14530
918.384	14606
918.495	14370
918.606	14187
918.717	14164
918.828	14294
918.939	14202
919.05	14149
919.161	14157
919.272	14065
919.383	14134
919.494	14142
919.604	14404
919.715	14195
919.826	14111
919.936	14130
920.047	14153
920.157	14123
920.267	14355
920.378	14130
920.488	14130
920.598	14347
920.708	14484
920.818	14396
920.928	14404
921.038	14514
921.148	14377
921.258	14100
921.368	14012
921.477	13989
921.587	14020
921.697	13799
921.806	13944
921.916	13780
922.025	13666
922.134	13571
922.244	13506
922.353	13487
922.462	13460
922.571	13430
922.68	13183
922.789	13171
922.898	13209
923.007	13027
923.116	13145
923.224	13179
923.333	13137
923.442	13091
923.55	13004
923.659	13031
923.767	13088
923.876	13000
923.984	13015
924.092	12928
924.201	13023
924.309	12882
924.417	12935
924.525	12920
924.633	12878
924.741	13643
924.849	12620
924.956	12768
925.064	12681
925.172	12570
925.279	12559
925.387	12642
925.494	12642
925.602	12787
925.709	12642
925.816	12475
925.924	12582
926.031	12673
926.138	12544
926.245	12707
926.352	12475
926.459	12673
926.566	12665
926.673	12448
926.779	12399
926.886	12334
926.993	12273
927.099	12266
927.206	12155
927.312	12140
927.419	12292
927.525	12209
927.631	12300
927.737	12087
927.843	12015
927.95	11916
928.056	12049
928.162	12003
928.267	12091
928.373	12563
928.479	12091
928.585	11794
928.69	11969
928.796	11954
928.901	11927
929.007	11695
929.112	11920
929.218	11882
929.323	11752
929.428	11710
929.533	11897
929.638	11733
929.743	11653
929.848	11699
929.953	11699
930.058	11592
930.163	11463
930.267	11436
930.372	11638
930.477	11387
930.581	11684
930.685	11528
930.79	11402
930.894	11353
930.998	11277
931.103	11368
931.207	11029
931.311	10957
931.415	10999
931.519	10748
931.623	10660
