Data from test_V78500241_253.txt Node
Date: Fri Mar 25 15:11:37 CST 2022
User: usil
Spectrometer: V785-0024
Trigger mode: 0
Integration Time (sec): 4.000000E-1
Scans to average: 1
Nonlinearity correction enabled: false
Boxcar width: 0
Storing dark spectrum: false
XAxis mode: Wavelengths
Number of Pixels in Spectrum: 1024
>>>>>Begin Spectral Data<<<<<
801.071	28215
801.214	28234
801.356	28032
801.499	27823
801.641	27728
801.783	27899
801.926	27918
802.068	27838
802.211	27603
802.353	27610
802.496	27530
802.638	27466
802.78	27458
802.923	27481
803.065	27462
803.208	27492
803.35	27519
803.492	27485
803.635	27572
803.777	27606
803.919	27618
804.061	28032
804.204	27587
804.346	27469
804.488	27469
804.63	27511
804.773	27412
804.915	27648
805.057	27728
805.199	27507
805.341	27667
805.483	27652
805.626	27709
805.768	27492
805.91	27724
806.052	27671
806.194	27595
806.336	27785
806.478	27751
806.62	27572
806.762	27759
806.904	27949
807.046	28257
807.188	28029
807.33	27983
807.472	28124
807.614	28051
807.756	28029
807.898	27926
808.04	27964
808.182	27918
808.324	28048
808.465	27964
808.607	28040
808.749	28249
808.891	28310
809.033	28504
809.174	28481
809.316	28272
809.458	28341
809.6	28265
809.741	28405
809.883	28417
810.025	28580
810.166	28550
810.308	28611
810.45	28527
810.591	28348
810.733	28284
810.875	28386
811.016	28226
811.158	28162
811.299	28443
811.441	28367
811.582	28409
811.724	28226
811.865	28200
812.007	28226
812.148	28177
812.29	28329
812.431	28409
812.573	28485
812.714	28660
812.855	28729
812.997	28740
813.138	29010
813.279	28828
813.421	28835
813.562	28774
813.703	28588
813.845	28462
813.986	28147
814.127	27960
814.268	27880
814.41	27991
814.551	27968
814.692	27994
814.833	27743
814.974	27736
815.115	27884
815.256	27701
815.397	27869
815.539	27709
815.68	27644
815.821	27622
815.962	27675
816.103	27652
816.244	27523
816.385	27481
816.526	27401
816.666	27237
816.807	27264
816.948	27184
817.089	27260
817.23	27188
817.371	27233
817.512	27222
817.653	27047
817.793	27199
817.934	27119
818.075	27298
818.216	27180
818.356	27104
818.497	26864
818.638	26861
818.778	26902
818.919	26781
819.06	26819
819.2	26902
819.341	27070
819.481	26960
819.622	27264
819.762	27401
819.903	27241
820.043	27127
820.184	27157
820.324	27260
820.465	27207
820.605	27222
820.746	27085
820.886	26990
821.026	26963
821.167	26982
821.307	27214
821.447	27020
821.588	26861
821.728	26895
821.868	26625
822.008	26499
822.149	26431
822.289	26423
822.429	26298
822.569	26229
822.709	26267
822.849	25940
822.99	25951
823.13	25883
823.27	25845
823.41	25788
823.55	25677
823.69	25662
823.83	25902
823.97	25814
824.11	25605
824.25	25594
824.389	25647
824.529	25620
824.669	25620
824.809	25655
824.949	25799
825.089	25632
825.228	25597
825.368	25419
825.508	25438
825.648	25556
825.787	25449
825.927	25559
826.067	25529
826.206	25373
826.346	25453
826.485	25556
826.625	25449
826.765	25575
826.904	25525
827.044	25331
827.183	25282
827.323	24962
827.462	25133
827.601	25194
827.741	25103
827.88	25088
828.02	24970
828.159	25152
828.298	25122
828.437	25065
828.577	25069
828.716	25133
828.855	24970
828.994	24856
829.134	24867
829.273	24840
829.412	24760
829.551	24768
829.69	24852
829.829	24814
829.968	24981
830.107	24909
830.246	24954
830.385	24798
830.524	24665
830.663	24620
830.802	24582
830.941	24490
831.08	24273
831.219	24429
831.357	24395
831.496	24620
831.635	24513
831.774	24319
831.913	24304
832.051	24243
832.19	24205
832.329	24346
832.467	24068
832.606	24095
832.744	23988
832.883	24129
833.022	23954
833.16	23980
833.299	24064
833.437	24091
833.576	24129
833.714	24285
833.852	24110
833.991	24152
834.129	24125
834.267	24174
834.406	24152
834.544	24133
834.682	24174
834.821	24026
834.959	24155
835.097	23977
835.235	24083
835.373	24083
835.511	24034
835.65	23996
835.788	23954
835.926	23836
836.064	23805
836.202	23908
836.34	23984
836.478	24057
836.615	23950
836.753	23980
836.891	24011
837.029	23946
837.167	23855
837.305	23893
837.443	23859
837.58	23863
837.718	23847
837.856	23870
837.993	23901
838.131	23710
838.269	23691
838.406	23691
838.544	23471
838.681	23372
838.819	23376
838.956	23273
839.094	23258
839.231	23223
839.369	23497
839.506	23585
839.643	23471
839.781	23429
839.918	23200
840.055	23280
840.193	23113
840.33	23136
840.467	23037
840.604	23265
840.742	23356
840.879	23037
841.016	23121
841.153	22965
841.29	23326
841.427	23155
841.564	23079
841.701	23018
841.838	23102
841.975	22999
842.112	23037
842.249	22938
842.385	22809
842.522	23067
842.659	22927
842.796	22816
842.933	22824
843.069	22835
843.206	22820
843.343	22942
843.479	22953
843.616	22828
843.752	22782
843.889	22668
844.025	22812
844.162	22622
844.298	22786
844.435	22626
844.571	22592
844.708	22584
844.844	22763
844.98	22702
845.117	22721
845.253	22584
845.389	22390
845.525	22519
845.661	22519
845.798	22375
845.934	22417
846.07	22257
846.206	22405
846.342	22546
846.478	22360
846.614	22158
846.75	22101
846.886	22090
847.022	22135
847.158	22055
847.294	22002
847.429	22021
847.565	21972
847.701	22352
847.837	21759
847.972	21705
848.108	21972
848.244	21888
848.379	21610
848.515	21751
848.65	21743
848.786	21564
848.921	21717
849.057	21720
849.192	21739
849.328	21686
849.463	21603
849.598	21660
849.734	21644
849.869	21534
850.004	21355
850.14	21450
850.275	21302
850.41	21393
850.545	21367
850.68	21439
850.815	21355
850.95	21378
851.085	21561
851.22	21485
851.355	21469
851.49	21386
851.625	21359
851.76	21287
851.895	21180
852.03	21344
852.165	21359
852.299	21405
852.434	21469
852.569	21416
852.703	21363
852.838	21466
852.973	21595
853.107	21538
853.242	21329
853.376	21291
853.511	20967
853.645	21127
853.78	21230
853.914	21344
854.048	21142
854.183	21157
854.317	21283
854.451	21428
854.585	21195
854.72	21264
854.854	21237
854.988	21119
855.122	21283
855.256	21062
855.39	21020
855.524	21211
855.658	21272
855.792	21154
855.926	21317
856.06	21249
856.194	21313
856.327	21150
856.461	21150
856.595	21150
856.729	21100
856.862	21408
856.996	21150
857.13	21154
857.263	21393
857.397	21363
857.53	21207
857.664	21207
857.797	21203
857.931	21294
858.064	21207
858.197	21192
858.331	21104
858.464	21085
858.597	21062
858.731	21195
858.864	21039
858.997	21096
859.13	21135
859.263	21184
859.396	21233
859.529	21096
859.662	21169
859.795	21005
859.928	21218
860.061	21348
860.194	21397
860.327	21298
860.46	21104
860.592	21294
860.725	21233
860.858	21173
860.99	21146
861.123	21036
861.256	21192
861.388	21211
861.521	21869
861.653	21001
861.786	20933
861.918	21032
862.05	20986
862.183	21123
862.315	21218
862.447	21252
862.58	21085
862.712	20944
862.844	20864
862.976	20899
863.108	20952
863.24	21211
863.372	20861
863.504	20853
863.636	20834
863.768	20929
863.9	20899
864.032	20826
864.164	20830
864.296	20864
864.428	20883
864.559	20982
864.691	20921
864.823	20872
864.954	20834
865.086	20910
865.217	20823
865.349	20629
865.48	20849
865.612	20906
865.743	20811
865.875	20796
866.006	20705
866.137	20781
866.269	20781
866.4	20792
866.531	20686
866.662	20739
866.793	20735
866.924	20716
867.055	20758
867.186	20792
867.317	20716
867.448	20469
867.579	20575
867.71	20575
867.841	20648
867.972	20667
868.103	20674
868.233	20625
868.364	20541
868.495	20724
868.625	20967
868.756	21104
868.886	20872
869.017	20902
869.147	21013
869.278	21017
869.408	20891
869.539	20990
869.669	21020
869.799	21051
869.929	21009
870.06	21036
870.19	21195
870.32	21298
870.45	21230
870.58	21256
870.71	21412
870.84	21348
870.97	21226
871.1	21370
871.23	21412
871.36	21496
871.489	21473
871.619	21595
871.749	21488
871.879	21488
872.008	21625
872.138	21485
872.267	21523
872.397	21283
872.526	21298
872.656	21321
872.785	21412
872.915	21469
873.044	21614
873.173	21416
873.303	21568
873.432	21542
873.561	21663
873.69	21580
873.819	21466
873.948	21622
874.077	21561
874.206	21416
874.335	21507
874.464	21599
874.593	21747
874.722	21922
874.851	21842
874.979	21774
875.108	21838
875.237	21736
875.365	21622
875.494	21660
875.623	21770
875.751	21705
875.88	21778
876.008	21991
876.136	21949
876.265	22135
876.393	22265
876.521	22185
876.65	22272
876.778	22158
876.906	22105
877.034	22158
877.162	22044
877.29	22200
877.418	22128
877.546	22166
877.674	22131
877.802	22078
877.93	22135
878.058	21930
878.185	22070
878.313	22249
878.441	22101
878.568	21983
878.696	22116
878.824	22185
878.951	22124
879.079	22280
879.206	22413
879.333	22272
879.461	22276
879.588	22261
879.715	22424
879.842	22398
879.97	22306
880.097	22029
880.224	21903
880.351	22055
880.478	21991
880.605	21888
880.732	21880
880.859	22093
880.986	21972
881.112	21956
881.239	21880
881.366	21717
881.493	21606
881.619	21576
881.746	21530
881.872	21481
881.999	21519
882.125	21435
882.252	21610
882.378	21488
882.505	21633
882.631	21443
882.757	21222
882.883	21260
883.01	21332
883.136	21123
883.262	21093
883.388	21161
883.514	21283
883.64	21188
883.766	21302
883.892	21039
884.018	21032
884.143	21294
884.269	21249
884.395	20929
884.52	20902
884.646	20990
884.772	20720
884.897	20667
885.023	20857
885.148	20937
885.274	21108
885.399	20941
885.524	20815
885.65	20902
885.775	20815
885.9	20762
886.025	20880
886.15	21089
886.275	20853
886.4	20648
886.525	20712
886.65	20765
886.775	20853
886.9	20948
887.025	21028
887.149	20762
887.274	20640
887.399	20659
887.523	20644
887.648	20590
887.773	20571
887.897	20769
888.021	20727
888.146	20705
888.27	20773
888.395	20819
888.519	20583
888.643	20667
888.767	20640
888.891	20488
889.015	20522
889.139	20552
889.263	20450
889.387	20568
889.511	20530
889.635	20492
889.759	20404
889.883	20374
890.006	20404
890.13	20545
890.254	20427
890.377	20450
890.501	20187
890.624	19944
890.748	20176
890.871	20103
890.995	20103
891.118	19997
891.241	19883
891.364	19955
891.488	20058
891.611	20081
891.734	20020
891.857	19989
891.98	19902
892.103	19997
892.226	20069
892.349	19932
892.471	19772
892.594	19875
892.717	19982
892.839	19860
892.962	19890
893.085	19982
893.207	19841
893.33	19852
893.452	19700
893.575	19890
893.697	19894
893.819	20073
893.941	20039
894.064	20065
894.186	19814
894.308	19791
894.43	20027
894.552	19944
894.674	20054
894.796	19784
894.918	19959
895.04	19921
895.161	20020
895.283	20020
895.405	19830
895.526	19845
895.648	19788
895.769	19852
895.891	19868
896.012	19963
896.134	20008
896.255	19940
896.376	19921
896.498	19849
896.619	19940
896.74	20054
896.861	19944
896.982	20412
897.103	20396
897.224	20187
897.345	20153
897.466	20077
897.587	20103
897.708	20446
897.828	20115
897.949	20031
898.07	19967
898.19	20103
898.311	20210
898.431	20138
898.552	20183
898.672	20199
898.792	20134
898.913	20145
899.033	20088
899.153	20024
899.273	19841
899.393	19799
899.513	19795
899.633	19837
899.753	19875
899.873	19811
899.993	19837
900.113	19677
900.232	19826
900.352	19693
900.472	19757
900.591	19590
900.711	19605
900.83	19586
900.95	19772
901.069	19700
901.189	19556
901.308	19384
901.427	19270
901.546	19179
901.665	19221
901.784	19217
901.904	19034
902.023	18962
902.141	18829
902.26	18658
902.379	18890
902.498	18753
902.617	18646
902.735	18817
902.854	18707
902.973	18635
903.091	18357
903.21	18369
903.328	18388
903.446	18479
903.565	18262
903.683	18247
903.801	18068
903.919	18167
904.038	18121
904.156	17996
904.274	18060
904.392	18034
904.51	17984
904.627	18026
904.745	18015
904.863	17965
904.981	17745
905.098	17638
905.216	17638
905.334	17710
905.451	17653
905.569	17642
905.686	17714
905.803	17680
905.921	17379
906.038	17630
906.155	17528
906.272	17368
906.389	17322
906.506	17162
906.623	17105
906.74	17151
906.857	17094
906.974	17140
907.091	17197
907.208	17284
907.324	17185
907.441	17086
907.557	16919
907.674	16831
907.79	16843
907.907	16744
908.023	16904
908.139	16847
908.256	16869
908.372	16759
908.488	16725
908.604	16622
908.72	16535
908.836	16546
908.952	16656
909.068	16558
909.184	16649
909.3	16603
909.415	16603
909.531	16611
909.647	16348
909.762	16356
909.878	16200
909.993	16310
910.108	16261
910.224	16265
910.339	16329
910.454	16204
910.57	16109
910.685	16040
910.8	16386
910.915	16219
911.03	16063
911.145	15987
911.259	15880
911.374	15888
911.489	15884
911.604	15686
911.718	15584
911.833	15652
911.947	15534
912.062	15473
912.176	15587
912.291	15660
912.405	15660
912.519	15694
912.633	15793
912.748	15713
912.862	15625
912.976	15481
913.09	15317
913.204	15370
913.318	15443
913.431	15538
913.545	15542
913.659	15576
913.772	15405
913.886	15264
914	15154
914.113	15359
914.226	15382
914.34	15351
914.453	15165
914.566	15230
914.68	15135
914.793	15135
914.906	14941
915.019	14883
915.132	14849
915.245	14807
915.358	14891
915.47	14887
915.583	14910
915.696	14762
915.809	15017
915.921	14963
916.034	14807
916.146	14708
916.259	14800
916.371	14861
916.483	14746
916.595	14655
916.708	14735
916.82	14743
916.932	14629
917.044	14648
917.156	14659
917.268	14564
917.38	14560
917.491	14492
917.603	14488
917.715	14514
917.826	14556
917.938	14370
918.049	14366
918.161	14465
918.272	14533
918.384	14495
918.495	14377
918.606	14278
918.717	14233
918.828	14465
918.939	14183
919.05	14210
919.161	14202
919.272	14153
919.383	14103
919.494	14282
919.604	14400
919.715	14263
919.826	14107
919.936	14187
920.047	14332
920.157	14305
920.267	14362
920.378	14294
920.488	14123
920.598	14408
920.708	14545
920.818	14400
920.928	14313
921.038	14594
921.148	14488
921.258	14199
921.368	14103
921.477	13917
921.587	13963
921.697	13875
921.806	13894
921.916	13772
922.025	13689
922.134	13662
922.244	13552
922.353	13643
922.462	13434
922.571	13415
922.68	13209
922.789	13209
922.898	13213
923.007	13190
923.116	13202
923.224	13187
923.333	13114
923.442	13171
923.55	13084
923.659	13137
923.767	13145
923.876	13019
923.984	12970
924.092	12966
924.201	13057
924.309	12966
924.417	13000
924.525	12928
924.633	12901
924.741	13689
924.849	12776
924.956	12863
925.064	12738
925.172	12612
925.279	12703
925.387	12730
925.494	12654
925.602	12779
925.709	12787
925.816	12483
925.924	12639
926.031	12722
926.138	12582
926.245	12574
926.352	12555
926.459	12707
926.566	12616
926.673	12585
926.779	12395
926.886	12380
926.993	12323
927.099	12296
927.206	12159
927.312	12167
927.419	12300
927.525	12273
927.631	12247
927.737	12083
927.843	12060
927.95	12015
928.056	12076
928.162	12049
928.267	12182
928.373	12738
928.479	12114
928.585	11916
928.69	12034
928.796	12095
928.901	11920
929.007	11786
929.112	11954
929.218	11920
929.323	11817
929.428	11817
929.533	11904
929.638	11813
929.743	11786
929.848	11840
929.953	11741
930.058	11585
930.163	11493
930.267	11471
930.372	11642
930.477	11490
930.581	11691
930.685	11539
930.79	11360
930.894	11379
930.998	11341
931.103	11497
931.207	11159
931.311	11018
931.415	10881
931.519	10793
931.623	10763
