Data from test_V78500241_58.txt Node
Date: Fri Mar 25 15:10:15 CST 2022
User: usil
Spectrometer: V785-0024
Trigger mode: 0
Integration Time (sec): 4.000000E-1
Scans to average: 1
Nonlinearity correction enabled: false
Boxcar width: 0
Storing dark spectrum: false
XAxis mode: Wavelengths
Number of Pixels in Spectrum: 1024
>>>>>Begin Spectral Data<<<<<
801.071	28755
801.214	28622
801.356	28382
801.499	28401
801.641	28230
801.783	28238
801.926	28261
802.068	28059
802.211	28192
802.353	27903
802.496	27823
802.638	27949
802.78	27808
802.923	27701
803.065	27724
803.208	27770
803.35	27679
803.492	27739
803.635	27831
803.777	27808
803.919	28032
804.061	28215
804.204	27876
804.346	27770
804.488	27766
804.63	27895
804.773	27751
804.915	27850
805.057	27960
805.199	27804
805.341	28070
805.483	27914
805.626	27911
805.768	27835
805.91	27895
806.052	27968
806.194	27922
806.336	28150
806.478	27930
806.62	27903
806.762	27953
806.904	28067
807.046	28318
807.188	28356
807.33	28238
807.472	28398
807.614	28424
807.756	28173
807.898	28086
808.04	28131
808.182	28017
808.324	28059
808.465	28097
808.607	28306
808.749	28386
808.891	28649
809.033	28535
809.174	28417
809.316	28360
809.458	28440
809.6	28333
809.741	28409
809.883	28584
810.025	28561
810.166	28812
810.308	28778
810.45	28569
810.591	28508
810.733	28478
810.875	28314
811.016	28375
811.158	28432
811.299	28451
811.441	28497
811.582	28440
811.724	28219
811.865	28223
812.007	28363
812.148	28181
812.29	28375
812.431	28485
812.573	28607
812.714	28790
812.855	28885
812.997	28919
813.138	29109
813.279	29121
813.421	28850
813.562	28900
813.703	28653
813.845	28512
813.986	28314
814.127	28074
814.268	28059
814.41	28101
814.551	27914
814.692	28109
814.833	27899
814.974	27899
815.115	27983
815.256	27816
815.397	27728
815.539	27850
815.68	27736
815.821	27637
815.962	27625
816.103	27633
816.244	27481
816.385	27424
816.526	27416
816.666	27268
816.807	27028
816.948	27146
817.089	27180
817.23	27214
817.371	27051
817.512	27096
817.653	27051
817.793	27024
817.934	27093
818.075	27104
818.216	27089
818.356	26929
818.497	26944
818.638	26686
818.778	26845
818.919	26731
819.06	26872
819.2	26819
819.341	27051
819.481	26914
819.622	27146
819.762	27268
819.903	27272
820.043	27051
820.184	27123
820.324	27013
820.465	27135
820.605	27055
820.746	27093
820.886	26918
821.026	27043
821.167	26982
821.307	27233
821.447	26891
821.588	26853
821.728	26720
821.868	26712
822.008	26526
822.149	26381
822.289	26556
822.429	26096
822.569	26005
822.709	26115
822.849	25932
822.99	26035
823.13	25845
823.27	25765
823.41	25700
823.55	25655
823.69	25704
823.83	25693
823.97	25578
824.11	25430
824.25	25411
824.389	25422
824.529	25479
824.669	25339
824.809	25533
824.949	25544
825.089	25415
825.228	25537
825.368	25244
825.508	25354
825.648	25251
825.787	25369
825.927	25373
826.067	25160
826.206	25152
826.346	25209
826.485	25247
826.625	25244
826.765	25403
826.904	25419
827.044	25000
827.183	24875
827.323	24909
827.462	25061
827.601	24878
827.741	24859
827.88	25042
828.02	24852
828.159	24894
828.298	24875
828.437	24913
828.577	24928
828.716	25019
828.855	24825
828.994	24665
829.134	24597
829.273	24700
829.412	24726
829.551	24464
829.69	24658
829.829	24669
829.968	24635
830.107	24612
830.246	24528
830.385	24448
830.524	24422
830.663	24403
830.802	24190
830.941	24190
831.08	23977
831.219	24247
831.357	24243
831.496	24483
831.635	24057
831.774	24095
831.913	24011
832.051	23885
832.19	23954
832.329	23885
832.467	23805
832.606	23840
832.744	23813
832.883	23794
833.022	23687
833.16	23752
833.299	23714
833.437	23798
833.576	23748
833.714	23847
833.852	23722
833.991	23813
834.129	23916
834.267	23817
834.406	23828
834.544	23779
834.682	23889
834.821	23737
834.959	24026
835.097	23649
835.235	23798
835.373	23741
835.511	23737
835.65	23596
835.788	23661
835.926	23421
836.064	23448
836.202	23512
836.34	23562
836.478	23589
836.615	23554
836.753	23558
836.891	23729
837.029	23589
837.167	23562
837.305	23425
837.443	23486
837.58	23383
837.718	23417
837.856	23395
837.993	23391
838.131	23512
838.269	23307
838.406	23223
838.544	23178
838.681	23159
838.819	22995
838.956	22923
839.094	22839
839.231	22820
839.369	23003
839.506	23204
839.643	23048
839.781	22839
839.918	22820
840.055	22774
840.193	22752
840.33	22706
840.467	22801
840.604	22653
840.742	22942
840.879	22500
841.016	22763
841.153	22637
841.29	22782
841.427	22660
841.564	22748
841.701	22755
841.838	22664
841.975	22653
842.112	22557
842.249	22470
842.385	22421
842.522	22687
842.659	22402
842.796	22356
842.933	22409
843.069	22360
843.206	22455
843.343	22542
843.479	22451
843.616	22352
843.752	22150
843.889	22147
844.025	22413
844.162	22112
844.298	22188
844.435	22128
844.571	22032
844.708	22303
844.844	22234
844.98	22196
845.117	22257
845.253	22105
845.389	21975
845.525	22051
845.661	22044
845.798	21907
845.934	21861
846.07	21865
846.206	21937
846.342	21994
846.478	21930
846.614	21724
846.75	21545
846.886	21641
847.022	21652
847.158	21633
847.294	21625
847.429	21713
847.565	21614
847.701	21747
847.837	21157
847.972	21370
848.108	21416
848.244	21344
848.379	21192
848.515	21096
848.65	21131
848.786	21089
848.921	21230
849.057	21321
849.192	21207
849.328	21127
849.463	21161
849.598	20986
849.734	21138
849.869	20960
850.004	20986
850.14	20952
850.275	20804
850.41	20743
850.545	20804
850.68	20902
850.815	21013
850.95	20842
851.085	20998
851.22	20944
851.355	20842
851.49	20807
851.625	20823
851.76	20773
851.895	20746
852.03	20655
852.165	20842
852.299	20720
852.434	20944
852.569	20914
852.703	20845
852.838	20868
852.973	20853
853.107	20906
853.242	20811
853.376	20746
853.511	20495
853.645	20705
853.78	20853
853.914	20769
854.048	20644
854.183	20613
854.317	20758
854.451	20796
854.585	20678
854.72	20625
854.854	20655
854.988	20537
855.122	20693
855.256	20545
855.39	20670
855.524	20750
855.658	20750
855.792	20739
855.926	20606
856.06	20735
856.194	20644
856.327	20579
856.461	20552
856.595	20621
856.729	20530
856.862	20762
856.996	20682
857.13	20568
857.263	20708
857.397	20804
857.53	20568
857.664	20644
857.797	20788
857.931	20689
858.064	20655
858.197	20708
858.331	20533
858.464	20454
858.597	20507
858.731	20518
858.864	20434
858.997	20484
859.13	20613
859.263	20511
859.396	20613
859.529	20537
859.662	20556
859.795	20575
859.928	20495
860.061	20819
860.194	20735
860.327	20682
860.46	20457
860.592	20724
860.725	20762
860.858	20602
860.99	20568
861.123	20415
861.256	20450
861.388	20636
861.521	21165
861.653	20412
861.786	20358
861.918	20427
862.05	20606
862.183	20632
862.315	20663
862.447	20530
862.58	20423
862.712	20267
862.844	20267
862.976	20355
863.108	20347
863.24	20769
863.372	20252
863.504	20233
863.636	20275
863.768	20351
863.9	20286
864.032	20218
864.164	20172
864.296	20218
864.428	20294
864.559	20244
864.691	20374
864.823	20221
864.954	20320
865.086	20305
865.217	20237
865.349	20096
865.48	20088
865.612	20202
865.743	20358
865.875	20180
866.006	20202
866.137	20218
866.269	20138
866.4	20218
866.531	20046
866.662	20020
866.793	20077
866.924	20088
867.055	20092
867.186	20149
867.317	20027
867.448	19944
867.579	19947
867.71	20073
867.841	19947
867.972	20073
868.103	20073
868.233	20168
868.364	20046
868.495	20195
868.625	20229
868.756	20320
868.886	20206
869.017	20305
869.147	20419
869.278	20427
869.408	20343
869.539	20358
869.669	20343
869.799	20358
869.929	20522
870.06	20336
870.19	20659
870.32	20583
870.45	20571
870.58	20697
870.71	20811
870.84	20826
870.97	20708
871.1	20758
871.23	20800
871.36	20929
871.489	20800
871.619	20823
871.749	20826
871.879	20887
872.008	20990
872.138	20941
872.267	20891
872.397	20765
872.526	20735
872.656	20678
872.785	20705
872.915	20902
873.044	20971
873.173	20864
873.303	21013
873.432	20891
873.561	21066
873.69	20979
873.819	20960
873.948	20963
874.077	20963
874.206	20781
874.335	21024
874.464	21093
874.593	21051
874.722	21241
874.851	21226
874.979	21100
875.108	21214
875.237	21036
875.365	21070
875.494	21119
875.623	21093
875.751	21020
875.88	21138
876.008	21439
876.136	21355
876.265	21667
876.393	21663
876.521	21614
876.65	21717
876.778	21641
876.906	21488
877.034	21564
877.162	21507
877.29	21325
877.418	21462
877.546	21450
877.674	21561
877.802	21507
877.93	21511
878.058	21473
878.185	21382
878.313	21485
878.441	21599
878.568	21306
878.696	21511
878.824	21561
878.951	21648
879.079	21705
879.206	21804
879.333	21603
879.461	21538
879.588	21610
879.715	21686
879.842	21808
879.97	21523
880.097	21344
880.224	21321
880.351	21351
880.478	21313
880.605	21291
880.732	21279
880.859	21576
880.986	21351
881.112	21405
881.239	21298
881.366	21142
881.493	21055
881.619	20914
881.746	21013
881.872	20952
881.999	20902
882.125	20876
882.252	20975
882.378	20963
882.505	20994
882.631	20902
882.757	20689
882.883	20762
883.01	20636
883.136	20613
883.262	20511
883.388	20473
883.514	20697
883.64	20765
883.766	20693
883.892	20571
884.018	20488
884.143	20625
884.269	20705
884.395	20518
884.52	20347
884.646	20278
884.772	20229
884.897	20259
885.023	20317
885.148	20499
885.274	20442
885.399	20446
885.524	20218
885.65	20404
885.775	20290
885.9	20362
886.025	20499
886.15	20355
886.275	20290
886.4	20244
886.525	20252
886.65	20168
886.775	20263
886.9	20434
887.025	20442
887.149	20301
887.274	20142
887.399	20058
887.523	20176
887.648	19940
887.773	19967
887.897	20164
888.021	20092
888.146	20065
888.27	20134
888.395	20142
888.519	20164
888.643	20142
888.767	20069
888.891	19978
889.015	19822
889.139	19894
889.263	19826
889.387	19799
889.511	20050
889.635	19989
889.759	19868
889.883	19852
890.006	19830
890.13	19970
890.254	19864
890.377	19750
890.501	19689
890.624	19563
890.748	19594
890.871	19502
890.995	19392
891.118	19350
891.241	19358
891.364	19476
891.488	19582
891.611	19346
891.734	19476
891.857	19400
891.98	19476
892.103	19506
892.226	19460
892.349	19407
892.471	19373
892.594	19384
892.717	19388
892.839	19327
892.962	19430
893.085	19445
893.207	19365
893.33	19236
893.452	19289
893.575	19373
893.697	19301
893.819	19533
893.941	19628
894.064	19388
894.186	19308
894.308	19202
894.43	19381
894.552	19491
894.674	19449
894.796	19244
894.918	19400
895.04	19285
895.161	19430
895.283	19426
895.405	19270
895.526	19335
895.648	19255
895.769	19381
895.891	19396
896.012	19491
896.134	19445
896.255	19457
896.376	19301
896.498	19457
896.619	19403
896.74	19422
896.861	19468
896.982	19795
897.103	19940
897.224	19746
897.345	19559
897.466	19502
897.587	19559
897.708	19761
897.828	19658
897.949	19624
898.07	19369
898.19	19491
898.311	19620
898.431	19480
898.552	19609
898.672	19628
898.792	19635
898.913	19373
899.033	19491
899.153	19331
899.273	19293
899.393	19251
899.513	19362
899.633	19278
899.753	19346
899.873	19293
899.993	19339
900.113	19179
900.232	19297
900.352	19202
900.472	19282
900.591	19031
900.711	19141
900.83	19053
900.95	19164
901.069	19270
901.189	19031
901.308	18913
901.427	18817
901.546	18783
901.665	18791
901.784	18639
901.904	18532
902.023	18593
902.141	18311
902.26	18201
902.379	18357
902.498	18262
902.617	18220
902.735	18296
902.854	18152
902.973	18079
903.091	17771
903.21	17832
903.328	17942
903.446	17771
903.565	17703
903.683	17680
903.801	17668
903.919	17733
904.038	17509
904.156	17482
904.274	17627
904.392	17452
904.51	17440
904.627	17459
904.745	17585
904.863	17528
904.981	17307
905.098	17014
905.216	17162
905.334	17185
905.451	17094
905.569	17132
905.686	17151
905.803	17174
905.921	17037
906.038	17003
906.155	16991
906.272	16782
906.389	16793
906.506	16626
906.623	16675
906.74	16516
906.857	16630
906.974	16554
907.091	16736
907.208	16774
907.324	16580
907.441	16596
907.557	16443
907.674	16333
907.79	16310
907.907	16295
908.023	16390
908.139	16337
908.256	16360
908.372	16249
908.488	16295
908.604	16188
908.72	16051
908.836	16063
908.952	15991
909.068	16124
909.184	16093
909.3	16101
909.415	16200
909.531	16071
909.647	15705
909.762	15709
909.878	15698
909.993	15709
910.108	15694
910.224	15789
910.339	15663
910.454	15625
910.57	15564
910.685	15439
910.8	15739
910.915	15679
911.03	15504
911.145	15428
911.259	15332
911.374	15458
911.489	15336
911.604	15131
911.718	15081
911.833	15032
911.947	14994
912.062	14868
912.176	15051
912.291	15005
912.405	15058
912.519	15325
912.633	15222
912.748	15161
912.862	14929
912.976	14826
913.09	14739
913.204	14937
913.318	14868
913.431	14853
913.545	14929
913.659	14861
913.772	14864
913.886	14682
914	14678
914.113	14739
914.226	14826
914.34	14830
914.453	14625
914.566	14708
914.68	14625
914.793	14587
914.906	14442
915.019	14347
915.132	14324
915.245	14332
915.358	14370
915.47	14412
915.583	14362
915.696	14438
915.809	14469
915.921	14480
916.034	14278
916.146	14339
916.259	14282
916.371	14290
916.483	14259
916.595	14206
916.708	14317
916.82	14237
916.932	14195
917.044	14225
917.156	14191
917.268	14046
917.38	14016
917.491	13982
917.603	14027
917.715	14088
917.826	14088
917.938	14103
918.049	13879
918.161	14020
918.272	14039
918.384	14020
918.495	13944
918.606	13947
918.717	13738
918.828	13852
918.939	13868
919.05	13693
919.161	13723
919.272	13529
919.383	13613
919.494	13860
919.604	13936
919.715	13746
919.826	13689
919.936	13811
920.047	13833
920.157	13693
920.267	13860
920.378	13746
920.488	13772
920.598	13906
920.708	14043
920.818	13883
920.928	13856
921.038	14058
921.148	13944
921.258	13738
921.368	13647
921.477	13563
921.587	13525
921.697	13339
921.806	13445
921.916	13422
922.025	13251
922.134	13156
922.244	13072
922.353	13156
922.462	13099
922.571	12939
922.68	12844
922.789	12783
922.898	12821
923.007	12677
923.116	12848
923.224	12677
923.333	12642
923.442	12684
923.55	12608
923.659	12559
923.767	12669
923.876	12521
923.984	12536
924.092	12502
924.201	12532
924.309	12490
924.417	12498
924.525	12437
924.633	12441
924.741	13308
924.849	12247
924.956	12357
925.064	12201
925.172	12129
925.279	12152
925.387	12270
925.494	12292
925.602	12376
925.709	12365
925.816	12186
925.924	12201
926.031	12315
926.138	12197
926.245	12243
926.352	12034
926.459	12262
926.566	12266
926.673	12175
926.779	11958
926.886	12003
926.993	11901
927.099	11847
927.206	11760
927.312	11733
927.419	11855
927.525	11752
927.631	11851
927.737	11714
927.843	11642
927.95	11547
928.056	11585
928.162	11668
928.267	11642
928.373	12315
928.479	11657
928.585	11467
928.69	11573
928.796	11688
928.901	11539
929.007	11398
929.112	11463
929.218	11520
929.323	11490
929.428	11376
929.533	11497
929.638	11315
929.743	11322
929.848	11330
929.953	11341
930.058	11250
930.163	11079
930.267	11086
930.372	11189
930.477	11071
930.581	11189
930.685	11128
930.79	10938
930.894	10938
930.998	10904
931.103	11071
931.207	10733
931.311	10641
931.415	10569
931.519	10356
931.623	10367
