Data from test_V78500241_3205.txt Node
Date: Fri Mar 25 15:32:10 CST 2022
User: usil
Spectrometer: V785-0024
Trigger mode: 0
Integration Time (sec): 4.000000E-1
Scans to average: 1
Nonlinearity correction enabled: false
Boxcar width: 0
Storing dark spectrum: false
XAxis mode: Wavelengths
Number of Pixels in Spectrum: 1024
>>>>>Begin Spectral Data<<<<<
801.071	27184
801.214	26910
801.356	26750
801.499	26845
801.641	26644
801.783	26511
801.926	26720
802.068	26765
802.211	26670
802.353	26492
802.496	26442
802.638	26290
802.78	26248
802.923	26278
803.065	26149
803.208	26065
803.35	26252
803.492	26298
803.635	26400
803.777	26206
803.919	26450
804.061	26678
804.204	26317
804.346	26370
804.488	26252
804.63	26355
804.773	26172
804.915	26473
805.057	26537
805.199	26290
805.341	26511
805.483	26629
805.626	26431
805.768	26450
805.91	26438
806.052	26541
806.194	26282
806.336	26686
806.478	26469
806.62	26431
806.762	26663
806.904	26663
807.046	27074
807.188	27005
807.33	26982
807.472	27009
807.614	26819
807.756	26864
807.898	26796
808.04	26583
808.182	26697
808.324	26906
808.465	26857
808.607	26940
808.749	27093
808.891	27058
809.033	27135
809.174	27081
809.316	27093
809.458	27150
809.6	26906
809.741	27268
809.883	27131
810.025	27393
810.166	27310
810.308	27393
810.45	27268
810.591	27355
810.733	27142
810.875	27112
811.016	26979
811.158	26971
811.299	27233
811.441	27226
811.582	27340
811.724	27074
811.865	27157
812.007	27043
812.148	27173
812.29	27157
812.431	27146
812.573	27439
812.714	27538
812.855	27606
812.997	27606
813.138	27892
813.279	27618
813.421	27591
813.562	27427
813.703	27389
813.845	27336
813.986	26971
814.127	26705
814.268	26670
814.41	26697
814.551	26712
814.692	26804
814.833	26636
814.974	26655
815.115	26785
815.256	26655
815.397	26640
815.539	26602
815.68	26511
815.821	26434
815.962	26423
816.103	26507
816.244	26282
816.385	26263
816.526	26168
816.666	26153
816.807	25906
816.948	26149
817.089	26069
817.23	25955
817.371	26020
817.512	25986
817.653	25944
817.793	25864
817.934	26092
818.075	26134
818.216	26054
818.356	25974
818.497	25780
818.638	25708
818.778	25681
818.919	25712
819.06	25883
819.2	25963
819.341	25978
819.481	25909
819.622	26024
819.762	26313
819.903	26142
820.043	26088
820.184	26054
820.324	26126
820.465	26119
820.605	26058
820.746	26035
820.886	25906
821.026	26164
821.167	26107
821.307	26134
821.447	26012
821.588	25909
821.728	25795
821.868	25613
822.008	25373
822.149	25441
822.289	25556
822.429	25217
822.569	25091
822.709	25152
822.849	24958
822.99	25034
823.13	24844
823.27	24992
823.41	24764
823.55	24757
823.69	24817
823.83	24692
823.97	24757
824.11	24597
824.25	24574
824.389	24578
824.529	24726
824.669	24540
824.809	24700
824.949	24540
825.089	24730
825.228	24593
825.368	24456
825.508	24403
825.648	24376
825.787	24490
825.927	24582
826.067	24372
826.206	24471
826.346	24536
826.485	24445
826.625	24566
826.765	24661
826.904	24544
827.044	24254
827.183	24308
827.323	24083
827.462	24243
827.601	24171
827.741	24167
827.88	24155
828.02	23984
828.159	24133
828.298	24121
828.437	24251
828.577	24106
828.716	24140
828.855	24015
828.994	23969
829.134	23866
829.273	23874
829.412	23901
829.551	23847
829.69	23851
829.829	23931
829.968	23958
830.107	23965
830.246	24003
830.385	23863
830.524	23779
830.663	23619
830.802	23695
830.941	23543
831.08	23410
831.219	23619
831.357	23551
831.496	23809
831.635	23539
831.774	23368
831.913	23296
832.051	23334
832.19	23349
832.329	23204
832.467	23185
832.606	23037
832.744	23128
832.883	23208
833.022	22984
833.16	23143
833.299	23322
833.437	23337
833.576	23166
833.714	23292
833.852	23242
833.991	23280
834.129	23379
834.267	23231
834.406	23391
834.544	23391
834.682	23208
834.821	23174
834.959	23311
835.097	23124
835.235	23322
835.373	23105
835.511	23159
835.65	23147
835.788	23075
835.926	22976
836.064	22904
836.202	22987
836.34	23147
836.478	23140
836.615	23022
836.753	23086
836.891	23197
837.029	23014
837.167	23079
837.305	22949
837.443	22900
837.58	22953
837.718	22866
837.856	23086
837.993	22896
838.131	22980
838.269	22911
838.406	22809
838.544	22721
838.681	22637
838.819	22531
838.956	22356
839.094	22424
839.231	22478
839.369	22565
839.506	22797
839.643	22713
839.781	22360
839.918	22386
840.055	22348
840.193	22367
840.33	22253
840.467	22432
840.604	22417
840.742	22516
840.879	22246
841.016	22253
841.153	22360
841.29	22394
841.427	22272
841.564	22402
841.701	22276
841.838	22268
841.975	22238
842.112	22333
842.249	22314
842.385	22223
842.522	22459
842.659	22238
842.796	22128
842.933	22105
843.069	22063
843.206	22059
843.343	22154
843.479	22051
843.616	22158
843.752	21759
843.889	22021
844.025	22200
844.162	21956
844.298	21907
844.435	21888
844.571	21911
844.708	22051
844.844	22147
844.98	22051
845.117	21953
845.253	21747
845.389	21663
845.525	21835
845.661	21755
845.798	21633
845.934	21770
846.07	21606
846.206	21797
846.342	21869
846.478	21500
846.614	21450
846.75	21511
846.886	21325
847.022	21370
847.158	21481
847.294	21401
847.429	21408
847.565	21363
847.701	21644
847.837	21074
847.972	21020
848.108	21222
848.244	21249
848.379	20914
848.515	21009
848.65	20952
848.786	20944
848.921	20975
849.057	21119
849.192	21135
849.328	20994
849.463	21001
849.598	20880
849.734	20849
849.869	20906
850.004	20705
850.14	20826
850.275	20781
850.41	20594
850.545	20606
850.68	20739
850.815	20857
850.95	20773
851.085	20899
851.22	20823
851.355	20678
851.49	20640
851.625	20708
851.76	20735
851.895	20739
852.03	20712
852.165	20735
852.299	20777
852.434	20788
852.569	20731
852.703	20712
852.838	20716
852.973	20773
853.107	20845
853.242	20762
853.376	20606
853.511	20431
853.645	20480
853.78	20587
853.914	20590
854.048	20583
854.183	20473
854.317	20590
854.451	20743
854.585	20560
854.72	20609
854.854	20674
854.988	20480
855.122	20446
855.256	20457
855.39	20488
855.524	20609
855.658	20655
855.792	20667
855.926	20613
856.06	20583
856.194	20773
856.327	20575
856.461	20473
856.595	20530
856.729	20545
856.862	20560
856.996	20533
857.13	20587
857.263	20663
857.397	20708
857.53	20488
857.664	20659
857.797	20518
857.931	20629
858.064	20655
858.197	20659
858.331	20602
858.464	20606
858.597	20484
858.731	20488
858.864	20488
858.997	20533
859.13	20434
859.263	20518
859.396	20613
859.529	20484
859.662	20503
859.795	20571
859.928	20609
860.061	20777
860.194	20674
860.327	20583
860.46	20587
860.592	20678
860.725	20617
860.858	20686
860.99	20530
861.123	20511
861.256	20526
861.388	20640
861.521	21108
861.653	20362
861.786	20473
861.918	20404
862.05	20495
862.183	20434
862.315	20503
862.447	20552
862.58	20495
862.712	20229
862.844	20210
862.976	20309
863.108	20366
863.24	20568
863.372	20305
863.504	20240
863.636	20290
863.768	20244
863.9	20290
864.032	20214
864.164	20347
864.296	20237
864.428	20278
864.559	20309
864.691	20476
864.823	20248
864.954	20267
865.086	20256
865.217	20206
865.349	20084
865.48	20210
865.612	19982
865.743	20282
865.875	20168
866.006	20084
866.137	20164
866.269	20237
866.4	20168
866.531	20317
866.662	20115
866.793	20187
866.924	20062
867.055	20050
867.186	20084
867.317	20020
867.448	20103
867.579	20126
867.71	20046
867.841	20054
867.972	20233
868.103	20145
868.233	20206
868.364	20100
868.495	20164
868.625	20366
868.756	20514
868.886	20267
869.017	20328
869.147	20438
869.278	20442
869.408	20309
869.539	20358
869.669	20499
869.799	20473
869.929	20419
870.06	20537
870.19	20716
870.32	20678
870.45	20674
870.58	20727
870.71	20823
870.84	20883
870.97	20804
871.1	20762
871.23	20925
871.36	20910
871.489	20842
871.619	20960
871.749	20921
871.879	20990
872.008	21081
872.138	21001
872.267	20990
872.397	20834
872.526	20819
872.656	20716
872.785	20674
872.915	21032
873.044	21028
873.173	21017
873.303	21062
873.432	21009
873.561	21039
873.69	21009
873.819	21051
873.948	21017
874.077	21028
874.206	20944
874.335	21119
874.464	21108
874.593	21329
874.722	21142
874.851	21043
874.979	21294
875.108	21313
875.237	21127
875.365	21142
875.494	21245
875.623	21287
875.751	21142
875.88	21116
876.008	21325
876.136	21389
876.265	21549
876.393	21835
876.521	21781
876.65	21656
876.778	21648
876.906	21545
877.034	21431
877.162	21652
877.29	21553
877.418	21614
877.546	21515
877.674	21694
877.802	21603
877.93	21633
878.058	21553
878.185	21553
878.313	21526
878.441	21580
878.568	21367
878.696	21507
878.824	21675
878.951	21778
879.079	21778
879.206	21778
879.333	21679
879.461	21580
879.588	21732
879.715	21808
879.842	21937
879.97	21637
880.097	21378
880.224	21382
880.351	21424
880.478	21496
880.605	21367
880.732	21447
880.859	21606
880.986	21466
881.112	21435
881.239	21275
881.366	21211
881.493	21116
881.619	21066
881.746	20918
881.872	20982
881.999	20944
882.125	20929
882.252	21039
882.378	20906
882.505	21020
882.631	20952
882.757	20724
882.883	20724
883.01	20781
883.136	20651
883.262	20492
883.388	20552
883.514	20735
883.64	20823
883.766	20568
883.892	20434
884.018	20434
884.143	20632
884.269	20667
884.395	20320
884.52	20374
884.646	20450
884.772	20324
884.897	20336
885.023	20404
885.148	20393
885.274	20537
885.399	20457
885.524	20488
885.65	20294
885.775	20454
885.9	20313
886.025	20514
886.15	20366
886.275	20423
886.4	20240
886.525	20313
886.65	20286
886.775	20282
886.9	20469
887.025	20541
887.149	20454
887.274	20240
887.399	20115
887.523	20199
887.648	20145
887.773	20001
887.897	20271
888.021	20107
888.146	20134
888.27	20153
888.395	20115
888.519	20229
888.643	20195
888.767	20218
888.891	20035
889.015	19860
889.139	20001
889.263	19955
889.387	19989
889.511	20126
889.635	20065
889.759	19833
889.883	19887
890.006	19856
890.13	20073
890.254	19970
890.377	19894
890.501	19685
890.624	19662
890.748	19727
890.871	19647
890.995	19502
891.118	19445
891.241	19556
891.364	19655
891.488	19647
891.611	19533
891.734	19540
891.857	19616
891.98	19571
892.103	19632
892.226	19556
892.349	19521
892.471	19304
892.594	19400
892.717	19483
892.839	19476
892.962	19419
893.085	19506
893.207	19392
893.33	19343
893.452	19335
893.575	19499
893.697	19483
893.819	19544
893.941	19643
894.064	19605
894.186	19400
894.308	19346
894.43	19510
894.552	19571
894.674	19495
894.796	19381
894.918	19457
895.04	19308
895.161	19601
895.283	19487
895.405	19384
895.526	19525
895.648	19430
895.769	19491
895.891	19559
896.012	19499
896.134	19597
896.255	19441
896.376	19400
896.498	19350
896.619	19533
896.74	19400
896.861	19506
896.982	19772
897.103	20016
897.224	19662
897.345	19632
897.466	19693
897.587	19666
897.708	19841
897.828	19693
897.949	19525
898.07	19499
898.19	19715
898.311	19852
898.431	19666
898.552	19635
898.672	19780
898.792	19727
898.913	19757
899.033	19628
899.153	19453
899.273	19441
899.393	19373
899.513	19453
899.633	19487
899.753	19491
899.873	19369
899.993	19453
900.113	19362
900.232	19365
900.352	19362
900.472	19168
900.591	19164
900.711	19263
900.83	19175
900.95	19255
901.069	19263
901.189	19171
901.308	18909
901.427	18939
901.546	18981
901.665	18890
901.784	18821
901.904	18757
902.023	18646
902.141	18327
902.26	18350
902.379	18407
902.498	18475
902.617	18232
902.735	18346
902.854	18315
902.973	18323
903.091	18022
903.21	17961
903.328	18083
903.446	17923
903.565	17882
903.683	17847
903.801	17714
903.919	17798
904.038	17874
904.156	17604
904.274	17657
904.392	17581
904.51	17630
904.627	17661
904.745	17581
904.863	17733
904.981	17414
905.098	17360
905.216	17353
905.334	17242
905.451	17277
905.569	17277
905.686	17337
905.803	17151
905.921	17132
906.038	17117
906.155	17094
906.272	17010
906.389	16953
906.506	16809
906.623	16850
906.74	16809
906.857	16641
906.974	16759
907.091	16847
907.208	16828
907.324	16831
907.441	16774
907.557	16607
907.674	16550
907.79	16451
907.907	16565
908.023	16558
908.139	16641
908.256	16485
908.372	16474
908.488	16405
908.604	16348
908.72	16276
908.836	16219
908.952	16234
909.068	16234
909.184	16367
909.3	16215
909.415	16261
909.531	16291
909.647	16021
909.762	15941
909.878	15968
909.993	16006
910.108	15892
910.224	15956
910.339	15964
910.454	15823
910.57	15785
910.685	15743
910.8	15968
910.915	15953
911.03	15766
911.145	15534
911.259	15580
911.374	15633
911.489	15595
911.604	15393
911.718	15416
911.833	15370
911.947	15195
912.062	15241
912.176	15435
912.291	15279
912.405	15321
912.519	15564
912.633	15492
912.748	15397
912.862	15367
912.976	15195
913.09	14971
913.204	15112
913.318	15116
913.431	15256
913.545	15252
913.659	15287
913.772	15195
913.886	15032
914	14948
914.113	15062
914.226	15074
914.34	15058
914.453	14918
914.566	15001
914.68	14830
914.793	14826
914.906	14701
915.019	14613
915.132	14560
915.245	14560
915.358	14552
915.47	14693
915.583	14613
915.696	14552
915.809	14613
915.921	14667
916.034	14568
916.146	14450
916.259	14511
916.371	14526
916.483	14552
916.595	14282
916.708	14450
916.82	14514
916.932	14419
917.044	14438
917.156	14400
917.268	14248
917.38	14180
917.491	14221
917.603	14176
917.715	14309
917.826	14351
917.938	14168
918.049	14100
918.161	14229
918.272	14400
918.384	14332
918.495	14202
918.606	14008
918.717	13909
918.828	14054
918.939	13986
919.05	13978
919.161	14005
919.272	13906
919.383	13959
919.494	14058
919.604	14206
919.715	14001
919.826	13932
919.936	14027
920.047	14130
920.157	14065
920.267	14103
920.378	14088
920.488	13959
920.598	14123
920.708	14393
920.818	14134
920.928	14096
921.038	14366
921.148	14278
921.258	13807
921.368	13967
921.477	13795
921.587	13693
921.697	13590
921.806	13677
921.916	13578
922.025	13487
922.134	13400
922.244	13476
922.353	13392
922.462	13308
922.571	13171
922.68	13057
922.789	13008
922.898	13027
923.007	12913
923.116	13042
923.224	12947
923.333	13042
923.442	12905
923.55	12875
923.659	12996
923.767	13008
923.876	12798
923.984	12977
924.092	12646
924.201	12886
924.309	12806
924.417	12863
924.525	12719
924.633	12730
924.741	13677
924.849	12498
924.956	12646
925.064	12467
925.172	12429
925.279	12460
925.387	12475
925.494	12582
925.602	12620
925.709	12498
925.816	12429
925.924	12376
926.031	12540
926.138	12464
926.245	12578
926.352	12300
926.459	12532
926.566	12490
926.673	12350
926.779	12308
926.886	12308
926.993	12076
927.099	12079
927.206	12015
927.312	12068
927.419	12098
927.525	12102
927.631	12114
927.737	11916
927.843	11992
927.95	11805
928.056	11870
928.162	12011
928.267	11988
928.373	12498
928.479	11980
928.585	11756
928.69	11920
928.796	11889
928.901	11771
929.007	11649
929.112	11760
929.218	11729
929.323	11608
929.428	11566
929.533	11718
929.638	11547
929.743	11638
929.848	11665
929.953	11520
930.058	11596
930.163	11353
930.267	11337
930.372	11547
930.477	11292
930.581	11551
930.685	11356
930.79	11250
930.894	11265
930.998	11155
931.103	11277
931.207	10972
931.311	10972
931.415	10805
931.519	10622
931.623	10596
