Data from test_V78500241_2731.txt Node
Date: Fri Mar 25 15:28:52 CST 2022
User: usil
Spectrometer: V785-0024
Trigger mode: 0
Integration Time (sec): 4.000000E-1
Scans to average: 1
Nonlinearity correction enabled: false
Boxcar width: 0
Storing dark spectrum: false
XAxis mode: Wavelengths
Number of Pixels in Spectrum: 1024
>>>>>Begin Spectral Data<<<<<
801.071	27142
801.214	27009
801.356	26785
801.499	26701
801.641	26526
801.783	26606
801.926	26667
802.068	26564
802.211	26575
802.353	26427
802.496	26396
802.638	26412
802.78	26278
802.923	26347
803.065	26107
803.208	26092
803.35	26317
803.492	26294
803.635	26537
803.777	26358
803.919	26583
804.061	26712
804.204	26587
804.346	26374
804.488	26305
804.63	26522
804.773	26412
804.915	26453
805.057	26579
805.199	26446
805.341	26636
805.483	26674
805.626	26579
805.768	26480
805.91	26526
806.052	26507
806.194	26495
806.336	26746
806.478	26659
806.62	26708
806.762	26686
806.904	26769
807.046	27055
807.188	27074
807.33	27047
807.472	26979
807.614	26887
807.756	26895
807.898	26918
808.04	26804
808.182	26735
808.324	26944
808.465	26895
808.607	26986
808.749	27093
808.891	27321
809.033	27264
809.174	27230
809.316	27096
809.458	27127
809.6	27077
809.741	27268
809.883	27241
810.025	27435
810.166	27340
810.308	27572
810.45	27485
810.591	27291
810.733	27112
810.875	27180
811.016	27081
811.158	27062
811.299	27214
811.441	27336
811.582	27401
811.724	27146
811.865	27066
812.007	27028
812.148	27036
812.29	27096
812.431	27157
812.573	27447
812.714	27675
812.855	27587
812.997	27671
813.138	27873
813.279	27778
813.421	27583
813.562	27587
813.703	27317
813.845	27279
813.986	27085
814.127	26960
814.268	26667
814.41	26853
814.551	26800
814.692	26739
814.833	26762
814.974	26716
815.115	26826
815.256	26583
815.397	26712
815.539	26636
815.68	26609
815.821	26507
815.962	26564
816.103	26617
816.244	26358
816.385	26366
816.526	26278
816.666	26218
816.807	26016
816.948	26103
817.089	26054
817.23	26020
817.371	26065
817.512	26046
817.653	26008
817.793	25856
817.934	25986
818.075	26012
818.216	26172
818.356	25970
818.497	25925
818.638	25750
818.778	25746
818.919	25776
819.06	25902
819.2	26005
819.341	26081
819.481	26039
819.622	26157
819.762	26358
819.903	26275
820.043	26153
820.184	26153
820.324	26138
820.465	26100
820.605	26138
820.746	26130
820.886	25947
821.026	26180
821.167	25944
821.307	26172
821.447	26119
821.588	26027
821.728	25841
821.868	25803
822.008	25518
822.149	25632
822.289	25468
822.429	25289
822.569	25327
822.709	25194
822.849	24932
822.99	24966
823.13	25031
823.27	24905
823.41	24840
823.55	24715
823.69	24913
823.83	24856
823.97	24814
824.11	24608
824.25	24547
824.389	24669
824.529	24688
824.669	24730
824.809	24741
824.949	24726
825.089	24757
825.228	24677
825.368	24448
825.508	24509
825.648	24509
825.787	24540
825.927	24570
826.067	24407
826.206	24540
826.346	24563
826.485	24635
826.625	24464
826.765	24608
826.904	24563
827.044	24323
827.183	24380
827.323	24213
827.462	24247
827.601	24228
827.741	24186
827.88	24178
828.02	24235
828.159	24235
828.298	24277
828.437	24410
828.577	24155
828.716	24232
828.855	24140
828.994	24083
829.134	24011
829.273	23885
829.412	23889
829.551	23843
829.69	23901
829.829	23942
829.968	24049
830.107	24114
830.246	23923
830.385	23821
830.524	23878
830.663	23661
830.802	23615
830.941	23551
831.08	23482
831.219	23691
831.357	23600
831.496	23836
831.635	23509
831.774	23539
831.913	23398
832.051	23265
832.19	23395
832.329	23307
832.467	23242
832.606	23170
832.744	23105
832.883	23250
833.022	23185
833.16	23121
833.299	23299
833.437	23239
833.576	23299
833.714	23284
833.852	23292
833.991	23337
834.129	23307
834.267	23402
834.406	23414
834.544	23395
834.682	23398
834.821	23258
834.959	23410
835.097	23079
835.235	23315
835.373	23341
835.511	23341
835.65	23124
835.788	23185
835.926	22919
836.064	22889
836.202	22911
836.34	23113
836.478	23326
836.615	23079
836.753	23117
836.891	23261
837.029	23242
837.167	23006
837.305	22949
837.443	22904
837.58	22873
837.718	23109
837.856	22968
837.993	22869
838.131	23060
838.269	22835
838.406	22904
838.544	22748
838.681	22550
838.819	22656
838.956	22481
839.094	22466
839.231	22504
839.369	22550
839.506	22847
839.643	22626
839.781	22462
839.918	22405
840.055	22432
840.193	22523
840.33	22341
840.467	22409
840.604	22421
840.742	22694
840.879	22284
841.016	22398
841.153	22287
841.29	22531
841.427	22382
841.564	22432
841.701	22363
841.838	22314
841.975	22192
842.112	22234
842.249	22344
842.385	22253
842.522	22462
842.659	22333
842.796	22295
842.933	22207
843.069	22063
843.206	22128
843.343	22143
843.479	22097
843.616	22078
843.752	21934
843.889	21987
844.025	22002
844.162	21869
844.298	22044
844.435	21926
844.571	21983
844.708	22010
844.844	22162
844.98	21869
845.117	21903
845.253	21907
845.389	21823
845.525	21679
845.661	21682
845.798	21671
845.934	21743
846.07	21800
846.206	21622
846.342	21812
846.478	21679
846.614	21435
846.75	21348
846.886	21355
847.022	21473
847.158	21439
847.294	21496
847.429	21466
847.565	21416
847.701	21583
847.837	21142
847.972	20994
848.108	21249
848.244	21104
848.379	21024
848.515	20758
848.65	20990
848.786	21058
848.921	20880
849.057	21081
849.192	21108
849.328	21043
849.463	21005
849.598	20990
849.734	20963
849.869	20739
850.004	20800
850.14	20739
850.275	20705
850.41	20762
850.545	20636
850.68	20754
850.815	20701
850.95	20785
851.085	20914
851.22	20899
851.355	20765
851.49	20781
851.625	20792
851.76	20727
851.895	20701
852.03	20765
852.165	20785
852.299	20883
852.434	20811
852.569	20895
852.703	20765
852.838	20823
852.973	20845
853.107	20811
853.242	20743
853.376	20636
853.511	20514
853.645	20404
853.78	20625
853.914	20613
854.048	20511
854.183	20533
854.317	20613
854.451	20815
854.585	20621
854.72	20617
854.854	20651
854.988	20461
855.122	20598
855.256	20366
855.39	20609
855.524	20659
855.658	20568
855.792	20583
855.926	20693
856.06	20575
856.194	20701
856.327	20450
856.461	20526
856.595	20469
856.729	20651
856.862	20735
856.996	20632
857.13	20708
857.263	20670
857.397	20636
857.53	20560
857.664	20629
857.797	20587
857.931	20648
858.064	20689
858.197	20762
858.331	20632
858.464	20465
858.597	20564
858.731	20518
858.864	20446
858.997	20396
859.13	20537
859.263	20579
859.396	20689
859.529	20663
859.662	20503
859.795	20598
859.928	20689
860.061	20659
860.194	20785
860.327	20708
860.46	20545
860.592	20609
860.725	20815
860.858	20663
860.99	20549
861.123	20404
861.256	20461
861.388	20640
861.521	21108
861.653	20476
861.786	20355
861.918	20332
862.05	20564
862.183	20461
862.315	20450
862.447	20568
862.58	20518
862.712	20358
862.844	20221
862.976	20381
863.108	20381
863.24	20773
863.372	20256
863.504	20282
863.636	20233
863.768	20218
863.9	20427
864.032	20294
864.164	20336
864.296	20218
864.428	20457
864.559	20313
864.691	20259
864.823	20301
864.954	20202
865.086	20271
865.217	20263
865.349	20122
865.48	20092
865.612	20221
865.743	20328
865.875	20218
866.006	20153
866.137	20252
866.269	20161
866.4	20145
866.531	20046
866.662	20088
866.793	20172
866.924	20206
867.055	20210
867.186	20301
867.317	20115
867.448	20164
867.579	20073
867.71	20039
867.841	19947
867.972	20206
868.103	20161
868.233	20237
868.364	20172
868.495	20195
868.625	20438
868.756	20476
868.886	20400
869.017	20377
869.147	20552
869.278	20412
869.408	20461
869.539	20256
869.669	20423
869.799	20381
869.929	20507
870.06	20457
870.19	20826
870.32	20541
870.45	20746
870.58	20895
870.71	20857
870.84	20823
870.97	20830
871.1	20701
871.23	20834
871.36	21005
871.489	20868
871.619	21051
871.749	20921
871.879	20975
872.008	21093
872.138	20979
872.267	21024
872.397	20826
872.526	20792
872.656	20762
872.785	20842
872.915	21161
873.044	21051
873.173	20994
873.303	21070
873.432	21058
873.561	21116
873.69	21036
873.819	20998
873.948	21058
874.077	21047
874.206	20948
874.335	20952
874.464	21081
874.593	21332
874.722	21074
874.851	21184
874.979	21211
875.108	21306
875.237	21184
875.365	21157
875.494	21161
875.623	21279
875.751	21260
875.88	21291
876.008	21374
876.136	21351
876.265	21580
876.393	21766
876.521	21774
876.65	21797
876.778	21549
876.906	21591
877.034	21603
877.162	21595
877.29	21625
877.418	21705
877.546	21633
877.674	21583
877.802	21701
877.93	21622
878.058	21523
878.185	21462
878.313	21492
878.441	21515
878.568	21416
878.696	21553
878.824	21545
878.951	21629
879.079	21766
879.206	21838
879.333	21747
879.461	21618
879.588	21679
879.715	21759
879.842	21781
879.97	21603
880.097	21507
880.224	21542
880.351	21351
880.478	21496
880.605	21401
880.732	21435
880.859	21717
880.986	21473
881.112	21485
881.239	21336
881.366	21237
881.493	21112
881.619	20941
881.746	21062
881.872	20899
881.999	20925
882.125	20910
882.252	21138
882.378	20929
882.505	21154
882.631	20842
882.757	20735
882.883	20788
883.01	20743
883.136	20727
883.262	20689
883.388	20564
883.514	20804
883.64	20754
883.766	20674
883.892	20617
884.018	20537
884.143	20743
884.269	20743
884.395	20431
884.52	20362
884.646	20347
884.772	20271
884.897	20259
885.023	20366
885.148	20423
885.274	20484
885.399	20473
885.524	20347
885.65	20389
885.775	20351
885.9	20309
886.025	20442
886.15	20415
886.275	20313
886.4	20317
886.525	20309
886.65	20320
886.775	20339
886.9	20412
887.025	20495
887.149	20351
887.274	20142
887.399	20187
887.523	20142
887.648	20119
887.773	20046
887.897	20229
888.021	20240
888.146	20153
888.27	20202
888.395	20305
888.519	20153
888.643	20191
888.767	20130
888.891	19963
889.015	19936
889.139	20005
889.263	19845
889.387	19993
889.511	20134
889.635	20016
889.759	20092
889.883	19993
890.006	20065
890.13	20088
890.254	19902
890.377	19978
890.501	19776
890.624	19727
890.748	19738
890.871	19647
890.995	19525
891.118	19495
891.241	19529
891.364	19624
891.488	19651
891.611	19556
891.734	19396
891.857	19689
891.98	19597
892.103	19518
892.226	19613
892.349	19518
892.471	19358
892.594	19540
892.717	19430
892.839	19460
892.962	19605
893.085	19552
893.207	19430
893.33	19384
893.452	19304
893.575	19400
893.697	19438
893.819	19556
893.941	19616
894.064	19628
894.186	19434
894.308	19445
894.43	19586
894.552	19590
894.674	19563
894.796	19350
894.918	19289
895.04	19567
895.161	19670
895.283	19491
895.405	19304
895.526	19567
895.648	19529
895.769	19518
895.891	19510
896.012	19422
896.134	19521
896.255	19289
896.376	19514
896.498	19460
896.619	19529
896.74	19460
896.861	19529
896.982	19818
897.103	19932
897.224	19791
897.345	19635
897.466	19559
897.587	19616
897.708	19849
897.828	19708
897.949	19632
898.07	19472
898.19	19639
898.311	19738
898.431	19590
898.552	19727
898.672	19738
898.792	19704
898.913	19712
899.033	19556
899.153	19594
899.273	19365
899.393	19358
899.513	19472
899.633	19426
899.753	19407
899.873	19392
899.993	19480
900.113	19362
900.232	19400
900.352	19350
900.472	19221
900.591	19206
900.711	19320
900.83	19183
900.95	19327
901.069	19346
901.189	19122
901.308	18848
901.427	18878
901.546	18894
901.665	18772
901.784	18901
901.904	18772
902.023	18540
902.141	18350
902.26	18327
902.379	18365
902.498	18365
902.617	18338
902.735	18353
902.854	18391
902.973	18270
903.091	18041
903.21	18053
903.328	18102
903.446	18003
903.565	17802
903.683	17809
903.801	17722
903.919	17703
904.038	17756
904.156	17699
904.274	17585
904.392	17577
904.51	17642
904.627	17687
904.745	17748
904.863	17657
904.981	17421
905.098	17223
905.216	17132
905.334	17261
905.451	17284
905.569	17269
905.686	17277
905.803	17303
905.921	17045
906.038	17113
906.155	17102
906.272	16999
906.389	17067
906.506	16873
906.623	16820
906.74	16786
906.857	16679
906.974	16675
907.091	16987
907.208	16850
907.324	16809
907.441	16683
907.557	16569
907.674	16596
907.79	16348
907.907	16584
908.023	16546
908.139	16470
908.256	16398
908.372	16432
908.488	16375
908.604	16306
908.72	16253
908.836	16253
908.952	16280
909.068	16295
909.184	16386
909.3	16291
909.415	16272
909.531	16207
909.647	16082
909.762	16040
909.878	15983
909.993	16071
910.108	15987
910.224	15903
910.339	15903
910.454	15835
910.57	15804
910.685	15789
910.8	16029
910.915	15945
911.03	15762
911.145	15545
911.259	15629
911.374	15759
911.489	15542
911.604	15507
911.718	15389
911.833	15466
911.947	15264
912.062	15355
912.176	15321
912.291	15466
912.405	15329
912.519	15572
912.633	15504
912.748	15408
912.862	15370
912.976	15218
913.09	15081
913.204	15150
913.318	15184
913.431	15241
913.545	15142
913.659	15393
913.772	15180
913.886	15051
914	14941
914.113	15032
914.226	15131
914.34	15055
914.453	14800
914.566	15017
914.68	14849
914.793	14811
914.906	14689
915.019	14488
915.132	14507
915.245	14526
915.358	14697
915.47	14617
915.583	14552
915.696	14579
915.809	14826
915.921	14686
916.034	14541
916.146	14450
916.259	14457
916.371	14579
916.483	14606
916.595	14503
916.708	14499
916.82	14408
916.932	14301
917.044	14400
917.156	14290
917.268	14374
917.38	14362
917.491	14256
917.603	14286
917.715	14275
917.826	14404
917.938	14195
918.049	14054
918.161	14172
918.272	14396
918.384	14347
918.495	14298
918.606	14027
918.717	13967
918.828	14172
918.939	14050
919.05	13974
919.161	14035
919.272	13807
919.383	13845
919.494	14081
919.604	14214
919.715	14054
919.826	13947
919.936	14035
920.047	14123
920.157	14031
920.267	14168
920.378	14027
920.488	14027
920.598	14183
920.708	14290
920.818	14050
920.928	14084
921.038	14256
921.148	14301
921.258	13944
921.368	13833
921.477	13712
921.587	13795
921.697	13662
921.806	13776
921.916	13693
922.025	13449
922.134	13422
922.244	13327
922.353	13415
922.462	13297
922.571	13255
922.68	13221
922.789	13091
922.898	13057
923.007	13099
923.116	13194
923.224	13042
923.333	12989
923.442	12897
923.55	12977
923.659	12875
923.767	12989
923.876	12871
923.984	12954
924.092	12753
924.201	12837
924.309	12878
924.417	12840
924.525	12783
924.633	12639
924.741	13632
924.849	12574
924.956	12730
925.064	12551
925.172	12532
925.279	12403
925.387	12506
925.494	12407
925.602	12658
925.709	12623
925.816	12429
925.924	12513
926.031	12517
926.138	12502
926.245	12551
926.352	12350
926.459	12525
926.566	12551
926.673	12422
926.779	12254
926.886	12201
926.993	12194
927.099	12194
927.206	12091
927.312	12079
927.419	12163
927.525	12091
927.631	12053
927.737	11973
927.843	11969
927.95	11794
928.056	11935
928.162	11847
928.267	11923
928.373	12502
928.479	12026
928.585	11794
928.69	11885
928.796	11859
928.901	11832
929.007	11581
929.112	11855
929.218	11760
929.323	11688
929.428	11691
929.533	11748
929.638	11596
929.743	11627
929.848	11642
929.953	11577
930.058	11539
930.163	11269
930.267	11368
930.372	11520
930.477	11353
930.581	11520
930.685	11455
930.79	11299
930.894	11250
930.998	11216
931.103	11296
931.207	11018
931.311	10934
931.415	10869
931.519	10694
931.623	10615
