Data from test_V78500241_676.txt Node
Date: Fri Mar 25 15:14:33 CST 2022
User: usil
Spectrometer: V785-0024
Trigger mode: 0
Integration Time (sec): 4.000000E-1
Scans to average: 1
Nonlinearity correction enabled: false
Boxcar width: 0
Storing dark spectrum: false
XAxis mode: Wavelengths
Number of Pixels in Spectrum: 1024
>>>>>Begin Spectral Data<<<<<
801.071	28017
801.214	27926
801.356	27701
801.499	27800
801.641	27720
801.783	27606
801.926	27572
802.068	27610
802.211	27488
802.353	27397
802.496	27218
802.638	27192
802.78	27313
802.923	27150
803.065	27081
803.208	27013
803.35	27203
803.492	27492
803.635	27340
803.777	27332
803.919	27344
804.061	27713
804.204	27378
804.346	27370
804.488	27405
804.63	27378
804.773	27294
804.915	27378
805.057	27568
805.199	27336
805.341	27523
805.483	27580
805.626	27633
805.768	27447
805.91	27416
806.052	27439
806.194	27496
806.336	27850
806.478	27580
806.62	27561
806.762	27690
806.904	27903
807.046	28010
807.188	27876
807.33	27812
807.472	28029
807.614	27911
807.756	27972
807.898	27743
808.04	27831
808.182	27838
808.324	27888
808.465	27827
808.607	27983
808.749	28131
808.891	28356
809.033	28421
809.174	28291
809.316	28367
809.458	28226
809.6	28284
809.741	28322
809.883	28493
810.025	28436
810.166	28436
810.308	28451
810.45	28535
810.591	28443
810.733	28253
810.875	28215
811.016	28090
811.158	28063
811.299	28440
811.441	28504
811.582	28356
811.724	28215
811.865	28139
812.007	28318
812.148	28325
812.29	28131
812.431	28265
812.573	28592
812.714	28596
812.855	28835
812.997	28820
813.138	29060
813.279	28854
813.421	28797
813.562	28782
813.703	28523
813.845	28577
813.986	28211
814.127	28116
814.268	28021
814.41	28002
814.551	28070
814.692	28010
814.833	27911
814.974	27930
815.115	27846
815.256	27804
815.397	27835
815.539	27854
815.68	27739
815.821	27701
815.962	27876
816.103	27789
816.244	27705
816.385	27610
816.526	27458
816.666	27272
816.807	27157
816.948	27313
817.089	27412
817.23	27348
817.371	27245
817.512	27230
817.653	27237
817.793	27188
817.934	27085
818.075	27389
818.216	27294
818.356	27192
818.497	27154
818.638	27036
818.778	27009
818.919	26921
819.06	27043
819.2	27230
819.341	27325
819.481	27138
819.622	27230
819.762	27496
819.903	27477
820.043	27614
820.184	27321
820.324	27374
820.465	27401
820.605	27355
820.746	27401
820.886	27283
821.026	27313
821.167	27241
821.307	27424
821.447	27294
821.588	27218
821.728	26971
821.868	26811
822.008	26769
822.149	26807
822.289	26731
822.429	26370
822.569	26339
822.709	26381
822.849	26206
822.99	26298
823.13	26183
823.27	26157
823.41	26065
823.55	25993
823.69	26020
823.83	25982
823.97	26092
824.11	25734
824.25	25818
824.389	25784
824.529	25963
824.669	25974
824.809	25951
824.949	25986
825.089	25833
825.228	25887
825.368	25674
825.508	25780
825.648	25772
825.787	25723
825.927	25826
826.067	25651
826.206	25753
826.346	25944
826.485	25712
826.625	25761
826.765	25947
826.904	25811
827.044	25537
827.183	25514
827.323	25396
827.462	25540
827.601	25552
827.741	25419
827.88	25388
828.02	25407
828.159	25502
828.298	25502
828.437	25449
828.577	25430
828.716	25487
828.855	25304
828.994	25202
829.134	25190
829.273	25263
829.412	25183
829.551	25148
829.69	25175
829.829	25129
829.968	25171
830.107	25251
830.246	25183
830.385	25148
830.524	25065
830.663	25084
830.802	24947
830.941	24661
831.08	24741
831.219	24875
831.357	24673
831.496	24856
831.635	24768
831.774	24741
831.913	24597
832.051	24483
832.19	24555
832.329	24585
832.467	24536
832.606	24547
832.744	24372
832.883	24395
833.022	24186
833.16	24429
833.299	24612
833.437	24525
833.576	24445
833.714	24494
833.852	24563
833.991	24540
834.129	24566
834.267	24722
834.406	24498
834.544	24536
834.682	24536
834.821	24494
834.959	24810
835.097	24372
835.235	24483
835.373	24513
835.511	24471
835.65	24319
835.788	24254
835.926	24098
836.064	24102
836.202	24182
836.34	24330
836.478	24315
836.615	24350
836.753	24235
836.891	24471
837.029	24330
837.167	24266
837.305	24330
837.443	24110
837.58	23988
837.718	24144
837.856	24155
837.993	24083
838.131	24315
838.269	24007
838.406	24060
838.544	24018
838.681	23790
838.819	23859
838.956	23668
839.094	23657
839.231	23687
839.369	23680
839.506	24026
839.643	23988
839.781	23672
839.918	23528
840.055	23672
840.193	23653
840.33	23562
840.467	23611
840.604	23718
840.742	23859
840.879	23421
841.016	23444
841.153	23421
841.29	23737
841.427	23516
841.564	23585
841.701	23634
841.838	23535
841.975	23467
842.112	23497
842.249	23315
842.385	23299
842.522	23539
842.659	23303
842.796	23261
842.933	23349
843.069	23246
843.206	23292
843.343	23315
843.479	23284
843.616	23181
843.752	23075
843.889	22980
844.025	23166
844.162	23052
844.298	23155
844.435	23132
844.571	23014
844.708	23121
844.844	23181
844.98	23136
845.117	23216
845.253	23113
845.389	22881
845.525	22999
845.661	22885
845.798	22934
845.934	22847
846.07	22748
846.206	22984
846.342	22980
846.478	22755
846.614	22622
846.75	22493
846.886	22546
847.022	22649
847.158	22493
847.294	22656
847.429	22653
847.565	22478
847.701	22778
847.837	22261
847.972	22276
848.108	22242
848.244	22325
848.379	22185
848.515	22219
848.65	22139
848.786	22158
848.921	22230
849.057	22147
849.192	22192
849.328	22135
849.463	22086
849.598	22048
849.734	21930
849.869	21991
850.004	21895
850.14	21899
850.275	21987
850.41	21892
850.545	21892
850.68	21835
850.815	21861
850.95	21835
851.085	22013
851.22	21979
851.355	21956
851.49	21819
851.625	21804
851.76	21850
851.895	21842
852.03	21690
852.165	21698
852.299	21846
852.434	21941
852.569	21835
852.703	21926
852.838	21880
852.973	22162
853.107	21964
853.242	21873
853.376	21713
853.511	21682
853.645	21720
853.78	21842
853.914	21743
854.048	21606
854.183	21713
854.317	21759
854.451	22067
854.585	21675
854.72	21770
854.854	21762
854.988	21583
855.122	21724
855.256	21561
855.39	21709
855.524	21728
855.658	21861
855.792	21876
855.926	21785
856.06	21854
856.194	21778
856.327	21755
856.461	21671
856.595	21603
856.729	21743
856.862	21728
856.996	21747
857.13	21827
857.263	21705
857.397	21846
857.53	21633
857.664	21713
857.797	21819
857.931	21774
858.064	21728
858.197	21759
858.331	21629
858.464	21679
858.597	21660
858.731	21682
858.864	21732
858.997	21781
859.13	21675
859.263	21755
859.396	21838
859.529	21739
859.662	21583
859.795	21720
859.928	21644
860.061	21915
860.194	21880
860.327	21732
860.46	21610
860.592	21964
860.725	21918
860.858	21850
860.99	21831
861.123	21622
861.256	21797
861.388	21694
861.521	22424
861.653	21553
861.786	21466
861.918	21538
862.05	21564
862.183	21587
862.315	21595
862.447	21694
862.58	21583
862.712	21416
862.844	21477
862.976	21367
863.108	21336
863.24	21766
863.372	21420
863.504	21332
863.636	21306
863.768	21397
863.9	21386
864.032	21298
864.164	21317
864.296	21511
864.428	21564
864.559	21454
864.691	21553
864.823	21428
864.954	21485
865.086	21428
865.217	21355
865.349	21252
865.48	21374
865.612	21332
865.743	21298
865.875	21389
866.006	21401
866.137	21245
866.269	21351
866.4	21249
866.531	21245
866.662	21294
866.793	21256
866.924	21237
867.055	21249
867.186	21203
867.317	21287
867.448	21180
867.579	21237
867.71	21169
867.841	21161
867.972	21188
868.103	21237
868.233	21275
868.364	21173
868.495	21344
868.625	21641
868.756	21606
868.886	21389
869.017	21310
869.147	21530
869.278	21549
869.408	21481
869.539	21526
869.669	21652
869.799	21583
869.929	21561
870.06	21561
870.19	21743
870.32	21736
870.45	21797
870.58	22006
870.71	22017
870.84	21987
870.97	21819
871.1	21979
871.23	22044
871.36	22025
871.489	22025
871.619	22067
871.749	22025
871.879	22036
872.008	22280
872.138	22029
872.267	22048
872.397	21987
872.526	21835
872.656	21960
872.785	22021
872.915	22109
873.044	22093
873.173	22147
873.303	22143
873.432	22124
873.561	22219
873.69	22116
873.819	22120
873.948	22097
874.077	22074
874.206	21979
874.335	22234
874.464	22101
874.593	22341
874.722	22303
874.851	22379
874.979	22303
875.108	22440
875.237	22268
875.365	22223
875.494	22318
875.623	22421
875.751	22219
875.88	22253
876.008	22462
876.136	22462
876.265	22592
876.393	22793
876.521	22946
876.65	22729
876.778	22782
876.906	22656
877.034	22588
877.162	22710
877.29	22637
877.418	22596
877.546	22561
877.674	22713
877.802	22599
877.93	22721
878.058	22615
878.185	22535
878.313	22584
878.441	22596
878.568	22557
878.696	22500
878.824	22592
878.951	22542
879.079	22771
879.206	23006
879.333	22736
879.461	22752
879.588	22790
879.715	22755
879.842	22968
879.97	22721
880.097	22379
880.224	22443
880.351	22417
880.478	22398
880.605	22428
880.732	22440
880.859	22774
880.986	22474
881.112	22485
881.239	22352
881.366	22188
881.493	22017
881.619	22093
881.746	22029
881.872	22082
881.999	21983
882.125	21895
882.252	22078
882.378	21991
882.505	22150
882.631	21964
882.757	21838
882.883	21934
883.01	21838
883.136	21789
883.262	21720
883.388	21561
883.514	21751
883.64	21705
883.766	21583
883.892	21507
884.018	21545
884.143	21591
884.269	21888
884.395	21439
884.52	21367
884.646	21515
884.772	21389
884.897	21268
885.023	21340
885.148	21412
885.274	21481
885.399	21428
885.524	21279
885.65	21363
885.775	21401
885.9	21302
886.025	21428
886.15	21424
886.275	21279
886.4	21256
886.525	21260
886.65	21256
886.775	21329
886.9	21553
887.025	21561
887.149	21431
887.274	21066
887.399	21173
887.523	21188
887.648	21123
887.773	20982
887.897	21131
888.021	21180
888.146	21009
888.27	21211
888.395	21249
888.519	21070
888.643	21161
888.767	21233
888.891	20921
889.015	20948
889.139	20921
889.263	20960
889.387	21108
889.511	21104
889.635	21188
889.759	20876
889.883	21070
890.006	20883
890.13	21093
890.254	20876
890.377	20853
890.501	20682
890.624	20602
890.748	20773
890.871	20533
890.995	20518
891.118	20385
891.241	20484
891.364	20473
891.488	20617
891.611	20492
891.734	20522
891.857	20625
891.98	20594
892.103	20446
892.226	20442
892.349	20400
892.471	20324
892.594	20442
892.717	20446
892.839	20366
892.962	20370
893.085	20492
893.207	20438
893.33	20252
893.452	20298
893.575	20404
893.697	20282
893.819	20590
893.941	20651
894.064	20621
894.186	20442
894.308	20259
894.43	20454
894.552	20495
894.674	20469
894.796	20328
894.918	20320
895.04	20336
895.161	20377
895.283	20396
895.405	20305
895.526	20450
895.648	20294
895.769	20415
895.891	20408
896.012	20533
896.134	20393
896.255	20278
896.376	20210
896.498	20404
896.619	20408
896.74	20370
896.861	20332
896.982	20636
897.103	20823
897.224	20678
897.345	20598
897.466	20480
897.587	20568
897.708	20667
897.828	20697
897.949	20495
898.07	20446
898.19	20541
898.311	20674
898.431	20549
898.552	20533
898.672	20609
898.792	20674
898.913	20670
899.033	20469
899.153	20298
899.273	20320
899.393	20317
899.513	20480
899.633	20427
899.753	20336
899.873	20210
899.993	20396
900.113	20237
900.232	20252
900.352	20381
900.472	20183
900.591	19989
900.711	20138
900.83	20157
900.95	20267
901.069	20172
901.189	20005
901.308	19814
901.427	19761
901.546	19666
901.665	19738
901.784	19632
901.904	19605
902.023	19575
902.141	19320
902.26	19247
902.379	19274
902.498	19324
902.617	19179
902.735	19206
902.854	19164
902.973	19244
903.091	18962
903.21	18791
903.328	18939
903.446	18768
903.565	18776
903.683	18627
903.801	18604
903.919	18715
904.038	18608
904.156	18540
904.274	18471
904.392	18388
904.51	18471
904.627	18391
904.745	18418
904.863	18483
904.981	18270
905.098	18155
905.216	18079
905.334	18205
905.451	18224
905.569	18041
905.686	18140
905.803	18011
905.921	17988
906.038	18007
906.155	17893
906.272	17866
906.389	17866
906.506	17619
906.623	17589
906.74	17775
906.857	17478
906.974	17577
907.091	17729
907.208	17760
907.324	17611
907.441	17520
907.557	17265
907.674	17398
907.79	17383
907.907	17398
908.023	17478
908.139	17334
908.256	17315
908.372	17200
908.488	17197
908.604	17090
908.72	17079
908.836	17060
908.952	16984
909.068	17216
909.184	17147
909.3	17045
909.415	17147
909.531	17090
909.647	16824
909.762	16896
909.878	16717
909.993	16805
910.108	16649
910.224	16653
910.339	16820
910.454	16649
910.57	16584
910.685	16527
910.8	16774
910.915	16767
911.03	16546
911.145	16421
911.259	16382
911.374	16379
911.489	16356
911.604	16272
911.718	16150
911.833	16116
911.947	15964
912.062	15998
912.176	16063
912.291	16112
912.405	16090
912.519	16337
912.633	16272
912.748	16139
912.862	16120
912.976	15972
913.09	15846
913.204	15800
913.318	15876
913.431	16044
913.545	15953
913.659	16006
913.772	15907
913.886	15797
914	15667
914.113	15736
914.226	15888
914.34	15736
914.453	15717
914.566	15850
914.68	15663
914.793	15599
914.906	15435
915.019	15397
915.132	15161
915.245	15226
915.358	15405
915.47	15218
915.583	15287
915.696	15435
915.809	15363
915.921	15511
916.034	15291
916.146	15195
916.259	15123
916.371	15287
916.483	15249
916.595	15138
916.708	15199
916.82	15252
916.932	15097
917.044	15062
917.156	15062
917.268	14948
917.38	14937
917.491	15070
917.603	15009
917.715	15043
917.826	15028
917.938	14830
918.049	14727
918.161	14979
918.272	15055
918.384	14960
918.495	14952
918.606	14731
918.717	14697
918.828	14682
918.939	14659
919.05	14705
919.161	14663
919.272	14590
919.383	14442
919.494	14773
919.604	14861
919.715	14758
919.826	14613
919.936	14632
920.047	14746
920.157	14670
920.267	14842
920.378	14701
920.488	14629
920.598	14762
920.708	15009
920.818	14895
920.928	14754
921.038	14910
921.148	14941
921.258	14594
921.368	14598
921.477	14571
921.587	14320
921.697	14290
921.806	14328
921.916	14240
922.025	14126
922.134	14012
922.244	14043
922.353	14069
922.462	14005
922.571	13936
922.68	13639
922.789	13719
922.898	13803
923.007	13609
923.116	13742
923.224	13658
923.333	13670
923.442	13544
923.55	13495
923.659	13533
923.767	13571
923.876	13468
923.984	13533
924.092	13419
924.201	13438
924.309	13510
924.417	13365
924.525	13350
924.633	13316
924.741	14123
924.849	13137
924.956	13304
925.064	13149
925.172	13008
925.279	13168
925.387	13076
925.494	13061
925.602	13240
925.709	13084
925.816	12928
925.924	13046
926.031	13156
926.138	13065
926.245	12989
926.352	12951
926.459	13099
926.566	13099
926.673	12989
926.779	12852
926.886	12875
926.993	12700
927.099	12779
927.206	12601
927.312	12532
927.419	12757
927.525	12688
927.631	12677
927.737	12593
927.843	12433
927.95	12441
928.056	12422
928.162	12517
928.267	12479
928.373	13122
928.479	12570
928.585	12224
928.69	12414
928.796	12479
928.901	12315
929.007	12171
929.112	12414
929.218	12266
929.323	12304
929.428	12155
929.533	12247
929.638	12091
929.743	12209
929.848	12239
929.953	12129
930.058	11999
930.163	11855
930.267	11973
930.372	12007
930.477	11851
930.581	12114
930.685	11878
930.79	11836
930.894	11851
930.998	11809
931.103	11790
931.207	11528
931.311	11444
931.415	11349
931.519	11181
931.623	11075
