Data from test_V78500241_1537.txt Node
Date: Fri Mar 25 15:20:33 CST 2022
User: usil
Spectrometer: V785-0024
Trigger mode: 0
Integration Time (sec): 4.000000E-1
Scans to average: 1
Nonlinearity correction enabled: false
Boxcar width: 0
Storing dark spectrum: false
XAxis mode: Wavelengths
Number of Pixels in Spectrum: 1024
>>>>>Begin Spectral Data<<<<<
801.071	28128
801.214	28158
801.356	27781
801.499	27857
801.641	27705
801.783	27686
801.926	27690
802.068	27625
802.211	27538
802.353	27500
802.496	27332
802.638	27511
802.78	27287
802.923	27233
803.065	27279
803.208	27260
803.35	27287
803.492	27519
803.635	27568
803.777	27317
803.919	27496
804.061	27884
804.204	27553
804.346	27553
804.488	27473
804.63	27534
804.773	27306
804.915	27389
805.057	27629
805.199	27431
805.341	27648
805.483	27625
805.626	27686
805.768	27759
805.91	27568
806.052	27587
806.194	27530
806.336	27804
806.478	27686
806.62	27637
806.762	27728
806.904	27899
807.046	28215
807.188	28093
807.33	28112
807.472	28086
807.614	27987
807.756	28010
807.898	28025
808.04	27934
808.182	27941
808.324	28025
808.465	27922
808.607	28166
808.749	28261
808.891	28432
809.033	28508
809.174	28299
809.316	28211
809.458	28386
809.6	28238
809.741	28440
809.883	28504
810.025	28675
810.166	28660
810.308	28596
810.45	28504
810.591	28421
810.733	28173
810.875	28390
811.016	28124
811.158	28109
811.299	28314
811.441	28443
811.582	28428
811.724	28314
811.865	28280
812.007	28188
812.148	28173
812.29	28485
812.431	28489
812.573	28656
812.714	28702
812.855	28816
812.997	28911
813.138	29166
813.279	29029
813.421	28930
813.562	28828
813.703	28615
813.845	28531
813.986	28192
814.127	28188
814.268	27956
814.41	28029
814.551	27987
814.692	28059
814.833	27964
814.974	27876
815.115	27968
815.256	27941
815.397	27956
815.539	27869
815.68	27823
815.821	27743
815.962	27854
816.103	27774
816.244	27660
816.385	27652
816.526	27458
816.666	27496
816.807	27374
816.948	27420
817.089	27397
817.23	27329
817.371	27268
817.512	27386
817.653	27264
817.793	27192
817.934	27325
818.075	27401
818.216	27306
818.356	27233
818.497	27203
818.638	27017
818.778	27108
818.919	26918
819.06	27116
819.2	27260
819.341	27165
819.481	27291
819.622	27374
819.762	27633
819.903	27572
820.043	27625
820.184	27355
820.324	27515
820.465	27401
820.605	27233
820.746	27454
820.886	27272
821.026	27405
821.167	27359
821.307	27382
821.447	27287
821.588	27313
821.728	27211
821.868	26979
822.008	26834
822.149	26887
822.289	26735
822.429	26533
822.569	26446
822.709	26590
822.849	26339
822.99	26267
823.13	26317
823.27	26256
823.41	25970
823.55	25921
823.69	26210
823.83	26172
823.97	26122
824.11	25986
824.25	25966
824.389	25879
824.529	26039
824.669	25837
824.809	26062
824.949	25959
825.089	26005
825.228	26062
825.368	25788
825.508	25746
825.648	25860
825.787	25856
825.927	25788
826.067	25753
826.206	25890
826.346	25841
826.485	25879
826.625	25776
826.765	25921
826.904	25811
827.044	25514
827.183	25628
827.323	25544
827.462	25655
827.601	25533
827.741	25495
827.88	25495
828.02	25381
828.159	25552
828.298	25502
828.437	25651
828.577	25354
828.716	25628
828.855	25388
828.994	25270
829.134	25000
829.273	25209
829.412	25198
829.551	25206
829.69	25255
829.829	25274
829.968	25225
830.107	25168
830.246	25228
830.385	25103
830.524	25038
830.663	24989
830.802	24939
830.941	24890
831.08	24802
831.219	24810
831.357	24932
831.496	25008
831.635	24859
831.774	24764
831.913	24612
832.051	24696
832.19	24563
832.329	24540
832.467	24574
832.606	24471
832.744	24532
832.883	24505
833.022	24327
833.16	24551
833.299	24547
833.437	24650
833.576	24585
833.714	24593
833.852	24601
833.991	24525
834.129	24669
834.267	24464
834.406	24612
834.544	24483
834.682	24608
834.821	24479
834.959	24658
835.097	24445
835.235	24513
835.373	24429
835.511	24445
835.65	24357
835.788	24467
835.926	24266
836.064	24228
836.202	24243
836.34	24296
836.478	24311
836.615	24365
836.753	24380
836.891	24528
837.029	24471
837.167	24380
837.305	24171
837.443	24216
837.58	24216
837.718	24403
837.856	24289
837.993	24110
838.131	24167
838.269	24087
838.406	24213
838.544	24110
838.681	23840
838.819	23885
838.956	23691
839.094	23657
839.231	23680
839.369	23969
839.506	23992
839.643	23920
839.781	23748
839.918	23619
840.055	23554
840.193	23703
840.33	23585
840.467	23619
840.604	23638
840.742	23889
840.879	23436
841.016	23611
841.153	23444
841.29	23703
841.427	23474
841.564	23570
841.701	23577
841.838	23653
841.975	23535
842.112	23459
842.249	23455
842.385	23231
842.522	23474
842.659	23452
842.796	23269
842.933	23277
843.069	23318
843.206	23246
843.343	23296
843.479	23406
843.616	23341
843.752	23189
843.889	23159
844.025	23220
844.162	23102
844.298	23288
844.435	23155
844.571	23094
844.708	23014
844.844	23292
844.98	23174
845.117	23246
845.253	23075
845.389	22911
845.525	22953
845.661	22968
845.798	22786
845.934	22862
846.07	22843
846.206	22949
846.342	22930
846.478	22668
846.614	22580
846.75	22557
846.886	22584
847.022	22588
847.158	22546
847.294	22466
847.429	22523
847.565	22523
847.701	22687
847.837	22333
847.972	22337
848.108	22265
848.244	22352
848.379	22238
848.515	22185
848.65	22234
848.786	22082
848.921	22166
849.057	22169
849.192	22272
849.328	22215
849.463	22158
849.598	22090
849.734	22154
849.869	22032
850.004	21831
850.14	21964
850.275	21968
850.41	21701
850.545	21850
850.68	21892
850.815	21998
850.95	21911
851.085	21987
851.22	22040
851.355	21895
851.49	21960
851.625	21937
851.76	21945
851.895	21781
852.03	21755
852.165	21945
852.299	21941
852.434	21937
852.569	21934
852.703	21903
852.838	22067
852.973	21994
853.107	22021
853.242	21682
853.376	21755
853.511	21675
853.645	21728
853.78	21911
853.914	21823
854.048	21751
854.183	21789
854.317	21736
854.451	21937
854.585	21625
854.72	21743
854.854	21701
854.988	21667
855.122	21785
855.256	21652
855.39	21682
855.524	21808
855.658	21709
855.792	21686
855.926	21800
856.06	21759
856.194	21857
856.327	21743
856.461	21629
856.595	21732
856.729	21675
856.862	21892
856.996	21793
857.13	21854
857.263	21842
857.397	21827
857.53	21713
857.664	21838
857.797	21690
857.931	21698
858.064	21778
858.197	21797
858.331	21747
858.464	21644
858.597	21652
858.731	21625
858.864	21736
858.997	21675
859.13	21751
859.263	21781
859.396	21766
859.529	21728
859.662	21667
859.795	21682
859.928	21819
860.061	21846
860.194	21937
860.327	21838
860.46	21800
860.592	21819
860.725	21892
860.858	21873
860.99	21701
861.123	21720
861.256	21618
861.388	21736
861.521	22565
861.653	21580
861.786	21473
861.918	21473
862.05	21629
862.183	21568
862.315	21618
862.447	21671
862.58	21644
862.712	21466
862.844	21428
862.976	21424
863.108	21450
863.24	21838
863.372	21458
863.504	21359
863.636	21538
863.768	21504
863.9	21351
864.032	21378
864.164	21412
864.296	21561
864.428	21534
864.559	21488
864.691	21447
864.823	21359
864.954	21469
865.086	21439
865.217	21245
865.349	21089
865.48	21367
865.612	21374
865.743	21439
865.875	21348
866.006	21211
866.137	21230
866.269	21252
866.4	21370
866.531	21291
866.662	21241
866.793	21317
866.924	21222
867.055	21161
867.186	21291
867.317	21287
867.448	21268
867.579	21135
867.71	21100
867.841	21218
867.972	21249
868.103	21279
868.233	21218
868.364	21233
868.495	21302
868.625	21435
868.756	21667
868.886	21367
869.017	21515
869.147	21641
869.278	21629
869.408	21526
869.539	21450
869.669	21603
869.799	21473
869.929	21622
870.06	21610
870.19	21793
870.32	21751
870.45	21823
870.58	21895
870.71	22013
870.84	21968
870.97	21854
871.1	21846
871.23	22055
871.36	22036
871.489	21979
871.619	22067
871.749	22135
871.879	22143
872.008	22097
872.138	22090
872.267	22086
872.397	22055
872.526	21876
872.656	21983
872.785	21915
872.915	22029
873.044	22181
873.173	22112
873.303	22226
873.432	22268
873.561	22246
873.69	21998
873.819	22128
873.948	22154
874.077	22093
874.206	21983
874.335	22158
874.464	22128
874.593	22242
874.722	22139
874.851	22402
874.979	22405
875.108	22329
875.237	22265
875.365	22181
875.494	22371
875.623	22367
875.751	22226
875.88	22348
876.008	22481
876.136	22569
876.265	22656
876.393	22816
876.521	22736
876.65	22866
876.778	22561
876.906	22717
877.034	22599
877.162	22771
877.29	22615
877.418	22580
877.546	22694
877.674	22580
877.802	22672
877.93	22656
878.058	22641
878.185	22352
878.313	22538
878.441	22721
878.568	22432
878.696	22493
878.824	22778
878.951	22713
879.079	22771
879.206	23018
879.333	22877
879.461	22778
879.588	22630
879.715	22710
879.842	22896
879.97	22733
880.097	22504
880.224	22523
880.351	22569
880.478	22546
880.605	22489
880.732	22523
880.859	22698
880.986	22459
881.112	22508
881.239	22341
881.366	22204
881.493	22143
881.619	22101
881.746	22086
881.872	22086
881.999	22040
882.125	21991
882.252	22036
882.378	22048
882.505	22120
882.631	21800
882.757	21789
882.883	21899
883.01	21717
883.136	21663
883.262	21595
883.388	21641
883.514	21739
883.64	21880
883.766	21717
883.892	21466
884.018	21511
884.143	21542
884.269	21690
884.395	21485
884.52	21336
884.646	21317
884.772	21401
884.897	21260
885.023	21317
885.148	21469
885.274	21469
885.399	21401
885.524	21378
885.65	21256
885.775	21424
885.9	21348
886.025	21553
886.15	21443
886.275	21302
886.4	21279
886.525	21389
886.65	21386
886.775	21317
886.9	21504
887.025	21576
887.149	21310
887.274	21188
887.399	21104
887.523	21165
887.648	21005
887.773	21066
887.897	21294
888.021	21070
888.146	21062
888.27	21218
888.395	21176
888.519	21146
888.643	21150
888.767	21184
888.891	21024
889.015	21001
889.139	21036
889.263	20948
889.387	21066
889.511	21237
889.635	21081
889.759	20952
889.883	20963
890.006	20963
890.13	20952
890.254	20804
890.377	20906
890.501	20674
890.624	20575
890.748	20693
890.871	20674
890.995	20495
891.118	20446
891.241	20412
891.364	20484
891.488	20514
891.611	20579
891.734	20514
891.857	20533
891.98	20396
892.103	20492
892.226	20598
892.349	20324
892.471	20301
892.594	20404
892.717	20450
892.839	20412
892.962	20199
893.085	20476
893.207	20446
893.33	20199
893.452	20438
893.575	20415
893.697	20332
893.819	20507
893.941	20530
894.064	20503
894.186	20298
894.308	20415
894.43	20465
894.552	20400
894.674	20492
894.796	20191
894.918	20309
895.04	20431
895.161	20499
895.283	20465
895.405	20389
895.526	20385
895.648	20313
895.769	20400
895.891	20389
896.012	20381
896.134	20469
896.255	20320
896.376	20415
896.498	20393
896.619	20298
896.74	20324
896.861	20412
896.982	20674
897.103	20838
897.224	20644
897.345	20568
897.466	20454
897.587	20648
897.708	20648
897.828	20609
897.949	20606
898.07	20492
898.19	20484
898.311	20644
898.431	20503
898.552	20640
898.672	20594
898.792	20663
898.913	20507
899.033	20533
899.153	20438
899.273	20221
899.393	20229
899.513	20393
899.633	20374
899.753	20423
899.873	20328
899.993	20450
900.113	20256
900.232	20358
900.352	20328
900.472	20172
900.591	20126
900.711	20172
900.83	19993
900.95	20210
901.069	20210
901.189	19940
901.308	19871
901.427	19734
901.546	19704
901.665	19776
901.784	19632
901.904	19575
902.023	19354
902.141	19354
902.26	19251
902.379	19324
902.498	19042
902.617	19148
902.735	19293
902.854	19148
902.973	18985
903.091	18951
903.21	18852
903.328	18791
903.446	18814
903.565	18658
903.683	18646
903.801	18639
903.919	18616
904.038	18593
904.156	18494
904.274	18467
904.392	18429
904.51	18471
904.627	18388
904.745	18414
904.863	18437
904.981	18311
905.098	18144
905.216	18159
905.334	18102
905.451	18171
905.569	18087
905.686	18152
905.803	18136
905.921	17870
906.038	17870
906.155	17817
906.272	17821
906.389	17821
906.506	17600
906.623	17756
906.74	17611
906.857	17642
906.974	17596
907.091	17718
907.208	17760
907.324	17600
907.441	17505
907.557	17349
907.674	17398
907.79	17341
907.907	17318
908.023	17330
908.139	17395
908.256	17326
908.372	17307
908.488	17269
908.604	17060
908.72	17033
908.836	17041
908.952	17041
909.068	17113
909.184	17109
909.3	17105
909.415	17071
909.531	17079
909.647	16896
909.762	16694
909.878	16763
909.993	16767
910.108	16744
910.224	16744
910.339	16759
910.454	16668
910.57	16500
910.685	16432
910.8	16721
910.915	16725
911.03	16519
911.145	16405
911.259	16417
911.374	16402
911.489	16276
911.604	16200
911.718	16067
911.833	16147
911.947	15941
912.062	15945
912.176	16010
912.291	16051
912.405	16093
912.519	16276
912.633	16246
912.748	16044
912.862	16044
912.976	15975
913.09	15819
913.204	15846
913.318	16029
913.431	16093
913.545	15903
913.659	16006
913.772	15987
913.886	15770
914	15549
914.113	15785
914.226	15842
914.34	15747
914.453	15561
914.566	15743
914.68	15637
914.793	15504
914.906	15405
915.019	15397
915.132	15291
915.245	15416
915.358	15378
915.47	15272
915.583	15211
915.696	15291
915.809	15378
915.921	15416
916.034	15310
916.146	15233
916.259	15154
916.371	15203
916.483	15256
916.595	15214
916.708	15142
916.82	15150
916.932	15081
917.044	15077
917.156	15062
917.268	14910
917.38	15043
917.491	14952
917.603	14956
917.715	14963
917.826	14963
917.938	14960
918.049	14800
918.161	14895
918.272	14979
918.384	15077
918.495	14807
918.606	14842
918.717	14743
918.828	14765
918.939	14807
919.05	14617
919.161	14674
919.272	14526
919.383	14621
919.494	14716
919.604	14914
919.715	14693
919.826	14587
919.936	14583
920.047	14781
920.157	14655
920.267	14838
920.378	14693
920.488	14644
920.598	14838
920.708	14902
920.818	14979
920.928	14773
921.038	14956
921.148	14880
921.258	14644
921.368	14545
921.477	14362
921.587	14396
921.697	14286
921.806	14282
921.916	14225
922.025	14096
922.134	14115
922.244	14008
922.353	14077
922.462	13909
922.571	13837
922.68	13719
922.789	13727
922.898	13685
923.007	13613
923.116	13674
923.224	13704
923.333	13628
923.442	13582
923.55	13453
923.659	13605
923.767	13594
923.876	13449
923.984	13449
924.092	13434
924.201	13373
924.309	13514
924.417	13369
924.525	13278
924.633	13335
924.741	14046
924.849	13141
924.956	13240
925.064	13141
925.172	13126
925.279	13065
925.387	13141
925.494	13099
925.602	13171
925.709	13137
925.816	12989
925.924	13065
926.031	13114
926.138	12935
926.245	13118
926.352	12962
926.459	13034
926.566	13061
926.673	12848
926.779	12871
926.886	12848
926.993	12795
927.099	12654
927.206	12684
927.312	12608
927.419	12692
927.525	12696
927.631	12719
927.737	12464
927.843	12566
927.95	12365
928.056	12532
928.162	12460
928.267	12555
928.373	13122
928.479	12502
928.585	12433
928.69	12460
928.796	12528
928.901	12308
929.007	12190
929.112	12426
929.218	12384
929.323	12258
929.428	12175
929.533	12334
929.638	12125
929.743	12228
929.848	12205
929.953	12228
930.058	12022
930.163	11916
930.267	11935
930.372	12022
930.477	11832
930.581	12022
930.685	11965
930.79	11752
930.894	11695
930.998	11695
931.103	11897
931.207	11554
931.311	11444
931.415	11345
931.519	11170
931.623	11048
