Data from test_V78500241_1457.txt Node
Date: Fri Mar 25 15:20:00 CST 2022
User: usil
Spectrometer: V785-0024
Trigger mode: 0
Integration Time (sec): 4.000000E-1
Scans to average: 1
Nonlinearity correction enabled: false
Boxcar width: 0
Storing dark spectrum: false
XAxis mode: Wavelengths
Number of Pixels in Spectrum: 1024
>>>>>Begin Spectral Data<<<<<
801.071	27637
801.214	27424
801.356	27203
801.499	27096
801.641	27089
801.783	27096
801.926	27165
802.068	27104
802.211	27089
802.353	26994
802.496	26686
802.638	26746
802.78	26838
802.923	26571
803.065	26659
803.208	26708
803.35	26758
803.492	26743
803.635	26838
803.777	26819
803.919	27058
804.061	27150
804.204	26872
804.346	26986
804.488	26773
804.63	26861
804.773	26765
804.915	27039
805.057	27024
805.199	26834
805.341	27047
805.483	27150
805.626	26944
805.768	26940
805.91	26952
806.052	26982
806.194	26925
806.336	27199
806.478	27077
806.62	27119
806.762	27116
806.904	27279
807.046	27458
807.188	27450
807.33	27378
807.472	27469
807.614	27313
807.756	27435
807.898	27370
808.04	27298
808.182	27226
808.324	27222
808.465	27389
808.607	27534
808.749	27633
808.891	27827
809.033	27835
809.174	27743
809.316	27648
809.458	27774
809.6	27595
809.741	27819
809.883	27876
810.025	28055
810.166	27972
810.308	27914
810.45	28032
810.591	27762
810.733	27633
810.875	27587
811.016	27466
811.158	27435
811.299	27778
811.441	27842
811.582	27854
811.724	27614
811.865	27679
812.007	27614
812.148	27709
812.29	27713
812.431	27850
812.573	28063
812.714	27911
812.855	28181
812.997	28246
813.138	28344
813.279	28318
813.421	28253
813.562	28204
813.703	28063
813.845	27762
813.986	27618
814.127	27462
814.268	27538
814.41	27348
814.551	27321
814.692	27443
814.833	27287
814.974	27283
815.115	27427
815.256	27233
815.397	27245
815.539	27226
815.68	27062
815.821	27142
815.962	27207
816.103	27104
816.244	27017
816.385	27028
816.526	26925
816.666	26739
816.807	26598
816.948	26648
817.089	26804
817.23	26659
817.371	26408
817.512	26632
817.653	26731
817.793	26686
817.934	26636
818.075	26587
818.216	26564
818.356	26480
818.497	26408
818.638	26336
818.778	26366
818.919	26480
819.06	26457
819.2	26549
819.341	26735
819.481	26541
819.622	26785
819.762	26990
819.903	26830
820.043	26743
820.184	26765
820.324	26705
820.465	26845
820.605	26670
820.746	26754
820.886	26629
821.026	26750
821.167	26625
821.307	26716
821.447	26480
821.588	26503
821.728	26457
821.868	26130
822.008	26157
822.149	26225
822.289	26054
822.429	25860
822.569	25734
822.709	25708
822.849	25605
822.99	25563
823.13	25468
823.27	25479
823.41	25415
823.55	25259
823.69	25540
823.83	25289
823.97	25438
824.11	25133
824.25	25179
824.389	25194
824.529	25225
824.669	25202
824.809	25289
824.949	25453
825.089	25255
825.228	25308
825.368	25061
825.508	25080
825.648	24928
825.787	25118
825.927	25206
826.067	25031
826.206	24947
826.346	25160
826.485	25160
826.625	25114
826.765	25152
826.904	25042
827.044	24837
827.183	24913
827.323	24661
827.462	24913
827.601	24726
827.741	24844
827.88	24787
828.02	24608
828.159	24768
828.298	24707
828.437	24783
828.577	24772
828.716	24798
828.855	24688
828.994	24467
829.134	24429
829.273	24623
829.412	24361
829.551	24563
829.69	24563
829.829	24505
829.968	24502
830.107	24418
830.246	24464
830.385	24350
830.524	24475
830.663	24342
830.802	24167
830.941	24022
831.08	24011
831.219	24144
831.357	24159
831.496	24266
831.635	24064
831.774	24003
831.913	23965
832.051	23958
832.19	23832
832.329	23828
832.467	23798
832.606	23695
832.744	23802
832.883	23821
833.022	23657
833.16	23752
833.299	23809
833.437	23817
833.576	23718
833.714	23832
833.852	23885
833.991	24022
834.129	23855
834.267	23893
834.406	23710
834.544	23817
834.682	23893
834.821	23752
834.959	23942
835.097	23653
835.235	23809
835.373	23904
835.511	23661
835.65	23775
835.788	23729
835.926	23592
836.064	23440
836.202	23455
836.34	23695
836.478	23722
836.615	23551
836.753	23672
836.891	23832
837.029	23722
837.167	23547
837.305	23611
837.443	23634
837.58	23551
837.718	23547
837.856	23482
837.993	23425
838.131	23592
838.269	23326
838.406	23436
838.544	23208
838.681	23159
838.819	23098
838.956	22999
839.094	22957
839.231	23128
839.369	23181
839.506	23444
839.643	23204
839.781	22999
839.918	22972
840.055	22949
840.193	22942
840.33	22972
840.467	22885
840.604	23025
840.742	23044
840.879	22771
841.016	22713
841.153	22691
841.29	22957
841.427	22927
841.564	22862
841.701	22961
841.838	22908
841.975	22702
842.112	22801
842.249	22634
842.385	22679
842.522	22843
842.659	22744
842.796	22596
842.933	22645
843.069	22546
843.206	22546
843.343	22694
843.479	22592
843.616	22603
843.752	22409
843.889	22443
844.025	22649
844.162	22432
844.298	22577
844.435	22421
844.571	22344
844.708	22485
844.844	22630
844.98	22577
845.117	22493
845.253	22303
845.389	22303
845.525	22367
845.661	22207
845.798	22135
845.934	22291
846.07	22143
846.206	22185
846.342	22154
846.478	22051
846.614	21941
846.75	21880
846.886	21861
847.022	21991
847.158	21991
847.294	21884
847.429	21922
847.565	21857
847.701	22177
847.837	21526
847.972	21557
848.108	21671
848.244	21557
848.379	21466
848.515	21568
848.65	21447
848.786	21477
848.921	21500
849.057	21660
849.192	21534
849.328	21526
849.463	21477
849.598	21424
849.734	21382
849.869	21252
850.004	21233
850.14	21287
850.275	21233
850.41	21184
850.545	21157
850.68	21283
850.815	21336
850.95	21180
851.085	21393
851.22	21332
851.355	21268
851.49	21264
851.625	21249
851.76	21184
851.895	21138
852.03	21188
852.165	21233
852.299	21222
852.434	21363
852.569	21222
852.703	21260
852.838	21272
852.973	21252
853.107	21401
853.242	21135
853.376	21138
853.511	20861
853.645	21070
853.78	21207
853.914	21039
854.048	20918
854.183	20975
854.317	21119
854.451	21241
854.585	21024
854.72	21131
854.854	21154
854.988	21001
855.122	21138
855.256	20845
855.39	21070
855.524	21169
855.658	21032
855.792	20948
855.926	21146
856.06	21043
856.194	21241
856.327	21032
856.461	21032
856.595	20956
856.729	21062
856.862	21127
856.996	21104
857.13	21062
857.263	21127
857.397	21165
857.53	21089
857.664	21089
857.797	21108
857.931	21039
858.064	21070
858.197	21119
858.331	20982
858.464	21154
858.597	20914
858.731	20971
858.864	21085
858.997	20914
859.13	20963
859.263	21119
859.396	21218
859.529	20998
859.662	21001
859.795	20998
859.928	20960
860.061	21173
860.194	21279
860.327	21165
860.46	21009
860.592	21180
860.725	21184
860.858	21169
860.99	21009
861.123	20880
861.256	21032
861.388	21024
861.521	21542
861.653	20872
861.786	20868
861.918	21001
862.05	20914
862.183	21077
862.315	20948
862.447	20975
862.58	20914
862.712	20826
862.844	20727
862.976	20792
863.108	20765
863.24	21211
863.372	20682
863.504	20762
863.636	20906
863.768	20849
863.9	20819
864.032	20670
864.164	20651
864.296	20872
864.428	20800
864.559	20845
864.691	20754
864.823	20750
864.954	20834
865.086	20857
865.217	20644
865.349	20609
865.48	20716
865.612	20594
865.743	20800
865.875	20724
866.006	20617
866.137	20549
866.269	20670
866.4	20545
866.531	20640
866.662	20609
866.793	20617
866.924	20552
867.055	20648
867.186	20651
867.317	20579
867.448	20454
867.579	20609
867.71	20503
867.841	20571
867.972	20587
868.103	20556
868.233	20636
868.364	20526
868.495	20621
868.625	20815
868.756	20963
868.886	20724
869.017	20895
869.147	20952
869.278	20971
869.408	20868
869.539	20788
869.669	20830
869.799	20918
869.929	20960
870.06	20883
870.19	21116
870.32	21150
870.45	21104
870.58	21302
870.71	21310
870.84	21329
870.97	21096
871.1	21332
871.23	21321
871.36	21477
871.489	21355
871.619	21473
871.749	21310
871.879	21485
872.008	21542
872.138	21363
872.267	21336
872.397	21291
872.526	21188
872.656	21230
872.785	21321
872.915	21523
873.044	21435
873.173	21355
873.303	21462
873.432	21473
873.561	21587
873.69	21553
873.819	21389
873.948	21561
874.077	21504
874.206	21321
874.335	21462
874.464	21515
874.593	21785
874.722	21595
874.851	21686
874.979	21812
875.108	21728
875.237	21663
875.365	21538
875.494	21568
875.623	21838
875.751	21625
875.88	21675
876.008	21785
876.136	21873
876.265	22032
876.393	22211
876.521	22120
876.65	22070
876.778	22120
876.906	22013
877.034	22013
877.162	22063
877.29	22040
877.418	21972
877.546	22101
877.674	21922
877.802	21956
877.93	22006
878.058	22040
878.185	21937
878.313	22048
878.441	22063
878.568	21873
878.696	21869
878.824	21998
878.951	22109
879.079	22223
879.206	22367
879.333	22147
879.461	22044
879.588	22124
879.715	22078
879.842	22295
879.97	21979
880.097	21945
880.224	21793
880.351	21873
880.478	21789
880.605	21865
880.732	21873
880.859	22109
880.986	21903
881.112	21831
881.239	21682
881.366	21603
881.493	21477
881.619	21477
881.746	21466
881.872	21492
881.999	21363
882.125	21454
882.252	21443
882.378	21401
882.505	21515
882.631	21291
882.757	21138
882.883	21321
883.01	21230
883.136	21055
883.262	21017
883.388	20861
883.514	21127
883.64	21192
883.766	21051
883.892	20899
884.018	20864
884.143	21089
884.269	21055
884.395	20830
884.52	20815
884.646	20861
884.772	20670
884.897	20697
885.023	20701
885.148	20857
885.274	20902
885.399	20811
885.524	20754
885.65	20872
885.775	20720
885.9	20785
886.025	20937
886.15	20811
886.275	20777
886.4	20754
886.525	20769
886.65	20739
886.775	20743
886.9	20800
887.025	21055
887.149	20815
887.274	20663
887.399	20469
887.523	20598
887.648	20434
887.773	20552
887.897	20689
888.021	20590
888.146	20488
888.27	20575
888.395	20575
888.519	20492
888.643	20602
888.767	20587
888.891	20389
889.015	20320
889.139	20431
889.263	20343
889.387	20431
889.511	20507
889.635	20476
889.759	20336
889.883	20229
890.006	20305
890.13	20476
890.254	20202
890.377	20351
890.501	20077
890.624	20046
890.748	20122
890.871	20008
890.995	19791
891.118	19849
891.241	20039
891.364	19871
891.488	20103
891.611	19879
891.734	20054
891.857	20024
891.98	19932
892.103	19879
892.226	19936
892.349	19890
892.471	19715
892.594	19936
892.717	19795
892.839	19868
892.962	19803
893.085	19986
893.207	19807
893.33	19731
893.452	19704
893.575	19913
893.697	19830
893.819	19951
893.941	19955
894.064	19944
894.186	19822
894.308	19769
894.43	19864
894.552	19925
894.674	19940
894.796	19719
894.918	19830
895.04	19803
895.161	19898
895.283	19868
895.405	19769
895.526	19765
895.648	19814
895.769	19833
895.891	19871
896.012	19913
896.134	19807
896.255	19883
896.376	19811
896.498	19761
896.619	19906
896.74	19864
896.861	19769
896.982	20206
897.103	20271
897.224	20005
897.345	20187
897.466	20046
897.587	20031
897.708	20210
897.828	20024
897.949	19959
898.07	19898
898.19	20077
898.311	20043
898.431	19978
898.552	20012
898.672	20043
898.792	19955
898.913	20024
899.033	19913
899.153	19932
899.273	19837
899.393	19826
899.513	19887
899.633	19693
899.753	19890
899.873	19765
899.993	19860
900.113	19674
900.232	19875
900.352	19719
900.472	19601
900.591	19582
900.711	19651
900.83	19559
900.95	19757
901.069	19723
901.189	19499
901.308	19240
901.427	19202
901.546	19282
901.665	19213
901.784	19209
901.904	19080
902.023	18985
902.141	18783
902.26	18844
902.379	18772
902.498	18703
902.617	18650
902.735	18745
902.854	18654
902.973	18658
903.091	18357
903.21	18323
903.328	18403
903.446	18300
903.565	18182
903.683	18270
903.801	18064
903.919	18098
904.038	18110
904.156	18034
904.274	18030
904.392	17980
904.51	17897
904.627	17901
904.745	17946
904.863	18053
904.981	17718
905.098	17729
905.216	17623
905.334	17619
905.451	17634
905.569	17638
905.686	17653
905.803	17535
905.921	17414
906.038	17558
906.155	17421
906.272	17372
906.389	17455
906.506	17220
906.623	17174
906.74	17086
906.857	17056
906.974	17075
907.091	17208
907.208	17208
907.324	17189
907.441	17083
907.557	16976
907.674	16953
907.79	16835
907.907	16805
908.023	16885
908.139	16790
908.256	16892
908.372	16740
908.488	16736
908.604	16637
908.72	16561
908.836	16637
908.952	16516
909.068	16626
909.184	16653
909.3	16622
909.415	16698
909.531	16641
909.647	16379
909.762	16367
909.878	16329
909.993	16314
910.108	16207
910.224	16303
910.339	16287
910.454	16207
910.57	16185
910.685	15968
910.8	16333
910.915	16162
911.03	16128
911.145	15922
911.259	15884
911.374	15895
911.489	15876
911.604	15766
911.718	15595
911.833	15667
911.947	15542
912.062	15485
912.176	15614
912.291	15618
912.405	15610
912.519	15823
912.633	15831
912.748	15652
912.862	15603
912.976	15412
913.09	15359
913.204	15397
913.318	15488
913.431	15584
913.545	15568
913.659	15591
913.772	15443
913.886	15329
914	15260
914.113	15313
914.226	15435
914.34	15310
914.453	15116
914.566	15279
914.68	15142
914.793	15169
914.906	14960
915.019	14902
915.132	14819
915.245	14811
915.358	14887
915.47	14952
915.583	14914
915.696	14902
915.809	15032
915.921	15043
916.034	14861
916.146	14830
916.259	14678
916.371	14880
916.483	14731
916.595	14705
916.708	14651
916.82	14792
916.932	14682
917.044	14648
917.156	14651
917.268	14533
917.38	14522
917.491	14450
917.603	14507
917.715	14636
917.826	14602
917.938	14514
918.049	14423
918.161	14377
918.272	14594
918.384	14610
918.495	14568
918.606	14317
918.717	14233
918.828	14377
918.939	14301
919.05	14282
919.161	14343
919.272	14119
919.383	14123
919.494	14374
919.604	14503
919.715	14294
919.826	14237
919.936	14187
920.047	14244
920.157	14294
920.267	14522
920.378	14286
920.488	14275
920.598	14480
920.708	14518
920.818	14461
920.928	14427
921.038	14545
921.148	14511
921.258	14199
921.368	14073
921.477	14008
921.587	14062
921.697	13925
921.806	14020
921.916	13822
922.025	13776
922.134	13655
922.244	13658
922.353	13765
922.462	13487
922.571	13453
922.68	13422
922.789	13304
922.898	13301
923.007	13263
923.116	13354
923.224	13232
923.333	13255
923.442	13183
923.55	13156
923.659	13072
923.767	13232
923.876	13168
923.984	13179
924.092	12981
924.201	13152
924.309	13072
924.417	13126
924.525	13038
924.633	12924
924.741	13791
924.849	12856
924.956	12966
925.064	12810
925.172	12681
925.279	12795
925.387	12715
925.494	12795
925.602	12916
925.709	12741
925.816	12631
925.924	12684
926.031	12760
926.138	12623
926.245	12802
926.352	12597
926.459	12795
926.566	12688
926.673	12620
926.779	12422
926.886	12475
926.993	12327
927.099	12376
927.206	12270
927.312	12224
927.419	12365
927.525	12369
927.631	12369
927.737	12140
927.843	12167
927.95	12030
928.056	12098
928.162	12129
928.267	12224
928.373	12711
928.479	12232
928.585	11965
928.69	12072
928.796	12110
928.901	11984
929.007	11813
929.112	12057
929.218	11999
929.323	11927
929.428	11923
929.533	12003
929.638	11703
929.743	11885
929.848	11954
929.953	11828
930.058	11752
930.163	11551
930.267	11611
930.372	11695
930.477	11535
930.581	11726
930.685	11653
930.79	11402
930.894	11474
930.998	11391
931.103	11516
931.207	11261
931.311	11109
931.415	11086
931.519	10820
931.623	10869
