Data from test_V78500241_514.txt Node
Date: Fri Mar 25 15:13:26 CST 2022
User: usil
Spectrometer: V785-0024
Trigger mode: 0
Integration Time (sec): 4.000000E-1
Scans to average: 1
Nonlinearity correction enabled: false
Boxcar width: 0
Storing dark spectrum: false
XAxis mode: Wavelengths
Number of Pixels in Spectrum: 1024
>>>>>Begin Spectral Data<<<<<
801.071	27447
801.214	27435
801.356	27100
801.499	27157
801.641	27081
801.783	27032
801.926	27051
802.068	27047
802.211	26868
802.353	26868
802.496	26678
802.638	26632
802.78	26590
802.923	26579
803.065	26503
803.208	26469
803.35	26587
803.492	26811
803.635	26769
803.777	26746
803.919	26834
804.061	27077
804.204	26743
804.346	26697
804.488	26811
804.63	26861
804.773	26530
804.915	26693
805.057	26921
805.199	26811
805.341	26887
805.483	26918
805.626	26838
805.768	26902
805.91	26868
806.052	26815
806.194	26807
806.336	27142
806.478	26952
806.62	26872
806.762	27081
806.904	27207
807.046	27439
807.188	27340
807.33	27367
807.472	27389
807.614	27176
807.756	27237
807.898	27226
808.04	27211
808.182	27176
808.324	27260
808.465	27062
808.607	27203
808.749	27534
808.891	27686
809.033	27751
809.174	27542
809.316	27583
809.458	27572
809.6	27648
809.741	27724
809.883	27568
810.025	27831
810.166	27686
810.308	27865
810.45	27648
810.591	27793
810.733	27739
810.875	27667
811.016	27306
811.158	27378
811.299	27690
811.441	27637
811.582	27682
811.724	27374
811.865	27485
812.007	27367
812.148	27439
812.29	27416
812.431	27705
812.573	27949
812.714	27922
812.855	27926
812.997	28173
813.138	28246
813.279	28215
813.421	28059
813.562	28006
813.703	27903
813.845	27823
813.986	27473
814.127	27302
814.268	27222
814.41	27157
814.551	27176
814.692	27211
814.833	27039
814.974	27218
815.115	27154
815.256	27123
815.397	27157
815.539	27085
815.68	26960
815.821	26906
815.962	26902
816.103	26902
816.244	26830
816.385	26807
816.526	26716
816.666	26583
816.807	26415
816.948	26594
817.089	26701
817.23	26571
817.371	26461
817.512	26423
817.653	26476
817.793	26400
817.934	26438
818.075	26438
818.216	26400
818.356	26442
818.497	26389
818.638	26221
818.778	26259
818.919	26381
819.06	26225
819.2	26400
819.341	26343
819.481	26503
819.622	26530
819.762	26830
819.903	26731
820.043	26781
820.184	26693
820.324	26701
820.465	26648
820.605	26640
820.746	26590
820.886	26377
821.026	26632
821.167	26545
821.307	26545
821.447	26465
821.588	26309
821.728	26294
821.868	26202
822.008	25856
822.149	25947
822.289	25909
822.429	25696
822.569	25719
822.709	25540
822.849	25521
822.99	25445
823.13	25521
823.27	25407
823.41	25228
823.55	25084
823.69	25324
823.83	25179
823.97	25213
824.11	25031
824.25	25126
824.389	25057
824.529	25164
824.669	25023
824.809	25221
824.949	25190
825.089	25232
825.228	25194
825.368	24901
825.508	24962
825.648	24973
825.787	24943
825.927	24981
826.067	24935
826.206	24886
826.346	24951
826.485	24947
826.625	24882
826.765	25019
826.904	24928
827.044	24631
827.183	24688
827.323	24711
827.462	24772
827.601	24620
827.741	24509
827.88	24642
828.02	24483
828.159	24597
828.298	24612
828.437	24681
828.577	24608
828.716	24760
828.855	24612
828.994	24388
829.134	24346
829.273	24452
829.412	24323
829.551	24327
829.69	24361
829.829	24429
829.968	24456
830.107	24372
830.246	24426
830.385	24330
830.524	24365
830.663	24174
830.802	24136
830.941	24003
831.08	23901
831.219	24049
831.357	24045
831.496	24190
831.635	24091
831.774	23901
831.913	23912
832.051	23684
832.19	23824
832.329	23726
832.467	23710
832.606	23684
832.744	23661
832.883	23687
833.022	23615
833.16	23695
833.299	23764
833.437	23760
833.576	23695
833.714	23638
833.852	23779
833.991	23783
834.129	23878
834.267	23809
834.406	23668
834.544	23767
834.682	23790
834.821	23627
834.959	23821
835.097	23642
835.235	23760
835.373	23642
835.511	23813
835.65	23535
835.788	23672
835.926	23425
836.064	23440
836.202	23345
836.34	23528
836.478	23718
836.615	23554
836.753	23562
836.891	23680
837.029	23539
837.167	23505
837.305	23490
837.443	23383
837.58	23349
837.718	23543
837.856	23436
837.993	23307
838.131	23486
838.269	23284
838.406	23200
838.544	23296
838.681	23018
838.819	22961
838.956	22854
839.094	22919
839.231	22850
839.369	23041
839.506	23258
839.643	23128
839.781	22946
839.918	22763
840.055	22987
840.193	22965
840.33	22824
840.467	22908
840.604	22858
840.742	23117
840.879	22531
841.016	22733
841.153	22687
841.29	22873
841.427	22786
841.564	22892
841.701	22820
841.838	22809
841.975	22481
842.112	22736
842.249	22645
842.385	22535
842.522	22706
842.659	22649
842.796	22538
842.933	22565
843.069	22493
843.206	22538
843.343	22793
843.479	22550
843.616	22683
843.752	22299
843.889	22303
844.025	22603
844.162	22413
844.298	22402
844.435	22440
844.571	22329
844.708	22367
844.844	22421
844.98	22386
845.117	22478
845.253	22428
845.389	22226
845.525	22196
845.661	22284
845.798	22021
845.934	22070
846.07	22093
846.206	22101
846.342	22143
846.478	22002
846.614	21922
846.75	21774
846.886	21800
847.022	21888
847.158	21766
847.294	21705
847.429	21949
847.565	21789
847.701	22082
847.837	21564
847.972	21488
848.108	21679
848.244	21542
848.379	21424
848.515	21485
848.65	21344
848.786	21454
848.921	21428
849.057	21591
849.192	21526
849.328	21294
849.463	21462
849.598	21393
849.734	21374
849.869	21401
850.004	21268
850.14	21085
850.275	21230
850.41	21176
850.545	21108
850.68	21154
850.815	21157
850.95	21100
851.085	21382
851.22	21355
851.355	21032
851.49	21039
851.625	21077
851.76	21112
851.895	21108
852.03	21116
852.165	21211
852.299	21131
852.434	21233
852.569	21123
852.703	21184
852.838	21211
852.973	21313
853.107	21291
853.242	21146
853.376	21055
853.511	20921
853.645	20929
853.78	21154
853.914	21017
854.048	21055
854.183	21020
854.317	21100
854.451	21252
854.585	21043
854.72	21043
854.854	21036
854.988	20880
855.122	21020
855.256	20849
855.39	20929
855.524	20979
855.658	20956
855.792	21020
855.926	21032
856.06	21005
856.194	21058
856.327	21017
856.461	20883
856.595	21005
856.729	21055
856.862	21142
856.996	21051
857.13	20967
857.263	21100
857.397	21161
857.53	21055
857.664	21039
857.797	21013
857.931	21020
858.064	21150
858.197	21093
858.331	21028
858.464	20910
858.597	20880
858.731	21005
858.864	20960
858.997	20948
859.13	21055
859.263	21032
859.396	20979
859.529	20941
859.662	20899
859.795	20948
859.928	21017
860.061	21013
860.194	21298
860.327	20986
860.46	20975
860.592	21108
860.725	21116
860.858	21062
860.99	20971
861.123	20921
861.256	21119
861.388	21043
861.521	21739
861.653	20902
861.786	20853
861.918	20868
862.05	20963
862.183	20929
862.315	21032
862.447	20963
862.58	20880
862.712	20682
862.844	20693
862.976	20731
863.108	20735
863.24	20986
863.372	20667
863.504	20750
863.636	20724
863.768	20815
863.9	20655
864.032	20655
864.164	20731
864.296	20716
864.428	20876
864.559	20727
864.691	20815
864.823	20807
864.954	20686
865.086	20663
865.217	20648
865.349	20568
865.48	20708
865.612	20636
865.743	20697
865.875	20587
866.006	20564
866.137	20648
866.269	20533
866.4	20629
866.531	20526
866.662	20492
866.793	20480
866.924	20621
867.055	20583
867.186	20541
867.317	20552
867.448	20408
867.579	20480
867.71	20415
867.841	20530
867.972	20560
868.103	20434
868.233	20598
868.364	20533
868.495	20583
868.625	20754
868.756	20842
868.886	20655
869.017	20823
869.147	20895
869.278	20967
869.408	20777
869.539	20705
869.669	20887
869.799	20868
869.929	20921
870.06	20914
870.19	20998
870.32	21138
870.45	21043
870.58	21154
870.71	21199
870.84	21291
870.97	21184
871.1	21135
871.23	21351
871.36	21321
871.489	21233
871.619	21458
871.749	21199
871.879	21374
872.008	21515
872.138	21405
872.267	21393
872.397	21260
872.526	21294
872.656	21321
872.785	21237
872.915	21401
873.044	21439
873.173	21355
873.303	21496
873.432	21538
873.561	21481
873.69	21420
873.819	21553
873.948	21583
874.077	21450
874.206	21344
874.335	21462
874.464	21492
874.593	21633
874.722	21736
874.851	21625
874.979	21542
875.108	21622
875.237	21633
875.365	21492
875.494	21644
875.623	21667
875.751	21663
875.88	21732
876.008	21797
876.136	21827
876.265	22086
876.393	22082
876.521	22105
876.65	22234
876.778	22112
876.906	21915
877.034	21964
877.162	21994
877.29	21911
877.418	22154
877.546	22029
877.674	21934
877.802	22021
877.93	21968
878.058	22025
878.185	21876
878.313	22002
878.441	21876
878.568	21739
878.696	21930
878.824	22086
878.951	22086
879.079	22097
879.206	22162
879.333	22078
879.461	22090
879.588	22059
879.715	22101
879.842	22158
879.97	22135
880.097	21812
880.224	21816
880.351	21861
880.478	21781
880.605	21789
880.732	21808
880.859	21911
880.986	21816
881.112	21857
881.239	21701
881.366	21591
881.493	21431
881.619	21325
881.746	21405
881.872	21492
881.999	21325
882.125	21389
882.252	21397
882.378	21351
882.505	21416
882.631	21340
882.757	21146
882.883	21283
883.01	21222
883.136	21058
883.262	21001
883.388	21005
883.514	21165
883.64	21195
883.766	21127
883.892	20883
884.018	20975
884.143	21142
884.269	21154
884.395	20868
884.52	20629
884.646	20750
884.772	20648
884.897	20705
885.023	20720
885.148	20796
885.274	20937
885.399	20815
885.524	20746
885.65	20739
885.775	20731
885.9	20796
886.025	20845
886.15	20800
886.275	20712
886.4	20727
886.525	20781
886.65	20720
886.775	20564
886.9	20887
887.025	20994
887.149	20697
887.274	20640
887.399	20522
887.523	20511
887.648	20454
887.773	20438
887.897	20594
888.021	20507
888.146	20503
888.27	20598
888.395	20640
888.519	20476
888.643	20533
888.767	20476
888.891	20469
889.015	20355
889.139	20313
889.263	20294
889.387	20499
889.511	20522
889.635	20370
889.759	20240
889.883	20404
890.006	20298
890.13	20469
890.254	20142
890.377	20191
890.501	20210
890.624	20031
890.748	20199
890.871	19955
890.995	19913
891.118	19791
891.241	19932
891.364	19849
891.488	20062
891.611	19989
891.734	20031
891.857	19894
891.98	19963
892.103	19928
892.226	19986
892.349	19822
892.471	19685
892.594	19879
892.717	19940
892.839	19772
892.962	19887
893.085	19803
893.207	19742
893.33	19677
893.452	19670
893.575	19799
893.697	19780
893.819	19902
893.941	20012
894.064	19974
894.186	19738
894.308	19715
894.43	19906
894.552	19970
894.674	19868
894.796	19712
894.918	19632
895.04	19715
895.161	19845
895.283	19826
895.405	19715
895.526	19776
895.648	19799
895.769	19898
895.891	19795
896.012	19974
896.134	19875
896.255	19845
896.376	19738
896.498	19746
896.619	19818
896.74	19837
896.861	19856
896.982	20096
897.103	20233
897.224	20130
897.345	19947
897.466	19906
897.587	20008
897.708	20126
897.828	20111
897.949	19928
898.07	19883
898.19	19932
898.311	20084
898.431	19940
898.552	19989
898.672	20069
898.792	20088
898.913	20081
899.033	19788
899.153	19753
899.273	19693
899.393	19685
899.513	19925
899.633	19635
899.753	19780
899.873	19738
899.993	19734
900.113	19784
900.232	19780
900.352	19632
900.472	19643
900.591	19609
900.711	19609
900.83	19518
900.95	19734
901.069	19552
901.189	19453
901.308	19244
901.427	19129
901.546	19175
901.665	19247
901.784	19122
901.904	18920
902.023	18878
902.141	18798
902.26	18825
902.379	18848
902.498	18757
902.617	18715
902.735	18738
902.854	18673
902.973	18623
903.091	18319
903.21	18232
903.328	18452
903.446	18152
903.565	18167
903.683	18129
903.801	18072
903.919	18148
904.038	18057
904.156	17977
904.274	18003
904.392	17843
904.51	17916
904.627	17942
904.745	17904
904.863	17980
904.981	17668
905.098	17707
905.216	17539
905.334	17703
905.451	17634
905.569	17558
905.686	17630
905.803	17592
905.921	17383
906.038	17551
906.155	17524
906.272	17330
906.389	17288
906.506	17170
906.623	17204
906.74	17121
906.857	17124
906.974	17045
907.091	17231
907.208	17231
907.324	17094
907.441	16976
907.557	16885
907.674	16786
907.79	16755
907.907	16812
908.023	16873
908.139	16923
908.256	16873
908.372	16782
908.488	16717
908.604	16672
908.72	16592
908.836	16573
908.952	16516
909.068	16725
909.184	16603
909.3	16641
909.415	16702
909.531	16569
909.647	16386
909.762	16337
909.878	16196
909.993	16242
910.108	16276
910.224	16360
910.339	16261
910.454	16204
910.57	16154
910.685	16051
910.8	16382
910.915	16147
911.03	16090
911.145	15994
911.259	15846
911.374	15812
911.489	15857
911.604	15850
911.718	15637
911.833	15633
911.947	15549
912.062	15458
912.176	15599
912.291	15538
912.405	15549
912.519	15759
912.633	15857
912.748	15728
912.862	15564
912.976	15481
913.09	15344
913.204	15401
913.318	15405
913.431	15496
913.545	15424
913.659	15606
913.772	15370
913.886	15272
914	15298
914.113	15268
914.226	15310
914.34	15287
914.453	15230
914.566	15195
914.68	15176
914.793	15150
914.906	14990
915.019	14895
915.132	14838
915.245	14826
915.358	14937
915.47	14864
915.583	14967
915.696	14937
915.809	14971
915.921	14986
916.034	14785
916.146	14819
916.259	14739
916.371	14792
916.483	14819
916.595	14632
916.708	14720
916.82	14644
916.932	14651
917.044	14625
917.156	14564
917.268	14511
917.38	14693
917.491	14522
917.603	14526
917.715	14549
917.826	14598
917.938	14400
918.049	14355
918.161	14469
918.272	14598
918.384	14568
918.495	14537
918.606	14248
918.717	14237
918.828	14313
918.939	14324
919.05	14229
919.161	14313
919.272	14062
919.383	14161
919.494	14317
919.604	14480
919.715	14370
919.826	14252
919.936	14218
920.047	14355
920.157	14370
920.267	14396
920.378	14248
920.488	14309
920.598	14423
920.708	14495
920.818	14450
920.928	14320
921.038	14408
921.148	14476
921.258	14168
921.368	14119
921.477	14024
921.587	13993
921.697	13890
921.806	13967
921.916	13936
922.025	13727
922.134	13613
922.244	13620
922.353	13582
922.462	13529
922.571	13480
922.68	13362
922.789	13327
922.898	13365
923.007	13251
923.116	13194
923.224	13263
923.333	13190
923.442	13126
923.55	13080
923.659	13141
923.767	13156
923.876	13118
923.984	13133
924.092	13042
924.201	13133
924.309	13110
924.417	13046
924.525	12886
924.633	13012
924.741	13712
924.849	12741
924.956	12943
925.064	12798
925.172	12642
925.279	12700
925.387	12772
925.494	12734
925.602	12833
925.709	12856
925.816	12669
925.924	12677
926.031	12779
926.138	12616
926.245	12692
926.352	12639
926.459	12688
926.566	12722
926.673	12547
926.779	12479
926.886	12384
926.993	12350
927.099	12304
927.206	12178
927.312	12152
927.419	12346
927.525	12327
927.631	12365
927.737	12220
927.843	12072
927.95	11920
928.056	12186
928.162	12129
928.267	12110
928.373	12768
928.479	12277
928.585	11916
928.69	12083
928.796	12114
928.901	12041
929.007	11786
929.112	11954
929.218	11901
929.323	11809
929.428	11882
929.533	11996
929.638	11813
929.743	11824
929.848	11855
929.953	11710
930.058	11783
930.163	11532
930.267	11672
930.372	11760
930.477	11524
930.581	11665
930.685	11539
930.79	11425
930.894	11452
930.998	11360
931.103	11562
931.207	11193
931.311	11067
931.415	11102
931.519	10854
931.623	10843
