Data from test_V78500241_2362.txt Node
Date: Fri Mar 25 15:26:18 CST 2022
User: usil
Spectrometer: V785-0024
Trigger mode: 0
Integration Time (sec): 4.000000E-1
Scans to average: 1
Nonlinearity correction enabled: false
Boxcar width: 0
Storing dark spectrum: false
XAxis mode: Wavelengths
Number of Pixels in Spectrum: 1024
>>>>>Begin Spectral Data<<<<<
801.071	27233
801.214	27146
801.356	26975
801.499	26940
801.641	26891
801.783	26861
801.926	26914
802.068	26883
802.211	26697
802.353	26743
802.496	26507
802.638	26415
802.78	26568
802.923	26419
803.065	26366
803.208	26385
803.35	26423
803.492	26545
803.635	26609
803.777	26541
803.919	26571
804.061	26967
804.204	26492
804.346	26708
804.488	26625
804.63	26697
804.773	26522
804.915	26602
805.057	26583
805.199	26556
805.341	26804
805.483	26815
805.626	26777
805.768	26625
805.91	26716
806.052	26712
806.194	26663
806.336	26925
806.478	26754
806.62	26686
806.762	26937
806.904	26899
807.046	27146
807.188	27077
807.33	27077
807.472	27344
807.614	27070
807.756	27055
807.898	27154
808.04	26975
808.182	26906
808.324	27024
808.465	27043
808.607	27382
808.749	27378
808.891	27473
809.033	27488
809.174	27576
809.316	27424
809.458	27302
809.6	27332
809.741	27363
809.883	27439
810.025	27485
810.166	27606
810.308	27743
810.45	27580
810.591	27526
810.733	27443
810.875	27401
811.016	27291
811.158	27325
811.299	27306
811.441	27367
811.582	27549
811.724	27294
811.865	27176
812.007	27344
812.148	27264
812.29	27431
812.431	27431
812.573	27629
812.714	27766
812.855	27800
812.997	27914
813.138	28086
813.279	28029
813.421	27869
813.562	27770
813.703	27610
813.845	27667
813.986	27321
814.127	27146
814.268	27051
814.41	27085
814.551	26921
814.692	27142
814.833	27066
814.974	26940
815.115	27062
815.256	26944
815.397	26838
815.539	26887
815.68	26773
815.821	26598
815.962	26792
816.103	26849
816.244	26632
816.385	26598
816.526	26606
816.666	26461
816.807	26320
816.948	26442
817.089	26404
817.23	26275
817.371	26210
817.512	26298
817.653	26393
817.793	26282
817.934	26183
818.075	26347
818.216	26317
818.356	26259
818.497	26313
818.638	26069
818.778	26012
818.919	26115
819.06	26126
819.2	26130
819.341	26259
819.481	26153
819.622	26431
819.762	26579
819.903	26587
820.043	26488
820.184	26328
820.324	26374
820.465	26408
820.605	26267
820.746	26328
820.886	26355
821.026	26183
821.167	26267
821.307	26587
821.447	26176
821.588	26301
821.728	26073
821.868	25875
822.008	25814
822.149	25734
822.289	25685
822.429	25460
822.569	25369
822.709	25392
822.849	25343
822.99	25335
823.13	25179
823.27	25126
823.41	25110
823.55	24878
823.69	25129
823.83	25034
823.97	24916
824.11	24825
824.25	24840
824.389	24798
824.529	24863
824.669	24928
824.809	25076
824.949	25065
825.089	24901
825.228	24962
825.368	24741
825.508	24700
825.648	24825
825.787	24726
825.927	24764
826.067	24700
826.206	24753
826.346	24760
826.485	24795
826.625	24772
826.765	24916
826.904	24791
827.044	24479
827.183	24582
827.323	24418
827.462	24555
827.601	24441
827.741	24418
827.88	24528
828.02	24319
828.159	24296
828.298	24418
828.437	24494
828.577	24467
828.716	24448
828.855	24380
828.994	24201
829.134	24114
829.273	24190
829.412	24174
829.551	24125
829.69	24129
829.829	24186
829.968	24197
830.107	24224
830.246	24163
830.385	24072
830.524	24045
830.663	23996
830.802	23939
830.941	23893
831.08	23729
831.219	23859
831.357	23703
831.496	24148
831.635	23802
831.774	23604
831.913	23707
832.051	23452
832.19	23478
832.329	23444
832.467	23520
832.606	23311
832.744	23516
832.883	23395
833.022	23402
833.16	23509
833.299	23356
833.437	23486
833.576	23482
833.714	23474
833.852	23448
833.991	23592
834.129	23619
834.267	23406
834.406	23558
834.544	23608
834.682	23531
834.821	23440
834.959	23684
835.097	23296
835.235	23535
835.373	23554
835.511	23368
835.65	23395
835.788	23448
835.926	23265
836.064	23242
836.202	23143
836.34	23406
836.478	23383
836.615	23368
836.753	23414
836.891	23410
837.029	23421
837.167	23166
837.305	23231
837.443	23174
837.58	23277
837.718	23246
837.856	23147
837.993	23067
838.131	23083
838.269	22972
838.406	23041
838.544	23041
838.681	22869
838.819	22858
838.956	22653
839.094	22740
839.231	22626
839.369	22653
839.506	23060
839.643	22991
839.781	22683
839.918	22542
840.055	22653
840.193	22649
840.33	22569
840.467	22622
840.604	22615
840.742	22835
840.879	22413
841.016	22436
841.153	22417
841.29	22660
841.427	22618
841.564	22542
841.701	22508
841.838	22626
841.975	22413
842.112	22557
842.249	22329
842.385	22299
842.522	22455
842.659	22375
842.796	22447
842.933	22325
843.069	22379
843.206	22386
843.343	22443
843.479	22394
843.616	22424
843.752	22097
843.889	22154
844.025	22192
844.162	22017
844.298	22234
844.435	22021
844.571	22032
844.708	22196
844.844	22272
844.98	22261
845.117	22223
845.253	22059
845.389	22135
845.525	22051
845.661	22036
845.798	21823
845.934	21880
846.07	21873
846.206	21873
846.342	21918
846.478	21838
846.614	21648
846.75	21561
846.886	21629
847.022	21739
847.158	21534
847.294	21614
847.429	21629
847.565	21511
847.701	21808
847.837	21291
847.972	21214
848.108	21435
848.244	21367
848.379	21192
848.515	21199
848.65	21154
848.786	21252
848.921	21180
849.057	21222
849.192	21264
849.328	21336
849.463	21112
849.598	21226
849.734	21154
849.869	20979
850.004	20990
850.14	20994
850.275	20971
850.41	20914
850.545	20883
850.68	20971
850.815	21055
850.95	20887
851.085	21058
851.22	21028
851.355	20994
851.49	21020
851.625	20902
851.76	20864
851.895	20834
852.03	20990
852.165	21017
852.299	20887
852.434	20952
852.569	21024
852.703	20921
852.838	20979
852.973	21089
853.107	21074
853.242	20811
853.376	20834
853.511	20621
853.645	20792
853.78	20834
853.914	20777
854.048	20826
854.183	20762
854.317	20842
854.451	20975
854.585	20845
854.72	20830
854.854	20804
854.988	20629
855.122	20636
855.256	20788
855.39	20731
855.524	20868
855.658	20815
855.792	20731
855.926	20773
856.06	20887
856.194	20906
856.327	20781
856.461	20720
856.595	20670
856.729	20670
856.862	20864
856.996	20800
857.13	20762
857.263	20918
857.397	20842
857.53	20720
857.664	20804
857.797	20804
857.931	20861
858.064	20693
858.197	20899
858.331	20659
858.464	20708
858.597	20590
858.731	20750
858.864	20682
858.997	20826
859.13	20762
859.263	20773
859.396	20834
859.529	20746
859.662	20769
859.795	20587
859.928	20773
860.061	20960
860.194	21024
860.327	20899
860.46	20788
860.592	20899
860.725	20963
860.858	20887
860.99	20724
861.123	20609
861.256	20689
861.388	20754
861.521	21389
861.653	20659
861.786	20522
861.918	20530
862.05	20648
862.183	20655
862.315	20693
862.447	20758
862.58	20716
862.712	20621
862.844	20465
862.976	20636
863.108	20549
863.24	21005
863.372	20408
863.504	20594
863.636	20533
863.768	20446
863.9	20396
864.032	20446
864.164	20434
864.296	20465
864.428	20689
864.559	20537
864.691	20377
864.823	20511
864.954	20590
865.086	20511
865.217	20408
865.349	20389
865.48	20381
865.612	20446
865.743	20396
865.875	20419
866.006	20339
866.137	20404
866.269	20366
866.4	20313
866.531	20290
866.662	20229
866.793	20267
866.924	20362
867.055	20495
867.186	20366
867.317	20324
867.448	20267
867.579	20339
867.71	20343
867.841	20244
867.972	20309
868.103	20374
868.233	20336
868.364	20324
868.495	20431
868.625	20461
868.756	20686
868.886	20457
869.017	20598
869.147	20712
869.278	20636
869.408	20564
869.539	20640
869.669	20659
869.799	20545
869.929	20678
870.06	20625
870.19	20861
870.32	20773
870.45	20902
870.58	20899
870.71	20990
870.84	21085
870.97	21001
871.1	21047
871.23	21074
871.36	21058
871.489	21123
871.619	21154
871.749	21131
871.879	21218
872.008	21188
872.138	21211
872.267	21096
872.397	20982
872.526	21005
872.656	21013
872.785	20944
872.915	21230
873.044	21222
873.173	21119
873.303	21104
873.432	21336
873.561	21127
873.69	21203
873.819	21222
873.948	21241
874.077	21287
874.206	21066
874.335	21279
874.464	21291
874.593	21389
874.722	21439
874.851	21435
874.979	21450
875.108	21412
875.237	21325
875.365	21249
875.494	21363
875.623	21526
875.751	21408
875.88	21485
876.008	21606
876.136	21603
876.265	21819
876.393	21930
876.521	21876
876.65	21934
876.778	21915
876.906	21747
877.034	21671
877.162	21861
877.29	21743
877.418	21808
877.546	21751
877.674	21709
877.802	21759
877.93	21778
878.058	21660
878.185	21637
878.313	21663
878.441	21789
878.568	21568
878.696	21778
878.824	21774
878.951	21797
879.079	21949
879.206	22143
879.333	21949
879.461	21873
879.588	21831
879.715	21865
879.842	22109
879.97	21857
880.097	21694
880.224	21675
880.351	21637
880.478	21667
880.605	21492
880.732	21648
880.859	21888
880.986	21614
881.112	21660
881.239	21534
881.366	21325
881.493	21184
881.619	21188
881.746	21085
881.872	21268
881.999	21077
882.125	21207
882.252	21245
882.378	21218
882.505	21412
882.631	21058
882.757	20975
882.883	20902
883.01	20872
883.136	20883
883.262	20807
883.388	20712
883.514	20823
883.64	20864
883.766	20834
883.892	20533
884.018	20689
884.143	20773
884.269	20925
884.395	20602
884.52	20598
884.646	20678
884.772	20446
884.897	20423
885.023	20541
885.148	20530
885.274	20686
885.399	20636
885.524	20526
885.65	20526
885.775	20606
885.9	20503
886.025	20526
886.15	20629
886.275	20499
886.4	20355
886.525	20465
886.65	20454
886.775	20499
886.9	20739
887.025	20697
887.149	20469
887.274	20290
887.399	20336
887.523	20298
887.648	20259
887.773	20328
887.897	20351
888.021	20362
888.146	20408
888.27	20404
888.395	20419
888.519	20256
888.643	20400
888.767	20332
888.891	20225
889.015	20100
889.139	20214
889.263	20122
889.387	20305
889.511	20385
889.635	20248
889.759	20138
889.883	19974
890.006	20084
890.13	20221
890.254	19974
890.377	20024
890.501	19928
890.624	19890
890.748	19849
890.871	19822
890.995	19700
891.118	19643
891.241	19674
891.364	19784
891.488	19757
891.611	19731
891.734	19674
891.857	19700
891.98	19662
892.103	19712
892.226	19693
892.349	19696
892.471	19480
892.594	19632
892.717	19651
892.839	19487
892.962	19616
893.085	19651
893.207	19616
893.33	19578
893.452	19540
893.575	19693
893.697	19559
893.819	19719
893.941	19776
894.064	19723
894.186	19468
894.308	19460
894.43	19734
894.552	19750
894.674	19643
894.796	19499
894.918	19563
895.04	19540
895.161	19620
895.283	19639
895.405	19502
895.526	19624
895.648	19613
895.769	19651
895.891	19704
896.012	19651
896.134	19712
896.255	19670
896.376	19605
896.498	19578
896.619	19723
896.74	19537
896.861	19727
896.982	19940
897.103	20012
897.224	19822
897.345	19830
897.466	19696
897.587	19860
897.708	19932
897.828	19868
897.949	19807
898.07	19643
898.19	19761
898.311	19902
898.431	19826
898.552	19875
898.672	19970
898.792	19917
898.913	19871
899.033	19708
899.153	19689
899.273	19514
899.393	19643
899.513	19662
899.633	19620
899.753	19620
899.873	19476
899.993	19613
900.113	19438
900.232	19582
900.352	19495
900.472	19411
900.591	19331
900.711	19407
900.83	19236
900.95	19540
901.069	19419
901.189	19327
901.308	19118
901.427	18920
901.546	19034
901.665	18954
901.784	18977
901.904	18783
902.023	18681
902.141	18650
902.26	18498
902.379	18551
902.498	18422
902.617	18475
902.735	18399
902.854	18555
902.973	18384
903.091	18148
903.21	18182
903.328	18136
903.446	18182
903.565	17977
903.683	17950
903.801	17851
903.919	17908
904.038	17931
904.156	17821
904.274	17691
904.392	17775
904.51	17619
904.627	17684
904.745	17676
904.863	17843
904.981	17501
905.098	17376
905.216	17528
905.334	17520
905.451	17376
905.569	17318
905.686	17573
905.803	17235
905.921	17292
906.038	17311
906.155	17117
906.272	17155
906.389	17113
906.506	16930
906.623	16957
906.74	16987
906.857	16862
906.974	16885
907.091	16976
907.208	17014
907.324	16930
907.441	16839
907.557	16759
907.674	16675
907.79	16577
907.907	16653
908.023	16637
908.139	16755
908.256	16607
908.372	16611
908.488	16687
908.604	16344
908.72	16295
908.836	16341
908.952	16417
909.068	16329
909.184	16485
909.3	16447
909.415	16424
909.531	16428
909.647	16234
909.762	16124
909.878	16120
909.993	16147
910.108	16181
910.224	16002
910.339	16048
910.454	16055
910.57	15880
910.685	15831
910.8	16051
910.915	16150
911.03	15945
911.145	15736
911.259	15751
911.374	15728
911.489	15542
911.604	15599
911.718	15424
911.833	15473
911.947	15428
912.062	15279
912.176	15363
912.291	15344
912.405	15397
912.519	15663
912.633	15648
912.748	15492
912.862	15447
912.976	15272
913.09	15154
913.204	15184
913.318	15176
913.431	15370
913.545	15332
913.659	15344
913.772	15355
913.886	15039
914	14963
914.113	15195
914.226	15256
914.34	15169
914.453	15066
914.566	15138
914.68	15135
914.793	14925
914.906	14762
915.019	14689
915.132	14663
915.245	14724
915.358	14682
915.47	14670
915.583	14648
915.696	14708
915.809	14952
915.921	14811
916.034	14640
916.146	14697
916.259	14602
916.371	14674
916.483	14686
916.595	14541
916.708	14560
916.82	14488
916.932	14530
917.044	14545
917.156	14469
917.268	14366
917.38	14434
917.491	14290
917.603	14415
917.715	14469
917.826	14473
917.938	14206
918.049	14271
918.161	14339
918.272	14431
918.384	14355
918.495	14324
918.606	14199
918.717	14046
918.828	14100
918.939	14081
919.05	13989
919.161	14134
919.272	13887
919.383	13928
919.494	14183
919.604	14294
919.715	14142
919.826	14016
919.936	14142
920.047	14183
920.157	14176
920.267	14298
920.378	14161
920.488	14058
920.598	14256
920.708	14438
920.818	14214
920.928	14320
921.038	14431
921.148	14336
921.258	14046
921.368	13959
921.477	13833
921.587	13928
921.697	13750
921.806	13849
921.916	13795
922.025	13544
922.134	13468
922.244	13468
922.353	13552
922.462	13415
922.571	13301
922.68	13183
922.789	13129
922.898	13194
923.007	13171
923.116	13190
923.224	13175
923.333	13209
923.442	13000
923.55	13012
923.659	12943
923.767	13038
923.876	12909
923.984	12943
924.092	12916
924.201	12932
924.309	12977
924.417	12954
924.525	12913
924.633	12829
924.741	13753
924.849	12623
924.956	12681
925.064	12627
925.172	12536
925.279	12658
925.387	12616
925.494	12574
925.602	12665
925.709	12631
925.816	12490
925.924	12578
926.031	12616
926.138	12422
926.245	12544
926.352	12490
926.459	12589
926.566	12620
926.673	12426
926.779	12369
926.886	12357
926.993	12205
927.099	12152
927.206	12163
927.312	12209
927.419	12205
927.525	12015
927.631	12152
927.737	12076
927.843	12038
927.95	11942
928.056	12019
928.162	12079
928.267	12068
928.373	12540
928.479	12072
928.585	11843
928.69	11885
928.796	11984
928.901	11870
929.007	11821
929.112	11851
929.218	11745
929.323	11752
929.428	11672
929.533	11908
929.638	11703
929.743	11634
929.848	11764
929.953	11710
930.058	11573
930.163	11455
930.267	11463
930.372	11600
930.477	11414
930.581	11615
930.685	11520
930.79	11311
930.894	11326
930.998	11307
931.103	11376
931.207	11060
931.311	11045
931.415	10957
931.519	10744
931.623	10774
