Data from test_V78500241_2619.txt Node
Date: Fri Mar 25 15:28:05 CST 2022
User: usil
Spectrometer: V785-0024
Trigger mode: 0
Integration Time (sec): 4.000000E-1
Scans to average: 1
Nonlinearity correction enabled: false
Boxcar width: 0
Storing dark spectrum: false
XAxis mode: Wavelengths
Number of Pixels in Spectrum: 1024
>>>>>Begin Spectral Data<<<<<
801.071	27180
801.214	27192
801.356	26918
801.499	26758
801.641	26731
801.783	26739
801.926	26750
802.068	26792
802.211	26598
802.353	26636
802.496	26480
802.638	26366
802.78	26301
802.923	26396
803.065	26271
803.208	26195
803.35	26233
803.492	26537
803.635	26522
803.777	26427
803.919	26495
804.061	26876
804.204	26465
804.346	26434
804.488	26412
804.63	26526
804.773	26358
804.915	26530
805.057	26545
805.199	26385
805.341	26541
805.483	26743
805.626	26579
805.768	26442
805.91	26727
806.052	26602
806.194	26484
806.336	26705
806.478	26667
806.62	26617
806.762	26819
806.904	27062
807.046	27001
807.188	27017
807.33	27192
807.472	27058
807.614	27024
807.756	27043
807.898	26883
808.04	26830
808.182	26868
808.324	27017
808.465	26899
808.607	27066
808.749	27180
808.891	27195
809.033	27272
809.174	27313
809.316	27230
809.458	27188
809.6	27157
809.741	27359
809.883	27310
810.025	27466
810.166	27458
810.308	27519
810.45	27401
810.591	27439
810.733	27192
810.875	27218
811.016	27070
811.158	27024
811.299	27298
811.441	27401
811.582	27469
811.724	27150
811.865	27154
812.007	27085
812.148	27157
812.29	27081
812.431	27370
812.573	27526
812.714	27675
812.855	27736
812.997	27720
813.138	27766
813.279	27800
813.421	27652
813.562	27553
813.703	27397
813.845	27355
813.986	27161
814.127	26979
814.268	26758
814.41	26967
814.551	26754
814.692	26899
814.833	26815
814.974	26940
815.115	26785
815.256	26826
815.397	26807
815.539	26727
815.68	26731
815.821	26522
815.962	26613
816.103	26533
816.244	26343
816.385	26431
816.526	26450
816.666	26252
816.807	26065
816.948	26221
817.089	26267
817.23	26172
817.371	26024
817.512	26183
817.653	26096
817.793	26069
817.934	26073
818.075	26191
818.216	26122
818.356	26142
818.497	25913
818.638	25944
818.778	25799
818.919	25856
819.06	25837
819.2	25974
819.341	26134
819.481	26046
819.622	26252
819.762	26442
819.903	26282
820.043	26267
820.184	26267
820.324	26195
820.465	26313
820.605	26134
820.746	26176
820.886	26199
821.026	26240
821.167	26202
821.307	26134
821.447	26092
821.588	26081
821.728	25837
821.868	25734
822.008	25609
822.149	25457
822.289	25544
822.429	25369
822.569	25331
822.709	25312
822.849	25187
822.99	25012
823.13	25065
823.27	25069
823.41	24882
823.55	24741
823.69	24951
823.83	25038
823.97	24760
824.11	24661
824.25	24661
824.389	24681
824.529	24833
824.669	24597
824.809	24791
824.949	24677
825.089	24753
825.228	24722
825.368	24471
825.508	24646
825.648	24566
825.787	24555
825.927	24673
826.067	24604
826.206	24551
826.346	24551
826.485	24578
826.625	24692
826.765	24768
826.904	24551
827.044	24346
827.183	24239
827.323	24369
827.462	24395
827.601	24361
827.741	24342
827.88	24285
828.02	24304
828.159	24353
828.298	24247
828.437	24338
828.577	24239
828.716	24460
828.855	24182
828.994	24011
829.134	24110
829.273	24053
829.412	23939
829.551	23931
829.69	24087
829.829	24072
829.968	24129
830.107	24045
830.246	24030
830.385	23897
830.524	23980
830.663	23737
830.802	23718
830.941	23638
831.08	23703
831.219	23726
831.357	23726
831.496	23927
831.635	23714
831.774	23482
831.913	23562
832.051	23406
832.19	23353
832.329	23414
832.467	23307
832.606	23231
832.744	23292
832.883	23254
833.022	23315
833.16	23341
833.299	23288
833.437	23292
833.576	23277
833.714	23330
833.852	23292
833.991	23444
834.129	23433
834.267	23318
834.406	23383
834.544	23307
834.682	23296
834.821	23334
834.959	23558
835.097	23296
835.235	23440
835.373	23410
835.511	23235
835.65	23242
835.788	23200
835.926	23155
836.064	22915
836.202	23128
836.34	23098
836.478	23174
836.615	23140
836.753	23170
836.891	23280
837.029	23227
837.167	23204
837.305	23227
837.443	23124
837.58	23075
837.718	23136
837.856	23064
837.993	22995
838.131	23025
838.269	23014
838.406	22999
838.544	22976
838.681	22687
838.819	22759
838.956	22656
839.094	22580
839.231	22580
839.369	22771
839.506	22866
839.643	22869
839.781	22603
839.918	22455
840.055	22481
840.193	22523
840.33	22470
840.467	22424
840.604	22554
840.742	22733
840.879	22379
841.016	22386
841.153	22272
841.29	22546
841.427	22322
841.564	22451
841.701	22436
841.838	22352
841.975	22360
842.112	22466
842.249	22318
842.385	22272
842.522	22394
842.659	22253
842.796	22173
842.933	22284
843.069	22177
843.206	22253
843.343	22230
843.479	22314
843.616	22177
843.752	21964
843.889	21991
844.025	22120
844.162	21979
844.298	22070
844.435	22086
844.571	22036
844.708	22078
844.844	22162
844.98	22040
845.117	22120
845.253	22048
845.389	21724
845.525	21895
845.661	21850
845.798	21713
845.934	21770
846.07	21671
846.206	21743
846.342	21762
846.478	21747
846.614	21545
846.75	21523
846.886	21367
847.022	21545
847.158	21370
847.294	21599
847.429	21610
847.565	21389
847.701	21682
847.837	21256
847.972	21135
848.108	21237
848.244	21287
848.379	21123
848.515	21058
848.65	21039
848.786	21081
848.921	21001
849.057	21180
849.192	21104
849.328	21157
849.463	21173
849.598	20986
849.734	21051
849.869	20891
850.004	20895
850.14	20876
850.275	20777
850.41	20743
850.545	20788
850.68	20804
850.815	20891
850.95	20807
851.085	21089
851.22	20914
851.355	20853
851.49	20857
851.625	20891
851.76	20929
851.895	20762
852.03	20887
852.165	20864
852.299	20792
852.434	20914
852.569	20979
852.703	20743
852.838	20891
852.973	20906
853.107	20994
853.242	20777
853.376	20724
853.511	20594
853.645	20708
853.78	20826
853.914	20693
854.048	20640
854.183	20564
854.317	20583
854.451	20750
854.585	20724
854.72	20705
854.854	20739
854.988	20526
855.122	20598
855.256	20377
855.39	20724
855.524	20712
855.658	20765
855.792	20594
855.926	20678
856.06	20720
856.194	20804
856.327	20549
856.461	20663
856.595	20644
856.729	20613
856.862	20861
856.996	20720
857.13	20708
857.263	20906
857.397	20629
857.53	20693
857.664	20758
857.797	20640
857.931	20765
858.064	20613
858.197	20693
858.331	20651
858.464	20636
858.597	20514
858.731	20629
858.864	20575
858.997	20617
859.13	20708
859.263	20712
859.396	20663
859.529	20727
859.662	20667
859.795	20492
859.928	20705
860.061	20823
860.194	20902
860.327	20686
860.46	20571
860.592	20739
860.725	20830
860.858	20636
860.99	20583
861.123	20571
861.256	20560
861.388	20613
861.521	21291
861.653	20488
861.786	20488
861.918	20590
862.05	20484
862.183	20514
862.315	20629
862.447	20518
862.58	20575
862.712	20355
862.844	20347
862.976	20511
863.108	20377
863.24	20864
863.372	20396
863.504	20412
863.636	20381
863.768	20575
863.9	20336
864.032	20332
864.164	20271
864.296	20385
864.428	20454
864.559	20495
864.691	20480
864.823	20381
864.954	20434
865.086	20305
865.217	20282
865.349	20252
865.48	20328
865.612	20244
865.743	20511
865.875	20237
866.006	20191
866.137	20263
866.269	20210
866.4	20172
866.531	20237
866.662	20103
866.793	20233
866.924	20187
867.055	20218
867.186	20305
867.317	20168
867.448	20115
867.579	20298
867.71	20107
867.841	20149
867.972	20221
868.103	20229
868.233	20138
868.364	20298
868.495	20248
868.625	20438
868.756	20549
868.886	20484
869.017	20408
869.147	20579
869.278	20583
869.408	20374
869.539	20446
869.669	20575
869.799	20465
869.929	20568
870.06	20575
870.19	20883
870.32	20705
870.45	20785
870.58	20834
870.71	20914
870.84	20994
870.97	20667
871.1	20864
871.23	20956
871.36	21066
871.489	20861
871.619	21089
871.749	21051
871.879	21131
872.008	21123
872.138	21127
872.267	21005
872.397	20960
872.526	20944
872.656	20982
872.785	20925
872.915	21085
873.044	21070
873.173	21077
873.303	21085
873.432	21077
873.561	21237
873.69	21150
873.819	21184
873.948	21131
874.077	21112
874.206	21036
874.335	21043
874.464	21165
874.593	21363
874.722	21249
874.851	21408
874.979	21386
875.108	21450
875.237	21272
875.365	21161
875.494	21222
875.623	21355
875.751	21355
875.88	21344
876.008	21348
876.136	21519
876.265	21751
876.393	21831
876.521	21766
876.65	21918
876.778	21698
876.906	21660
877.034	21576
877.162	21595
877.29	21675
877.418	21770
877.546	21732
877.674	21751
877.802	21622
877.93	21705
878.058	21587
878.185	21599
878.313	21553
878.441	21591
878.568	21492
878.696	21637
878.824	21652
878.951	21713
879.079	21812
879.206	21926
879.333	21846
879.461	21701
879.588	21736
879.715	21808
879.842	21972
879.97	21698
880.097	21359
880.224	21348
880.351	21580
880.478	21450
880.605	21504
880.732	21466
880.859	21720
880.986	21359
881.112	21466
881.239	21367
881.366	21359
881.493	21226
881.619	21176
881.746	21306
881.872	21036
881.999	21165
882.125	21074
882.252	21127
882.378	21032
882.505	21070
882.631	20998
882.757	20883
882.883	20807
883.01	20720
883.136	20769
883.262	20549
883.388	20564
883.514	20720
883.64	20921
883.766	20705
883.892	20659
884.018	20594
884.143	20777
884.269	20826
884.395	20503
884.52	20438
884.646	20427
884.772	20465
884.897	20393
885.023	20438
885.148	20560
885.274	20583
885.399	20579
885.524	20362
885.65	20545
885.775	20431
885.9	20358
886.025	20594
886.15	20461
886.275	20457
886.4	20377
886.525	20473
886.65	20275
886.775	20374
886.9	20389
887.025	20625
887.149	20476
887.274	20221
887.399	20229
887.523	20191
887.648	20187
887.773	20115
887.897	20298
888.021	20336
888.146	20237
888.27	20298
888.395	20275
888.519	20229
888.643	20278
888.767	20339
888.891	20084
889.015	20031
889.139	19982
889.263	19909
889.387	20119
889.511	20233
889.635	20012
889.759	20020
889.883	19982
890.006	20039
890.13	20115
890.254	19959
890.377	19864
890.501	19917
890.624	19742
890.748	19928
890.871	19784
890.995	19647
891.118	19502
891.241	19643
891.364	19540
891.488	19742
891.611	19529
891.734	19533
891.857	19696
891.98	19597
892.103	19601
892.226	19525
892.349	19559
892.471	19339
892.594	19445
892.717	19559
892.839	19487
892.962	19559
893.085	19567
893.207	19624
893.33	19460
893.452	19369
893.575	19510
893.697	19480
893.819	19693
893.941	19822
894.064	19685
894.186	19388
894.308	19419
894.43	19590
894.552	19704
894.674	19655
894.796	19434
894.918	19506
895.04	19483
895.161	19609
895.283	19586
895.405	19407
895.526	19388
895.648	19506
895.769	19453
895.891	19658
896.012	19544
896.134	19495
896.255	19578
896.376	19529
896.498	19582
896.619	19540
896.74	19430
896.861	19567
896.982	19883
897.103	19925
897.224	19849
897.345	19700
897.466	19750
897.587	19742
897.708	19845
897.828	19845
897.949	19719
898.07	19601
898.19	19628
898.311	19898
898.431	19780
898.552	19799
898.672	19818
898.792	19849
898.913	19696
899.033	19613
899.153	19613
899.273	19487
899.393	19556
899.513	19514
899.633	19468
899.753	19529
899.873	19525
899.993	19586
900.113	19434
900.232	19472
900.352	19460
900.472	19331
900.591	19213
900.711	19354
900.83	19228
900.95	19285
901.069	19377
901.189	19232
901.308	18966
901.427	18802
901.546	18859
901.665	19012
901.784	18886
901.904	18791
902.023	18540
902.141	18456
902.26	18441
902.379	18551
902.498	18403
902.617	18391
902.735	18395
902.854	18407
902.973	18350
903.091	18072
903.21	18030
903.328	18083
903.446	17946
903.565	17775
903.683	17999
903.801	17783
903.919	17901
904.038	17866
904.156	17638
904.274	17794
904.392	17558
904.51	17630
904.627	17710
904.745	17718
904.863	17695
904.981	17535
905.098	17341
905.216	17372
905.334	17330
905.451	17395
905.569	17353
905.686	17364
905.803	17322
905.921	17140
906.038	17227
906.155	17235
906.272	17064
906.389	17048
906.506	16961
906.623	16866
906.74	16771
906.857	16713
906.974	16782
907.091	16911
907.208	16999
907.324	16885
907.441	16854
907.557	16622
907.674	16771
907.79	16561
907.907	16497
908.023	16561
908.139	16687
908.256	16584
908.372	16538
908.488	16455
908.604	16329
908.72	16333
908.836	16344
908.952	16238
909.068	16268
909.184	16466
909.3	16261
909.415	16413
909.531	16291
909.647	16029
909.762	16040
909.878	16029
909.993	16071
910.108	16063
910.224	16017
910.339	15964
910.454	15835
910.57	15854
910.685	15808
910.8	16097
910.915	16013
911.03	15857
911.145	15717
911.259	15576
911.374	15648
911.489	15591
911.604	15519
911.718	15340
911.833	15420
911.947	15313
912.062	15256
912.176	15473
912.291	15447
912.405	15435
912.519	15622
912.633	15648
912.748	15511
912.862	15405
912.976	15252
913.09	15203
913.204	15173
913.318	15173
913.431	15287
913.545	15283
913.659	15302
913.772	15222
913.886	15097
914	14986
914.113	15017
914.226	15112
914.34	15154
914.453	15024
914.566	15146
914.68	14937
914.793	14826
914.906	14781
915.019	14602
915.132	14636
915.245	14636
915.358	14655
915.47	14625
915.583	14625
915.696	14716
915.809	14632
915.921	14762
916.034	14610
916.146	14594
916.259	14507
916.371	14598
916.483	14693
916.595	14461
916.708	14484
916.82	14339
916.932	14423
917.044	14389
917.156	14427
917.268	14377
917.38	14381
917.491	14305
917.603	14240
917.715	14396
917.826	14290
917.938	14267
918.049	14103
918.161	14263
918.272	14385
918.384	14366
918.495	14218
918.606	14100
918.717	14058
918.828	14084
918.939	14008
919.05	13989
919.161	14046
919.272	13833
919.383	13959
919.494	14027
919.604	14225
919.715	14046
919.826	13967
919.936	14092
920.047	14107
920.157	13970
920.267	14267
920.378	14111
920.488	13959
920.598	14225
920.708	14309
920.818	14153
920.928	14248
921.038	14351
921.148	14259
921.258	14103
921.368	13879
921.477	13871
921.587	13807
921.697	13700
921.806	13830
921.916	13693
922.025	13491
922.134	13426
922.244	13362
922.353	13502
922.462	13293
922.571	13327
922.68	13080
922.789	13061
922.898	13091
923.007	13065
923.116	13103
923.224	13046
923.333	13046
923.442	12932
923.55	12970
923.659	13000
923.767	13034
923.876	13012
923.984	12981
924.092	12909
924.201	12886
924.309	12875
924.417	12920
924.525	12810
924.633	12821
924.741	13738
924.849	12608
924.956	12753
925.064	12494
925.172	12555
925.279	12452
925.387	12509
925.494	12464
925.602	12677
925.709	12654
925.816	12361
925.924	12490
926.031	12464
926.138	12502
926.245	12521
926.352	12395
926.459	12475
926.566	12498
926.673	12483
926.779	12300
926.886	12251
926.993	12175
927.099	12182
927.206	12087
927.312	12064
927.419	12182
927.525	12022
927.631	12167
927.737	12049
927.843	11939
927.95	11897
928.056	11969
928.162	11950
928.267	11980
928.373	12517
928.479	12007
928.585	11710
928.69	11920
928.796	11836
928.901	11866
929.007	11760
929.112	11840
929.218	11722
929.323	11657
929.428	11699
929.533	11813
929.638	11573
929.743	11718
929.848	11710
929.953	11707
930.058	11467
930.163	11360
930.267	11391
930.372	11467
930.477	11250
930.581	11608
930.685	11330
930.79	11269
930.894	11201
930.998	11231
931.103	11429
931.207	11056
931.311	10980
931.415	10919
931.519	10755
931.623	10687
