Data from test_V78500241_3169.txt Node
Date: Fri Mar 25 15:31:55 CST 2022
User: usil
Spectrometer: V785-0024
Trigger mode: 0
Integration Time (sec): 4.000000E-1
Scans to average: 1
Nonlinearity correction enabled: false
Boxcar width: 0
Storing dark spectrum: false
XAxis mode: Wavelengths
Number of Pixels in Spectrum: 1024
>>>>>Begin Spectral Data<<<<<
801.071	27036
801.214	27081
801.356	26853
801.499	26716
801.641	26674
801.783	26693
801.926	26815
802.068	26644
802.211	26663
802.353	26686
802.496	26332
802.638	26530
802.78	26389
802.923	26248
803.065	26100
803.208	26202
803.35	26206
803.492	26339
803.635	26332
803.777	26415
803.919	26351
804.061	26758
804.204	26518
804.346	26343
804.488	26328
804.63	26408
804.773	26225
804.915	26328
805.057	26522
805.199	26282
805.341	26530
805.483	26530
805.626	26594
805.768	26358
805.91	26518
806.052	26575
806.194	26332
806.336	26655
806.478	26609
806.62	26450
806.762	26682
806.904	26773
807.046	26872
807.188	26872
807.33	26990
807.472	26990
807.614	26838
807.756	26857
807.898	26750
808.04	26674
808.182	26667
808.324	26895
808.465	26750
808.607	26899
808.749	27123
808.891	27211
809.033	27146
809.174	27161
809.316	26960
809.458	27009
809.6	27036
809.741	27317
809.883	27165
810.025	27329
810.166	27264
810.308	27310
810.45	27306
810.591	27211
810.733	27169
810.875	27017
811.016	27047
811.158	27119
811.299	27150
811.441	27245
811.582	27408
811.724	27093
811.865	26910
812.007	26914
812.148	27017
812.29	27096
812.431	27378
812.573	27416
812.714	27500
812.855	27469
812.997	27724
813.138	27865
813.279	27614
813.421	27507
813.562	27622
813.703	27374
813.845	27249
813.986	27020
814.127	26906
814.268	26765
814.41	26872
814.551	26644
814.692	26781
814.833	26720
814.974	26606
815.115	26636
815.256	26739
815.397	26678
815.539	26579
815.68	26621
815.821	26412
815.962	26488
816.103	26404
816.244	26442
816.385	26286
816.526	26259
816.666	26115
816.807	25947
816.948	26039
817.089	26149
817.23	25982
817.371	25868
817.512	26012
817.653	26096
817.793	25883
817.934	25917
818.075	26153
818.216	26031
818.356	25951
818.497	25989
818.638	25658
818.778	25700
818.919	25696
819.06	25833
819.2	25890
819.341	25875
819.481	25887
819.622	26138
819.762	26248
819.903	26221
820.043	26210
820.184	26012
820.324	26115
820.465	26149
820.605	26100
820.746	26043
820.886	25830
821.026	26073
821.167	25997
821.307	26149
821.447	26024
821.588	25791
821.728	25662
821.868	25601
822.008	25415
822.149	25495
822.289	25476
822.429	25148
822.569	25206
822.709	25023
822.849	25042
822.99	25053
823.13	24890
823.27	24935
823.41	24802
823.55	24719
823.69	24840
823.83	24943
823.97	24802
824.11	24559
824.25	24517
824.389	24578
824.529	24677
824.669	24604
824.809	24661
824.949	24753
825.089	24753
825.228	24559
825.368	24418
825.508	24448
825.648	24327
825.787	24475
825.927	24509
826.067	24441
826.206	24471
826.346	24464
826.485	24509
826.625	24467
826.765	24608
826.904	24559
827.044	24247
827.183	24243
827.323	24049
827.462	24251
827.601	24136
827.741	24216
827.88	24213
828.02	24163
828.159	24095
828.298	24167
828.437	24194
828.577	24076
828.716	24270
828.855	24022
828.994	23851
829.134	23969
829.273	23920
829.412	23786
829.551	23923
829.69	23874
829.829	23923
829.968	23969
830.107	23897
830.246	23904
830.385	23859
830.524	23813
830.663	23729
830.802	23642
830.941	23585
831.08	23573
831.219	23585
831.357	23642
831.496	23882
831.635	23554
831.774	23414
831.913	23425
832.051	23345
832.19	23212
832.329	23326
832.467	23345
832.606	23185
832.744	23250
832.883	23155
833.022	23265
833.16	23212
833.299	23242
833.437	23395
833.576	23246
833.714	23299
833.852	23322
833.991	23307
834.129	23356
834.267	23360
834.406	23246
834.544	23277
834.682	23269
834.821	23208
834.959	23524
835.097	23147
835.235	23140
835.373	23246
835.511	23170
835.65	23162
835.788	23166
835.926	23128
836.064	22938
836.202	22820
836.34	23128
836.478	23147
836.615	23166
836.753	23086
836.891	23200
837.029	23227
837.167	23121
837.305	23113
837.443	23014
837.58	22961
837.718	22965
837.856	22984
837.993	22965
838.131	23010
838.269	22801
838.406	22927
838.544	22782
838.681	22683
838.819	22538
838.956	22493
839.094	22421
839.231	22466
839.369	22573
839.506	22877
839.643	22809
839.781	22443
839.918	22424
840.055	22337
840.193	22405
840.33	22379
840.467	22421
840.604	22470
840.742	22607
840.879	22223
841.016	22333
841.153	22337
841.29	22436
841.427	22287
841.564	22386
841.701	22318
841.838	22318
841.975	22177
842.112	22382
842.249	22185
842.385	22105
842.522	22367
842.659	22272
842.796	22188
842.933	22166
843.069	22181
843.206	22032
843.343	22097
843.479	22150
843.616	22162
843.752	21949
843.889	21972
844.025	22101
844.162	21983
844.298	22101
844.435	22013
844.571	21846
844.708	21975
844.844	21945
844.98	22116
845.117	21968
845.253	21835
845.389	21709
845.525	21785
845.661	21766
845.798	21770
845.934	21637
846.07	21637
846.206	21663
846.342	21705
846.478	21701
846.614	21526
846.75	21294
846.886	21317
847.022	21428
847.158	21500
847.294	21397
847.429	21412
847.565	21401
847.701	21561
847.837	21112
847.972	21093
848.108	21104
848.244	21218
848.379	21085
848.515	21032
848.65	20925
848.786	20986
848.921	21039
849.057	21233
849.192	21176
849.328	20937
849.463	21070
849.598	20895
849.734	20941
849.869	20845
850.004	20701
850.14	20785
850.275	20762
850.41	20754
850.545	20731
850.68	20659
850.815	20773
850.95	20705
851.085	20975
851.22	20853
851.355	20773
851.49	20655
851.625	20735
851.76	20769
851.895	20678
852.03	20667
852.165	20651
852.299	20845
852.434	20781
852.569	20807
852.703	20785
852.838	20788
852.973	20925
853.107	20887
853.242	20613
853.376	20598
853.511	20533
853.645	20556
853.78	20792
853.914	20598
854.048	20469
854.183	20613
854.317	20663
854.451	20777
854.585	20613
854.72	20571
854.854	20765
854.988	20541
855.122	20621
855.256	20473
855.39	20549
855.524	20640
855.658	20708
855.792	20670
855.926	20598
856.06	20526
856.194	20693
856.327	20499
856.461	20507
856.595	20419
856.729	20568
856.862	20674
856.996	20625
857.13	20712
857.263	20773
857.397	20606
857.53	20499
857.664	20667
857.797	20743
857.931	20579
858.064	20575
858.197	20686
858.331	20606
858.464	20461
858.597	20503
858.731	20579
858.864	20564
858.997	20564
859.13	20670
859.263	20492
859.396	20632
859.529	20511
859.662	20457
859.795	20560
859.928	20617
860.061	20815
860.194	20785
860.327	20682
860.46	20556
860.592	20667
860.725	20727
860.858	20769
860.99	20511
861.123	20461
861.256	20503
861.388	20590
861.521	21188
861.653	20492
861.786	20427
861.918	20526
862.05	20355
862.183	20518
862.315	20549
862.447	20571
862.58	20556
862.712	20320
862.844	20278
862.976	20358
863.108	20282
863.24	20629
863.372	20271
863.504	20351
863.636	20202
863.768	20317
863.9	20290
864.032	20195
864.164	20282
864.296	20415
864.428	20404
864.559	20370
864.691	20442
864.823	20259
864.954	20199
865.086	20385
865.217	20324
865.349	20058
865.48	20202
865.612	20214
865.743	20271
865.875	20252
866.006	20210
866.137	20168
866.269	20252
866.4	20142
866.531	20164
866.662	20096
866.793	20172
866.924	20153
867.055	20077
867.186	20233
867.317	20138
867.448	20020
867.579	20172
867.71	19993
867.841	20062
867.972	20214
868.103	20248
868.233	20054
868.364	20164
868.495	20214
868.625	20343
868.756	20438
868.886	20370
869.017	20495
869.147	20446
869.278	20503
869.408	20374
869.539	20339
869.669	20560
869.799	20370
869.929	20377
870.06	20473
870.19	20731
870.32	20705
870.45	20746
870.58	20754
870.71	20899
870.84	20807
870.97	20792
871.1	20773
871.23	21036
871.36	21066
871.489	20956
871.619	20956
871.749	21020
871.879	20982
872.008	21119
872.138	20986
872.267	20963
872.397	20826
872.526	20861
872.656	20876
872.785	20933
872.915	20914
873.044	21043
873.173	21039
873.303	21058
873.432	20990
873.561	21112
873.69	21001
873.819	21017
873.948	21081
874.077	21024
874.206	21047
874.335	21005
874.464	21131
874.593	21260
874.722	21131
874.851	21245
874.979	21203
875.108	21192
875.237	21268
875.365	21226
875.494	21306
875.623	21408
875.751	21245
875.88	21416
876.008	21454
876.136	21412
876.265	21759
876.393	21781
876.521	21652
876.65	21739
876.778	21656
876.906	21580
877.034	21420
877.162	21603
877.29	21633
877.418	21686
877.546	21595
877.674	21496
877.802	21530
877.93	21637
878.058	21576
878.185	21488
878.313	21614
878.441	21526
878.568	21367
878.696	21500
878.824	21709
878.951	21660
879.079	21918
879.206	21987
879.333	21797
879.461	21759
879.588	21720
879.715	21701
879.842	21865
879.97	21686
880.097	21431
880.224	21481
880.351	21420
880.478	21340
880.605	21386
880.732	21298
880.859	21709
880.986	21412
881.112	21310
881.239	21287
881.366	21062
881.493	21123
881.619	20941
881.746	21089
881.872	21032
881.999	20921
882.125	20990
882.252	21108
882.378	21043
882.505	21077
882.631	20781
882.757	20853
882.883	20861
883.01	20754
883.136	20701
883.262	20689
883.388	20473
883.514	20648
883.64	20724
883.766	20708
883.892	20465
884.018	20522
884.143	20682
884.269	20750
884.395	20347
884.52	20408
884.646	20438
884.772	20370
884.897	20301
885.023	20457
885.148	20541
885.274	20492
885.399	20541
885.524	20488
885.65	20377
885.775	20385
885.9	20408
886.025	20473
886.15	20374
886.275	20351
886.4	20282
886.525	20282
886.65	20252
886.775	20237
886.9	20503
887.025	20644
887.149	20438
887.274	20073
887.399	20084
887.523	20046
887.648	19974
887.773	20077
887.897	20214
888.021	20320
888.146	20088
888.27	20275
888.395	20275
888.519	20161
888.643	20138
888.767	20107
888.891	20084
889.015	19913
889.139	20100
889.263	19871
889.387	20073
889.511	20183
889.635	20081
889.759	19871
889.883	19951
890.006	19974
890.13	20050
890.254	19959
890.377	19757
890.501	19864
890.624	19727
890.748	19753
890.871	19590
890.995	19502
891.118	19476
891.241	19582
891.364	19495
891.488	19761
891.611	19559
891.734	19586
891.857	19662
891.98	19537
892.103	19605
892.226	19582
892.349	19578
892.471	19434
892.594	19609
892.717	19430
892.839	19392
892.962	19499
893.085	19495
893.207	19499
893.33	19354
893.452	19263
893.575	19563
893.697	19449
893.819	19677
893.941	19693
894.064	19635
894.186	19362
894.308	19339
894.43	19556
894.552	19510
894.674	19491
894.796	19251
894.918	19438
895.04	19358
895.161	19464
895.283	19578
895.405	19327
895.526	19483
895.648	19422
895.769	19400
895.891	19480
896.012	19655
896.134	19495
896.255	19415
896.376	19343
896.498	19533
896.619	19499
896.74	19487
896.861	19415
896.982	19761
897.103	19967
897.224	19742
897.345	19689
897.466	19624
897.587	19818
897.708	19807
897.828	19670
897.949	19639
898.07	19514
898.19	19582
898.311	19814
898.431	19540
898.552	19666
898.672	19795
898.792	19750
898.913	19632
899.033	19616
899.153	19495
899.273	19430
899.393	19491
899.513	19365
899.633	19502
899.753	19483
899.873	19282
899.993	19556
900.113	19468
900.232	19365
900.352	19396
900.472	19327
900.591	19255
900.711	19213
900.83	19209
900.95	19221
901.069	19403
901.189	19088
901.308	19004
901.427	18760
901.546	18939
901.665	18848
901.784	18859
901.904	18726
902.023	18597
902.141	18384
902.26	18361
902.379	18536
902.498	18433
902.617	18273
902.735	18350
902.854	18350
902.973	18277
903.091	18110
903.21	18003
903.328	18121
903.446	17946
903.565	17828
903.683	17764
903.801	17828
903.919	17691
904.038	17726
904.156	17619
904.274	17638
904.392	17589
904.51	17566
904.627	17627
904.745	17691
904.863	17630
904.981	17417
905.098	17250
905.216	17246
905.334	17334
905.451	17277
905.569	17239
905.686	17330
905.803	17231
905.921	17147
906.038	17155
906.155	17079
906.272	17006
906.389	17014
906.506	16854
906.623	16976
906.74	16854
906.857	16634
906.974	16664
907.091	16828
907.208	16976
907.324	16881
907.441	16675
907.557	16713
907.674	16611
907.79	16493
907.907	16451
908.023	16565
908.139	16424
908.256	16405
908.372	16447
908.488	16432
908.604	16318
908.72	16329
908.836	16295
908.952	16310
909.068	16310
909.184	16440
909.3	16303
909.415	16341
909.531	16226
909.647	15907
909.762	15998
909.878	16002
909.993	16086
910.108	15964
910.224	15880
910.339	15922
910.454	15854
910.57	15850
910.685	15717
910.8	15979
910.915	15983
911.03	15759
911.145	15629
911.259	15523
911.374	15599
911.489	15466
911.604	15462
911.718	15382
911.833	15416
911.947	15321
912.062	15161
912.176	15370
912.291	15443
912.405	15302
912.519	15504
912.633	15568
912.748	15405
912.862	15325
912.976	15169
913.09	15104
913.204	15100
913.318	15233
913.431	15287
913.545	15336
913.659	15279
913.772	15093
913.886	14971
914	14914
914.113	15055
914.226	15028
914.34	15074
914.453	14811
914.566	14979
914.68	14781
914.793	14868
914.906	14667
915.019	14530
915.132	14514
915.245	14606
915.358	14545
915.47	14621
915.583	14610
915.696	14731
915.809	14693
915.921	14716
916.034	14568
916.146	14507
916.259	14484
916.371	14568
916.483	14507
916.595	14442
916.708	14454
916.82	14400
916.932	14427
917.044	14381
917.156	14301
917.268	14271
917.38	14294
917.491	14248
917.603	14157
917.715	14389
917.826	14343
917.938	14157
918.049	14134
918.161	14214
918.272	14267
918.384	14370
918.495	14233
918.606	14027
918.717	14012
918.828	14024
918.939	14126
919.05	13928
919.161	13917
919.272	13788
919.383	13864
919.494	14046
919.604	14233
919.715	14130
919.826	13913
919.936	13959
920.047	14206
920.157	14073
920.267	14221
920.378	14039
920.488	13940
920.598	14199
920.708	14339
920.818	14126
920.928	14096
921.038	14298
921.148	14248
921.258	14008
921.368	13917
921.477	13864
921.587	13738
921.697	13636
921.806	13689
921.916	13601
922.025	13552
922.134	13426
922.244	13293
922.353	13392
922.462	13285
922.571	13297
922.68	13099
922.789	12951
922.898	13046
923.007	13050
923.116	13027
923.224	13004
923.333	12954
923.442	12947
923.55	12837
923.659	12882
923.767	12890
923.876	12894
923.984	12943
924.092	12787
924.201	12825
924.309	12783
924.417	12817
924.525	12738
924.633	12673
924.741	13696
924.849	12616
924.956	12692
925.064	12612
925.172	12403
925.279	12437
925.387	12540
925.494	12513
925.602	12589
925.709	12498
925.816	12464
925.924	12426
926.031	12566
926.138	12456
926.245	12448
926.352	12410
926.459	12407
926.566	12479
926.673	12357
926.779	12323
926.886	12300
926.993	12076
927.099	12030
927.206	12076
927.312	12079
927.419	12129
927.525	11980
927.631	12148
927.737	12026
927.843	11916
927.95	11817
928.056	11863
928.162	11942
928.267	11973
928.373	12555
928.479	12019
928.585	11733
928.69	11859
928.796	11923
928.901	11783
929.007	11619
929.112	11813
929.218	11745
929.323	11691
929.428	11680
929.533	11836
929.638	11581
929.743	11509
929.848	11691
929.953	11551
930.058	11471
930.163	11433
930.267	11372
930.372	11452
930.477	11258
930.581	11490
930.685	11326
930.79	11162
930.894	11273
930.998	11292
931.103	11395
931.207	10957
931.311	10850
931.415	10866
931.519	10531
931.623	10691
