Data from test_V78500241_552.txt Node
Date: Fri Mar 25 15:13:42 CST 2022
User: usil
Spectrometer: V785-0024
Trigger mode: 0
Integration Time (sec): 4.000000E-1
Scans to average: 1
Nonlinearity correction enabled: false
Boxcar width: 0
Storing dark spectrum: false
XAxis mode: Wavelengths
Number of Pixels in Spectrum: 1024
>>>>>Begin Spectral Data<<<<<
801.071	27119
801.214	27047
801.356	26861
801.499	26678
801.641	26667
801.783	26602
801.926	26769
802.068	26716
802.211	26598
802.353	26453
802.496	26347
802.638	26328
802.78	26187
802.923	26244
803.065	26313
803.208	26183
803.35	26237
803.492	26351
803.635	26355
803.777	26263
803.919	26374
804.061	26598
804.204	26355
804.346	26244
804.488	26195
804.63	26225
804.773	26199
804.915	26252
805.057	26484
805.199	26263
805.341	26412
805.483	26427
805.626	26320
805.768	26488
805.91	26423
806.052	26461
806.194	26484
806.336	26659
806.478	26541
806.62	26434
806.762	26575
806.904	26682
807.046	26830
807.188	27058
807.33	26777
807.472	27001
807.614	26842
807.756	26792
807.898	26663
808.04	26674
808.182	26655
808.324	26724
808.465	26876
808.607	26887
808.749	26937
808.891	27062
809.033	27363
809.174	27142
809.316	26971
809.458	27001
809.6	27100
809.741	27108
809.883	27138
810.025	27424
810.166	27325
810.308	27279
810.45	27351
810.591	27374
810.733	27119
810.875	27085
811.016	26792
811.158	26975
811.299	27150
811.441	27317
811.582	27180
811.724	26994
811.865	27032
812.007	26979
812.148	27165
812.29	26994
812.431	27161
812.573	27443
812.714	27568
812.855	27663
812.997	27603
813.138	27827
813.279	27724
813.421	27732
813.562	27507
813.703	27523
813.845	27435
813.986	26986
814.127	26883
814.268	26629
814.41	26807
814.551	26788
814.692	26705
814.833	26659
814.974	26579
815.115	26644
815.256	26568
815.397	26575
815.539	26552
815.68	26537
815.821	26286
815.962	26594
816.103	26434
816.244	26404
816.385	26233
816.526	26218
816.666	26244
816.807	26046
816.948	26077
817.089	26119
817.23	26043
817.371	26161
817.512	25997
817.653	26149
817.793	25997
817.934	25947
818.075	26077
818.216	26001
818.356	25871
818.497	25849
818.638	25696
818.778	25742
818.919	25639
819.06	25776
819.2	25883
819.341	25898
819.481	25871
819.622	26122
819.762	26294
819.903	26229
820.043	26153
820.184	26065
820.324	26142
820.465	26195
820.605	26046
820.746	26240
820.886	25993
821.026	25932
821.167	26138
821.307	26100
821.447	26031
821.588	25986
821.728	25864
821.868	25624
822.008	25529
822.149	25468
822.289	25369
822.429	25164
822.569	25110
822.709	25129
822.849	24981
822.99	24928
823.13	24901
823.27	24875
823.41	24783
823.55	24734
823.69	24700
823.83	24760
823.97	24658
824.11	24498
824.25	24578
824.389	24418
824.529	24582
824.669	24722
824.809	24772
824.949	24593
825.089	24620
825.228	24593
825.368	24285
825.508	24422
825.648	24456
825.787	24502
825.927	24601
826.067	24483
826.206	24414
826.346	24464
826.485	24456
826.625	24574
826.765	24574
826.904	24502
827.044	24182
827.183	24110
827.323	24201
827.462	24174
827.601	24171
827.741	24095
827.88	24098
828.02	23904
828.159	24106
828.298	24144
828.437	24247
828.577	24060
828.716	24201
828.855	24034
828.994	23866
829.134	23954
829.273	23870
829.412	23946
829.551	23855
829.69	23779
829.829	23855
829.968	24018
830.107	23908
830.246	23824
830.385	23901
830.524	23703
830.663	23608
830.802	23767
830.941	23486
831.08	23410
831.219	23596
831.357	23695
831.496	23733
831.635	23395
831.774	23261
831.913	23372
832.051	23292
832.19	23258
832.329	23421
832.467	23223
832.606	23136
832.744	23174
832.883	23208
833.022	23185
833.16	23159
833.299	23204
833.437	23269
833.576	23254
833.714	23242
833.852	23269
833.991	23246
834.129	23235
834.267	23311
834.406	23147
834.544	23292
834.682	23250
834.821	23277
834.959	23478
835.097	23147
835.235	23223
835.373	23242
835.511	23098
835.65	23083
835.788	23235
835.926	22972
836.064	22995
836.202	22923
836.34	23048
836.478	23132
836.615	23022
836.753	23067
836.891	23178
837.029	23109
837.167	23079
837.305	23090
837.443	23014
837.58	22930
837.718	22930
837.856	22847
837.993	22934
838.131	22904
838.269	22820
838.406	22759
838.544	22820
838.681	22527
838.819	22588
838.956	22348
839.094	22398
839.231	22443
839.369	22603
839.506	22793
839.643	22592
839.781	22341
839.918	22409
840.055	22390
840.193	22322
840.33	22200
840.467	22394
840.604	22143
840.742	22634
840.879	22204
841.016	22211
841.153	22303
841.29	22466
841.427	22344
841.564	22356
841.701	22310
841.838	22291
841.975	22223
842.112	22284
842.249	22086
842.385	22131
842.522	22352
842.659	22124
842.796	22078
842.933	22048
843.069	22048
843.206	22067
843.343	22177
843.479	22051
843.616	22131
843.752	21876
843.889	21960
844.025	21835
844.162	21968
844.298	21994
844.435	21774
844.571	21762
844.708	21846
844.844	21960
844.98	21956
845.117	22124
845.253	21812
845.389	21739
845.525	21842
845.661	21755
845.798	21599
845.934	21720
846.07	21530
846.206	21717
846.342	21785
846.478	21720
846.614	21454
846.75	21275
846.886	21317
847.022	21397
847.158	21370
847.294	21310
847.429	21351
847.565	21237
847.701	21504
847.837	21047
847.972	21093
848.108	21233
848.244	21112
848.379	21039
848.515	21001
848.65	21058
848.786	20914
848.921	20883
849.057	21108
849.192	20902
849.328	21036
849.463	20929
849.598	20876
849.734	20925
849.869	20872
850.004	20773
850.14	20804
850.275	20781
850.41	20636
850.545	20758
850.68	20655
850.815	20815
850.95	20708
851.085	20861
851.22	20773
851.355	20735
851.49	20705
851.625	20743
851.76	20682
851.895	20625
852.03	20579
852.165	20648
852.299	20674
852.434	20750
852.569	20739
852.703	20773
852.838	20743
852.973	20834
853.107	20792
853.242	20727
853.376	20530
853.511	20415
853.645	20473
853.78	20705
853.914	20670
854.048	20526
854.183	20541
854.317	20507
854.451	20651
854.585	20488
854.72	20503
854.854	20499
854.988	20358
855.122	20533
855.256	20427
855.39	20499
855.524	20636
855.658	20590
855.792	20530
855.926	20495
856.06	20522
856.194	20602
856.327	20484
856.461	20473
856.595	20533
856.729	20549
856.862	20659
856.996	20648
857.13	20644
857.263	20758
857.397	20659
857.53	20465
857.664	20526
857.797	20617
857.931	20708
858.064	20461
858.197	20701
858.331	20545
858.464	20473
858.597	20533
858.731	20431
858.864	20526
858.997	20545
859.13	20537
859.263	20484
859.396	20469
859.529	20480
859.662	20450
859.795	20526
859.928	20503
860.061	20720
860.194	20739
860.327	20644
860.46	20575
860.592	20640
860.725	20568
860.858	20568
860.99	20568
861.123	20457
861.256	20545
861.388	20556
861.521	21348
861.653	20427
861.786	20366
861.918	20461
862.05	20381
862.183	20431
862.315	20507
862.447	20568
862.58	20465
862.712	20244
862.844	20286
862.976	20240
863.108	20271
863.24	20613
863.372	20145
863.504	20172
863.636	20332
863.768	20393
863.9	20271
864.032	20214
864.164	20142
864.296	20161
864.428	20427
864.559	20282
864.691	20336
864.823	20317
864.954	20210
865.086	20206
865.217	20187
865.349	20142
865.48	20161
865.612	20229
865.743	20240
865.875	20138
866.006	20164
866.137	20115
866.269	20122
866.4	20050
866.531	20134
866.662	20065
866.793	20103
866.924	19974
867.055	20107
867.186	20088
867.317	20077
867.448	19978
867.579	20008
867.71	20077
867.841	19967
867.972	20142
868.103	20020
868.233	20046
868.364	20081
868.495	20157
868.625	20366
868.756	20404
868.886	20206
869.017	20336
869.147	20526
869.278	20545
869.408	20381
869.539	20278
869.669	20298
869.799	20404
869.929	20408
870.06	20446
870.19	20609
870.32	20522
870.45	20712
870.58	20712
870.71	20739
870.84	20963
870.97	20693
871.1	20693
871.23	20941
871.36	20914
871.489	20899
871.619	20952
871.749	20861
871.879	20906
872.008	21024
872.138	20876
872.267	20902
872.397	20891
872.526	20762
872.656	20842
872.785	20754
872.915	20967
873.044	21013
873.173	20921
873.303	20994
873.432	20941
873.561	21081
873.69	20994
873.819	20937
873.948	20982
874.077	20937
874.206	20861
874.335	20929
874.464	21096
874.593	21176
874.722	21211
874.851	21264
874.979	21272
875.108	21275
875.237	21245
875.365	21108
875.494	21043
875.623	21256
875.751	21180
875.88	21245
876.008	21264
876.136	21428
876.265	21545
876.393	21720
876.521	21667
876.65	21633
876.778	21618
876.906	21557
877.034	21618
877.162	21610
877.29	21523
877.418	21488
877.546	21663
877.674	21572
877.802	21629
877.93	21492
878.058	21561
878.185	21450
878.313	21439
878.441	21572
878.568	21450
878.696	21401
878.824	21580
878.951	21428
879.079	21827
879.206	21762
879.333	21709
879.461	21652
879.588	21614
879.715	21603
879.842	21739
879.97	21610
880.097	21329
880.224	21397
880.351	21401
880.478	21424
880.605	21348
880.732	21226
880.859	21519
880.986	21401
881.112	21389
881.239	21146
881.366	21100
881.493	21028
881.619	20990
881.746	20956
881.872	20952
881.999	20929
882.125	20921
882.252	21043
882.378	20979
882.505	20990
882.631	20792
882.757	20735
882.883	20746
883.01	20697
883.136	20602
883.262	20499
883.388	20454
883.514	20686
883.64	20625
883.766	20590
883.892	20488
884.018	20514
884.143	20651
884.269	20720
884.395	20347
884.52	20252
884.646	20351
884.772	20248
884.897	20172
885.023	20434
885.148	20412
885.274	20446
885.399	20400
885.524	20290
885.65	20396
885.775	20301
885.9	20309
886.025	20374
886.15	20454
886.275	20240
886.4	20225
886.525	20218
886.65	20119
886.775	20252
886.9	20393
887.025	20549
887.149	20301
887.274	20016
887.399	20035
887.523	20122
887.648	20031
887.773	20073
887.897	20183
888.021	20027
888.146	20024
888.27	20157
888.395	20115
888.519	20195
888.643	20107
888.767	20119
888.891	20073
889.015	19947
889.139	19875
889.263	19921
889.387	19940
889.511	20050
889.635	19989
889.759	19959
889.883	19909
890.006	19833
890.13	19875
890.254	19746
890.377	19811
890.501	19750
890.624	19601
890.748	19712
890.871	19624
890.995	19346
891.118	19487
891.241	19460
891.364	19434
891.488	19563
891.611	19434
891.734	19483
891.857	19578
891.98	19510
892.103	19635
892.226	19388
892.349	19266
892.471	19308
892.594	19506
892.717	19434
892.839	19358
892.962	19449
893.085	19400
893.207	19449
893.33	19240
893.452	19316
893.575	19476
893.697	19350
893.819	19491
893.941	19616
894.064	19594
894.186	19388
894.308	19270
894.43	19514
894.552	19601
894.674	19476
894.796	19289
894.918	19282
895.04	19354
895.161	19540
895.283	19426
895.405	19441
895.526	19308
895.648	19419
895.769	19514
895.891	19491
896.012	19483
896.134	19438
896.255	19529
896.376	19392
896.498	19388
896.619	19327
896.74	19255
896.861	19415
896.982	19628
897.103	19902
897.224	19681
897.345	19704
897.466	19582
897.587	19658
897.708	19658
897.828	19689
897.949	19708
898.07	19453
898.19	19559
898.311	19803
898.431	19457
898.552	19620
898.672	19757
898.792	19761
898.913	19639
899.033	19601
899.153	19453
899.273	19331
899.393	19419
899.513	19369
899.633	19369
899.753	19384
899.873	19491
899.993	19434
900.113	19274
900.232	19324
900.352	19392
900.472	19198
900.591	19217
900.711	19282
900.83	18973
900.95	19221
901.069	19354
901.189	19015
901.308	18825
901.427	18829
901.546	18749
901.665	18779
901.784	18848
901.904	18684
902.023	18681
902.141	18338
902.26	18422
902.379	18433
902.498	18365
902.617	18266
902.735	18304
902.854	18178
902.973	18258
903.091	18079
903.21	18091
903.328	18079
903.446	17942
903.565	17923
903.683	17912
903.801	17714
903.919	17786
904.038	17866
904.156	17554
904.274	17680
904.392	17581
904.51	17490
904.627	17543
904.745	17737
904.863	17646
904.981	17398
905.098	17269
905.216	17250
905.334	17322
905.451	17273
905.569	17239
905.686	17311
905.803	17322
905.921	17124
906.038	17121
906.155	17014
906.272	16987
906.389	17010
906.506	16869
906.623	16858
906.74	16866
906.857	16717
906.974	16759
907.091	16843
907.208	16980
907.324	16793
907.441	16694
907.557	16466
907.674	16478
907.79	16451
907.907	16519
908.023	16634
908.139	16436
908.256	16550
908.372	16535
908.488	16485
908.604	16215
908.72	16238
908.836	16284
908.952	16177
909.068	16223
909.184	16360
909.3	16207
909.415	16238
909.531	16223
909.647	16097
909.762	15968
909.878	15998
909.993	15930
910.108	15899
910.224	15884
910.339	15930
910.454	15899
910.57	15857
910.685	15724
910.8	16002
910.915	15979
911.03	15835
911.145	15671
911.259	15568
911.374	15599
911.489	15595
911.604	15428
911.718	15230
911.833	15348
911.947	15218
912.062	15142
912.176	15336
912.291	15405
912.405	15374
912.519	15439
912.633	15523
912.748	15359
912.862	15291
912.976	15211
913.09	15036
913.204	15070
913.318	15131
913.431	15249
913.545	15291
913.659	15184
913.772	15085
913.886	15001
914	14971
914.113	15013
914.226	15051
914.34	15020
914.453	14842
914.566	14952
914.68	14883
914.793	14887
914.906	14678
915.019	14541
915.132	14541
915.245	14556
915.358	14583
915.47	14549
915.583	14590
915.696	14716
915.809	14777
915.921	14708
916.034	14503
916.146	14499
916.259	14476
916.371	14545
916.483	14537
916.595	14339
916.708	14431
916.82	14381
916.932	14412
917.044	14446
917.156	14339
917.268	14210
917.38	14248
917.491	14267
917.603	14278
917.715	14374
917.826	14301
917.938	14111
918.049	14195
918.161	14161
918.272	14377
918.384	14358
918.495	14214
918.606	14130
918.717	13993
918.828	13986
918.939	14035
919.05	13978
919.161	14016
919.272	13803
919.383	13932
919.494	14020
919.604	14218
919.715	14050
919.826	13955
919.936	14035
920.047	14065
920.157	13940
920.267	14252
920.378	13993
920.488	13947
920.598	14180
920.708	14313
920.818	14294
920.928	14084
921.038	14313
921.148	14237
921.258	13989
921.368	13860
921.477	13795
921.587	13651
921.697	13655
921.806	13753
921.916	13613
922.025	13457
922.134	13392
922.244	13312
922.353	13400
922.462	13324
922.571	13274
922.68	13110
922.789	13076
922.898	13076
923.007	13008
923.116	13103
923.224	13015
923.333	12962
923.442	12882
923.55	12897
923.659	12848
923.767	12954
923.876	12905
923.984	12935
924.092	12867
924.201	12859
924.309	12875
924.417	12802
924.525	12798
924.633	12734
924.741	13567
924.849	12509
924.956	12631
925.064	12528
925.172	12426
925.279	12456
925.387	12582
925.494	12532
925.602	12639
925.709	12574
925.816	12433
925.924	12395
926.031	12631
926.138	12346
926.245	12464
926.352	12338
926.459	12646
926.566	12502
926.673	12460
926.779	12289
926.886	12243
926.993	12194
927.099	12068
927.206	12068
927.312	12068
927.419	12144
927.525	12087
927.631	12144
927.737	11973
927.843	11912
927.95	11802
928.056	11946
928.162	11908
928.267	11912
928.373	12456
928.479	11859
928.585	11733
928.69	11908
928.796	11882
928.901	11809
929.007	11638
929.112	11794
929.218	11642
929.323	11596
929.428	11676
929.533	11840
929.638	11524
929.743	11490
929.848	11638
929.953	11551
930.058	11512
930.163	11307
930.267	11360
930.372	11501
930.477	11353
930.581	11463
930.685	11376
930.79	11246
930.894	11349
930.998	11178
931.103	11307
931.207	11056
931.311	10911
931.415	10839
931.519	10679
931.623	10702
