Data from test_V78500241_1919.txt Node
Date: Fri Mar 25 15:23:13 CST 2022
User: usil
Spectrometer: V785-0024
Trigger mode: 0
Integration Time (sec): 4.000000E-1
Scans to average: 1
Nonlinearity correction enabled: false
Boxcar width: 0
Storing dark spectrum: false
XAxis mode: Wavelengths
Number of Pixels in Spectrum: 1024
>>>>>Begin Spectral Data<<<<<
801.071	27671
801.214	27720
801.356	27420
801.499	27367
801.641	27313
801.783	27268
801.926	27382
802.068	27401
802.211	27264
802.353	27161
802.496	27104
802.638	26937
802.78	26975
802.923	26777
803.065	26883
803.208	26670
803.35	26952
803.492	27081
803.635	26975
803.777	26883
803.919	27058
804.061	27329
804.204	27104
804.346	26956
804.488	26940
804.63	27058
804.773	27055
804.915	27093
805.057	27131
805.199	26979
805.341	27173
805.483	27249
805.626	27157
805.768	27085
805.91	27116
806.052	27184
806.194	27131
806.336	27378
806.478	27329
806.62	27176
806.762	27340
806.904	27351
807.046	27724
807.188	27652
807.33	27564
807.472	27808
807.614	27416
807.756	27625
807.898	27580
808.04	27462
808.182	27511
808.324	27374
808.465	27614
808.607	27671
808.749	27793
808.891	27827
809.033	27842
809.174	27869
809.316	27835
809.458	27789
809.6	27861
809.741	27876
809.883	27873
810.025	28032
810.166	28025
810.308	28032
810.45	28013
810.591	27945
810.733	27778
810.875	27724
811.016	27526
811.158	27644
811.299	27884
811.441	27755
811.582	27888
811.724	27846
811.865	27865
812.007	27804
812.148	27652
812.29	27652
812.431	27922
812.573	28147
812.714	28295
812.855	28394
812.997	28523
813.138	28489
813.279	28375
813.421	28261
813.562	28219
813.703	28150
813.845	27937
813.986	27800
814.127	27724
814.268	27374
814.41	27485
814.551	27473
814.692	27397
814.833	27408
814.974	27412
815.115	27431
815.256	27283
815.397	27389
815.539	27321
815.68	27233
815.821	27211
815.962	27241
816.103	27184
816.244	27100
816.385	27009
816.526	27096
816.666	26971
816.807	26693
816.948	26883
817.089	26868
817.23	26868
817.371	26727
817.512	26705
817.653	26830
817.793	26609
817.934	26758
818.075	26731
818.216	26727
818.356	26979
818.497	26609
818.638	26590
818.778	26488
818.919	26659
819.06	26404
819.2	26758
819.341	26712
819.481	26823
819.622	26861
819.762	26963
819.903	27036
820.043	26842
820.184	26830
820.324	26872
820.465	26933
820.605	26929
820.746	26773
820.886	26648
821.026	26842
821.167	26861
821.307	26830
821.447	26849
821.588	26609
821.728	26476
821.868	26423
822.008	26370
822.149	26176
822.289	26145
822.429	25993
822.569	25852
822.709	25898
822.849	25776
822.99	25734
823.13	25723
823.27	25799
823.41	25460
823.55	25419
823.69	25632
823.83	25464
823.97	25464
824.11	25419
824.25	25453
824.389	25400
824.529	25354
824.669	25460
824.809	25468
824.949	25468
825.089	25388
825.228	25384
825.368	25187
825.508	25232
825.648	25213
825.787	25259
825.927	25297
826.067	25065
826.206	25225
826.346	25251
826.485	25240
826.625	25244
826.765	25407
826.904	25297
827.044	24996
827.183	24996
827.323	24943
827.462	25053
827.601	24996
827.741	24989
827.88	25000
828.02	24863
828.159	24871
828.298	25012
828.437	25004
828.577	24939
828.716	24882
828.855	24856
828.994	24711
829.134	24745
829.273	24692
829.412	24719
829.551	24525
829.69	24696
829.829	24681
829.968	24711
830.107	24798
830.246	24639
830.385	24650
830.524	24517
830.663	24525
830.802	24300
830.941	24471
831.08	24213
831.219	24433
831.357	24441
831.496	24517
831.635	24285
831.774	24315
831.913	24098
832.051	24079
832.19	23992
832.329	24102
832.467	23893
832.606	23980
832.744	23961
832.883	23980
833.022	23965
833.16	23946
833.299	24053
833.437	23923
833.576	23977
833.714	24064
833.852	24053
833.991	23950
834.129	24072
834.267	24064
834.406	24098
834.544	24136
834.682	24057
834.821	23935
834.959	24110
835.097	24095
835.235	23984
835.373	24079
835.511	23977
835.65	23893
835.788	23958
835.926	23657
836.064	23661
836.202	23767
836.34	23836
836.478	24030
836.615	23870
836.753	23897
836.891	23999
837.029	23866
837.167	23665
837.305	23798
837.443	23707
837.58	23570
837.718	23878
837.856	23668
837.993	23737
838.131	23627
838.269	23589
838.406	23710
838.544	23566
838.681	23425
838.819	23349
838.956	23250
839.094	23227
839.231	23273
839.369	23395
839.506	23539
839.643	23436
839.781	23242
839.918	23067
840.055	23296
840.193	23025
840.33	23067
840.467	23193
840.604	23193
840.742	23379
840.879	22942
841.016	23094
841.153	23113
841.29	23280
841.427	23113
841.564	23227
841.701	23105
841.838	23014
841.975	23003
842.112	22995
842.249	22866
842.385	22976
842.522	23113
842.659	22949
842.796	22908
842.933	22873
843.069	22729
843.206	22889
843.343	22980
843.479	22968
843.616	22866
843.752	22725
843.889	22721
844.025	22744
844.162	22573
844.298	22797
844.435	22611
844.571	22656
844.708	22679
844.844	22854
844.98	22797
845.117	22691
845.253	22554
845.389	22512
845.525	22531
845.661	22352
845.798	22428
845.934	22504
846.07	22371
846.206	22455
846.342	22538
846.478	22405
846.614	22078
846.75	22120
846.886	22032
847.022	22207
847.158	22211
847.294	22215
847.429	22082
847.565	22188
847.701	22360
847.837	21945
847.972	21835
848.108	21987
848.244	21918
848.379	21759
848.515	21713
848.65	21660
848.786	21701
848.921	21751
849.057	21873
849.192	21762
849.328	21690
849.463	21724
849.598	21743
849.734	21682
849.869	21568
850.004	21397
850.14	21378
850.275	21443
850.41	21329
850.545	21336
850.68	21485
850.815	21389
850.95	21435
851.085	21720
851.22	21641
851.355	21507
851.49	21488
851.625	21393
851.76	21340
851.895	21340
852.03	21435
852.165	21462
852.299	21583
852.434	21549
852.569	21431
852.703	21534
852.838	21458
852.973	21561
853.107	21606
853.242	21393
853.376	21264
853.511	21275
853.645	21119
853.78	21344
853.914	21237
854.048	21306
854.183	21268
854.317	21351
854.451	21477
854.585	21241
854.72	21397
854.854	21397
854.988	21275
855.122	21405
855.256	21123
855.39	21161
855.524	21355
855.658	21313
855.792	21268
855.926	21485
856.06	21359
856.194	21344
856.327	21294
856.461	21203
856.595	21310
856.729	21165
856.862	21348
856.996	21283
857.13	21321
857.263	21428
857.397	21397
857.53	21340
857.664	21382
857.797	21496
857.931	21447
858.064	21317
858.197	21492
858.331	21428
858.464	21275
858.597	21207
858.731	21184
858.864	21142
858.997	21203
859.13	21268
859.263	21298
859.396	21310
859.529	21291
859.662	21317
859.795	21226
859.928	21298
860.061	21485
860.194	21545
860.327	21336
860.46	21264
860.592	21466
860.725	21416
860.858	21424
860.99	21207
861.123	21272
861.256	21230
861.388	21199
861.521	21987
861.653	21112
861.786	21047
861.918	21199
862.05	21154
862.183	21188
862.315	21169
862.447	21283
862.58	21157
862.712	21032
862.844	21009
862.976	21119
863.108	20925
863.24	21507
863.372	20948
863.504	21135
863.636	20971
863.768	21047
863.9	20921
864.032	20941
864.164	20921
864.296	20914
864.428	21024
864.559	21089
864.691	21032
864.823	20834
864.954	20979
865.086	21058
865.217	20826
865.349	20834
865.48	20887
865.612	20872
865.743	20998
865.875	20956
866.006	20933
866.137	21085
866.269	20952
866.4	20914
866.531	20750
866.662	20758
866.793	20796
866.924	20902
867.055	20891
867.186	20743
867.317	20716
867.448	20815
867.579	20830
867.71	20785
867.841	20762
867.972	20800
868.103	20788
868.233	20891
868.364	20819
868.495	20838
868.625	21055
868.756	21096
868.886	20960
869.017	21009
869.147	21055
869.278	21142
869.408	21093
869.539	21169
869.669	21287
869.799	20971
869.929	21211
870.06	21062
870.19	21336
870.32	21344
870.45	21325
870.58	21447
870.71	21599
870.84	21511
870.97	21507
871.1	21466
871.23	21622
871.36	21568
871.489	21576
871.619	21568
871.749	21671
871.879	21717
872.008	21572
872.138	21709
872.267	21595
872.397	21515
872.526	21549
872.656	21443
872.785	21363
872.915	21785
873.044	21732
873.173	21774
873.303	21751
873.432	21785
873.561	21831
873.69	21736
873.819	21629
873.948	21732
874.077	21717
874.206	21648
874.335	21728
874.464	21751
874.593	21975
874.722	21922
874.851	21922
874.979	21857
875.108	21949
875.237	21755
875.365	21846
875.494	21911
875.623	21987
875.751	21804
875.88	22002
876.008	21918
876.136	22185
876.265	22306
876.393	22344
876.521	22470
876.65	22443
876.778	22287
876.906	22272
877.034	22185
877.162	22344
877.29	22124
877.418	22093
877.546	22291
877.674	22268
877.802	22249
877.93	22363
878.058	22143
878.185	22150
878.313	22223
878.441	22196
878.568	22120
878.696	22253
878.824	22344
878.951	22265
879.079	22466
879.206	22497
879.333	22440
879.461	22306
879.588	22246
879.715	22333
879.842	22451
879.97	22382
880.097	22006
880.224	22051
880.351	22025
880.478	22006
880.605	22048
880.732	22017
880.859	22253
880.986	22162
881.112	22112
881.239	22002
881.366	21793
881.493	21869
881.619	21682
881.746	21663
881.872	21686
881.999	21564
882.125	21519
882.252	21656
882.378	21675
882.505	21789
882.631	21530
882.757	21291
882.883	21420
883.01	21264
883.136	21230
883.262	21287
883.388	21192
883.514	21332
883.64	21389
883.766	21351
883.892	21070
884.018	21279
884.143	21199
884.269	21447
884.395	21085
884.52	20994
884.646	21116
884.772	20960
884.897	20826
885.023	21020
885.148	21199
885.274	21058
885.399	21074
885.524	21009
885.65	21047
885.775	21047
885.9	20994
886.025	21199
886.15	21066
886.275	20929
886.4	20880
886.525	20975
886.65	20937
886.775	20910
886.9	21173
887.025	21154
887.149	20941
887.274	20796
887.399	20758
887.523	20735
887.648	20705
887.773	20727
887.897	20773
888.021	20826
888.146	20754
888.27	20906
888.395	20758
888.519	20823
888.643	20804
888.767	20705
888.891	20632
889.015	20545
889.139	20571
889.263	20518
889.387	20667
889.511	20823
889.635	20594
889.759	20651
889.883	20568
890.006	20727
890.13	20560
890.254	20492
890.377	20423
890.501	20202
890.624	20244
890.748	20237
890.871	20244
890.995	20145
891.118	20081
891.241	20256
891.364	20130
891.488	20263
891.611	20084
891.734	20263
891.857	20195
891.98	20286
892.103	20073
892.226	20267
892.349	20039
892.471	19868
892.594	19974
892.717	20073
892.839	20111
892.962	20092
893.085	20119
893.207	20035
893.33	19909
893.452	19898
893.575	20122
893.697	19982
893.819	20130
893.941	20119
894.064	20119
894.186	20043
894.308	19967
894.43	20168
894.552	20134
894.674	20016
894.796	19986
894.918	20115
895.04	20020
895.161	20096
895.283	20119
895.405	19955
895.526	19982
895.648	19993
895.769	20031
895.891	19989
896.012	20069
896.134	20058
896.255	20065
896.376	20035
896.498	19997
896.619	20043
896.74	20149
896.861	20054
896.982	20351
897.103	20381
897.224	20324
897.345	20237
897.466	20248
897.587	20157
897.708	20374
897.828	20237
897.949	20218
898.07	20138
898.19	20195
898.311	20290
898.431	20301
898.552	20225
898.672	20301
898.792	20366
898.913	20286
899.033	20092
899.153	20157
899.273	19955
899.393	19982
899.513	20024
899.633	19989
899.753	20031
899.873	19974
899.993	19986
900.113	19982
900.232	19967
900.352	19868
900.472	19841
900.591	19685
900.711	19811
900.83	19632
900.95	19871
901.069	19837
901.189	19635
901.308	19422
901.427	19346
901.546	19358
901.665	19403
901.784	19438
901.904	19308
902.023	19206
902.141	18878
902.26	18901
902.379	19034
902.498	18897
902.617	19012
902.735	18909
902.854	18871
902.973	18791
903.091	18570
903.21	18528
903.328	18585
903.446	18429
903.565	18414
903.683	18391
903.801	18129
903.919	18243
904.038	18251
904.156	18045
904.274	18262
904.392	18034
904.51	18072
904.627	18129
904.745	17969
904.863	18167
904.981	17901
905.098	17760
905.216	17756
905.334	17855
905.451	17832
905.569	17790
905.686	17710
905.803	17802
905.921	17520
906.038	17733
906.155	17570
906.272	17501
906.389	17467
906.506	17311
906.623	17395
906.74	17429
906.857	17288
906.974	17189
907.091	17410
907.208	17452
907.324	17326
907.441	17299
907.557	17003
907.674	17128
907.79	16991
907.907	16984
908.023	17086
908.139	17102
908.256	16999
908.372	16953
908.488	16919
908.604	16854
908.72	16736
908.836	16896
908.952	16706
909.068	16850
909.184	16797
909.3	16782
909.415	16752
909.531	16805
909.647	16565
909.762	16599
909.878	16504
909.993	16466
910.108	16474
910.224	16344
910.339	16512
910.454	16329
910.57	16291
910.685	16325
910.8	16485
910.915	16409
911.03	16329
911.145	16162
911.259	16093
911.374	16051
911.489	15937
911.604	15949
911.718	15827
911.833	15842
911.947	15739
912.062	15690
912.176	15762
912.291	15747
912.405	15812
912.519	15918
912.633	15934
912.748	15880
912.862	15663
912.976	15580
913.09	15511
913.204	15622
913.318	15584
913.431	15728
913.545	15778
913.659	15629
913.772	15648
913.886	15466
914	15412
914.113	15572
914.226	15603
914.34	15485
914.453	15378
914.566	15450
914.68	15325
914.793	15245
914.906	15093
915.019	14944
915.132	15028
915.245	14998
915.358	15127
915.47	15085
915.583	15077
915.696	15070
915.809	15123
915.921	15157
916.034	15024
916.146	15013
916.259	14807
916.371	15081
916.483	15043
916.595	14716
916.708	14849
916.82	14792
916.932	14838
917.044	14834
917.156	14785
917.268	14621
917.38	14686
917.491	14655
917.603	14705
917.715	14743
917.826	14727
917.938	14636
918.049	14579
918.161	14678
918.272	14807
918.384	14716
918.495	14613
918.606	14488
918.717	14336
918.828	14476
918.939	14488
919.05	14404
919.161	14473
919.272	14229
919.383	14396
919.494	14484
919.604	14705
919.715	14370
919.826	14317
919.936	14461
920.047	14457
920.157	14427
920.267	14598
920.378	14442
920.488	14362
920.598	14511
920.708	14823
920.818	14503
920.928	14541
921.038	14762
921.148	14712
921.258	14324
921.368	14263
921.477	14225
921.587	14123
921.697	14107
921.806	14088
921.916	13928
922.025	13894
922.134	13818
922.244	13734
922.353	13753
922.462	13666
922.571	13582
922.68	13491
922.789	13464
922.898	13434
923.007	13453
923.116	13422
923.224	13464
923.333	13434
923.442	13297
923.55	13297
923.659	13259
923.767	13358
923.876	13263
923.984	13396
924.092	13141
924.201	13175
924.309	13179
924.417	13232
924.525	13088
924.633	13027
924.741	13967
924.849	12970
924.956	13046
925.064	12886
925.172	12768
925.279	12825
925.387	12859
925.494	12878
925.602	12985
925.709	12886
925.816	12700
925.924	12829
926.031	12886
926.138	12848
926.245	12856
926.352	12631
926.459	12787
926.566	12897
926.673	12757
926.779	12654
926.886	12627
926.993	12441
927.099	12380
927.206	12353
927.312	12319
927.419	12494
927.525	12494
927.631	12372
927.737	12369
927.843	12273
927.95	12114
928.056	12262
928.162	12292
928.267	12247
928.373	12806
928.479	12334
928.585	12091
928.69	12209
928.796	12292
928.901	12110
929.007	11946
929.112	12152
929.218	12091
929.323	12038
929.428	11984
929.533	12011
929.638	11916
929.743	11920
929.848	11942
929.953	11973
930.058	11771
930.163	11688
930.267	11672
930.372	11817
930.477	11649
930.581	11916
930.685	11718
930.79	11493
930.894	11535
930.998	11554
931.103	11703
931.207	11402
931.311	11235
931.415	11094
931.519	10957
931.623	10968
