Data from test_V78500241_3328.txt Node
Date: Fri Mar 25 15:33:02 CST 2022
User: usil
Spectrometer: V785-0024
Trigger mode: 0
Integration Time (sec): 4.000000E-1
Scans to average: 1
Nonlinearity correction enabled: false
Boxcar width: 0
Storing dark spectrum: false
XAxis mode: Wavelengths
Number of Pixels in Spectrum: 1024
>>>>>Begin Spectral Data<<<<<
801.071	27367
801.214	27268
801.356	27005
801.499	26986
801.641	26876
801.783	26952
801.926	26899
802.068	26906
802.211	26796
802.353	26910
802.496	26511
802.638	26499
802.78	26537
802.923	26324
803.065	26530
803.208	26396
803.35	26484
803.492	26701
803.635	26640
803.777	26400
803.919	26598
804.061	26971
804.204	26765
804.346	26621
804.488	26526
804.63	26655
804.773	26461
804.915	26670
805.057	26705
805.199	26678
805.341	26720
805.483	26826
805.626	26701
805.768	26697
805.91	26765
806.052	26758
806.194	26670
806.336	26929
806.478	26720
806.62	26720
806.762	26826
806.904	27017
807.046	27157
807.188	27081
807.33	27062
807.472	27279
807.614	27142
807.756	27199
807.898	27074
808.04	26921
808.182	26967
808.324	26963
808.465	27055
808.607	27260
808.749	27363
808.891	27515
809.033	27496
809.174	27458
809.316	27310
809.458	27389
809.6	27420
809.741	27272
809.883	27450
810.025	27534
810.166	27583
810.308	27595
810.45	27587
810.591	27587
810.733	27583
810.875	27279
811.016	27283
811.158	27298
811.299	27481
811.441	27515
811.582	27511
811.724	27363
811.865	27332
812.007	27199
812.148	27367
812.29	27306
812.431	27534
812.573	27728
812.714	27789
812.855	27743
812.997	27899
813.138	28169
813.279	27888
813.421	27941
813.562	27789
813.703	27690
813.845	27701
813.986	27325
814.127	27108
814.268	27047
814.41	27028
814.551	26952
814.692	27032
814.833	27009
814.974	26986
815.115	26994
815.256	26891
815.397	26777
815.539	26830
815.68	26804
815.821	26686
815.962	26925
816.103	26727
816.244	26655
816.385	26495
816.526	26492
816.666	26393
816.807	26183
816.948	26206
817.089	26370
817.23	26225
817.371	26294
817.512	26267
817.653	26225
817.793	26088
817.934	26309
818.075	26317
818.216	26275
818.356	26229
818.497	26180
818.638	25925
818.778	26058
818.919	25917
819.06	26077
819.2	25959
819.341	26305
819.481	26412
819.622	26309
819.762	26636
819.903	26457
820.043	26488
820.184	26142
820.324	26362
820.465	26480
820.605	26374
820.746	26351
820.886	26271
821.026	26263
821.167	26294
821.307	26415
821.447	26153
821.588	26210
821.728	26005
821.868	25883
822.008	25757
822.149	25655
822.289	25643
822.429	25434
822.569	25419
822.709	25453
822.849	25168
822.99	25266
823.13	25217
823.27	25175
823.41	25072
823.55	24947
823.69	24970
823.83	25133
823.97	25053
824.11	24905
824.25	24966
824.389	24932
824.529	24890
824.669	24833
824.809	25031
824.949	25000
825.089	24954
825.228	24920
825.368	24677
825.508	24753
825.648	24696
825.787	24738
825.927	24760
826.067	24688
826.206	24665
826.346	24715
826.485	24741
826.625	24722
826.765	24814
826.904	24738
827.044	24566
827.183	24483
827.323	24441
827.462	24494
827.601	24380
827.741	24216
827.88	24582
828.02	24327
828.159	24441
828.298	24376
828.437	24388
828.577	24376
828.716	24570
828.855	24308
828.994	24087
829.134	24213
829.273	24144
829.412	24060
829.551	24121
829.69	24098
829.829	24182
829.968	24273
830.107	24224
830.246	24121
830.385	24144
830.524	24121
830.663	23950
830.802	23855
830.941	23882
831.08	23737
831.219	23840
831.357	23828
831.496	24064
831.635	23828
831.774	23611
831.913	23627
832.051	23539
832.19	23528
832.329	23554
832.467	23467
832.606	23360
832.744	23425
832.883	23551
833.022	23421
833.16	23585
833.299	23551
833.437	23566
833.576	23600
833.714	23505
833.852	23501
833.991	23528
834.129	23703
834.267	23627
834.406	23505
834.544	23535
834.682	23562
834.821	23630
834.959	23653
835.097	23493
835.235	23596
835.373	23395
835.511	23524
835.65	23452
835.788	23440
835.926	23315
836.064	23307
836.202	23185
836.34	23379
836.478	23421
836.615	23322
836.753	23402
836.891	23311
837.029	23471
837.167	23296
837.305	23398
837.443	23261
837.58	23200
837.718	23197
837.856	23273
837.993	23166
838.131	23280
838.269	23140
838.406	23121
838.544	23033
838.681	22839
838.819	22812
838.956	22630
839.094	22744
839.231	22763
839.369	22934
839.506	23044
839.643	22942
839.781	22645
839.918	22736
840.055	22653
840.193	22759
840.33	22584
840.467	22668
840.604	22664
840.742	22885
840.879	22557
841.016	22622
841.153	22546
841.29	22843
841.427	22630
841.564	22752
841.701	22615
841.838	22611
841.975	22565
842.112	22664
842.249	22580
842.385	22428
842.522	22683
842.659	22497
842.796	22367
842.933	22394
843.069	22379
843.206	22280
843.343	22421
843.479	22394
843.616	22466
843.752	22109
843.889	22291
844.025	22272
844.162	22215
844.298	22173
844.435	22253
844.571	22166
844.708	22143
844.844	22329
844.98	22299
845.117	22253
845.253	22173
845.389	22090
845.525	22032
845.661	22029
845.798	21975
845.934	21972
846.07	21835
846.206	21964
846.342	22135
846.478	21812
846.614	21709
846.75	21701
846.886	21686
847.022	21831
847.158	21629
847.294	21648
847.429	21671
847.565	21682
847.701	21880
847.837	21405
847.972	21431
848.108	21496
848.244	21447
848.379	21233
848.515	21283
848.65	21306
848.786	21245
848.921	21310
849.057	21401
849.192	21279
849.328	21249
849.463	21294
849.598	21173
849.734	21154
849.869	21020
850.004	21028
850.14	21112
850.275	21051
850.41	20952
850.545	20781
850.68	21074
850.815	21093
850.95	21024
851.085	21302
851.22	21112
851.355	20910
851.49	20990
851.625	20998
851.76	21009
851.895	20819
852.03	20982
852.165	21127
852.299	21089
852.434	21032
852.569	20990
852.703	21085
852.838	21043
852.973	21176
853.107	21138
853.242	21009
853.376	20845
853.511	20712
853.645	20815
853.78	20963
853.914	20902
854.048	20731
854.183	20804
854.317	20845
854.451	21032
854.585	20853
854.72	20819
854.854	20929
854.988	20773
855.122	20781
855.256	20861
855.39	20830
855.524	20834
855.658	20792
855.792	20853
855.926	20876
856.06	20891
856.194	20857
856.327	20921
856.461	20777
856.595	20792
856.729	20804
856.862	21024
856.996	20838
857.13	20868
857.263	20819
857.397	20891
857.53	20697
857.664	20918
857.797	20876
857.931	20952
858.064	20918
858.197	20899
858.331	20918
858.464	20849
858.597	20701
858.731	20853
858.864	20899
858.997	20861
859.13	20853
859.263	20750
859.396	20956
859.529	20861
859.662	20842
859.795	20739
859.928	20838
860.061	20925
860.194	21013
860.327	20918
860.46	20929
860.592	20960
860.725	20967
860.858	20910
860.99	20819
861.123	20845
861.256	20765
861.388	20853
861.521	21496
861.653	20594
861.786	20598
861.918	20655
862.05	20682
862.183	20705
862.315	20781
862.447	20735
862.58	20724
862.712	20530
862.844	20503
862.976	20602
863.108	20583
863.24	21005
863.372	20571
863.504	20625
863.636	20492
863.768	20621
863.9	20537
864.032	20594
864.164	20560
864.296	20438
864.428	20659
864.559	20659
864.691	20545
864.823	20533
864.954	20415
865.086	20564
865.217	20537
865.349	20313
865.48	20526
865.612	20442
865.743	20522
865.875	20488
866.006	20362
866.137	20408
866.269	20469
866.4	20415
866.531	20469
866.662	20366
866.793	20499
866.924	20393
867.055	20488
867.186	20408
867.317	20427
867.448	20351
867.579	20366
867.71	20240
867.841	20294
867.972	20408
868.103	20355
868.233	20301
868.364	20305
868.495	20473
868.625	20689
868.756	20720
868.886	20625
869.017	20705
869.147	20724
869.278	20735
869.408	20625
869.539	20522
869.669	20609
869.799	20686
869.929	20838
870.06	20773
870.19	20899
870.32	20994
870.45	20948
870.58	21104
870.71	21176
870.84	21226
870.97	21100
871.1	21058
871.23	21176
871.36	21218
871.489	21070
871.619	21226
871.749	21310
871.879	21283
872.008	21279
872.138	21245
872.267	21329
872.397	21161
872.526	21074
872.656	21024
872.785	21055
872.915	21230
873.044	21310
873.173	21389
873.303	21260
873.432	21260
873.561	21340
873.69	21264
873.819	21135
873.948	21450
874.077	21313
874.206	21306
874.335	21249
874.464	21397
874.593	21633
874.722	21405
874.851	21492
874.979	21511
875.108	21553
875.237	21454
875.365	21386
875.494	21504
875.623	21633
875.751	21363
875.88	21549
876.008	21660
876.136	21698
876.265	21869
876.393	21991
876.521	21960
876.65	22112
876.778	21972
876.906	21804
877.034	21869
877.162	21876
877.29	21759
877.418	21873
877.546	21869
877.674	21892
877.802	21831
877.93	21865
878.058	21679
878.185	21736
878.313	21785
878.441	21922
878.568	21709
878.696	21778
878.824	21793
878.951	21994
879.079	21994
879.206	22150
879.333	21975
879.461	21945
879.588	22025
879.715	22082
879.842	22105
879.97	22021
880.097	21850
880.224	21759
880.351	21694
880.478	21705
880.605	21762
880.732	21652
880.859	21888
880.986	21709
881.112	21739
881.239	21496
881.366	21507
881.493	21378
881.619	21355
881.746	21298
881.872	21264
881.999	21264
882.125	21302
882.252	21351
882.378	21302
882.505	21313
882.631	21093
882.757	21001
882.883	21005
883.01	21043
883.136	20902
883.262	20746
883.388	20830
883.514	20895
883.64	21119
883.766	20956
883.892	20769
884.018	20811
884.143	20857
884.269	20998
884.395	20663
884.52	20590
884.646	20571
884.772	20526
884.897	20454
885.023	20663
885.148	20769
885.274	20724
885.399	20670
885.524	20655
885.65	20609
885.775	20659
885.9	20579
886.025	20792
886.15	20598
886.275	20560
886.4	20530
886.525	20579
886.65	20507
886.775	20568
886.9	20648
887.025	20781
887.149	20594
887.274	20530
887.399	20408
887.523	20393
887.648	20343
887.773	20229
887.897	20431
888.021	20518
888.146	20328
888.27	20499
888.395	20549
888.519	20336
888.643	20328
888.767	20522
888.891	20278
889.015	20195
889.139	20301
889.263	20187
889.387	20233
889.511	20366
889.635	20332
889.759	20214
889.883	20161
890.006	20240
890.13	20172
890.254	20145
890.377	20180
890.501	19974
890.624	19875
890.748	19982
890.871	19875
890.995	19715
891.118	19662
891.241	19753
891.364	19795
891.488	19864
891.611	19856
891.734	19734
891.857	19868
891.98	19887
892.103	19814
892.226	19658
892.349	19799
892.471	19586
892.594	19753
892.717	19742
892.839	19605
892.962	19700
893.085	19727
893.207	19685
893.33	19605
893.452	19495
893.575	19666
893.697	19715
893.819	19784
893.941	19837
894.064	19818
894.186	19731
894.308	19658
894.43	19712
894.552	19811
894.674	19738
894.796	19628
894.918	19643
895.04	19666
895.161	19765
895.283	19719
895.405	19723
895.526	19635
895.648	19651
895.769	19662
895.891	19651
896.012	19772
896.134	19742
896.255	19693
896.376	19700
896.498	19700
896.619	19734
896.74	19704
896.861	19723
896.982	20020
897.103	20126
897.224	20103
897.345	19917
897.466	19852
897.587	19997
897.708	20012
897.828	19986
897.949	19883
898.07	19685
898.19	19913
898.311	19959
898.431	19841
898.552	20001
898.672	19921
898.792	19906
898.913	19864
899.033	19822
899.153	19666
899.273	19563
899.393	19734
899.513	19651
899.633	19620
899.753	19651
899.873	19537
899.993	19605
900.113	19696
900.232	19704
900.352	19563
900.472	19510
900.591	19381
900.711	19499
900.83	19358
900.95	19449
901.069	19544
901.189	19316
901.308	19168
901.427	19129
901.546	19103
901.665	19088
901.784	19084
901.904	18909
902.023	18802
902.141	18692
902.26	18665
902.379	18642
902.498	18589
902.617	18513
902.735	18528
902.854	18483
902.973	18494
903.091	18254
903.21	18380
903.328	18201
903.446	18114
903.565	17969
903.683	18007
903.801	17939
903.919	17950
904.038	17939
904.156	17897
904.274	17931
904.392	17923
904.51	17798
904.627	17794
904.745	17961
904.863	17878
904.981	17623
905.098	17558
905.216	17573
905.334	17535
905.451	17524
905.569	17558
905.686	17577
905.803	17520
905.921	17417
906.038	17383
906.155	17303
906.272	17162
906.389	17140
906.506	17090
906.623	17220
906.74	17010
906.857	17006
906.974	16949
907.091	17117
907.208	17090
907.324	17052
907.441	16984
907.557	16820
907.674	16729
907.79	16713
907.907	16858
908.023	16850
908.139	16809
908.256	16755
908.372	16630
908.488	16599
908.604	16573
908.72	16443
908.836	16561
908.952	16504
909.068	16462
909.184	16611
909.3	16500
909.415	16398
909.531	16493
909.647	16257
909.762	16249
909.878	16230
909.993	16086
910.108	16097
910.224	16086
910.339	16105
910.454	15953
910.57	16013
910.685	16032
910.8	16192
910.915	16082
911.03	16093
911.145	15880
911.259	15850
911.374	15835
911.489	15739
911.604	15717
911.718	15538
911.833	15591
911.947	15477
912.062	15424
912.176	15462
912.291	15599
912.405	15690
912.519	15713
912.633	15762
912.748	15572
912.862	15580
912.976	15389
913.09	15348
913.204	15344
913.318	15363
913.431	15504
913.545	15439
913.659	15538
913.772	15428
913.886	15192
914	15195
914.113	15169
914.226	15291
914.34	15302
914.453	15097
914.566	15294
914.68	15104
914.793	15066
914.906	14891
915.019	14716
915.132	14785
915.245	14785
915.358	14785
915.47	14819
915.583	14777
915.696	14724
915.809	15028
915.921	14933
916.034	14708
916.146	14689
916.259	14712
916.371	14743
916.483	14754
916.595	14674
916.708	14636
916.82	14648
916.932	14594
917.044	14651
917.156	14541
917.268	14575
917.38	14514
917.491	14549
917.603	14412
917.715	14347
917.826	14522
917.938	14469
918.049	14301
918.161	14469
918.272	14537
918.384	14514
918.495	14442
918.606	14339
918.717	14149
918.828	14149
918.939	14355
919.05	14183
919.161	14275
919.272	14027
919.383	14043
919.494	14309
919.604	14461
919.715	14202
919.826	14191
919.936	14134
920.047	14320
920.157	14187
920.267	14332
920.378	14229
920.488	14214
920.598	14400
920.708	14537
920.818	14396
920.928	14370
921.038	14530
921.148	14454
921.258	14123
921.368	14149
921.477	13917
921.587	13902
921.697	13807
921.806	13951
921.916	13875
922.025	13605
922.134	13658
922.244	13548
922.353	13712
922.462	13582
922.571	13449
922.68	13293
922.789	13278
922.898	13278
923.007	13236
923.116	13228
923.224	13175
923.333	13251
923.442	13038
923.55	13187
923.659	13034
923.767	13069
923.876	13072
923.984	13088
924.092	13023
924.201	12958
924.309	12905
924.417	13072
924.525	12894
924.633	12856
924.741	13883
924.849	12700
924.956	12783
925.064	12715
925.172	12593
925.279	12669
925.387	12730
925.494	12753
925.602	12783
925.709	12840
925.816	12494
925.924	12662
926.031	12715
926.138	12646
926.245	12642
926.352	12597
926.459	12696
926.566	12703
926.673	12582
926.779	12517
926.886	12407
926.993	12262
927.099	12334
927.206	12334
927.312	12148
927.419	12197
927.525	12289
927.631	12194
927.737	12129
927.843	12053
927.95	12144
928.056	11996
928.162	12117
928.267	12087
928.373	12601
928.479	12144
928.585	11916
928.69	12068
928.796	12057
928.901	11904
929.007	11733
929.112	11931
929.218	11912
929.323	11798
929.428	11741
929.533	11980
929.638	11695
929.743	11760
929.848	11756
929.953	11771
930.058	11672
930.163	11471
930.267	11471
930.372	11600
930.477	11554
930.581	11665
930.685	11558
930.79	11341
930.894	11474
930.998	11387
931.103	11535
931.207	11064
931.311	11083
931.415	10980
931.519	10759
931.623	10763
