Data from test_V78500241_902.txt Node
Date: Fri Mar 25 15:16:08 CST 2022
User: usil
Spectrometer: V785-0024
Trigger mode: 0
Integration Time (sec): 4.000000E-1
Scans to average: 1
Nonlinearity correction enabled: false
Boxcar width: 0
Storing dark spectrum: false
XAxis mode: Wavelengths
Number of Pixels in Spectrum: 1024
>>>>>Begin Spectral Data<<<<<
801.071	28310
801.214	28131
801.356	27934
801.499	27907
801.641	27774
801.783	27717
801.926	27895
802.068	27804
802.211	27759
802.353	27564
802.496	27519
802.638	27374
802.78	27363
802.923	27249
803.065	27344
803.208	27397
803.35	27408
803.492	27397
803.635	27610
803.777	27557
803.919	27534
804.061	27941
804.204	27641
804.346	27614
804.488	27500
804.63	27652
804.773	27660
804.915	27583
805.057	27747
805.199	27694
805.341	27793
805.483	27831
805.626	27854
805.768	27587
805.91	27717
806.052	27884
806.194	27671
806.336	28017
806.478	27694
806.62	27842
806.762	27956
806.904	28021
807.046	28150
807.188	28070
807.33	28265
807.472	28280
807.614	28063
807.756	28181
807.898	28048
808.04	28074
808.182	27998
808.324	28211
808.465	28166
808.607	28147
808.749	28322
808.891	28485
809.033	28596
809.174	28375
809.316	28546
809.458	28485
809.6	28417
809.741	28611
809.883	28466
810.025	28755
810.166	28626
810.308	28824
810.45	28588
810.591	28675
810.733	28557
810.875	28459
811.016	28337
811.158	28436
811.299	28481
811.441	28455
811.582	28577
811.724	28481
811.865	28478
812.007	28478
812.148	28451
812.29	28500
812.431	28622
812.573	28908
812.714	28919
812.855	29037
812.997	29098
813.138	29090
813.279	29178
813.421	29060
813.562	28965
813.703	28748
813.845	28790
813.986	28409
814.127	28375
814.268	28090
814.41	28139
814.551	28200
814.692	28257
814.833	28109
814.974	28166
815.115	28013
815.256	28097
815.397	27998
815.539	28044
815.68	27994
815.821	27953
815.962	27953
816.103	27934
816.244	27914
816.385	27610
816.526	27914
816.666	27561
816.807	27439
816.948	27656
817.089	27485
817.23	27481
817.371	27515
817.512	27515
817.653	27447
817.793	27435
817.934	27530
818.075	27458
818.216	27523
818.356	27450
818.497	27348
818.638	27195
818.778	27245
818.919	27241
819.06	27268
819.2	27397
819.341	27469
819.481	27466
819.622	27610
819.762	27895
819.903	27732
820.043	27743
820.184	27485
820.324	27633
820.465	27648
820.605	27747
820.746	27618
820.886	27504
821.026	27583
821.167	27507
821.307	27656
821.447	27492
821.588	27389
821.728	27272
821.868	27024
822.008	26906
822.149	26982
822.289	26929
822.429	26777
822.569	26495
822.709	26712
822.849	26590
822.99	26438
823.13	26328
823.27	26499
823.41	26366
823.55	26122
823.69	26415
823.83	26294
823.97	26271
824.11	26210
824.25	25993
824.389	25989
824.529	26290
824.669	26206
824.809	26366
824.949	26240
825.089	26339
825.228	26229
825.368	26027
825.508	25906
825.648	26100
825.787	25959
825.927	26100
826.067	25936
826.206	26081
826.346	26126
826.485	26039
826.625	26008
826.765	26107
826.904	26126
827.044	25833
827.183	25826
827.323	25639
827.462	25746
827.601	25715
827.741	25632
827.88	25704
828.02	25514
828.159	25727
828.298	25799
828.437	25814
828.577	25662
828.716	25795
828.855	25651
828.994	25362
829.134	25411
829.273	25502
829.412	25373
829.551	25335
829.69	25392
829.829	25445
829.968	25708
830.107	25495
830.246	25468
830.385	25415
830.524	25263
830.663	25282
830.802	25209
830.941	24962
831.08	25050
831.219	25069
831.357	25019
831.496	25164
831.635	24863
831.774	24992
831.913	24992
832.051	24825
832.19	24859
832.329	24913
832.467	24722
832.606	24753
832.744	24730
832.883	24658
833.022	24753
833.16	24741
833.299	24837
833.437	24715
833.576	24795
833.714	24856
833.852	24837
833.991	24817
834.129	24943
834.267	24825
834.406	24760
834.544	24833
834.682	24779
834.821	24642
834.959	24985
835.097	24707
835.235	24791
835.373	24787
835.511	24677
835.65	24684
835.788	24532
835.926	24532
836.064	24323
836.202	24433
836.34	24563
836.478	24578
836.615	24593
836.753	24650
836.891	24669
837.029	24627
837.167	24578
837.305	24429
837.443	24525
837.58	24418
837.718	24513
837.856	24433
837.993	24365
838.131	24388
838.269	24239
838.406	24346
838.544	24235
838.681	24072
838.819	24098
838.956	23893
839.094	23863
839.231	23916
839.369	24133
839.506	24281
839.643	24083
839.781	23931
839.918	23897
840.055	23923
840.193	23843
840.33	23836
840.467	23882
840.604	23824
840.742	24053
840.879	23642
841.016	23672
841.153	23710
841.29	23923
841.427	23710
841.564	23764
841.701	23859
841.838	23718
841.975	23668
842.112	23741
842.249	23604
842.385	23539
842.522	23627
842.659	23619
842.796	23516
842.933	23554
843.069	23387
843.206	23425
843.343	23615
843.479	23554
843.616	23630
843.752	23387
843.889	23349
844.025	23501
844.162	23277
844.298	23379
844.435	23334
844.571	23239
844.708	23372
844.844	23554
844.98	23414
845.117	23433
845.253	23288
845.389	23231
845.525	23258
845.661	23296
845.798	23083
845.934	23079
846.07	23025
846.206	23048
846.342	23204
846.478	23083
846.614	22835
846.75	22679
846.886	22820
847.022	22911
847.158	22809
847.294	22793
847.429	22843
847.565	22687
847.701	23014
847.837	22622
847.972	22470
848.108	22713
848.244	22649
848.379	22417
848.515	22432
848.65	22322
848.786	22409
848.921	22379
849.057	22519
849.192	22386
849.328	22363
849.463	22382
849.598	22421
849.734	22310
849.869	22341
850.004	22257
850.14	22337
850.275	22063
850.41	22116
850.545	22055
850.68	22074
850.815	22158
850.95	22116
851.085	22276
851.22	22223
851.355	22192
851.49	22074
851.625	22010
851.76	21968
851.895	22090
852.03	22090
852.165	22242
852.299	22185
852.434	22196
852.569	22166
852.703	22143
852.838	22086
852.973	22272
853.107	22291
853.242	22158
853.376	22063
853.511	21876
853.645	21918
853.78	22116
853.914	22032
854.048	21934
854.183	21915
854.317	21949
854.451	22238
854.585	21949
854.72	21998
854.854	22162
854.988	21903
855.122	21949
855.256	21968
855.39	22070
855.524	21968
855.658	22078
855.792	22010
855.926	22067
856.06	21972
856.194	22048
856.327	21835
856.461	21884
856.595	21915
856.729	21972
856.862	21998
856.996	22029
857.13	22029
857.263	22101
857.397	22017
857.53	21964
857.664	21991
857.797	21930
857.931	22086
858.064	21975
858.197	22006
858.331	22036
858.464	21945
858.597	21869
858.731	21991
858.864	21903
858.997	21903
859.13	21941
859.263	21941
859.396	21975
859.529	21987
859.662	21861
859.795	21926
859.928	22017
860.061	22006
860.194	22188
860.327	22086
860.46	22074
860.592	22143
860.725	22090
860.858	22086
860.99	21915
861.123	21994
861.256	21998
861.388	22032
861.521	22816
861.653	21861
861.786	21770
861.918	21842
862.05	21857
862.183	21903
862.315	21945
862.447	22067
862.58	21857
862.712	21751
862.844	21755
862.976	21709
863.108	21785
863.24	22070
863.372	21622
863.504	21667
863.636	21793
863.768	21690
863.9	21663
864.032	21690
864.164	21549
864.296	21576
864.428	21804
864.559	21690
864.691	21869
864.823	21709
864.954	21629
865.086	21694
865.217	21485
865.349	21359
865.48	21549
865.612	21583
865.743	21797
865.875	21724
866.006	21523
866.137	21656
866.269	21553
866.4	21557
866.531	21519
866.662	21492
866.793	21477
866.924	21526
867.055	21557
867.186	21603
867.317	21469
867.448	21363
867.579	21393
867.71	21374
867.841	21374
867.972	21523
868.103	21473
868.233	21496
868.364	21587
868.495	21606
868.625	21739
868.756	21789
868.886	21762
869.017	21679
869.147	21823
869.278	21823
869.408	21671
869.539	21736
869.669	21831
869.799	21713
869.929	21808
870.06	21865
870.19	22036
870.32	22070
870.45	22109
870.58	22017
870.71	22223
870.84	22246
870.97	22097
871.1	22196
871.23	22352
871.36	22341
871.489	22261
871.619	22421
871.749	22325
871.879	22402
872.008	22421
872.138	22337
872.267	22268
872.397	22261
872.526	22131
872.656	22219
872.785	22242
872.915	22379
873.044	22436
873.173	22375
873.303	22363
873.432	22424
873.561	22478
873.69	22402
873.819	22310
873.948	22436
874.077	22489
874.206	22341
874.335	22291
874.464	22447
874.593	22573
874.722	22607
874.851	22577
874.979	22569
875.108	22618
875.237	22508
875.365	22474
875.494	22428
875.623	22535
875.751	22538
875.88	22470
876.008	22622
876.136	22763
876.265	22915
876.393	23018
876.521	23132
876.65	23162
876.778	22938
876.906	22938
877.034	22961
877.162	22839
877.29	22866
877.418	22934
877.546	22904
877.674	23109
877.802	22858
877.93	22843
878.058	22896
878.185	22809
878.313	22778
878.441	22850
878.568	22664
878.696	22896
878.824	22812
878.951	23025
879.079	23090
879.206	23193
879.333	23022
879.461	22984
879.588	23075
879.715	23022
879.842	23204
879.97	22881
880.097	22759
880.224	22729
880.351	22717
880.478	22687
880.605	22577
880.732	22615
880.859	22877
880.986	22782
881.112	22828
881.239	22462
881.366	22569
881.493	22299
881.619	22147
881.746	22234
881.872	22234
881.999	22261
882.125	22185
882.252	22337
882.378	22215
882.505	22268
882.631	21937
882.757	22032
882.883	22105
883.01	21949
883.136	21869
883.262	21842
883.388	21747
883.514	21968
883.64	22051
883.766	21911
883.892	21709
884.018	21732
884.143	21937
884.269	21949
884.395	21641
884.52	21549
884.646	21736
884.772	21530
884.897	21572
885.023	21660
885.148	21743
885.274	21633
885.399	21663
885.524	21603
885.65	21606
885.775	21561
885.9	21526
886.025	21713
886.15	21667
886.275	21481
886.4	21515
886.525	21637
886.65	21568
886.775	21606
886.9	21656
887.025	21804
887.149	21519
887.274	21359
887.399	21450
887.523	21462
887.648	21405
887.773	21211
887.897	21454
888.021	21336
888.146	21298
888.27	21481
888.395	21359
888.519	21344
888.643	21336
888.767	21389
888.891	21260
889.015	21108
889.139	21226
889.263	21192
889.387	21264
889.511	21424
889.635	21256
889.759	21096
889.883	21237
890.006	21214
890.13	21241
890.254	21096
890.377	21081
890.501	20952
890.624	20819
890.748	20910
890.871	20807
890.995	20727
891.118	20754
891.241	20819
891.364	20743
891.488	20792
891.611	20625
891.734	20815
891.857	20975
891.98	20735
892.103	20845
892.226	20849
892.349	20735
892.471	20522
892.594	20636
892.717	20678
892.839	20568
892.962	20708
893.085	20777
893.207	20667
893.33	20427
893.452	20587
893.575	20590
893.697	20514
893.819	20701
893.941	20781
894.064	20746
894.186	20530
894.308	20560
894.43	20640
894.552	20804
894.674	20632
894.796	20492
894.918	20625
895.04	20583
895.161	20629
895.283	20689
895.405	20712
895.526	20499
895.648	20621
895.769	20579
895.891	20632
896.012	20842
896.134	20617
896.255	20629
896.376	20526
896.498	20613
896.619	20579
896.74	20609
896.861	20636
896.982	20823
897.103	21096
897.224	21020
897.345	20800
897.466	20788
897.587	20743
897.708	20967
897.828	20872
897.949	20682
898.07	20602
898.19	20663
898.311	20887
898.431	20629
898.552	20876
898.672	21032
898.792	20819
898.913	20758
899.033	20674
899.153	20552
899.273	20514
899.393	20526
899.513	20530
899.633	20552
899.753	20613
899.873	20480
899.993	20625
900.113	20522
900.232	20522
900.352	20545
900.472	20320
900.591	20385
900.711	20423
900.83	20252
900.95	20511
901.069	20396
901.189	20317
901.308	19970
901.427	19982
901.546	19864
901.665	19883
901.784	19864
901.904	19852
902.023	19620
902.141	19563
902.26	19343
902.379	19415
902.498	19373
902.617	19430
902.735	19502
902.854	19346
902.973	19282
903.091	19088
903.21	19027
903.328	19133
903.446	18939
903.565	18863
903.683	18932
903.801	18639
903.919	18810
904.038	18840
904.156	18582
904.274	18711
904.392	18673
904.51	18574
904.627	18642
904.745	18646
904.863	18673
904.981	18441
905.098	18369
905.216	18323
905.334	18399
905.451	18346
905.569	18239
905.686	18376
905.803	18308
905.921	18136
906.038	18182
906.155	18083
906.272	17999
906.389	18003
906.506	17912
906.623	17912
906.74	17824
906.857	17771
906.974	17737
907.091	17904
907.208	17996
907.324	17798
907.441	17684
907.557	17646
907.674	17551
907.79	17509
907.907	17459
908.023	17585
908.139	17524
908.256	17551
908.372	17467
908.488	17356
908.604	17269
908.72	17288
908.836	17273
908.952	17277
909.068	17200
909.184	17406
909.3	17277
909.415	17216
909.531	17296
909.647	17003
909.762	16987
909.878	17006
909.993	16949
910.108	17033
910.224	16976
910.339	16900
910.454	16843
910.57	16733
910.685	16660
910.8	16976
910.915	16900
911.03	16771
911.145	16622
911.259	16584
911.374	16637
911.489	16466
911.604	16542
911.718	16322
911.833	16257
911.947	16116
912.062	16120
912.176	16215
912.291	16257
912.405	16348
912.519	16402
912.633	16588
912.748	16379
912.862	16310
912.976	16109
913.09	15979
913.204	16116
913.318	16150
913.431	16207
913.545	16063
913.659	16322
913.772	16021
913.886	15846
914	15869
914.113	16010
914.226	15979
914.34	15873
914.453	15789
914.566	15930
914.68	15793
914.793	15686
914.906	15553
915.019	15477
915.132	15424
915.245	15447
915.358	15545
915.47	15485
915.583	15443
915.696	15561
915.809	15538
915.921	15622
916.034	15473
916.146	15306
916.259	15412
916.371	15348
916.483	15473
916.595	15321
916.708	15344
916.82	15332
916.932	15397
917.044	15283
917.156	15192
917.268	15150
917.38	15313
917.491	15043
917.603	15150
917.715	15230
917.826	15184
917.938	15062
918.049	15036
918.161	15017
918.272	15252
918.384	15188
918.495	14956
918.606	14944
918.717	14880
918.828	14937
918.939	15032
919.05	14800
919.161	14960
919.272	14701
919.383	14613
919.494	14864
919.604	15127
919.715	14880
919.826	14811
919.936	14815
920.047	14891
920.157	14830
920.267	14963
920.378	14853
920.488	14781
920.598	15013
920.708	15097
920.818	14929
920.928	14971
921.038	15226
921.148	14990
921.258	14804
921.368	14629
921.477	14480
921.587	14473
921.697	14442
921.806	14541
921.916	14431
922.025	14237
922.134	14202
922.244	14199
922.353	14282
922.462	14123
922.571	14073
922.68	13826
922.789	13814
922.898	13822
923.007	13723
923.116	13871
923.224	13814
923.333	13791
923.442	13803
923.55	13662
923.659	13723
923.767	13719
923.876	13571
923.984	13647
924.092	13518
924.201	13624
924.309	13674
924.417	13666
924.525	13506
924.633	13586
924.741	14187
924.849	13354
924.956	13460
925.064	13358
925.172	13198
925.279	13270
925.387	13343
925.494	13244
925.602	13384
925.709	13285
925.816	13088
925.924	13072
926.031	13209
926.138	13270
926.245	13164
926.352	13050
926.459	13206
926.566	13225
926.673	13099
926.779	12905
926.886	12958
926.993	12776
927.099	12829
927.206	12817
927.312	12703
927.419	12814
927.525	12901
927.631	12749
927.737	12757
927.843	12715
927.95	12517
928.056	12604
928.162	12623
928.267	12665
928.373	13289
928.479	12631
928.585	12483
928.69	12547
928.796	12563
928.901	12410
929.007	12410
929.112	12498
929.218	12479
929.323	12319
929.428	12410
929.533	12483
929.638	12220
929.743	12330
929.848	12338
929.953	12216
930.058	12190
930.163	12015
930.267	11980
930.372	12163
930.477	11908
930.581	12220
930.685	11977
930.79	11912
930.894	11935
930.998	11824
931.103	11958
931.207	11638
931.311	11596
931.415	11429
931.519	11261
931.623	11178
