Data from test_V78500241_3388.txt Node
Date: Fri Mar 25 15:33:27 CST 2022
User: usil
Spectrometer: V785-0024
Trigger mode: 0
Integration Time (sec): 4.000000E-1
Scans to average: 1
Nonlinearity correction enabled: false
Boxcar width: 0
Storing dark spectrum: false
XAxis mode: Wavelengths
Number of Pixels in Spectrum: 1024
>>>>>Begin Spectral Data<<<<<
801.071	27268
801.214	27154
801.356	26785
801.499	26693
801.641	26587
801.783	26590
801.926	26693
802.068	26762
802.211	26670
802.353	26731
802.496	26389
802.638	26358
802.78	26259
802.923	26157
803.065	26210
803.208	26263
803.35	26355
803.492	26514
803.635	26499
803.777	26374
803.919	26457
804.061	26948
804.204	26606
804.346	26377
804.488	26438
804.63	26473
804.773	26339
804.915	26473
805.057	26651
805.199	26488
805.341	26446
805.483	26644
805.626	26552
805.768	26434
805.91	26541
806.052	26609
806.194	26530
806.336	26925
806.478	26598
806.62	26602
806.762	26705
806.904	26880
807.046	27051
807.188	26864
807.33	27020
807.472	26998
807.614	26891
807.756	26845
807.898	26845
808.04	26891
808.182	26731
808.324	26906
808.465	26823
808.607	27104
808.749	27135
808.891	27237
809.033	27412
809.174	27340
809.316	27043
809.458	27188
809.6	27226
809.741	27302
809.883	27272
810.025	27500
810.166	27542
810.308	27412
810.45	27214
810.591	27329
810.733	27279
810.875	27070
811.016	27005
811.158	27108
811.299	27146
811.441	27348
811.582	27245
811.724	27313
811.865	27017
812.007	27043
812.148	27150
812.29	27039
812.431	27351
812.573	27652
812.714	27557
812.855	27660
812.997	27682
813.138	27850
813.279	27884
813.421	27652
813.562	27561
813.703	27408
813.845	27283
813.986	26975
814.127	26891
814.268	26800
814.41	26762
814.551	26765
814.692	26918
814.833	26724
814.974	26769
815.115	26895
815.256	26606
815.397	26617
815.539	26720
815.68	26564
815.821	26465
815.962	26644
816.103	26469
816.244	26408
816.385	26385
816.526	26442
816.666	26088
816.807	26024
816.948	26214
817.089	26191
817.23	26016
817.371	25982
817.512	26012
817.653	26122
817.793	25978
817.934	26024
818.075	25986
818.216	26122
818.356	26088
818.497	25932
818.638	25795
818.778	25837
818.919	25902
819.06	25868
819.2	26005
819.341	25963
819.481	25997
819.622	26271
819.762	26434
819.903	26343
820.043	26473
820.184	26164
820.324	26301
820.465	26187
820.605	26088
820.746	26157
820.886	26054
821.026	26050
821.167	26172
821.307	26172
821.447	25925
821.588	26081
821.728	25689
821.868	25601
822.008	25639
822.149	25483
822.289	25476
822.429	25320
822.569	25228
822.709	25285
822.849	25076
822.99	25012
823.13	25118
823.27	24932
823.41	24814
823.55	24726
823.69	24935
823.83	24772
823.97	24890
824.11	24616
824.25	24696
824.389	24601
824.529	24779
824.669	24745
824.809	24776
824.949	24764
825.089	24711
825.228	24574
825.368	24528
825.508	24650
825.648	24505
825.787	24521
825.927	24631
826.067	24509
826.206	24486
826.346	24498
826.485	24639
826.625	24407
826.765	24566
826.904	24654
827.044	24315
827.183	24213
827.323	24258
827.462	24136
827.601	24224
827.741	24205
827.88	24216
828.02	24224
828.159	24273
828.298	24357
828.437	24216
828.577	24228
828.716	24384
828.855	24182
828.994	23977
829.134	24034
829.273	23942
829.412	24011
829.551	23878
829.69	23965
829.829	24011
829.968	23931
830.107	24121
830.246	23859
830.385	23878
830.524	23980
830.663	23824
830.802	23752
830.941	23600
831.08	23535
831.219	23741
831.357	23634
831.496	23843
831.635	23501
831.774	23391
831.913	23459
832.051	23273
832.19	23318
832.329	23520
832.467	23280
832.606	23261
832.744	23147
832.883	23307
833.022	23193
833.16	23208
833.299	23242
833.437	23318
833.576	23334
833.714	23372
833.852	23410
833.991	23372
834.129	23391
834.267	23486
834.406	23193
834.544	23345
834.682	23387
834.821	23395
834.959	23318
835.097	23353
835.235	23429
835.373	23368
835.511	23181
835.65	23140
835.788	23094
835.926	23162
836.064	23010
836.202	23018
836.34	23140
836.478	23223
836.615	23197
836.753	23147
836.891	23299
837.029	23208
837.167	23193
837.305	23044
837.443	23189
837.58	22976
837.718	23117
837.856	23117
837.993	23003
838.131	22904
838.269	23079
838.406	23041
838.544	22949
838.681	22649
838.819	22778
838.956	22538
839.094	22459
839.231	22656
839.369	22668
839.506	22946
839.643	22778
839.781	22489
839.918	22443
840.055	22561
840.193	22455
840.33	22318
840.467	22341
840.604	22485
840.742	22679
840.879	22215
841.016	22382
841.153	22344
841.29	22542
841.427	22424
841.564	22523
841.701	22360
841.838	22371
841.975	22363
842.112	22535
842.249	22253
842.385	22249
842.522	22573
842.659	22284
842.796	22188
842.933	22325
843.069	22082
843.206	22116
843.343	22128
843.479	22185
843.616	22158
843.752	22017
843.889	22006
844.025	22101
844.162	21945
844.298	22044
844.435	22032
844.571	21846
844.708	21956
844.844	22246
844.98	22226
845.117	22078
845.253	21884
845.389	21766
845.525	21838
845.661	21846
845.798	21682
845.934	21857
846.07	21652
846.206	21819
846.342	21846
846.478	21675
846.614	21538
846.75	21568
846.886	21405
847.022	21477
847.158	21473
847.294	21469
847.429	21431
847.565	21378
847.701	21682
847.837	21211
847.972	21180
848.108	21283
848.244	21351
848.379	21119
848.515	21032
848.65	21005
848.786	21146
848.921	21043
849.057	21176
849.192	21116
849.328	21157
849.463	21001
849.598	20979
849.734	20971
849.869	20933
850.004	20735
850.14	20861
850.275	20830
850.41	20815
850.545	20800
850.68	20781
850.815	20963
850.95	20838
851.085	20864
851.22	20823
851.355	20811
851.49	20777
851.625	20792
851.76	20876
851.895	20632
852.03	20701
852.165	20735
852.299	20830
852.434	20864
852.569	20887
852.703	20929
852.838	20834
852.973	20918
853.107	20887
853.242	20758
853.376	20651
853.511	20674
853.645	20667
853.78	20659
853.914	20746
854.048	20560
854.183	20792
854.317	20651
854.451	20876
854.585	20636
854.72	20590
854.854	20648
854.988	20629
855.122	20663
855.256	20511
855.39	20571
855.524	20651
855.658	20708
855.792	20594
855.926	20651
856.06	20689
856.194	20750
856.327	20727
856.461	20438
856.595	20598
856.729	20678
856.862	20781
856.996	20636
857.13	20693
857.263	20765
857.397	20785
857.53	20689
857.664	20727
857.797	20701
857.931	20769
858.064	20773
858.197	20750
858.331	20712
858.464	20621
858.597	20598
858.731	20617
858.864	20606
858.997	20598
859.13	20651
859.263	20678
859.396	20743
859.529	20670
859.662	20522
859.795	20670
859.928	20651
860.061	20861
860.194	20819
860.327	20731
860.46	20758
860.592	20758
860.725	20826
860.858	20708
860.99	20594
861.123	20587
861.256	20587
861.388	20606
861.521	21408
861.653	20484
861.786	20358
861.918	20469
862.05	20476
862.183	20583
862.315	20575
862.447	20617
862.58	20545
862.712	20419
862.844	20355
862.976	20446
863.108	20438
863.24	20629
863.372	20290
863.504	20427
863.636	20389
863.768	20469
863.9	20377
864.032	20393
864.164	20290
864.296	20385
864.428	20488
864.559	20408
864.691	20438
864.823	20351
864.954	20343
865.086	20339
865.217	20237
865.349	20172
865.48	20259
865.612	20290
865.743	20305
865.875	20336
866.006	20278
866.137	20210
866.269	20324
866.4	20248
866.531	20267
866.662	20183
866.793	20244
866.924	20244
867.055	20324
867.186	20271
867.317	20225
867.448	20096
867.579	20218
867.71	20229
867.841	20210
867.972	20218
868.103	20191
868.233	20183
868.364	20233
868.495	20298
868.625	20351
868.756	20606
868.886	20499
869.017	20328
869.147	20442
869.278	20446
869.408	20545
869.539	20400
869.669	20533
869.799	20400
869.929	20526
870.06	20587
870.19	20788
870.32	20724
870.45	20796
870.58	20944
870.71	21017
870.84	20895
870.97	20952
871.1	20880
871.23	20967
871.36	21127
871.489	20918
871.619	20982
871.749	21112
871.879	21070
872.008	21173
872.138	21127
872.267	21062
872.397	21047
872.526	20929
872.656	20845
872.785	20948
872.915	21112
873.044	21119
873.173	21127
873.303	21127
873.432	21123
873.561	21119
873.69	21154
873.819	21180
873.948	21081
874.077	21009
874.206	21077
874.335	21089
874.464	21112
874.593	21367
874.722	21245
874.851	21348
874.979	21294
875.108	21424
875.237	21359
875.365	21332
875.494	21218
875.623	21466
875.751	21268
875.88	21348
876.008	21431
876.136	21469
876.265	21701
876.393	21831
876.521	21842
876.65	21926
876.778	21739
876.906	21595
877.034	21701
877.162	21808
877.29	21713
877.418	21698
877.546	21797
877.674	21637
877.802	21701
877.93	21557
878.058	21614
878.185	21576
878.313	21648
878.441	21629
878.568	21530
878.696	21606
878.824	21736
878.951	21751
879.079	21918
879.206	22116
879.333	21804
879.461	21800
879.588	21778
879.715	21793
879.842	22021
879.97	21755
880.097	21523
880.224	21428
880.351	21606
880.478	21428
880.605	21507
880.732	21454
880.859	21766
880.986	21507
881.112	21667
881.239	21218
881.366	21211
881.493	21192
881.619	21081
881.746	21169
881.872	21119
881.999	21032
882.125	21123
882.252	21070
882.378	21066
882.505	21157
882.631	20982
882.757	20807
882.883	20979
883.01	20731
883.136	20792
883.262	20682
883.388	20678
883.514	20830
883.64	20765
883.766	20686
883.892	20575
884.018	20609
884.143	20750
884.269	20891
884.395	20511
884.52	20396
884.646	20484
884.772	20313
884.897	20545
885.023	20492
885.148	20476
885.274	20629
885.399	20541
885.524	20533
885.65	20465
885.775	20480
885.9	20294
886.025	20568
886.15	20454
886.275	20396
886.4	20237
886.525	20408
886.65	20377
886.775	20324
886.9	20533
887.025	20648
887.149	20332
887.274	20286
887.399	20305
887.523	20172
887.648	20248
887.773	20145
887.897	20263
888.021	20275
888.146	20199
888.27	20343
888.395	20313
888.519	20130
888.643	20305
888.767	20229
888.891	20145
889.015	19944
889.139	20081
889.263	20054
889.387	20027
889.511	20267
889.635	20195
889.759	19940
889.883	20020
890.006	20107
890.13	20176
890.254	20001
890.377	19963
890.501	19864
890.624	19769
890.748	19868
890.871	19719
890.995	19586
891.118	19518
891.241	19639
891.364	19635
891.488	19765
891.611	19613
891.734	19624
891.857	19761
891.98	19594
892.103	19685
892.226	19651
892.349	19472
892.471	19301
892.594	19578
892.717	19472
892.839	19430
892.962	19556
893.085	19601
893.207	19476
893.33	19400
893.452	19411
893.575	19578
893.697	19495
893.819	19689
893.941	19696
894.064	19750
894.186	19476
894.308	19369
894.43	19681
894.552	19575
894.674	19571
894.796	19464
894.918	19605
895.04	19521
895.161	19628
895.283	19643
895.405	19495
895.526	19537
895.648	19540
895.769	19563
895.891	19601
896.012	19468
896.134	19586
896.255	19609
896.376	19457
896.498	19514
896.619	19601
896.74	19529
896.861	19605
896.982	19788
897.103	19997
897.224	19795
897.345	19700
897.466	19696
897.587	19685
897.708	19928
897.828	19738
897.949	19715
898.07	19655
898.19	19750
898.311	19947
898.431	19795
898.552	19704
898.672	19776
898.792	19860
898.913	19833
899.033	19620
899.153	19525
899.273	19529
899.393	19548
899.513	19609
899.633	19483
899.753	19422
899.873	19441
899.993	19559
900.113	19529
900.232	19434
900.352	19468
900.472	19419
900.591	19266
900.711	19362
900.83	19263
900.95	19381
901.069	19381
901.189	19316
901.308	18985
901.427	18924
901.546	18867
901.665	18920
901.784	18920
901.904	18791
902.023	18639
902.141	18452
902.26	18502
902.379	18448
902.498	18270
902.617	18296
902.735	18418
902.854	18346
902.973	18369
903.091	18091
903.21	18068
903.328	18087
903.446	18011
903.565	17897
903.683	17980
903.801	17764
903.919	17882
904.038	17828
904.156	17722
904.274	17760
904.392	17676
904.51	17741
904.627	17627
904.745	17630
904.863	17691
904.981	17543
905.098	17334
905.216	17372
905.334	17307
905.451	17391
905.569	17402
905.686	17318
905.803	17326
905.921	17102
906.038	17235
906.155	17128
906.272	17067
906.389	16968
906.506	16904
906.623	16965
906.74	16858
906.857	16740
906.974	16767
907.091	16953
907.208	17018
907.324	16869
907.441	16755
907.557	16630
907.674	16656
907.79	16535
907.907	16584
908.023	16691
908.139	16653
908.256	16512
908.372	16550
908.488	16417
908.604	16440
908.72	16287
908.836	16291
908.952	16371
909.068	16360
909.184	16478
909.3	16356
909.415	16386
909.531	16356
909.647	16112
909.762	16147
909.878	16078
909.993	16067
910.108	16021
910.224	16044
910.339	15960
910.454	15934
910.57	15975
910.685	15812
910.8	16120
910.915	15895
911.03	15835
911.145	15720
911.259	15637
911.374	15641
911.489	15614
911.604	15580
911.718	15397
911.833	15439
911.947	15260
912.062	15226
912.176	15447
912.291	15408
912.405	15348
912.519	15595
912.633	15584
912.748	15515
912.862	15393
912.976	15321
913.09	15108
913.204	15176
913.318	15310
913.431	15348
913.545	15310
913.659	15336
913.772	15199
913.886	15058
914	14994
914.113	15131
914.226	15020
914.34	15070
914.453	14998
914.566	15070
914.68	14876
914.793	14918
914.906	14769
915.019	14765
915.132	14583
915.245	14598
915.358	14610
915.47	14667
915.583	14613
915.696	14716
915.809	14804
915.921	14819
916.034	14587
916.146	14568
916.259	14511
916.371	14632
916.483	14560
916.595	14446
916.708	14537
916.82	14533
916.932	14480
917.044	14469
917.156	14385
917.268	14290
917.38	14286
917.491	14366
917.603	14305
917.715	14415
917.826	14404
917.938	14286
918.049	14191
918.161	14309
918.272	14499
918.384	14351
918.495	14301
918.606	14176
918.717	14043
918.828	14149
918.939	14237
919.05	14035
919.161	14119
919.272	13860
919.383	13928
919.494	14054
919.604	14191
919.715	14050
919.826	14008
919.936	13986
920.047	14161
920.157	14073
920.267	14145
920.378	14081
920.488	14054
920.598	14259
920.708	14446
920.818	14134
920.928	14267
921.038	14419
921.148	14309
921.258	14054
921.368	13818
921.477	13833
921.587	13784
921.697	13696
921.806	13784
921.916	13643
922.025	13453
922.134	13430
922.244	13468
922.353	13491
922.462	13377
922.571	13301
922.68	13171
922.789	13133
922.898	13027
923.007	13061
923.116	13149
923.224	13084
923.333	13065
923.442	12962
923.55	12962
923.659	13008
923.767	13042
923.876	12905
923.984	12939
924.092	12825
924.201	12878
924.309	12795
924.417	12806
924.525	12749
924.633	12890
924.741	13719
924.849	12547
924.956	12627
925.064	12513
925.172	12429
925.279	12559
925.387	12555
925.494	12521
925.602	12665
925.709	12563
925.816	12555
925.924	12429
926.031	12563
926.138	12551
926.245	12467
926.352	12380
926.459	12582
926.566	12528
926.673	12433
926.779	12319
926.886	12357
926.993	12190
927.099	12213
927.206	12068
927.312	12068
927.419	12117
927.525	11988
927.631	12079
927.737	11946
927.843	11961
927.95	11889
928.056	11973
928.162	11916
928.267	12072
928.373	12506
928.479	12022
928.585	11748
928.69	11958
928.796	11904
928.901	11794
929.007	11703
929.112	11939
929.218	11771
929.323	11714
929.428	11718
929.533	11870
929.638	11623
929.743	11630
929.848	11642
929.953	11657
930.058	11585
930.163	11410
930.267	11410
930.372	11562
930.477	11356
930.581	11547
930.685	11417
930.79	11280
930.894	11337
930.998	11201
931.103	11383
931.207	11006
931.311	10896
931.415	10881
931.519	10752
931.623	10641
