Data from test_V78500241_2167.txt Node
Date: Fri Mar 25 15:24:56 CST 2022
User: usil
Spectrometer: V785-0024
Trigger mode: 0
Integration Time (sec): 4.000000E-1
Scans to average: 1
Nonlinearity correction enabled: false
Boxcar width: 0
Storing dark spectrum: false
XAxis mode: Wavelengths
Number of Pixels in Spectrum: 1024
>>>>>Begin Spectral Data<<<<<
801.071	27888
801.214	27694
801.356	27568
801.499	27477
801.641	27272
801.783	27359
801.926	27382
802.068	27507
802.211	27184
802.353	27211
802.496	27070
802.638	26910
802.78	26979
802.923	26899
803.065	26845
803.208	26838
803.35	27028
803.492	27028
803.635	27157
803.777	27047
803.919	27211
804.061	27576
804.204	27214
804.346	27119
804.488	27230
804.63	27408
804.773	26975
804.915	27218
805.057	27298
805.199	27150
805.341	27256
805.483	27302
805.626	27249
805.768	27245
805.91	27317
806.052	27313
806.194	27203
806.336	27348
806.478	27237
806.62	27211
806.762	27408
806.904	27545
807.046	27766
807.188	27580
807.33	27599
807.472	27797
807.614	27538
807.756	27736
807.898	27606
808.04	27515
808.182	27462
808.324	27724
808.465	27606
808.607	27694
808.749	28006
808.891	27975
809.033	28048
809.174	27991
809.316	27892
809.458	27922
809.6	27861
809.741	28013
809.883	28082
810.025	28272
810.166	28055
810.308	28253
810.45	28112
810.591	28112
810.733	28059
810.875	28017
811.016	27876
811.158	27797
811.299	27903
811.441	28002
811.582	27918
811.724	27857
811.865	27842
812.007	27880
812.148	27926
812.29	27934
812.431	28036
812.573	28261
812.714	28257
812.855	28428
812.997	28478
813.138	28653
813.279	28637
813.421	28523
813.562	28325
813.703	28234
813.845	28090
813.986	27724
814.127	27698
814.268	27538
814.41	27648
814.551	27622
814.692	27667
814.833	27553
814.974	27538
815.115	27526
815.256	27477
815.397	27416
815.539	27420
815.68	27420
815.821	27420
815.962	27321
816.103	27386
816.244	27218
816.385	27287
816.526	27085
816.666	27017
816.807	26769
816.948	26887
817.089	27036
817.23	26990
817.371	26834
817.512	26986
817.653	26861
817.793	26758
817.934	26906
818.075	26811
818.216	26731
818.356	26834
818.497	26670
818.638	26674
818.778	26617
818.919	26549
819.06	26777
819.2	26712
819.341	26861
819.481	26834
819.622	26990
819.762	27161
819.903	27055
820.043	26918
820.184	26963
820.324	26940
820.465	27127
820.605	27017
820.746	27009
820.886	26823
821.026	27020
821.167	26940
821.307	26963
821.447	26785
821.588	26895
821.728	26560
821.868	26640
822.008	26263
822.149	26355
822.289	26271
822.429	25989
822.569	26001
822.709	25955
822.849	25871
822.99	25776
823.13	25826
823.27	25734
823.41	25605
823.55	25578
823.69	25548
823.83	25814
823.97	25575
824.11	25392
824.25	25491
824.389	25525
824.529	25514
824.669	25499
824.809	25620
824.949	25491
825.089	25590
825.228	25556
825.368	25320
825.508	25365
825.648	25445
825.787	25213
825.927	25464
826.067	25236
826.206	25415
826.346	25407
826.485	25430
826.625	25339
826.765	25331
826.904	25460
827.044	25152
827.183	25046
827.323	25160
827.462	24989
827.601	24977
827.741	25084
827.88	25122
828.02	24913
828.159	24840
828.298	25076
828.437	25164
828.577	24966
828.716	25103
828.855	24973
828.994	24734
829.134	24707
829.273	24844
829.412	24639
829.551	24722
829.69	24802
829.829	24654
829.968	24768
830.107	24848
830.246	24703
830.385	24703
830.524	24654
830.663	24509
830.802	24426
830.941	24486
831.08	24441
831.219	24517
831.357	24292
831.496	24544
831.635	24369
831.774	24235
831.913	24205
832.051	24148
832.19	24243
832.329	24194
832.467	24057
832.606	23893
832.744	23965
832.883	23958
833.022	23969
833.16	24015
833.299	24076
833.437	24068
833.576	24178
833.714	24117
833.852	24060
833.991	24273
834.129	24190
834.267	24155
834.406	24060
834.544	24026
834.682	24034
834.821	24011
834.959	24159
835.097	23882
835.235	24041
835.373	24114
835.511	24003
835.65	23870
835.788	23912
835.926	23908
836.064	23710
836.202	23714
836.34	23878
836.478	23973
836.615	23741
836.753	23885
836.891	23969
837.029	23931
837.167	23916
837.305	23794
837.443	23840
837.58	23745
837.718	23756
837.856	23794
837.993	23604
838.131	23653
838.269	23691
838.406	23703
838.544	23539
838.681	23322
838.819	23315
838.956	23223
839.094	23121
839.231	23288
839.369	23391
839.506	23509
839.643	23455
839.781	23254
839.918	23060
840.055	23208
840.193	23143
840.33	23029
840.467	23136
840.604	23178
840.742	23444
840.879	22949
841.016	23044
841.153	22946
841.29	23060
841.427	23105
841.564	23121
841.701	23128
841.838	22961
841.975	23018
842.112	23060
842.249	22889
842.385	22877
842.522	22957
842.659	22949
842.796	22793
842.933	22675
843.069	22831
843.206	22812
843.343	22889
843.479	22873
843.616	22862
843.752	22717
843.889	22611
844.025	22824
844.162	22653
844.298	22744
844.435	22683
844.571	22615
844.708	22611
844.844	22778
844.98	22729
845.117	22744
845.253	22561
845.389	22474
845.525	22592
845.661	22367
845.798	22382
845.934	22310
846.07	22367
846.206	22413
846.342	22478
846.478	22226
846.614	22150
846.75	22074
846.886	22169
847.022	22105
847.158	22093
847.294	22013
847.429	22173
847.565	22173
847.701	22379
847.837	21823
847.972	21698
848.108	21888
848.244	21842
848.379	21690
848.515	21728
848.65	21576
848.786	21781
848.921	21698
849.057	21827
849.192	21743
849.328	21701
849.463	21564
849.598	21583
849.734	21572
849.869	21660
850.004	21420
850.14	21511
850.275	21477
850.41	21325
850.545	21363
850.68	21378
850.815	21454
850.95	21344
851.085	21656
851.22	21648
851.355	21420
851.49	21405
851.625	21340
851.76	21511
851.895	21408
852.03	21374
852.165	21435
852.299	21412
852.434	21485
852.569	21538
852.703	21374
852.838	21492
852.973	21538
853.107	21557
853.242	21363
853.376	21230
853.511	21188
853.645	21184
853.78	21401
853.914	21344
854.048	21195
854.183	21157
854.317	21272
854.451	21481
854.585	21241
854.72	21283
854.854	21431
854.988	21165
855.122	21226
855.256	21123
855.39	21192
855.524	21428
855.658	21351
855.792	21264
855.926	21260
856.06	21279
856.194	21313
856.327	21351
856.461	21188
856.595	21093
856.729	21233
856.862	21329
856.996	21412
857.13	21275
857.263	21431
857.397	21367
857.53	21233
857.664	21393
857.797	21268
857.931	21458
858.064	21287
858.197	21374
858.331	21199
858.464	21241
858.597	21211
858.731	21294
858.864	21211
858.997	21184
859.13	21291
859.263	21207
859.396	21275
859.529	21211
859.662	21207
859.795	21321
859.928	21226
860.061	21458
860.194	21367
860.327	21233
860.46	21249
860.592	21325
860.725	21321
860.858	21264
860.99	21298
861.123	21313
861.256	21173
861.388	21355
861.521	21918
861.653	20998
861.786	21055
861.918	21104
862.05	21062
862.183	21226
862.315	21237
862.447	21207
862.58	21131
862.712	21104
862.844	20929
862.976	21135
863.108	21104
863.24	21424
863.372	21077
863.504	21017
863.636	20960
863.768	20990
863.9	20967
864.032	21024
864.164	21047
864.296	20933
864.428	21173
864.559	21131
864.691	21104
864.823	20906
864.954	20933
865.086	20857
865.217	20857
865.349	20807
865.48	20887
865.612	20823
865.743	21055
865.875	20967
866.006	20853
866.137	20845
866.269	20906
866.4	20773
866.531	20815
866.662	20857
866.793	20842
866.924	20853
867.055	20819
867.186	20876
867.317	20773
867.448	20590
867.579	20716
867.71	20750
867.841	20686
867.972	20895
868.103	20864
868.233	20830
868.364	20689
868.495	20868
868.625	21055
868.756	21192
868.886	20975
869.017	21013
869.147	21146
869.278	21074
869.408	21062
869.539	21138
869.669	21112
869.799	21077
869.929	21176
870.06	21222
870.19	21291
870.32	21329
870.45	21370
870.58	21374
870.71	21549
870.84	21466
870.97	21363
871.1	21420
871.23	21663
871.36	21583
871.489	21568
871.619	21583
871.749	21580
871.879	21637
872.008	21671
872.138	21526
872.267	21580
872.397	21545
872.526	21496
872.656	21466
872.785	21610
872.915	21667
873.044	21606
873.173	21663
873.303	21709
873.432	21663
873.561	21728
873.69	21622
873.819	21496
873.948	21800
874.077	21694
874.206	21564
874.335	21610
874.464	21747
874.593	21789
874.722	21793
874.851	21751
874.979	21892
875.108	21960
875.237	21934
875.365	21827
875.494	21808
875.623	21926
875.751	21842
875.88	21808
876.008	22070
876.136	21888
876.265	22325
876.393	22303
876.521	22253
876.65	22462
876.778	22352
876.906	22314
877.034	22265
877.162	22173
877.29	22139
877.418	22166
877.546	22295
877.674	22234
877.802	22333
877.93	22192
878.058	22238
878.185	22143
878.313	22120
878.441	22147
878.568	21994
878.696	22181
878.824	22234
878.951	22299
879.079	22379
879.206	22447
879.333	22432
879.461	22291
879.588	22310
879.715	22417
879.842	22485
879.97	22310
880.097	22143
880.224	22139
880.351	22158
880.478	22063
880.605	22055
880.732	22021
880.859	22253
880.986	22059
881.112	22025
881.239	21998
881.366	21842
881.493	21732
881.619	21633
881.746	21667
881.872	21701
881.999	21629
882.125	21530
882.252	21591
882.378	21549
882.505	21690
882.631	21481
882.757	21401
882.883	21420
883.01	21424
883.136	21272
883.262	21150
883.388	21192
883.514	21397
883.64	21424
883.766	21378
883.892	21203
884.018	21127
884.143	21222
884.269	21367
884.395	21070
884.52	20941
884.646	20952
884.772	20979
884.897	20887
885.023	20842
885.148	21032
885.274	21108
885.399	20979
885.524	20872
885.65	20876
885.775	20967
885.9	20956
886.025	21013
886.15	21131
886.275	20872
886.4	20693
886.525	20948
886.65	20868
886.775	20864
886.9	21089
887.025	21081
887.149	20883
887.274	20724
887.399	20876
887.523	20807
887.648	20636
887.773	20651
887.897	20811
888.021	20762
888.146	20655
888.27	20796
888.395	20762
888.519	20781
888.643	20716
888.767	20815
888.891	20655
889.015	20560
889.139	20754
889.263	20480
889.387	20629
889.511	20705
889.635	20617
889.759	20503
889.883	20552
890.006	20484
890.13	20617
890.254	20278
890.377	20450
890.501	20465
890.624	20370
890.748	20358
890.871	20206
890.995	20039
891.118	20020
891.241	20126
891.364	20195
891.488	20271
891.611	20107
891.734	20100
891.857	20172
891.98	20119
892.103	20092
892.226	20126
892.349	19982
892.471	19959
892.594	19955
892.717	20138
892.839	20134
892.962	20122
893.085	20031
893.207	20069
893.33	19932
893.452	19932
893.575	20115
893.697	20031
893.819	20084
893.941	20187
894.064	20240
894.186	19978
894.308	19959
894.43	20062
894.552	20176
894.674	20027
894.796	20001
894.918	20001
895.04	20005
895.161	20149
895.283	19944
895.405	20020
895.526	19959
895.648	19932
895.769	19993
895.891	20103
896.012	20138
896.134	20058
896.255	20046
896.376	20050
896.498	19993
896.619	20122
896.74	19959
896.861	20035
896.982	20309
897.103	20423
897.224	20237
897.345	20088
897.466	20119
897.587	20286
897.708	20385
897.828	20271
897.949	20180
898.07	20134
898.19	20126
898.311	20271
898.431	20134
898.552	20180
898.672	20339
898.792	20278
898.913	20267
899.033	20062
899.153	20043
899.273	20077
899.393	19974
899.513	20073
899.633	20027
899.753	20020
899.873	20008
899.993	20005
900.113	19974
900.232	19967
900.352	19997
900.472	19723
900.591	19704
900.711	19837
900.83	19647
900.95	19928
901.069	19761
901.189	19681
901.308	19449
901.427	19278
901.546	19316
901.665	19289
901.784	19343
901.904	19308
902.023	19145
902.141	18962
902.26	18840
902.379	18954
902.498	18844
902.617	18909
902.735	18916
902.854	18856
902.973	18844
903.091	18608
903.21	18426
903.328	18521
903.446	18483
903.565	18323
903.683	18452
903.801	18197
903.919	18300
904.038	18334
904.156	18114
904.274	18171
904.392	18072
904.51	18060
904.627	17992
904.745	18148
904.863	18148
904.981	17996
905.098	17847
905.216	17885
905.334	17840
905.451	17836
905.569	17642
905.686	17904
905.803	17722
905.921	17558
906.038	17748
906.155	17710
906.272	17501
906.389	17512
906.506	17322
906.623	17288
906.74	17315
906.857	17246
906.974	17269
907.091	17372
907.208	17429
907.324	17288
907.441	17223
907.557	17109
907.674	17029
907.79	17003
907.907	16908
908.023	17098
908.139	17079
908.256	16877
908.372	16961
908.488	17010
908.604	16793
908.72	16706
908.836	16721
908.952	16797
909.068	16729
909.184	16782
909.3	16759
909.415	16793
909.531	16668
909.647	16459
909.762	16451
909.878	16440
909.993	16421
910.108	16485
910.224	16322
910.339	16424
910.454	16371
910.57	16211
910.685	16215
910.8	16436
910.915	16405
911.03	16329
911.145	16082
911.259	15960
911.374	16021
911.489	15949
911.604	15934
911.718	15797
911.833	15831
911.947	15690
912.062	15591
912.176	15656
912.291	15854
912.405	15774
912.519	16051
912.633	15934
912.748	15827
912.862	15728
912.976	15610
913.09	15481
913.204	15454
913.318	15488
913.431	15606
913.545	15652
913.659	15747
913.772	15637
913.886	15561
914	15458
914.113	15500
914.226	15458
914.34	15420
914.453	15317
914.566	15488
914.68	15302
914.793	15298
914.906	15066
915.019	15097
915.132	15028
915.245	14941
915.358	15138
915.47	14994
915.583	15013
915.696	15135
915.809	15161
915.921	15138
916.034	14990
916.146	14895
916.259	14925
916.371	14971
916.483	15085
916.595	14819
916.708	14872
916.82	14830
916.932	14716
917.044	14712
917.156	14765
917.268	14598
917.38	14705
917.491	14598
917.603	14754
917.715	14872
917.826	14842
917.938	14686
918.049	14404
918.161	14602
918.272	14686
918.384	14720
918.495	14556
918.606	14587
918.717	14545
918.828	14476
918.939	14590
919.05	14396
919.161	14518
919.272	14252
919.383	14347
919.494	14442
919.604	14613
919.715	14465
919.826	14465
919.936	14377
920.047	14503
920.157	14374
920.267	14636
920.378	14419
920.488	14408
920.598	14488
920.708	14644
920.818	14495
920.928	14522
921.038	14606
921.148	14636
921.258	14374
921.368	14218
921.477	14130
921.587	14199
921.697	14035
921.806	14183
921.916	13925
922.025	13921
922.134	13780
922.244	13742
922.353	13803
922.462	13639
922.571	13647
922.68	13407
922.789	13377
922.898	13430
923.007	13457
923.116	13468
923.224	13476
923.333	13453
923.442	13320
923.55	13289
923.659	13236
923.767	13327
923.876	13202
923.984	13304
924.092	13152
924.201	13206
924.309	13164
924.417	13107
924.525	13160
924.633	13118
924.741	13913
924.849	12928
924.956	13072
925.064	12810
925.172	12726
925.279	12825
925.387	12844
925.494	12920
925.602	13107
925.709	12821
925.816	12734
925.924	12764
926.031	12886
926.138	12848
926.245	12817
926.352	12764
926.459	12844
926.566	12856
926.673	12772
926.779	12601
926.886	12620
926.993	12418
927.099	12334
927.206	12403
927.312	12251
927.419	12429
927.525	12376
927.631	12395
927.737	12369
927.843	12216
927.95	12136
928.056	12155
928.162	12292
928.267	12232
928.373	12935
928.479	12292
928.585	12117
928.69	12190
928.796	12228
928.901	12121
929.007	11992
929.112	12129
929.218	11984
929.323	12053
929.428	12003
929.533	12053
929.638	11923
929.743	11897
929.848	11965
929.953	11878
930.058	11931
930.163	11710
930.267	11794
930.372	11745
930.477	11642
930.581	11840
930.685	11737
930.79	11528
930.894	11592
930.998	11558
931.103	11646
931.207	11322
931.311	11261
931.415	11140
931.519	10968
931.623	10934
