Data from test_V78500241_1029.txt Node
Date: Fri Mar 25 15:17:01 CST 2022
User: usil
Spectrometer: V785-0024
Trigger mode: 0
Integration Time (sec): 4.000000E-1
Scans to average: 1
Nonlinearity correction enabled: false
Boxcar width: 0
Storing dark spectrum: false
XAxis mode: Wavelengths
Number of Pixels in Spectrum: 1024
>>>>>Begin Spectral Data<<<<<
801.071	28394
801.214	28356
801.356	28158
801.499	27987
801.641	27838
801.783	27949
801.926	28124
802.068	28074
802.211	27903
802.353	27861
802.496	27690
802.638	27641
802.78	27660
802.923	27644
803.065	27705
803.208	27504
803.35	27564
803.492	27694
803.635	27873
803.777	27785
803.919	27831
804.061	28242
804.204	27968
804.346	27751
804.488	27823
804.63	27876
804.773	27892
804.915	27934
805.057	27998
805.199	27880
805.341	27964
805.483	27953
805.626	28021
805.768	27861
805.91	27983
806.052	28105
806.194	27979
806.336	28219
806.478	28029
806.62	28162
806.762	28051
806.904	28318
807.046	28588
807.188	28394
807.33	28337
807.472	28459
807.614	28432
807.756	28398
807.898	28325
808.04	28223
808.182	28352
808.324	28261
808.465	28272
808.607	28550
808.749	28713
808.891	28729
809.033	28919
809.174	28801
809.316	28683
809.458	28615
809.6	28622
809.741	28915
809.883	28816
810.025	28946
810.166	28820
810.308	28987
810.45	28900
810.591	28942
810.733	28721
810.875	28752
811.016	28626
811.158	28755
811.299	28896
811.441	28858
811.582	28835
811.724	28710
811.865	28668
812.007	28740
812.148	28694
812.29	28828
812.431	28809
812.573	28999
812.714	28965
812.855	29235
812.997	29265
813.138	29429
813.279	29417
813.421	29269
813.562	29200
813.703	29086
813.845	28904
813.986	28675
814.127	28519
814.268	28531
814.41	28459
814.551	28367
814.692	28440
814.833	28417
814.974	28318
815.115	28481
815.256	28265
815.397	28295
815.539	28337
815.68	28280
815.821	28097
815.962	28215
816.103	28344
816.244	28131
816.385	28025
816.526	28082
816.666	27778
816.807	27603
816.948	27762
817.089	27911
817.23	27850
817.371	27648
817.512	27671
817.653	27713
817.793	27766
817.934	27736
818.075	27842
818.216	27686
818.356	27774
818.497	27542
818.638	27462
818.778	27599
818.919	27587
819.06	27538
819.2	27652
819.341	27774
819.481	27759
819.622	27781
819.762	28025
819.903	28002
820.043	27880
820.184	27926
820.324	27835
820.465	27964
820.605	27812
820.746	27861
820.886	27755
821.026	27724
821.167	27854
821.307	27781
821.447	27705
821.588	27629
821.728	27564
821.868	27363
822.008	27123
822.149	27275
822.289	27104
822.429	26929
822.569	26819
822.709	26933
822.849	26739
822.99	26762
823.13	26701
823.27	26701
823.41	26488
823.55	26476
823.69	26636
823.83	26632
823.97	26541
824.11	26347
824.25	26385
824.389	26339
824.529	26389
824.669	26431
824.809	26473
824.949	26537
825.089	26434
825.228	26408
825.368	26244
825.508	26191
825.648	26202
825.787	26206
825.927	26423
826.067	26191
826.206	26191
826.346	26225
826.485	26267
826.625	26301
826.765	26404
826.904	26374
827.044	26020
827.183	26130
827.323	25993
827.462	25921
827.601	26008
827.741	25913
827.88	26054
828.02	25989
828.159	26005
828.298	26050
828.437	26122
828.577	25970
828.716	26005
828.855	25966
828.994	25708
829.134	25647
829.273	25635
829.412	25700
829.551	25723
829.69	25772
829.829	25689
829.968	25803
830.107	25852
830.246	25628
830.385	25613
830.524	25677
830.663	25472
830.802	25403
830.941	25293
831.08	25350
831.219	25373
831.357	25388
831.496	25460
831.635	25365
831.774	25251
831.913	25190
832.051	25228
832.19	25110
832.329	25145
832.467	25004
832.606	24875
832.744	25027
832.883	24939
833.022	24977
833.16	24970
833.299	25160
833.437	25008
833.576	25065
833.714	25164
833.852	25247
833.991	25175
834.129	25175
834.267	25076
834.406	25088
834.544	25004
834.682	25076
834.821	24992
834.959	25263
835.097	25099
835.235	25053
835.373	25004
835.511	24970
835.65	24966
835.788	24875
835.926	24707
836.064	24661
836.202	24646
836.34	24928
836.478	24962
836.615	24932
836.753	24916
836.891	24901
837.029	24905
837.167	24730
837.305	24802
837.443	24753
837.58	24707
837.718	24833
837.856	24673
837.993	24700
838.131	24631
838.269	24612
838.406	24589
838.544	24585
838.681	24399
838.819	24319
838.956	24152
839.094	24125
839.231	24277
839.369	24414
839.506	24486
839.643	24441
839.781	24273
839.918	24102
840.055	24133
840.193	24121
840.33	24140
840.467	24133
840.604	24133
840.742	24270
840.879	23904
841.016	24064
841.153	24041
841.29	24102
841.427	24011
841.564	24144
841.701	24174
841.838	24110
841.975	24015
842.112	23908
842.249	23771
842.385	23893
842.522	24129
842.659	23798
842.796	23870
842.933	23859
843.069	23779
843.206	23745
843.343	23897
843.479	23912
843.616	23901
843.752	23630
843.889	23748
844.025	23802
844.162	23649
844.298	23794
844.435	23634
844.571	23520
844.708	23581
844.844	23779
844.98	23767
845.117	23748
845.253	23634
845.389	23566
845.525	23585
845.661	23467
845.798	23444
845.934	23573
846.07	23349
846.206	23406
846.342	23505
846.478	23326
846.614	23307
846.75	23025
846.886	23124
847.022	23239
847.158	23128
847.294	23098
847.429	23102
847.565	22949
847.701	23448
847.837	22797
847.972	22824
848.108	22923
848.244	22843
848.379	22736
848.515	22664
848.65	22710
848.786	22702
848.921	22774
849.057	22782
849.192	22729
849.328	22649
849.463	22637
849.598	22641
849.734	22649
849.869	22519
850.004	22398
850.14	22451
850.275	22493
850.41	22478
850.545	22318
850.68	22447
850.815	22478
850.95	22421
851.085	22580
851.22	22512
851.355	22451
851.49	22413
851.625	22386
851.76	22386
851.895	22360
852.03	22356
852.165	22478
852.299	22527
852.434	22508
852.569	22451
852.703	22443
852.838	22432
852.973	22512
853.107	22516
853.242	22421
853.376	22299
853.511	22223
853.645	22196
853.78	22299
853.914	22249
854.048	22196
854.183	22322
854.317	22215
854.451	22428
854.585	22375
854.72	22173
854.854	22287
854.988	22287
855.122	22276
855.256	22116
855.39	22192
855.524	22238
855.658	22223
855.792	22287
855.926	22242
856.06	22375
856.194	22371
856.327	22162
856.461	22246
856.595	22261
856.729	22265
856.862	22382
856.996	22303
857.13	22265
857.263	22333
857.397	22382
857.53	22280
857.664	22257
857.797	22337
857.931	22421
858.064	22265
858.197	22386
858.331	22276
858.464	22215
858.597	22070
858.731	22249
858.864	22097
858.997	22238
859.13	22196
859.263	22215
859.396	22287
859.529	22112
859.662	22204
859.795	22261
859.928	22325
860.061	22394
860.194	22561
860.327	22242
860.46	22356
860.592	22375
860.725	22310
860.858	22497
860.99	22333
861.123	22128
861.256	22310
861.388	22219
861.521	22953
861.653	22109
861.786	21979
861.918	22048
862.05	22154
862.183	22249
862.315	22139
862.447	22257
862.58	22181
862.712	22013
862.844	21960
862.976	21994
863.108	21934
863.24	22542
863.372	21842
863.504	21911
863.636	21930
863.768	21926
863.9	21949
864.032	21983
864.164	21922
864.296	22032
864.428	22051
864.559	21975
864.691	22097
864.823	22051
864.954	21956
865.086	21854
865.217	21994
865.349	21812
865.48	21743
865.612	21774
865.743	21956
865.875	21983
866.006	21762
866.137	21861
866.269	21873
866.4	21800
866.531	21698
866.662	21747
866.793	21728
866.924	21759
867.055	21861
867.186	21880
867.317	21835
867.448	21766
867.579	21698
867.71	21599
867.841	21705
867.972	21785
868.103	21762
868.233	21762
868.364	21747
868.495	21819
868.625	22162
868.756	21972
868.886	21949
869.017	21907
869.147	22055
869.278	22059
869.408	22116
869.539	22013
869.669	22082
869.799	22101
869.929	22128
870.06	22166
870.19	22272
870.32	22287
870.45	22219
870.58	22497
870.71	22500
870.84	22516
870.97	22291
871.1	22367
871.23	22535
871.36	22588
871.489	22390
871.619	22569
871.749	22550
871.879	22607
872.008	22656
872.138	22561
872.267	22577
872.397	22603
872.526	22390
872.656	22428
872.785	22382
872.915	22626
873.044	22744
873.173	22694
873.303	22580
873.432	22687
873.561	22812
873.69	22641
873.819	22626
873.948	22691
874.077	22649
874.206	22599
874.335	22626
874.464	22805
874.593	22892
874.722	22767
874.851	22672
874.979	22915
875.108	22790
875.237	22725
875.365	22744
875.494	22752
875.623	22843
875.751	22702
875.88	22824
876.008	22877
876.136	22900
876.265	23117
876.393	23341
876.521	23364
876.65	23242
876.778	23254
876.906	23200
877.034	23094
877.162	23056
877.29	23064
877.418	23124
877.546	23166
877.674	23220
877.802	23269
877.93	23117
878.058	23041
878.185	22991
878.313	23071
878.441	23185
878.568	22987
878.696	22999
878.824	23113
878.951	23242
879.079	23288
879.206	23356
879.333	23337
879.461	23075
879.588	23379
879.715	23296
879.842	23353
879.97	23284
880.097	23022
880.224	23029
880.351	23166
880.478	22961
880.605	22820
880.732	22991
880.859	23185
880.986	23071
881.112	23094
881.239	22801
881.366	22729
881.493	22713
881.619	22504
881.746	22523
881.872	22546
881.999	22489
882.125	22497
882.252	22462
882.378	22440
882.505	22725
882.631	22314
882.757	22272
882.883	22379
883.01	22295
883.136	22154
883.262	22135
883.388	22109
883.514	22200
883.64	22223
883.766	22181
883.892	21983
884.018	22029
884.143	22063
884.269	22230
884.395	21979
884.52	21865
884.646	21869
884.772	21812
884.897	21903
885.023	21880
885.148	21892
885.274	22097
885.399	21960
885.524	21831
885.65	21975
885.775	21861
885.9	21846
886.025	21911
886.15	21797
886.275	21720
886.4	21766
886.525	21827
886.65	21926
886.775	21781
886.9	21880
887.025	22036
887.149	21835
887.274	21724
887.399	21568
887.523	21679
887.648	21542
887.773	21568
887.897	21724
888.021	21724
888.146	21641
888.27	21713
888.395	21713
888.519	21614
888.643	21606
888.767	21663
888.891	21610
889.015	21507
889.139	21439
889.263	21260
889.387	21431
889.511	21690
889.635	21488
889.759	21443
889.883	21355
890.006	21424
890.13	21523
890.254	21443
890.377	21389
890.501	21116
890.624	21150
890.748	21233
890.871	21161
890.995	20868
891.118	20921
891.241	20921
891.364	21017
891.488	21104
891.611	20914
891.734	20933
891.857	21058
891.98	21017
892.103	21005
892.226	20944
892.349	20956
892.471	20758
892.594	20830
892.717	20880
892.839	20796
892.962	20967
893.085	20925
893.207	20868
893.33	20663
893.452	20880
893.575	21005
893.697	20864
893.819	21032
893.941	21039
894.064	21062
894.186	20838
894.308	20701
894.43	20963
894.552	21058
894.674	20876
894.796	20785
894.918	20781
895.04	20925
895.161	20811
895.283	20918
895.405	20918
895.526	20845
895.648	20880
895.769	20807
895.891	20937
896.012	20979
896.134	20883
896.255	20853
896.376	20861
896.498	20746
896.619	20857
896.74	20815
896.861	20921
896.982	21188
897.103	21241
897.224	21077
897.345	21131
897.466	20921
897.587	21146
897.708	21123
897.828	21154
897.949	20902
898.07	20895
898.19	20929
898.311	21150
898.431	20815
898.552	21017
898.672	21226
898.792	21188
898.913	21104
899.033	20895
899.153	20792
899.273	20880
899.393	20765
899.513	20800
899.633	20743
899.753	20758
899.873	20686
899.993	20830
900.113	20689
900.232	20625
900.352	20716
900.472	20724
900.591	20469
900.711	20465
900.83	20461
900.95	20598
901.069	20575
901.189	20480
901.308	20240
901.427	20119
901.546	20016
901.665	20263
901.784	20081
901.904	20024
902.023	19997
902.141	19696
902.26	19761
902.379	19594
902.498	19635
902.617	19658
902.735	19609
902.854	19590
902.973	19537
903.091	19312
903.21	19297
903.328	19228
903.446	19209
903.565	19129
903.683	19137
903.801	18951
903.919	19129
904.038	19008
904.156	18825
904.274	18939
904.392	18806
904.51	18810
904.627	18886
904.745	18840
904.863	18878
904.981	18597
905.098	18585
905.216	18513
905.334	18528
905.451	18494
905.569	18399
905.686	18525
905.803	18525
905.921	18289
906.038	18452
906.155	18399
906.272	18163
906.389	18186
906.506	18083
906.623	18083
906.74	18060
906.857	18011
906.974	17969
907.091	18163
907.208	18148
907.324	18007
907.441	17927
907.557	17817
907.674	17779
907.79	17680
907.907	17684
908.023	17802
908.139	17764
908.256	17695
908.372	17687
908.488	17611
908.604	17486
908.72	17478
908.836	17478
908.952	17368
909.068	17535
909.184	17600
909.3	17493
909.415	17482
909.531	17459
909.647	17162
909.762	17269
909.878	17128
909.993	17132
910.108	17102
910.224	17128
910.339	17239
910.454	16934
910.57	16946
910.685	16869
910.8	17155
910.915	17166
911.03	16919
911.145	16824
911.259	16752
911.374	16717
911.489	16740
911.604	16561
911.718	16489
911.833	16538
911.947	16485
912.062	16219
912.176	16462
912.291	16394
912.405	16516
912.519	16592
912.633	16630
912.748	16500
912.862	16424
912.976	16272
913.09	16295
913.204	16348
913.318	16310
913.431	16318
913.545	16363
913.659	16379
913.772	16158
913.886	16181
914	15968
914.113	16185
914.226	16177
914.34	16188
914.453	15960
914.566	16109
914.68	16082
914.793	15827
914.906	15736
915.019	15701
915.132	15663
915.245	15679
915.358	15637
915.47	15717
915.583	15656
915.696	15625
915.809	15755
915.921	15945
916.034	15618
916.146	15671
916.259	15515
916.371	15568
916.483	15644
916.595	15534
916.708	15431
916.82	15500
916.932	15374
917.044	15481
917.156	15363
917.268	15291
917.38	15473
917.491	15405
917.603	15405
917.715	15401
917.826	15393
917.938	15298
918.049	15199
918.161	15287
918.272	15431
918.384	15355
918.495	15154
918.606	15081
918.717	15077
918.828	15070
918.939	15043
919.05	14963
919.161	15146
919.272	14834
919.383	14952
919.494	15138
919.604	15279
919.715	15089
919.826	14982
919.936	14998
920.047	15070
920.157	15142
920.267	15161
920.378	15039
920.488	14929
920.598	15127
920.708	15321
920.818	15005
920.928	15237
921.038	15203
921.148	15218
921.258	14990
921.368	14834
921.477	14667
921.587	14724
921.697	14659
921.806	14670
921.916	14552
922.025	14469
922.134	14336
922.244	14366
922.353	14461
922.462	14202
922.571	14176
922.68	14016
922.789	13967
922.898	13940
923.007	13993
923.116	14088
923.224	13925
923.333	14008
923.442	13845
923.55	13883
923.659	13890
923.767	13845
923.876	13807
923.984	13837
924.092	13643
924.201	13734
924.309	13761
924.417	13693
924.525	13769
924.633	13636
924.741	14545
924.849	13407
924.956	13696
925.064	13468
925.172	13369
925.279	13316
925.387	13362
925.494	13415
925.602	13556
925.709	13354
925.816	13312
925.924	13335
926.031	13403
926.138	13343
926.245	13441
926.352	13297
926.459	13354
926.566	13438
926.673	13255
926.779	13103
926.886	13190
926.993	13012
927.099	13034
927.206	12875
927.312	12886
927.419	13000
927.525	12890
927.631	13050
927.737	12772
927.843	12730
927.95	12642
928.056	12753
928.162	12730
928.267	12806
928.373	13308
928.479	12806
928.585	12536
928.69	12787
928.796	12700
928.901	12582
929.007	12471
929.112	12566
929.218	12585
929.323	12513
929.428	12448
929.533	12578
929.638	12391
929.743	12407
929.848	12403
929.953	12384
930.058	12262
930.163	12228
930.267	12148
930.372	12281
930.477	12057
930.581	12292
930.685	12190
930.79	12057
930.894	12057
930.998	11996
931.103	12159
931.207	11745
931.311	11805
931.415	11611
931.519	11379
931.623	11353
