Data from test_V78500241_2773.txt Node
Date: Fri Mar 25 15:29:10 CST 2022
User: usil
Spectrometer: V785-0024
Trigger mode: 0
Integration Time (sec): 4.000000E-1
Scans to average: 1
Nonlinearity correction enabled: false
Boxcar width: 0
Storing dark spectrum: false
XAxis mode: Wavelengths
Number of Pixels in Spectrum: 1024
>>>>>Begin Spectral Data<<<<<
801.071	26948
801.214	27119
801.356	26731
801.499	26815
801.641	26514
801.783	26701
801.926	26609
802.068	26571
802.211	26522
802.353	26408
802.496	26362
802.638	26164
802.78	26218
802.923	26252
803.065	26088
803.208	26134
803.35	26317
803.492	26453
803.635	26385
803.777	26199
803.919	26450
804.061	26632
804.204	26484
804.346	26309
804.488	26377
804.63	26343
804.773	26271
804.915	26317
805.057	26412
805.199	26358
805.341	26469
805.483	26541
805.626	26552
805.768	26434
805.91	26457
806.052	26602
806.194	26336
806.336	26644
806.478	26453
806.62	26381
806.762	26632
806.904	26727
807.046	26971
807.188	26921
807.33	27024
807.472	27013
807.614	26769
807.756	26746
807.898	26727
808.04	26636
808.182	26693
808.324	26617
808.465	26872
808.607	26933
808.749	27150
808.891	27150
809.033	27154
809.174	27237
809.316	26975
809.458	27032
809.6	26842
809.741	27055
809.883	27127
810.025	27298
810.166	27359
810.308	27424
810.45	27298
810.591	27408
810.733	27157
810.875	26937
811.016	26887
811.158	27017
811.299	27245
811.441	27252
811.582	27226
811.724	27039
811.865	27077
812.007	26994
812.148	27047
812.29	27104
812.431	27169
812.573	27367
812.714	27355
812.855	27526
812.997	27595
813.138	27808
813.279	27751
813.421	27519
813.562	27496
813.703	27382
813.845	27272
813.986	27055
814.127	26773
814.268	26537
814.41	26781
814.551	26727
814.692	26701
814.833	26621
814.974	26724
815.115	26689
815.256	26663
815.397	26739
815.539	26613
815.68	26480
815.821	26446
815.962	26461
816.103	26427
816.244	26210
816.385	26210
816.526	26233
816.666	26096
816.807	25894
816.948	25978
817.089	26043
817.23	26054
817.371	25951
817.512	25947
817.653	25925
817.793	25875
817.934	25906
818.075	25932
818.216	25803
818.356	25963
818.497	25845
818.638	25559
818.778	25696
818.919	25750
819.06	25731
819.2	25765
819.341	25890
819.481	25913
819.622	25986
819.762	26320
819.903	26252
820.043	26202
820.184	26016
820.324	26062
820.465	26084
820.605	26065
820.746	25909
820.886	25890
821.026	25966
821.167	25890
821.307	26096
821.447	26073
821.588	25723
821.728	25681
821.868	25563
822.008	25331
822.149	25419
822.289	25403
822.429	25240
822.569	25187
822.709	25122
822.849	25046
822.99	24909
823.13	24920
823.27	24817
823.41	24696
823.55	24623
823.69	24859
823.83	24776
823.97	24692
824.11	24597
824.25	24509
824.389	24475
824.529	24521
824.669	24570
824.809	24760
824.949	24589
825.089	24719
825.228	24639
825.368	24483
825.508	24437
825.648	24350
825.787	24422
825.927	24505
826.067	24247
826.206	24281
826.346	24437
826.485	24372
826.625	24418
826.765	24612
826.904	24521
827.044	24102
827.183	24171
827.323	23980
827.462	24152
827.601	24083
827.741	23980
827.88	24140
828.02	23904
828.159	24136
828.298	24167
828.437	24194
828.577	24015
828.716	24121
828.855	24026
828.994	23824
829.134	23707
829.273	23935
829.412	23817
829.551	23817
829.69	23855
829.829	23916
829.968	23851
830.107	23954
830.246	23771
830.385	23813
830.524	23771
830.663	23611
830.802	23566
830.941	23372
831.08	23406
831.219	23455
831.357	23596
831.496	23615
831.635	23376
831.774	23345
831.913	23353
832.051	23227
832.19	23132
832.329	23174
832.467	23269
832.606	23094
832.744	23170
832.883	23193
833.022	23067
833.16	23143
833.299	23109
833.437	23075
833.576	23132
833.714	23109
833.852	23197
833.991	23372
834.129	23041
834.267	23242
834.406	23151
834.544	23261
834.682	23033
834.821	23181
834.959	23349
835.097	23075
835.235	23048
835.373	23174
835.511	23220
835.65	22999
835.788	23037
835.926	22812
836.064	22755
836.202	22828
836.34	22972
836.478	23094
836.615	23025
836.753	22987
836.891	23090
837.029	23075
837.167	23041
837.305	22866
837.443	22915
837.58	22763
837.718	22843
837.856	22797
837.993	22782
838.131	22854
838.269	22763
838.406	22740
838.544	22790
838.681	22523
838.819	22481
838.956	22325
839.094	22295
839.231	22421
839.369	22436
839.506	22710
839.643	22577
839.781	22402
839.918	22386
840.055	22284
840.193	22322
840.33	22386
840.467	22226
840.604	22306
840.742	22550
840.879	22147
841.016	22242
841.153	22230
841.29	22390
841.427	22234
841.564	22265
841.701	22192
841.838	22249
841.975	22112
842.112	22257
842.249	22086
842.385	22131
842.522	22295
842.659	22166
842.796	22051
842.933	21915
843.069	21968
843.206	21991
843.343	22013
843.479	22048
843.616	22002
843.752	21819
843.889	21804
844.025	21960
844.162	21888
844.298	21903
844.435	21755
844.571	21720
844.708	21960
844.844	21907
844.98	21930
845.117	21899
845.253	21694
845.389	21713
845.525	21751
845.661	21724
845.798	21606
845.934	21595
846.07	21557
846.206	21568
846.342	21682
846.478	21473
846.614	21348
846.75	21241
846.886	21237
847.022	21332
847.158	21329
847.294	21268
847.429	21336
847.565	21203
847.701	21458
847.837	21028
847.972	21066
848.108	21135
848.244	21199
848.379	20910
848.515	20914
848.65	20792
848.786	20861
848.921	20777
849.057	21005
849.192	20834
849.328	20819
849.463	20921
849.598	20941
849.734	20777
849.869	20701
850.004	20689
850.14	20727
850.275	20686
850.41	20556
850.545	20511
850.68	20644
850.815	20617
850.95	20644
851.085	20781
851.22	20701
851.355	20625
851.49	20495
851.625	20511
851.76	20625
851.895	20408
852.03	20564
852.165	20602
852.299	20693
852.434	20651
852.569	20583
852.703	20609
852.838	20571
852.973	20773
853.107	20727
853.242	20640
853.376	20507
853.511	20278
853.645	20427
853.78	20590
853.914	20556
854.048	20469
854.183	20427
854.317	20473
854.451	20731
854.585	20473
854.72	20473
854.854	20484
854.988	20324
855.122	20408
855.256	20286
855.39	20450
855.524	20579
855.658	20545
855.792	20522
855.926	20358
856.06	20568
856.194	20568
856.327	20465
856.461	20355
856.595	20320
856.729	20301
856.862	20533
856.996	20518
857.13	20431
857.263	20609
857.397	20492
857.53	20434
857.664	20457
857.797	20473
857.931	20511
858.064	20495
858.197	20541
858.331	20412
858.464	20313
858.597	20332
858.731	20408
858.864	20431
858.997	20404
859.13	20465
859.263	20465
859.396	20450
859.529	20396
859.662	20419
859.795	20355
859.928	20492
860.061	20488
860.194	20629
860.327	20514
860.46	20446
860.592	20568
860.725	20609
860.858	20579
860.99	20434
861.123	20450
861.256	20332
861.388	20438
861.521	21036
861.653	20343
861.786	20256
861.918	20298
862.05	20305
862.183	20347
862.315	20393
862.447	20412
862.58	20450
862.712	20119
862.844	20115
862.976	20328
863.108	20343
863.24	20670
863.372	20168
863.504	20202
863.636	20142
863.768	20103
863.9	20126
864.032	20130
864.164	20115
864.296	20122
864.428	20347
864.559	20309
864.691	20202
864.823	20183
864.954	20263
865.086	20122
865.217	20119
865.349	19883
865.48	20100
865.612	20088
865.743	20180
865.875	20035
866.006	20005
866.137	20001
866.269	19974
866.4	20058
866.531	19928
866.662	20008
866.793	19860
866.924	19932
867.055	20138
867.186	20027
867.317	20126
867.448	19940
867.579	19997
867.71	19902
867.841	19947
867.972	20008
868.103	19928
868.233	20012
868.364	20043
868.495	20065
868.625	20214
868.756	20294
868.886	20271
869.017	20149
869.147	20244
869.278	20374
869.408	20278
869.539	20218
869.669	20313
869.799	20278
869.929	20393
870.06	20476
870.19	20514
870.32	20602
870.45	20594
870.58	20689
870.71	20659
870.84	20754
870.97	20682
871.1	20621
871.23	20788
871.36	20823
871.489	20765
871.619	20906
871.749	20883
871.879	20910
872.008	20899
872.138	20765
872.267	20842
872.397	20872
872.526	20796
872.656	20693
872.785	20708
872.915	20933
873.044	20979
873.173	20815
873.303	21096
873.432	20941
873.561	20895
873.69	20941
873.819	20861
873.948	21028
874.077	20864
874.206	20823
874.335	20823
874.464	20891
874.593	21100
874.722	21032
874.851	21154
874.979	21123
875.108	21222
875.237	21146
875.365	21051
875.494	21081
875.623	21249
875.751	21127
875.88	21062
876.008	21233
876.136	21408
876.265	21519
876.393	21724
876.521	21534
876.65	21530
876.778	21603
876.906	21408
877.034	21462
877.162	21473
877.29	21450
877.418	21515
877.546	21587
877.674	21587
877.802	21420
877.93	21412
878.058	21443
878.185	21454
878.313	21523
878.441	21492
878.568	21173
878.696	21408
878.824	21549
878.951	21576
879.079	21591
879.206	21766
879.333	21587
879.461	21576
879.588	21583
879.715	21519
879.842	21739
879.97	21606
880.097	21252
880.224	21306
880.351	21378
880.478	21283
880.605	21150
880.732	21203
880.859	21492
880.986	21340
881.112	21348
881.239	21211
881.366	21024
881.493	20956
881.619	20914
881.746	20872
881.872	20872
881.999	20880
882.125	20777
882.252	20895
882.378	20895
882.505	20902
882.631	20804
882.757	20689
882.883	20670
883.01	20522
883.136	20503
883.262	20564
883.388	20473
883.514	20571
883.64	20621
883.766	20457
883.892	20336
884.018	20355
884.143	20556
884.269	20541
884.395	20347
884.52	20199
884.646	20290
884.772	20202
884.897	20142
885.023	20138
885.148	20271
885.274	20320
885.399	20263
885.524	20195
885.65	20263
885.775	20320
885.9	20202
886.025	20305
886.15	20351
886.275	20138
886.4	20142
886.525	20199
886.65	20328
886.775	20187
886.9	20438
887.025	20438
887.149	20214
887.274	19967
887.399	20065
887.523	20035
887.648	20058
887.773	19894
887.897	20058
888.021	19955
888.146	19921
888.27	20016
888.395	20214
888.519	20039
888.643	20043
888.767	20122
888.891	19906
889.015	19898
889.139	19917
889.263	19791
889.387	19932
889.511	20012
889.635	19856
889.759	19788
889.883	19890
890.006	19887
890.13	20024
890.254	19791
890.377	19803
890.501	19616
890.624	19525
890.748	19647
890.871	19514
890.995	19392
891.118	19373
891.241	19426
891.364	19411
891.488	19476
891.611	19434
891.734	19396
891.857	19449
891.98	19343
892.103	19464
892.226	19510
892.349	19304
892.471	19152
892.594	19335
892.717	19324
892.839	19259
892.962	19331
893.085	19514
893.207	19297
893.33	19244
893.452	19266
893.575	19381
893.697	19304
893.819	19460
893.941	19578
894.064	19434
894.186	19362
894.308	19217
894.43	19468
894.552	19575
894.674	19327
894.796	19312
894.918	19407
895.04	19350
895.161	19331
895.283	19419
895.405	19343
895.526	19419
895.648	19308
895.769	19327
895.891	19403
896.012	19384
896.134	19403
896.255	19293
896.376	19266
896.498	19392
896.619	19426
896.74	19274
896.861	19358
896.982	19715
897.103	19765
897.224	19677
897.345	19506
897.466	19578
897.587	19438
897.708	19643
897.828	19658
897.949	19483
898.07	19480
898.19	19518
898.311	19601
898.431	19510
898.552	19499
898.672	19734
898.792	19738
898.913	19548
899.033	19480
899.153	19392
899.273	19190
899.393	19320
899.513	19270
899.633	19304
899.753	19285
899.873	19358
899.993	19316
900.113	19373
900.232	19346
900.352	19411
900.472	19259
900.591	19114
900.711	19225
900.83	19046
900.95	19293
901.069	19145
901.189	19034
901.308	18886
901.427	18707
901.546	18738
901.665	18768
901.784	18741
901.904	18551
902.023	18513
902.141	18353
902.26	18205
902.379	18300
902.498	18258
902.617	18308
902.735	18334
902.854	18159
902.973	18129
903.091	17935
903.21	17908
903.328	17931
903.446	17893
903.565	17710
903.683	17786
903.801	17638
903.919	17718
904.038	17634
904.156	17551
904.274	17532
904.392	17547
904.51	17520
904.627	17512
904.745	17566
904.863	17554
904.981	17414
905.098	17208
905.216	17227
905.334	17269
905.451	17200
905.569	17056
905.686	17193
905.803	17227
905.921	17090
906.038	17083
906.155	17018
906.272	16881
906.389	16889
906.506	16824
906.623	16713
906.74	16691
906.857	16626
906.974	16702
907.091	16831
907.208	16854
907.324	16725
907.441	16683
907.557	16497
907.674	16447
907.79	16478
907.907	16417
908.023	16443
908.139	16443
908.256	16455
908.372	16280
908.488	16394
908.604	16314
908.72	16200
908.836	16200
908.952	16169
909.068	16162
909.184	16211
909.3	16204
909.415	16188
909.531	16291
909.647	16006
909.762	15907
909.878	15808
909.993	15861
910.108	16006
910.224	15880
910.339	15857
910.454	15743
910.57	15762
910.685	15641
910.8	15907
910.915	15865
911.03	15739
911.145	15568
911.259	15458
911.374	15477
911.489	15370
911.604	15397
911.718	15241
911.833	15302
911.947	15279
912.062	15252
912.176	15302
912.291	15355
912.405	15272
912.519	15431
912.633	15408
912.748	15386
912.862	15218
912.976	15070
913.09	15009
913.204	15020
913.318	15104
913.431	15237
913.545	15039
913.659	15108
913.772	14971
913.886	14895
914	14849
914.113	14895
914.226	15116
914.34	14921
914.453	14648
914.566	14967
914.68	14758
914.793	14804
914.906	14594
915.019	14571
915.132	14476
915.245	14488
915.358	14583
915.47	14499
915.583	14530
915.696	14545
915.809	14594
915.921	14625
916.034	14412
916.146	14393
916.259	14347
916.371	14526
916.483	14480
916.595	14328
916.708	14343
916.82	14415
916.932	14393
917.044	14317
917.156	14278
917.268	14172
917.38	14126
917.491	14195
917.603	14221
917.715	14202
917.826	14221
917.938	14088
918.049	14016
918.161	14126
918.272	14248
918.384	14309
918.495	14145
918.606	14001
918.717	13902
918.828	13974
918.939	13955
919.05	13780
919.161	13986
919.272	13765
919.383	13731
919.494	14115
919.604	14119
919.715	13887
919.826	13883
919.936	13993
920.047	14012
920.157	13963
920.267	14050
920.378	13947
920.488	13902
920.598	14142
920.708	14202
920.818	14111
920.928	13955
921.038	14259
921.148	14123
921.258	13875
921.368	13814
921.477	13677
921.587	13738
921.697	13601
921.806	13533
921.916	13613
922.025	13476
922.134	13312
922.244	13350
922.353	13278
922.462	13263
922.571	13240
922.68	13034
922.789	13012
922.898	12989
923.007	12970
923.116	13015
923.224	12989
923.333	12916
923.442	12840
923.55	12772
923.659	12875
923.767	12829
923.876	12760
923.984	12798
924.092	12741
924.201	12791
924.309	12829
924.417	12696
924.525	12620
924.633	12658
924.741	13647
924.849	12452
924.956	12620
925.064	12498
925.172	12353
925.279	12330
925.387	12517
925.494	12441
925.602	12582
925.709	12517
925.816	12315
925.924	12437
926.031	12528
926.138	12372
926.245	12456
926.352	12315
926.459	12372
926.566	12445
926.673	12254
926.779	12167
926.886	12152
926.993	12110
927.099	12068
927.206	11996
927.312	11980
927.419	12175
927.525	11946
927.631	11984
927.737	11973
927.843	11843
927.95	11767
928.056	11908
928.162	11840
928.267	11927
928.373	12570
928.479	11908
928.585	11707
928.69	11813
928.796	11863
928.901	11699
929.007	11532
929.112	11737
929.218	11737
929.323	11600
929.428	11573
929.533	11729
929.638	11509
929.743	11520
929.848	11661
929.953	11566
930.058	11372
930.163	11322
930.267	11307
930.372	11497
930.477	11162
930.581	11402
930.685	11269
930.79	11220
930.894	11220
930.998	11140
931.103	11261
931.207	10831
931.311	10873
931.415	10793
931.519	10611
931.623	10542
