Data from test_V78500241_183.txt Node
Date: Fri Mar 25 15:11:08 CST 2022
User: usil
Spectrometer: V785-0024
Trigger mode: 0
Integration Time (sec): 4.000000E-1
Scans to average: 1
Nonlinearity correction enabled: false
Boxcar width: 0
Storing dark spectrum: false
XAxis mode: Wavelengths
Number of Pixels in Spectrum: 1024
>>>>>Begin Spectral Data<<<<<
801.071	28010
801.214	27774
801.356	27625
801.499	27450
801.641	27485
801.783	27424
801.926	27420
802.068	27447
802.211	27306
802.353	27306
802.496	27089
802.638	27058
802.78	27074
802.923	26960
803.065	26899
803.208	26960
803.35	27112
803.492	27051
803.635	27203
803.777	27009
803.919	27195
804.061	27329
804.204	27340
804.346	26998
804.488	27074
804.63	26842
804.773	26986
804.915	27051
805.057	27154
805.199	26948
805.341	27036
805.483	27195
805.626	27081
805.768	27081
805.91	27138
806.052	27176
806.194	27112
806.336	27405
806.478	27180
806.62	27157
806.762	27207
806.904	27386
807.046	27808
807.188	27545
807.33	27496
807.472	27526
807.614	27454
807.756	27561
807.898	27313
808.04	27317
808.182	27222
808.324	27363
808.465	27530
808.607	27488
808.749	27709
808.891	27873
809.033	27880
809.174	27793
809.316	27743
809.458	27633
809.6	27781
809.741	27656
809.883	27728
810.025	28044
810.166	28067
810.308	28040
810.45	27918
810.591	27869
810.733	27739
810.875	27705
811.016	27648
811.158	27473
811.299	27762
811.441	27819
811.582	27842
811.724	27717
811.865	27557
812.007	27701
812.148	27724
812.29	27679
812.431	27857
812.573	28032
812.714	28013
812.855	28166
812.997	28204
813.138	28455
813.279	28291
813.421	28234
813.562	28109
813.703	27945
813.845	27934
813.986	27637
814.127	27405
814.268	27306
814.41	27351
814.551	27344
814.692	27386
814.833	27252
814.974	27043
815.115	27363
815.256	27211
815.397	27245
815.539	27096
815.68	27032
815.821	26944
815.962	27108
816.103	27005
816.244	26891
816.385	26785
816.526	26716
816.666	26514
816.807	26511
816.948	26682
817.089	26518
817.23	26526
817.371	26389
817.512	26446
817.653	26400
817.793	26389
817.934	26389
818.075	26457
818.216	26476
818.356	26324
818.497	26351
818.638	26115
818.778	26073
818.919	26138
819.06	26324
819.2	26343
819.341	26347
819.481	26282
819.622	26450
819.762	26686
819.903	26663
820.043	26533
820.184	26381
820.324	26556
820.465	26492
820.605	26427
820.746	26446
820.886	26358
821.026	26560
821.167	26419
821.307	26427
821.447	26317
821.588	26206
821.728	26225
821.868	26054
822.008	25940
822.149	25830
822.289	25795
822.429	25674
822.569	25499
822.709	25491
822.849	25403
822.99	25335
823.13	25141
823.27	25110
823.41	25156
823.55	24916
823.69	25091
823.83	25099
823.97	25046
824.11	24890
824.25	24901
824.389	24932
824.529	24985
824.669	24802
824.809	24973
824.949	25012
825.089	24878
825.228	24867
825.368	24620
825.508	24760
825.648	24764
825.787	24806
825.927	24829
826.067	24757
826.206	24726
826.346	24696
826.485	24696
826.625	24696
826.765	24753
826.904	24806
827.044	24521
827.183	24452
827.323	24361
827.462	24502
827.601	24319
827.741	24292
827.88	24300
828.02	24174
828.159	24300
828.298	24357
828.437	24399
828.577	24357
828.716	24403
828.855	24289
828.994	24102
829.134	24068
829.273	24133
829.412	23980
829.551	23847
829.69	24057
829.829	24095
829.968	24114
830.107	24091
830.246	23958
830.385	24064
830.524	23882
830.663	23786
830.802	23722
830.941	23501
831.08	23783
831.219	23691
831.357	23741
831.496	23878
831.635	23665
831.774	23535
831.913	23539
832.051	23330
832.19	23398
832.329	23421
832.467	23444
832.606	23360
832.744	23197
832.883	23356
833.022	23246
833.16	23296
833.299	23368
833.437	23322
833.576	23353
833.714	23349
833.852	23444
833.991	23360
834.129	23368
834.267	23364
834.406	23296
834.544	23345
834.682	23334
834.821	23284
834.959	23490
835.097	23372
835.235	23292
835.373	23269
835.511	23334
835.65	23231
835.788	23147
835.926	23086
836.064	23033
836.202	22953
836.34	23094
836.478	23303
836.615	22984
836.753	23185
836.891	23102
837.029	23086
837.167	23132
837.305	23010
837.443	22927
837.58	22980
837.718	23022
837.856	22927
837.993	22953
838.131	22892
838.269	22911
838.406	22869
838.544	22793
838.681	22702
838.819	22592
838.956	22379
839.094	22500
839.231	22478
839.369	22675
839.506	22778
839.643	22550
839.781	22348
839.918	22421
840.055	22440
840.193	22390
840.33	22306
840.467	22413
840.604	22379
840.742	22611
840.879	22188
841.016	22299
841.153	22188
841.29	22447
841.427	22371
841.564	22352
841.701	22352
841.838	22276
841.975	22253
842.112	22192
842.249	22223
842.385	22086
842.522	22287
842.659	22067
842.796	22078
842.933	22063
843.069	22021
843.206	21975
843.343	22139
843.479	22067
843.616	22002
843.752	21895
843.889	21808
844.025	21987
844.162	21652
844.298	22051
844.435	21755
844.571	21679
844.708	21808
844.844	22010
844.98	22040
845.117	21899
845.253	21743
845.389	21618
845.525	21656
845.661	21629
845.798	21637
845.934	21549
846.07	21431
846.206	21504
846.342	21713
846.478	21488
846.614	21443
846.75	21230
846.886	21192
847.022	21389
847.158	21359
847.294	21256
847.429	21291
847.565	21173
847.701	21534
847.837	20967
847.972	20918
848.108	21005
848.244	21051
848.379	20952
848.515	20758
848.65	20796
848.786	20933
848.921	20849
849.057	21009
849.192	20975
849.328	20883
849.463	20826
849.598	20769
849.734	20663
849.869	20724
850.004	20503
850.14	20541
850.275	20670
850.41	20564
850.545	20560
850.68	20621
850.815	20575
850.95	20571
851.085	20769
851.22	20682
851.355	20651
851.49	20488
851.625	20450
851.76	20613
851.895	20495
852.03	20560
852.165	20560
852.299	20549
852.434	20473
852.569	20625
852.703	20602
852.838	20514
852.973	20746
853.107	20731
853.242	20522
853.376	20476
853.511	20278
853.645	20339
853.78	20476
853.914	20400
854.048	20358
854.183	20450
854.317	20389
854.451	20556
854.585	20396
854.72	20404
854.854	20507
854.988	20305
855.122	20362
855.256	20336
855.39	20412
855.524	20450
855.658	20484
855.792	20320
855.926	20419
856.06	20465
856.194	20473
856.327	20320
856.461	20248
856.595	20309
856.729	20377
856.862	20393
856.996	20454
857.13	20313
857.263	20454
857.397	20473
857.53	20446
857.664	20320
857.797	20419
857.931	20469
858.064	20351
858.197	20514
858.331	20351
858.464	20313
858.597	20252
858.731	20446
858.864	20290
858.997	20252
859.13	20240
859.263	20336
859.396	20351
859.529	20351
859.662	20374
859.795	20313
859.928	20427
860.061	20503
860.194	20511
860.327	20404
860.46	20381
860.592	20461
860.725	20446
860.858	20507
860.99	20336
861.123	20298
861.256	20195
861.388	20248
861.521	21070
861.653	20218
861.786	20199
861.918	20256
862.05	20278
862.183	20320
862.315	20336
862.447	20351
862.58	20370
862.712	20092
862.844	20115
862.976	20122
863.108	20138
863.24	20488
863.372	20058
863.504	20126
863.636	20027
863.768	20130
863.9	20081
864.032	20031
864.164	19928
864.296	20077
864.428	20130
864.559	20096
864.691	20126
864.823	20043
864.954	20058
865.086	20031
865.217	20016
865.349	19807
865.48	19967
865.612	19906
865.743	20050
865.875	19925
866.006	19841
866.137	19875
866.269	20005
866.4	19963
866.531	19970
866.662	19959
866.793	19830
866.924	19864
867.055	19986
867.186	19906
867.317	19852
867.448	19750
867.579	19898
867.71	19841
867.841	19791
867.972	19818
868.103	19780
868.233	19799
868.364	19989
868.495	19875
868.625	20149
868.756	20278
868.886	19970
869.017	20122
869.147	20214
869.278	20317
869.408	20115
869.539	20100
869.669	20153
869.799	20180
869.929	20377
870.06	20221
870.19	20438
870.32	20423
870.45	20541
870.58	20438
870.71	20651
870.84	20503
870.97	20442
871.1	20488
871.23	20644
871.36	20773
871.489	20518
871.619	20583
871.749	20712
871.879	20861
872.008	20807
872.138	20746
872.267	20731
872.397	20629
872.526	20438
872.656	20476
872.785	20587
872.915	20735
873.044	20754
873.173	20731
873.303	20785
873.432	20716
873.561	20830
873.69	20651
873.819	20750
873.948	20682
874.077	20689
874.206	20659
874.335	20663
874.464	20925
874.593	21009
874.722	20857
874.851	20933
874.979	21051
875.108	21154
875.237	21043
875.365	20933
875.494	21020
875.623	21036
875.751	20994
875.88	20990
876.008	21028
876.136	21096
876.265	21408
876.393	21359
876.521	21511
876.65	21439
876.778	21382
876.906	21298
877.034	21359
877.162	21283
877.29	21169
877.418	21256
877.546	21329
877.674	21313
877.802	21283
877.93	21321
878.058	21283
878.185	21165
878.313	21378
878.441	21420
878.568	21226
878.696	21260
878.824	21306
878.951	21439
879.079	21500
879.206	21618
879.333	21496
879.461	21321
879.588	21363
879.715	21473
879.842	21473
879.97	21336
880.097	21180
880.224	21112
880.351	21146
880.478	21195
880.605	21055
880.732	21142
880.859	21462
880.986	21100
881.112	21203
881.239	20990
881.366	20937
881.493	20811
881.619	20663
881.746	20705
881.872	20777
881.999	20739
882.125	20625
882.252	20720
882.378	20750
882.505	20849
882.631	20682
882.757	20530
882.883	20568
883.01	20545
883.136	20381
883.262	20415
883.388	20320
883.514	20492
883.64	20587
883.766	20412
883.892	20248
884.018	20313
884.143	20415
884.269	20469
884.395	20218
884.52	20096
884.646	20191
884.772	19993
884.897	20046
885.023	20183
885.148	20286
885.274	20248
885.399	20336
885.524	20187
885.65	20092
885.775	20134
885.9	20054
886.025	20229
886.15	20290
886.275	20081
886.4	19932
886.525	20161
886.65	20077
886.775	20065
886.9	20244
887.025	20343
887.149	20081
887.274	19852
887.399	19978
887.523	19902
887.648	19837
887.773	19791
887.897	20073
888.021	19955
888.146	19731
888.27	19997
888.395	19986
888.519	19959
888.643	19955
888.767	20024
888.891	19940
889.015	19769
889.139	19715
889.263	19689
889.387	19791
889.511	19879
889.635	19799
889.759	19635
889.883	19689
890.006	19609
890.13	19693
890.254	19578
890.377	19518
890.501	19472
890.624	19358
890.748	19396
890.871	19320
890.995	19232
891.118	19190
891.241	19320
891.364	19137
891.488	19362
891.611	19335
891.734	19327
891.857	19365
891.98	19373
892.103	19308
892.226	19312
892.349	19251
892.471	19084
892.594	19072
892.717	19213
892.839	19259
892.962	19122
893.085	19270
893.207	19213
893.33	19053
893.452	19114
893.575	19251
893.697	19057
893.819	19407
893.941	19369
894.064	19285
894.186	19107
894.308	19171
894.43	19145
894.552	19350
894.674	19251
894.796	19118
894.918	19168
895.04	19095
895.161	19270
895.283	19202
895.405	19118
895.526	19312
895.648	19221
895.769	19209
895.891	19107
896.012	19358
896.134	19282
896.255	19240
896.376	19145
896.498	19251
896.619	19240
896.74	19308
896.861	19350
896.982	19632
897.103	19814
897.224	19537
897.345	19548
897.466	19396
897.587	19422
897.708	19529
897.828	19514
897.949	19453
898.07	19324
898.19	19403
898.311	19556
898.431	19282
898.552	19499
898.672	19476
898.792	19525
898.913	19381
899.033	19297
899.153	19221
899.273	19164
899.393	19179
899.513	19255
899.633	19259
899.753	19259
899.873	19129
899.993	19194
900.113	19240
900.232	19118
900.352	19133
900.472	19095
900.591	18951
900.711	19065
900.83	18981
900.95	19050
901.069	18989
901.189	18932
901.308	18677
901.427	18631
901.546	18597
901.665	18635
901.784	18658
901.904	18506
902.023	18376
902.141	18155
902.26	18232
902.379	18163
902.498	18159
902.617	17927
902.735	18019
902.854	18114
902.973	17958
903.091	17771
903.21	17802
903.328	17745
903.446	17596
903.565	17623
903.683	17665
903.801	17372
903.919	17459
904.038	17535
904.156	17433
904.274	17471
904.392	17269
904.51	17273
904.627	17299
904.745	17444
904.863	17372
904.981	17178
905.098	17105
905.216	16949
905.334	17124
905.451	17079
905.569	16923
905.686	16995
905.803	17025
905.921	16900
906.038	16850
906.155	16949
906.272	16744
906.389	16771
906.506	16584
906.623	16588
906.74	16592
906.857	16451
906.974	16584
907.091	16550
907.208	16656
907.324	16535
907.441	16447
907.557	16276
907.674	16310
907.79	16215
907.907	16268
908.023	16257
908.139	16196
908.256	16219
908.372	16154
908.488	16128
908.604	16002
908.72	15861
908.836	16010
908.952	15842
909.068	15972
909.184	16128
909.3	15915
909.415	16051
909.531	16025
909.647	15797
909.762	15675
909.878	15667
909.993	15675
910.108	15751
910.224	15614
910.339	15709
910.454	15625
910.57	15488
910.685	15454
910.8	15671
910.915	15580
911.03	15549
911.145	15466
911.259	15397
911.374	15233
911.489	15211
911.604	15119
911.718	15043
911.833	15005
911.947	14925
912.062	14838
912.176	14929
912.291	15043
912.405	14975
912.519	15188
912.633	15142
912.748	15074
912.862	14944
912.976	14830
913.09	14708
913.204	14746
913.318	14876
913.431	14868
913.545	14861
913.659	14979
913.772	14906
913.886	14689
914	14724
914.113	14648
914.226	14777
914.34	14720
914.453	14484
914.566	14648
914.68	14549
914.793	14583
914.906	14415
915.019	14370
915.132	14286
915.245	14290
915.358	14282
915.47	14313
915.583	14324
915.696	14389
915.809	14431
915.921	14412
916.034	14157
916.146	14218
916.259	14183
916.371	14324
916.483	14286
916.595	14153
916.708	14199
916.82	14073
916.932	14050
917.044	14130
917.156	14043
917.268	13951
917.38	13963
917.491	13947
917.603	13997
917.715	14046
917.826	14039
917.938	13909
918.049	13887
918.161	13963
918.272	14088
918.384	14054
918.495	13917
918.606	13883
918.717	13727
918.828	13780
918.939	13712
919.05	13666
919.161	13814
919.272	13613
919.383	13582
919.494	13761
919.604	13932
919.715	13837
919.826	13655
919.936	13655
920.047	13803
920.157	13719
920.267	13830
920.378	13719
920.488	13674
920.598	13902
920.708	13970
920.818	13849
920.928	13833
921.038	14020
921.148	13974
921.258	13590
921.368	13537
921.477	13377
921.587	13373
921.697	13282
921.806	13476
921.916	13206
922.025	13149
922.134	13103
922.244	13084
922.353	13099
922.462	13038
922.571	12817
922.68	12817
922.789	12669
922.898	12749
923.007	12700
923.116	12719
923.224	12677
923.333	12707
923.442	12642
923.55	12521
923.659	12604
923.767	12662
923.876	12528
923.984	12597
924.092	12490
924.201	12528
924.309	12483
924.417	12426
924.525	12384
924.633	12456
924.741	13240
924.849	12300
924.956	12365
925.064	12273
925.172	12091
925.279	12197
925.387	12159
925.494	12155
925.602	12289
925.709	12186
925.816	12087
925.924	12175
926.031	12270
926.138	12209
926.245	12205
926.352	11996
926.459	12194
926.566	12289
926.673	12015
926.779	11912
926.886	12102
926.993	11824
927.099	11813
927.206	11756
927.312	11783
927.419	11824
927.525	11771
927.631	11805
927.737	11699
927.843	11627
927.95	11585
928.056	11665
928.162	11581
928.267	11665
928.373	12159
928.479	11657
928.585	11444
928.69	11630
928.796	11638
928.901	11490
929.007	11337
929.112	11436
929.218	11467
929.323	11368
929.428	11360
929.533	11493
929.638	11330
929.743	11387
929.848	11376
929.953	11391
930.058	11220
930.163	11048
930.267	11174
930.372	11147
930.477	11033
930.581	11258
930.685	11113
930.79	11018
930.894	10965
930.998	10908
931.103	11094
931.207	10717
931.311	10668
931.415	10550
931.519	10363
931.623	10322
