Data from test_V78500241_756.txt Node
Date: Fri Mar 25 15:15:07 CST 2022
User: usil
Spectrometer: V785-0024
Trigger mode: 0
Integration Time (sec): 4.000000E-1
Scans to average: 1
Nonlinearity correction enabled: false
Boxcar width: 0
Storing dark spectrum: false
XAxis mode: Wavelengths
Number of Pixels in Spectrum: 1024
>>>>>Begin Spectral Data<<<<<
801.071	27770
801.214	27595
801.356	27511
801.499	27553
801.641	27412
801.783	27420
801.926	27279
802.068	27287
802.211	27138
802.353	27108
802.496	26883
802.638	26918
802.78	26876
802.923	26971
803.065	26823
803.208	26849
803.35	26937
803.492	27119
803.635	27116
803.777	27009
803.919	27203
804.061	27367
804.204	27169
804.346	27051
804.488	27032
804.63	27233
804.773	27077
804.915	27142
805.057	27298
805.199	27100
805.341	27313
805.483	27195
805.626	27268
805.768	27230
805.91	27176
806.052	27207
806.194	27317
806.336	27469
806.478	27298
806.62	27176
806.762	27317
806.904	27549
807.046	27682
807.188	27663
807.33	27629
807.472	27694
807.614	27679
807.756	27599
807.898	27625
808.04	27496
808.182	27576
808.324	27504
808.465	27618
808.607	27762
808.749	27880
808.891	28051
809.033	28070
809.174	27930
809.316	27949
809.458	28036
809.6	27827
809.741	28010
809.883	28124
810.025	28185
810.166	28284
810.308	28325
810.45	28070
810.591	28268
810.733	27956
810.875	27941
811.016	27831
811.158	27622
811.299	27945
811.441	28086
811.582	27991
811.724	27869
811.865	27918
812.007	28051
812.148	27975
812.29	27983
812.431	28067
812.573	28325
812.714	28497
812.855	28535
812.997	28634
813.138	28713
813.279	28729
813.421	28504
813.562	28634
813.703	28303
813.845	28226
813.986	27934
814.127	27705
814.268	27663
814.41	27637
814.551	27564
814.692	27698
814.833	27587
814.974	27660
815.115	27603
815.256	27538
815.397	27488
815.539	27511
815.68	27496
815.821	27405
815.962	27412
816.103	27355
816.244	27272
816.385	27302
816.526	27062
816.666	27173
816.807	26948
816.948	27005
817.089	27032
817.23	26971
817.371	26971
817.512	26918
817.653	26891
817.793	26883
817.934	26872
818.075	26998
818.216	26910
818.356	26811
818.497	26739
818.638	26621
818.778	26587
818.919	26522
819.06	26804
819.2	26864
819.341	26826
819.481	26948
819.622	26994
819.762	27123
819.903	27062
820.043	27093
820.184	26925
820.324	26982
820.465	27245
820.605	26975
820.746	27180
820.886	26750
821.026	26975
821.167	26948
821.307	27028
821.447	26929
821.588	26849
821.728	26750
821.868	26571
822.008	26377
822.149	26427
822.289	26248
822.429	26065
822.569	26107
822.709	26126
822.849	25906
822.99	25822
823.13	25788
823.27	25814
823.41	25799
823.55	25704
823.69	25647
823.83	25681
823.97	25510
824.11	25590
824.25	25590
824.389	25343
824.529	25590
824.669	25441
824.809	25559
824.949	25639
825.089	25567
825.228	25392
825.368	25441
825.508	25358
825.648	25457
825.787	25556
825.927	25521
826.067	25369
826.206	25304
826.346	25396
826.485	25457
826.625	25415
826.765	25510
826.904	25521
827.044	25168
827.183	25091
827.323	25255
827.462	25266
827.601	24973
827.741	25027
827.88	25099
828.02	25015
828.159	25023
828.298	24989
828.437	25160
828.577	25099
828.716	25141
828.855	25099
828.994	24810
829.134	24859
829.273	24913
829.412	24760
829.551	24795
829.69	24882
829.829	24768
829.968	24890
830.107	24920
830.246	24779
830.385	24829
830.524	24582
830.663	24616
830.802	24555
830.941	24441
831.08	24365
831.219	24464
831.357	24517
831.496	24601
831.635	24517
831.774	24346
831.913	24323
832.051	24296
832.19	24281
832.329	24254
832.467	24041
832.606	24140
832.744	24045
832.883	24106
833.022	23904
833.16	24034
833.299	24209
833.437	23992
833.576	24133
833.714	24171
833.852	24190
833.991	24251
834.129	24174
834.267	24205
834.406	24117
834.544	24117
834.682	24030
834.821	24026
834.959	24266
835.097	24148
835.235	24129
835.373	24133
835.511	24057
835.65	23935
835.788	23958
835.926	23973
836.064	23817
836.202	23836
836.34	24034
836.478	24041
836.615	23950
836.753	23893
836.891	24114
837.029	24057
837.167	23863
837.305	23996
837.443	23779
837.58	23843
837.718	23824
837.856	23908
837.993	23779
838.131	23889
838.269	23718
838.406	23786
838.544	23570
838.681	23497
838.819	23395
838.956	23265
839.094	23200
839.231	23322
839.369	23417
839.506	23714
839.643	23604
839.781	23318
839.918	23284
840.055	23414
840.193	23303
840.33	23258
840.467	23296
840.604	23212
840.742	23539
840.879	23079
841.016	23060
841.153	23128
841.29	23208
841.427	23246
841.564	23189
841.701	23090
841.838	23056
841.975	23067
842.112	23010
842.249	23071
842.385	22953
842.522	23170
842.659	23018
842.796	22885
842.933	22953
843.069	22889
843.206	22919
843.343	22934
843.479	23006
843.616	22896
843.752	22687
843.889	22767
844.025	22805
844.162	22748
844.298	22698
844.435	22691
844.571	22763
844.708	22656
844.844	22824
844.98	22866
845.117	22812
845.253	22596
845.389	22698
845.525	22653
845.661	22607
845.798	22284
845.934	22535
846.07	22470
846.206	22424
846.342	22557
846.478	22508
846.614	22257
846.75	22116
846.886	22200
847.022	22318
847.158	22162
847.294	22143
847.429	22299
847.565	22147
847.701	22352
847.837	21968
847.972	21926
848.108	21960
848.244	21850
848.379	21800
848.515	21835
848.65	21770
848.786	21804
848.921	21800
849.057	21724
849.192	21926
849.328	21739
849.463	21705
849.598	21667
849.734	21766
849.869	21633
850.004	21496
850.14	21625
850.275	21576
850.41	21477
850.545	21599
850.68	21435
850.815	21557
850.95	21572
851.085	21724
851.22	21591
851.355	21530
851.49	21622
851.625	21526
851.76	21507
851.895	21485
852.03	21336
852.165	21568
852.299	21614
852.434	21682
852.569	21500
852.703	21507
852.838	21557
852.973	21686
853.107	21633
853.242	21473
853.376	21416
853.511	21416
853.645	21447
853.78	21492
853.914	21298
854.048	21355
854.183	21298
854.317	21344
854.451	21545
854.585	21393
854.72	21374
854.854	21462
854.988	21272
855.122	21412
855.256	21157
855.39	21306
855.524	21386
855.658	21477
855.792	21321
855.926	21473
856.06	21477
856.194	21553
856.327	21317
856.461	21287
856.595	21481
856.729	21340
856.862	21382
856.996	21370
857.13	21454
857.263	21454
857.397	21473
857.53	21386
857.664	21386
857.797	21488
857.931	21523
858.064	21355
858.197	21511
858.331	21294
858.464	21469
858.597	21184
858.731	21393
858.864	21325
858.997	21344
859.13	21393
859.263	21393
859.396	21397
859.529	21416
859.662	21275
859.795	21340
859.928	21412
860.061	21599
860.194	21477
860.327	21393
860.46	21306
860.592	21542
860.725	21466
860.858	21389
860.99	21332
861.123	21336
861.256	21374
861.388	21355
861.521	22105
861.653	21230
861.786	21131
861.918	21325
862.05	21401
862.183	21176
862.315	21348
862.447	21386
862.58	21298
862.712	21104
862.844	21131
862.976	21165
863.108	21154
863.24	21542
863.372	21100
863.504	20944
863.636	21032
863.768	21066
863.9	21020
864.032	20910
864.164	21024
864.296	21142
864.428	21135
864.559	21135
864.691	21085
864.823	21142
864.954	20998
865.086	21028
865.217	20910
865.349	20948
865.48	20887
865.612	20971
865.743	21146
865.875	21013
866.006	20876
866.137	20963
866.269	20971
866.4	20979
866.531	20796
866.662	20788
866.793	20845
866.924	20819
867.055	20979
867.186	20956
867.317	20758
867.448	20842
867.579	20746
867.71	20781
867.841	20921
867.972	20967
868.103	20910
868.233	20880
868.364	20853
868.495	20967
868.625	21272
868.756	21241
868.886	21047
869.017	21024
869.147	21249
869.278	21116
869.408	21233
869.539	21116
869.669	21207
869.799	21188
869.929	21291
870.06	21112
870.19	21523
870.32	21454
870.45	21496
870.58	21507
870.71	21622
870.84	21652
870.97	21583
871.1	21496
871.23	21808
871.36	21648
871.489	21530
871.619	21686
871.749	21656
871.879	21709
872.008	21869
872.138	21595
872.267	21694
872.397	21622
872.526	21549
872.656	21564
872.785	21595
872.915	21736
873.044	21770
873.173	21739
873.303	21808
873.432	21766
873.561	21846
873.69	21808
873.819	21774
873.948	21644
874.077	21751
874.206	21739
874.335	21724
874.464	21819
874.593	21850
874.722	21865
874.851	21953
874.979	22124
875.108	22051
875.237	21873
875.365	21812
875.494	21922
875.623	22082
875.751	21922
875.88	21979
876.008	22124
876.136	22200
876.265	22352
876.393	22363
876.521	22481
876.65	22466
876.778	22318
876.906	22280
877.034	22261
877.162	22268
877.29	22272
877.418	22337
877.546	22386
877.674	22291
877.802	22310
877.93	22371
878.058	22200
878.185	22219
878.313	22192
878.441	22405
878.568	21998
878.696	22154
878.824	22249
878.951	22398
879.079	22535
879.206	22493
879.333	22516
879.461	22303
879.588	22478
879.715	22447
879.842	22580
879.97	22360
880.097	22196
880.224	22204
880.351	22147
880.478	22196
880.605	22131
880.732	22143
880.859	22299
880.986	22105
881.112	22078
881.239	21945
881.366	21793
881.493	21743
881.619	21720
881.746	21827
881.872	21804
881.999	21698
882.125	21629
882.252	21675
882.378	21675
882.505	21720
882.631	21637
882.757	21424
882.883	21603
883.01	21424
883.136	21397
883.262	21264
883.388	21382
883.514	21450
883.64	21443
883.766	21405
883.892	21226
884.018	21252
884.143	21287
884.269	21374
884.395	21150
884.52	21051
884.646	21085
884.772	20944
884.897	20986
885.023	20986
885.148	21108
885.274	21157
885.399	21146
885.524	21062
885.65	21066
885.775	21028
885.9	20960
886.025	21157
886.15	21089
886.275	20982
886.4	21001
886.525	21009
886.65	20941
886.775	20952
886.9	21138
887.025	21119
887.149	20967
887.274	20830
887.399	20819
887.523	20868
887.648	20674
887.773	20697
887.897	20845
888.021	20834
888.146	20727
888.27	20861
888.395	20944
888.519	20838
888.643	20777
888.767	20952
888.891	20765
889.015	20541
889.139	20697
889.263	20693
889.387	20659
889.511	20781
889.635	20785
889.759	20632
889.883	20613
890.006	20644
890.13	20765
890.254	20571
890.377	20427
890.501	20457
890.624	20305
890.748	20412
890.871	20339
890.995	20195
891.118	20191
891.241	20172
891.364	20237
891.488	20267
891.611	20187
891.734	20149
891.857	20355
891.98	20195
892.103	20256
892.226	20210
892.349	20081
892.471	19944
892.594	20218
892.717	20157
892.839	20092
892.962	20100
893.085	20187
893.207	20020
893.33	20043
893.452	20005
893.575	20084
893.697	20168
893.819	20107
893.941	20385
894.064	20282
894.186	20043
894.308	19944
894.43	20191
894.552	20195
894.674	20195
894.796	20005
894.918	20001
895.04	19868
895.161	20092
895.283	20103
895.405	19890
895.526	20122
895.648	20100
895.769	20096
895.891	20145
896.012	20172
896.134	20206
896.255	20172
896.376	20005
896.498	20027
896.619	20134
896.74	20001
896.861	20180
896.982	20473
897.103	20689
897.224	20278
897.345	20351
897.466	20305
897.587	20400
897.708	20412
897.828	20358
897.949	20267
898.07	20187
898.19	20259
898.311	20389
898.431	20180
898.552	20366
898.672	20309
898.792	20400
898.913	20358
899.033	20290
899.153	20077
899.273	19944
899.393	20062
899.513	20062
899.633	20138
899.753	20039
899.873	19959
899.993	20145
900.113	20001
900.232	20172
900.352	20111
900.472	20008
900.591	19731
900.711	19791
900.83	19761
900.95	20027
901.069	19879
901.189	19651
901.308	19506
901.427	19377
901.546	19506
901.665	19426
901.784	19544
901.904	19247
902.023	19187
902.141	19015
902.26	19038
902.379	19099
902.498	18958
902.617	18901
902.735	19088
902.854	18996
902.973	18901
903.091	18604
903.21	18700
903.328	18536
903.446	18597
903.565	18441
903.683	18479
903.801	18384
903.919	18372
904.038	18353
904.156	18251
904.274	18232
904.392	18251
904.51	18209
904.627	18095
904.745	18308
904.863	18178
904.981	17950
905.098	17779
905.216	17847
905.334	17946
905.451	17832
905.569	17798
905.686	17817
905.803	17889
905.921	17710
906.038	17790
906.155	17687
906.272	17577
906.389	17551
906.506	17482
906.623	17429
906.74	17425
906.857	17326
906.974	17265
907.091	17414
907.208	17524
907.324	17315
907.441	17318
907.557	17220
907.674	17117
907.79	17033
907.907	17143
908.023	17075
908.139	17086
908.256	17052
908.372	16972
908.488	16911
908.604	16919
908.72	16862
908.836	16816
908.952	16839
909.068	16900
909.184	16927
909.3	16805
909.415	16900
909.531	16839
909.647	16500
909.762	16603
909.878	16592
909.993	16519
910.108	16649
910.224	16504
910.339	16466
910.454	16417
910.57	16306
910.685	16230
910.8	16519
910.915	16554
911.03	16318
911.145	16166
911.259	16063
911.374	16120
911.489	16010
911.604	15937
911.718	15823
911.833	15797
911.947	15816
912.062	15679
912.176	15816
912.291	15774
912.405	15842
912.519	16051
912.633	16021
912.748	15819
912.862	15831
912.976	15667
913.09	15584
913.204	15606
913.318	15686
913.431	15739
913.545	15686
913.659	15739
913.772	15671
913.886	15428
914	15454
914.113	15515
914.226	15595
914.34	15557
914.453	15431
914.566	15496
914.68	15477
914.793	15313
914.906	15081
915.019	15104
915.132	15097
915.245	15047
915.358	15131
915.47	15112
915.583	15070
915.696	15127
915.809	15226
915.921	15184
916.034	14956
916.146	14960
916.259	15013
916.371	15005
916.483	15070
916.595	14933
916.708	14994
916.82	14956
916.932	14929
917.044	14716
917.156	14765
917.268	14857
917.38	14686
917.491	14765
917.603	14750
917.715	14872
917.826	14834
917.938	14674
918.049	14537
918.161	14750
918.272	14746
918.384	14815
918.495	14640
918.606	14564
918.717	14571
918.828	14514
918.939	14556
919.05	14347
919.161	14396
919.272	14393
919.383	14267
919.494	14530
919.604	14735
919.715	14438
919.826	14454
919.936	14457
920.047	14511
920.157	14423
920.267	14602
920.378	14454
920.488	14476
920.598	14678
920.708	14762
920.818	14590
920.928	14663
921.038	14663
921.148	14655
921.258	14393
921.368	14374
921.477	14282
921.587	14263
921.697	14123
921.806	14138
921.916	14065
922.025	13909
922.134	13913
922.244	13822
922.353	13917
922.462	13723
922.571	13704
922.68	13537
922.789	13518
922.898	13563
923.007	13422
923.116	13578
923.224	13464
923.333	13548
923.442	13430
923.55	13354
923.659	13335
923.767	13460
923.876	13312
923.984	13312
924.092	13259
924.201	13251
924.309	13289
924.417	13244
924.525	13133
924.633	13110
924.741	13993
924.849	12989
924.956	13152
925.064	12939
925.172	12886
925.279	12901
925.387	12928
925.494	12882
925.602	13103
925.709	12913
925.816	12791
925.924	12897
926.031	12916
926.138	12825
926.245	12878
926.352	12738
926.459	12928
926.566	12867
926.673	12783
926.779	12639
926.886	12604
926.993	12506
927.099	12528
927.206	12350
927.312	12467
927.419	12540
927.525	12490
927.631	12498
927.737	12300
927.843	12266
927.95	12190
928.056	12262
928.162	12357
928.267	12315
928.373	13034
928.479	12414
928.585	12136
928.69	12300
928.796	12342
928.901	12159
929.007	12095
929.112	12144
929.218	12083
929.323	12064
929.428	12064
929.533	12155
929.638	11996
929.743	11988
929.848	12091
929.953	11923
930.058	11885
930.163	11771
930.267	11634
930.372	11901
930.477	11680
930.581	11965
930.685	11695
930.79	11577
930.894	11623
930.998	11600
931.103	11714
931.207	11299
931.311	11299
931.415	11197
931.519	10980
931.623	10968
