Data from test_V78500241_1734.txt Node
Date: Fri Mar 25 15:21:55 CST 2022
User: usil
Spectrometer: V785-0024
Trigger mode: 0
Integration Time (sec): 4.000000E-1
Scans to average: 1
Nonlinearity correction enabled: false
Boxcar width: 0
Storing dark spectrum: false
XAxis mode: Wavelengths
Number of Pixels in Spectrum: 1024
>>>>>Begin Spectral Data<<<<<
801.071	27816
801.214	27835
801.356	27435
801.499	27561
801.641	27367
801.783	27492
801.926	27507
802.068	27454
802.211	27412
802.353	27218
802.496	27173
802.638	27066
802.78	27173
802.923	27043
803.065	26948
803.208	26990
803.35	27017
803.492	27157
803.635	27256
803.777	27154
803.919	27374
804.061	27542
804.204	27469
804.346	27157
804.488	27104
804.63	27203
804.773	27150
804.915	27355
805.057	27348
805.199	27268
805.341	27424
805.483	27401
805.626	27310
805.768	27214
805.91	27443
806.052	27382
806.194	27329
806.336	27614
806.478	27382
806.62	27355
806.762	27439
806.904	27652
807.046	27835
807.188	27743
807.33	27759
807.472	27812
807.614	27778
807.756	27751
807.898	27766
808.04	27720
808.182	27667
808.324	27682
808.465	27743
808.607	28006
808.749	28002
808.891	28154
809.033	28280
809.174	28044
809.316	28017
809.458	28006
809.6	28070
809.741	28150
809.883	28188
810.025	28303
810.166	28394
810.308	28249
810.45	28261
810.591	28219
810.733	28097
810.875	28063
811.016	27892
811.158	27869
811.299	28192
811.441	28147
811.582	28021
811.724	28010
811.865	28055
812.007	27994
812.148	27994
812.29	27987
812.431	28314
812.573	28314
812.714	28398
812.855	28550
812.997	28554
813.138	28634
813.279	28611
813.421	28535
813.562	28432
813.703	28371
813.845	28200
813.986	27991
814.127	27823
814.268	27652
814.41	27785
814.551	27766
814.692	27804
814.833	27644
814.974	27682
815.115	27747
815.256	27553
815.397	27633
815.539	27557
815.68	27507
815.821	27603
815.962	27389
816.103	27526
816.244	27386
816.385	27329
816.526	27359
816.666	27245
816.807	27017
816.948	27135
817.089	27165
817.23	26960
817.371	26971
817.512	27001
817.653	26956
817.793	26838
817.934	26956
818.075	27043
818.216	27089
818.356	26982
818.497	26982
818.638	26716
818.778	26724
818.919	26727
819.06	26750
819.2	26849
819.341	27089
819.481	27051
819.622	27211
819.762	27325
819.903	27355
820.043	27233
820.184	27100
820.324	27123
820.465	27245
820.605	27089
820.746	27199
820.886	26971
821.026	27085
821.167	27100
821.307	27127
821.447	26971
821.588	26899
821.728	26902
821.868	26549
822.008	26499
822.149	26415
822.289	26507
822.429	26187
822.569	26317
822.709	26172
822.849	25932
822.99	26046
823.13	25925
823.27	25978
823.41	25784
823.55	25731
823.69	25746
823.83	25780
823.97	25761
824.11	25666
824.25	25544
824.389	25685
824.529	25670
824.669	25597
824.809	25925
824.949	25765
825.089	25719
825.228	25510
825.368	25411
825.508	25438
825.648	25578
825.787	25525
825.927	25567
826.067	25388
826.206	25407
826.346	25529
826.485	25537
826.625	25415
826.765	25582
826.904	25613
827.044	25251
827.183	25274
827.323	25179
827.462	25411
827.601	25327
827.741	25164
827.88	25358
828.02	25050
828.159	25282
828.298	25259
828.437	25324
828.577	25255
828.716	25297
828.855	25141
828.994	24943
829.134	25023
829.273	24962
829.412	24989
829.551	24897
829.69	24882
829.829	24916
829.968	25023
830.107	24905
830.246	24848
830.385	24901
830.524	24760
830.663	24783
830.802	24570
830.941	24593
831.08	24498
831.219	24608
831.357	24601
831.496	24779
831.635	24540
831.774	24342
831.913	24395
832.051	24429
832.19	24350
832.329	24369
832.467	24144
832.606	24083
832.744	24281
832.883	24197
833.022	24087
833.16	24277
833.299	24323
833.437	24273
833.576	24300
833.714	24273
833.852	24300
833.991	24308
834.129	24327
834.267	24273
834.406	24209
834.544	24201
834.682	24167
834.821	24228
834.959	24536
835.097	24167
835.235	24273
835.373	24448
835.511	24247
835.65	24213
835.788	24171
835.926	24068
836.064	24026
836.202	24003
836.34	24133
836.478	24285
836.615	24057
836.753	24136
836.891	24144
837.029	24148
837.167	24133
837.305	24045
837.443	23950
837.58	23958
837.718	24060
837.856	24076
837.993	23893
838.131	23984
838.269	23874
838.406	23805
838.544	23764
838.681	23634
838.819	23600
838.956	23471
839.094	23356
839.231	23585
839.369	23611
839.506	23771
839.643	23741
839.781	23429
839.918	23372
840.055	23440
840.193	23417
840.33	23356
840.467	23376
840.604	23345
840.742	23531
840.879	23105
841.016	23292
841.153	23181
841.29	23478
841.427	23318
841.564	23326
841.701	23360
841.838	23337
841.975	23181
842.112	23288
842.249	23166
842.385	23136
842.522	23334
842.659	23121
842.796	23037
842.933	23136
843.069	23018
843.206	23079
843.343	23140
843.479	23094
843.616	23102
843.752	22984
843.889	22934
844.025	23029
844.162	22896
844.298	23064
844.435	22984
844.571	22797
844.708	22927
844.844	23071
844.98	22995
845.117	23006
845.253	22885
845.389	22733
845.525	22847
845.661	22774
845.798	22504
845.934	22679
846.07	22607
846.206	22626
846.342	22713
846.478	22538
846.614	22470
846.75	22226
846.886	22291
847.022	22455
847.158	22436
847.294	22344
847.429	22478
847.565	22375
847.701	22622
847.837	22055
847.972	22017
848.108	22147
848.244	22238
848.379	21972
848.515	21945
848.65	21960
848.786	21899
848.921	21915
849.057	22040
849.192	22063
849.328	22006
849.463	21903
849.598	21915
849.734	21857
849.869	21964
850.004	21751
850.14	21580
850.275	21720
850.41	21549
850.545	21660
850.68	21717
850.815	21656
850.95	21561
851.085	21808
851.22	21698
851.355	21812
851.49	21667
851.625	21671
851.76	21720
851.895	21629
852.03	21576
852.165	21732
852.299	21747
852.434	21743
852.569	21770
852.703	21682
852.838	21736
852.973	21949
853.107	21888
853.242	21667
853.376	21519
853.511	21492
853.645	21504
853.78	21485
853.914	21603
854.048	21534
854.183	21507
854.317	21549
854.451	21732
854.585	21450
854.72	21477
854.854	21618
854.988	21428
855.122	21488
855.256	21447
855.39	21450
855.524	21644
855.658	21458
855.792	21538
855.926	21534
856.06	21625
856.194	21705
856.327	21526
856.461	21447
856.595	21545
856.729	21492
856.862	21682
856.996	21561
857.13	21599
857.263	21603
857.397	21690
857.53	21469
857.664	21606
857.797	21538
857.931	21507
858.064	21492
858.197	21629
858.331	21538
858.464	21526
858.597	21439
858.731	21477
858.864	21428
858.997	21447
859.13	21633
859.263	21648
859.396	21637
859.529	21500
859.662	21435
859.795	21511
859.928	21439
860.061	21633
860.194	21675
860.327	21526
860.46	21492
860.592	21625
860.725	21705
860.858	21694
860.99	21618
861.123	21530
861.256	21462
861.388	21564
861.521	22287
861.653	21435
861.786	21306
861.918	21378
862.05	21435
862.183	21355
862.315	21443
862.447	21473
862.58	21485
862.712	21272
862.844	21249
862.976	21249
863.108	21378
863.24	21603
863.372	21249
863.504	21226
863.636	21207
863.768	21252
863.9	21218
864.032	21123
864.164	21218
864.296	21192
864.428	21264
864.559	21237
864.691	21237
864.823	21230
864.954	21241
865.086	21169
865.217	21119
865.349	21043
865.48	21135
865.612	21100
865.743	21245
865.875	21070
866.006	21123
866.137	21074
866.269	21093
866.4	21176
866.531	20979
866.662	21013
866.793	20986
866.924	21043
867.055	21165
867.186	21024
867.317	21089
867.448	20868
867.579	20929
867.71	21066
867.841	20853
867.972	20986
868.103	21062
868.233	21062
868.364	20979
868.495	21127
868.625	21363
868.756	21291
868.886	21283
869.017	21268
869.147	21401
869.278	21431
869.408	21287
869.539	21336
869.669	21462
869.799	21344
869.929	21561
870.06	21344
870.19	21542
870.32	21614
870.45	21606
870.58	21618
870.71	21842
870.84	21797
870.97	21625
871.1	21774
871.23	21941
871.36	21873
871.489	21854
871.619	21907
871.749	21903
871.879	21861
872.008	21979
872.138	22036
872.267	21850
872.397	21759
872.526	21660
872.656	21846
872.785	21591
872.915	21926
873.044	21941
873.173	21930
873.303	21926
873.432	21964
873.561	21930
873.69	21911
873.819	21789
873.948	22013
874.077	21899
874.206	21835
874.335	21960
874.464	22090
874.593	22207
874.722	22093
874.851	22234
874.979	22063
875.108	22101
875.237	22086
875.365	22002
875.494	22124
875.623	22242
875.751	22188
875.88	22204
876.008	22261
876.136	22333
876.265	22641
876.393	22634
876.521	22561
876.65	22679
876.778	22592
876.906	22440
877.034	22382
877.162	22424
877.29	22413
877.418	22500
877.546	22523
877.674	22451
877.802	22405
877.93	22527
878.058	22462
878.185	22462
878.313	22440
878.441	22424
878.568	22337
878.696	22493
878.824	22500
878.951	22508
879.079	22569
879.206	22706
879.333	22584
879.461	22569
879.588	22557
879.715	22580
879.842	22831
879.97	22577
880.097	22341
880.224	22207
880.351	22303
880.478	22287
880.605	22306
880.732	22329
880.859	22618
880.986	22249
881.112	22230
881.239	22211
881.366	22021
881.493	21857
881.619	21895
881.746	21895
881.872	21808
881.999	21766
882.125	21819
882.252	21956
882.378	21915
882.505	22006
882.631	21774
882.757	21629
882.883	21614
883.01	21542
883.136	21568
883.262	21412
883.388	21443
883.514	21606
883.64	21644
883.766	21439
883.892	21412
884.018	21481
884.143	21469
884.269	21637
884.395	21283
884.52	21146
884.646	21203
884.772	21192
884.897	21176
885.023	21310
885.148	21294
885.274	21287
885.399	21268
885.524	21188
885.65	21195
885.775	21306
885.9	21161
886.025	21447
886.15	21329
886.275	21116
886.4	21032
886.525	21256
886.65	21192
886.775	21093
886.9	21287
887.025	21412
887.149	21199
887.274	21005
887.399	20895
887.523	20975
887.648	20918
887.773	20971
887.897	21081
888.021	21081
888.146	20960
888.27	21070
888.395	21077
888.519	21001
888.643	20986
888.767	20979
888.891	20868
889.015	20887
889.139	20834
889.263	20689
889.387	20948
889.511	20990
889.635	20861
889.759	20830
889.883	20864
890.006	20746
890.13	20937
890.254	20663
890.377	20785
890.501	20598
890.624	20431
890.748	20511
890.871	20423
890.995	20317
891.118	20294
891.241	20423
891.364	20336
891.488	20450
891.611	20473
891.734	20328
891.857	20396
891.98	20309
892.103	20377
892.226	20332
892.349	20278
892.471	20096
892.594	20202
892.717	20393
892.839	20221
892.962	20328
893.085	20332
893.207	20248
893.33	20161
893.452	20134
893.575	20271
893.697	20134
893.819	20377
893.941	20518
894.064	20434
894.186	20043
894.308	20195
894.43	20256
894.552	20347
894.674	20423
894.796	20046
894.918	20256
895.04	20202
895.161	20294
895.283	20294
895.405	20164
895.526	20168
895.648	20240
895.769	20282
895.891	20214
896.012	20263
896.134	20267
896.255	20199
896.376	20122
896.498	20218
896.619	20298
896.74	20149
896.861	20320
896.982	20560
897.103	20674
897.224	20632
897.345	20438
897.466	20469
897.587	20328
897.708	20579
897.828	20488
897.949	20415
898.07	20305
898.19	20252
898.311	20480
898.431	20408
898.552	20366
898.672	20476
898.792	20526
898.913	20484
899.033	20313
899.153	20271
899.273	20248
899.393	20202
899.513	20263
899.633	20161
899.753	20218
899.873	20183
899.993	20282
900.113	20107
900.232	20168
900.352	20157
900.472	19967
900.591	19913
900.711	19925
900.83	19963
900.95	20050
901.069	20092
901.189	19830
901.308	19670
901.427	19597
901.546	19559
901.665	19578
901.784	19464
901.904	19407
902.023	19354
902.141	19031
902.26	19076
902.379	19076
902.498	19221
902.617	19000
902.735	19110
902.854	19080
902.973	18920
903.091	18681
903.21	18730
903.328	18616
903.446	18585
903.565	18582
903.683	18506
903.801	18525
903.919	18502
904.038	18452
904.156	18330
904.274	18350
904.392	18308
904.51	18334
904.627	18239
904.745	18300
904.863	18422
904.981	18019
905.098	18049
905.216	17969
905.334	18007
905.451	18011
905.569	17874
905.686	17980
905.803	17950
905.921	17767
906.038	17729
906.155	17767
906.272	17665
906.389	17646
906.506	17482
906.623	17516
906.74	17532
906.857	17356
906.974	17345
907.091	17672
907.208	17619
907.324	17444
907.441	17376
907.557	17250
907.674	17235
907.79	17231
907.907	17239
908.023	17299
908.139	17204
908.256	17174
908.372	17075
908.488	17136
908.604	17105
908.72	16873
908.836	16889
908.952	16984
909.068	16968
909.184	17037
909.3	16847
909.415	16961
909.531	16968
909.647	16744
909.762	16729
909.878	16542
909.993	16702
910.108	16611
910.224	16569
910.339	16527
910.454	16523
910.57	16466
910.685	16333
910.8	16740
910.915	16702
911.03	16424
911.145	16257
911.259	16242
911.374	16280
911.489	16181
911.604	16128
911.718	16036
911.833	16025
911.947	15903
912.062	15709
912.176	15922
912.291	15945
912.405	15945
912.519	16116
912.633	16166
912.748	16006
912.862	15911
912.976	15804
913.09	15755
913.204	15770
913.318	15892
913.431	15838
913.545	15922
913.659	15998
913.772	15728
913.886	15610
914	15572
914.113	15728
914.226	15724
914.34	15663
914.453	15424
914.566	15603
914.68	15431
914.793	15424
914.906	15180
915.019	15226
915.132	15142
915.245	15260
915.358	15283
915.47	15192
915.583	15203
915.696	15176
915.809	15306
915.921	15367
916.034	15074
916.146	15089
916.259	15047
916.371	15154
916.483	15119
916.595	14975
916.708	15058
916.82	15058
916.932	15013
917.044	15028
917.156	14963
917.268	14853
917.38	14872
917.491	14819
917.603	14777
917.715	14906
917.826	14990
917.938	14746
918.049	14568
918.161	14849
918.272	14944
918.384	14914
918.495	14781
918.606	14621
918.717	14579
918.828	14568
918.939	14644
919.05	14556
919.161	14590
919.272	14408
919.383	14434
919.494	14564
919.604	14819
919.715	14492
919.826	14404
919.936	14594
920.047	14629
920.157	14583
920.267	14720
920.378	14644
920.488	14511
920.598	14769
920.708	14842
920.818	14583
920.928	14727
921.038	14823
921.148	14845
921.258	14530
921.368	14480
921.477	14210
921.587	14282
921.697	14123
921.806	14195
921.916	14103
922.025	13978
922.134	13879
922.244	13833
922.353	13989
922.462	13849
922.571	13715
922.68	13605
922.789	13552
922.898	13605
923.007	13499
923.116	13639
923.224	13567
923.333	13578
923.442	13453
923.55	13411
923.659	13506
923.767	13472
923.876	13445
923.984	13430
924.092	13316
924.201	13358
924.309	13384
924.417	13282
924.525	13225
924.633	13232
924.741	14008
924.849	13091
924.956	13282
925.064	13065
925.172	13023
925.279	13091
925.387	13061
925.494	12981
925.602	13114
925.709	12958
925.816	12844
925.924	12947
926.031	13000
926.138	12935
926.245	13023
926.352	12852
926.459	12939
926.566	12989
926.673	12825
926.779	12760
926.886	12734
926.993	12574
927.099	12589
927.206	12479
927.312	12441
927.419	12612
927.525	12490
927.631	12555
927.737	12422
927.843	12391
927.95	12338
928.056	12437
928.162	12456
928.267	12357
928.373	13053
928.479	12384
928.585	12136
928.69	12361
928.796	12285
928.901	12262
929.007	12117
929.112	12254
929.218	12235
929.323	12095
929.428	12068
929.533	12209
929.638	11999
929.743	12068
929.848	12095
929.953	11988
930.058	11893
930.163	11710
930.267	11851
930.372	12003
930.477	11710
930.581	12007
930.685	11870
930.79	11714
930.894	11672
930.998	11733
931.103	11767
931.207	11467
931.311	11436
931.415	11269
931.519	11083
931.623	10946
