Data from test_V78500241_1741.txt Node
Date: Fri Mar 25 15:21:58 CST 2022
User: usil
Spectrometer: V785-0024
Trigger mode: 0
Integration Time (sec): 4.000000E-1
Scans to average: 1
Nonlinearity correction enabled: false
Boxcar width: 0
Storing dark spectrum: false
XAxis mode: Wavelengths
Number of Pixels in Spectrum: 1024
>>>>>Begin Spectral Data<<<<<
801.071	27899
801.214	27850
801.356	27652
801.499	27469
801.641	27534
801.783	27507
801.926	27389
802.068	27397
802.211	27348
802.353	27283
802.496	27096
802.638	27077
802.78	26975
802.923	27077
803.065	27138
803.208	26940
803.35	27085
803.492	27184
803.635	27230
803.777	27207
803.919	27310
804.061	27606
804.204	27230
804.346	27176
804.488	27081
804.63	27131
804.773	27203
804.915	27131
805.057	27260
805.199	27131
805.341	27462
805.483	27408
805.626	27496
805.768	27287
805.91	27306
806.052	27526
806.194	27329
806.336	27545
806.478	27382
806.62	27344
806.762	27336
806.904	27500
807.046	27766
807.188	27701
807.33	27755
807.472	27766
807.614	27686
807.756	27690
807.898	27648
808.04	27485
808.182	27504
808.324	27759
808.465	27728
808.607	27907
808.749	28010
808.891	28109
809.033	28112
809.174	28051
809.316	27972
809.458	27827
809.6	28044
809.741	27994
809.883	28109
810.025	28287
810.166	28177
810.308	28226
810.45	28162
810.591	28048
810.733	28017
810.875	27964
811.016	27800
811.158	27835
811.299	28010
811.441	28185
811.582	28287
811.724	28021
811.865	28013
812.007	28078
812.148	28044
812.29	28010
812.431	28131
812.573	28287
812.714	28337
812.855	28550
812.997	28523
813.138	28733
813.279	28561
813.421	28599
813.562	28504
813.703	28386
813.845	28147
813.986	27979
814.127	27679
814.268	27660
814.41	27713
814.551	27644
814.692	27816
814.833	27637
814.974	27583
815.115	27595
815.256	27458
815.397	27679
815.539	27599
815.68	27568
815.821	27477
815.962	27408
816.103	27439
816.244	27222
816.385	27291
816.526	27032
816.666	27192
816.807	27062
816.948	27062
817.089	27104
817.23	26979
817.371	27036
817.512	26914
817.653	26944
817.793	26963
817.934	26914
818.075	26990
818.216	26883
818.356	26960
818.497	26876
818.638	26773
818.778	26830
818.919	26743
819.06	26758
819.2	26697
819.341	26876
819.481	27013
819.622	27275
819.762	27359
819.903	27252
820.043	27093
820.184	27047
820.324	27184
820.465	27036
820.605	27009
820.746	27093
820.886	26986
821.026	27051
821.167	27013
821.307	27055
821.447	27081
821.588	26899
821.728	26659
821.868	26655
822.008	26583
822.149	26400
822.289	26415
822.429	26164
822.569	26126
822.709	26084
822.849	25955
822.99	25982
823.13	25947
823.27	25928
823.41	25928
823.55	25689
823.69	25769
823.83	25811
823.97	25681
824.11	25537
824.25	25514
824.389	25556
824.529	25651
824.669	25571
824.809	25780
824.949	25689
825.089	25681
825.228	25727
825.368	25552
825.508	25411
825.648	25567
825.787	25460
825.927	25666
826.067	25400
826.206	25563
826.346	25510
826.485	25556
826.625	25331
826.765	25586
826.904	25499
827.044	25365
827.183	25263
827.323	25221
827.462	25247
827.601	25331
827.741	25198
827.88	25171
828.02	24992
828.159	25160
828.298	25213
828.437	25270
828.577	25129
828.716	25373
828.855	25050
828.994	24966
829.134	24909
829.273	25019
829.412	24875
829.551	24741
829.69	25076
829.829	25038
829.968	24973
830.107	24939
830.246	24909
830.385	24760
830.524	24814
830.663	24745
830.802	24604
830.941	24502
831.08	24426
831.219	24616
831.357	24456
831.496	24798
831.635	24635
831.774	24403
831.913	24407
832.051	24403
832.19	24448
832.329	24216
832.467	24182
832.606	23984
832.744	24121
832.883	24171
833.022	24114
833.16	24228
833.299	24319
833.437	24163
833.576	24224
833.714	24292
833.852	24338
833.991	24296
834.129	24213
834.267	24365
834.406	24220
834.544	24243
834.682	24155
834.821	24205
834.959	24391
835.097	24155
835.235	24277
835.373	24114
835.511	24296
835.65	24163
835.788	24114
835.926	23942
836.064	23920
836.202	23847
836.34	24102
836.478	24125
836.615	24003
836.753	24125
836.891	24228
837.029	24205
837.167	23893
837.305	23939
837.443	24041
837.58	23870
837.718	23859
837.856	23920
837.993	23802
838.131	23920
838.269	23741
838.406	23813
838.544	23817
838.681	23539
838.819	23619
838.956	23520
839.094	23471
839.231	23429
839.369	23638
839.506	23714
839.643	23805
839.781	23414
839.918	23334
840.055	23528
840.193	23303
840.33	23364
840.467	23334
840.604	23440
840.742	23531
840.879	23166
841.016	23261
841.153	23258
841.29	23379
841.427	23277
841.564	23429
841.701	23220
841.838	23288
841.975	23197
842.112	23284
842.249	23098
842.385	23052
842.522	23330
842.659	23056
842.796	22984
842.933	23140
843.069	23113
843.206	23044
843.343	23189
843.479	23178
843.616	23098
843.752	22877
843.889	22999
844.025	23029
844.162	22752
844.298	22900
844.435	22831
844.571	22809
844.708	22889
844.844	23075
844.98	22896
845.117	22866
845.253	22782
845.389	22748
845.525	22923
845.661	22713
845.798	22637
845.934	22592
846.07	22588
846.206	22512
846.342	22672
846.478	22470
846.614	22436
846.75	22276
846.886	22223
847.022	22409
847.158	22329
847.294	22219
847.429	22500
847.565	22363
847.701	22402
847.837	21991
847.972	22048
848.108	22204
848.244	22070
848.379	21937
848.515	22017
848.65	22044
848.786	21880
848.921	21994
849.057	22051
849.192	21998
849.328	21770
849.463	21945
849.598	21781
849.734	21747
849.869	21774
850.004	21724
850.14	21705
850.275	21595
850.41	21572
850.545	21622
850.68	21595
850.815	21614
850.95	21686
851.085	21838
851.22	21831
851.355	21587
851.49	21720
851.625	21701
851.76	21641
851.895	21481
852.03	21595
852.165	21690
852.299	21720
852.434	21728
852.569	21614
852.703	21603
852.838	21785
852.973	21816
853.107	21785
853.242	21625
853.376	21492
853.511	21462
853.645	21454
853.78	21629
853.914	21526
854.048	21507
854.183	21466
854.317	21618
854.451	21641
854.585	21561
854.72	21561
854.854	21625
854.988	21397
855.122	21580
855.256	21325
855.39	21504
855.524	21435
855.658	21564
855.792	21534
855.926	21408
856.06	21515
856.194	21641
856.327	21500
856.461	21511
856.595	21534
856.729	21515
856.862	21633
856.996	21625
857.13	21534
857.263	21599
857.397	21603
857.53	21412
857.664	21526
857.797	21511
857.931	21534
858.064	21545
858.197	21545
858.331	21568
858.464	21469
858.597	21378
858.731	21492
858.864	21511
858.997	21435
859.13	21545
859.263	21492
859.396	21515
859.529	21431
859.662	21481
859.795	21408
859.928	21435
860.061	21587
860.194	21660
860.327	21603
860.46	21568
860.592	21538
860.725	21538
860.858	21663
860.99	21469
861.123	21325
861.256	21481
861.388	21504
861.521	22135
861.653	21370
861.786	21138
861.918	21218
862.05	21469
862.183	21382
862.315	21351
862.447	21500
862.58	21317
862.712	21256
862.844	21173
862.976	21275
863.108	21355
863.24	21572
863.372	21199
863.504	21214
863.636	21279
863.768	21211
863.9	21298
864.032	21036
864.164	21135
864.296	21249
864.428	21302
864.559	21272
864.691	21310
864.823	21275
864.954	21264
865.086	21116
865.217	21272
865.349	21013
865.48	21142
865.612	21089
865.743	21211
865.875	21138
866.006	20994
866.137	21028
866.269	21093
866.4	21028
866.531	21043
866.662	21104
866.793	20971
866.924	21028
867.055	21066
867.186	21028
867.317	20948
867.448	20918
867.579	20872
867.71	20895
867.841	20906
867.972	21043
868.103	21009
868.233	20990
868.364	21039
868.495	21062
868.625	21195
868.756	21393
868.886	21165
869.017	21241
869.147	21405
869.278	21374
869.408	21283
869.539	21233
869.669	21401
869.799	21378
869.929	21332
870.06	21473
870.19	21488
870.32	21682
870.45	21595
870.58	21606
870.71	21648
870.84	21648
870.97	21595
871.1	21694
871.23	21751
871.36	21892
871.489	21690
871.619	21895
871.749	21800
871.879	21998
872.008	22032
872.138	21861
872.267	21793
872.397	21720
872.526	21778
872.656	21759
872.785	21641
872.915	21778
873.044	21979
873.173	21857
873.303	21873
873.432	21892
873.561	21785
873.69	21816
873.819	21884
873.948	21945
874.077	21816
874.206	21831
874.335	21968
874.464	22013
874.593	22147
874.722	22059
874.851	22074
874.979	22021
875.108	22128
875.237	22063
875.365	22013
875.494	22032
875.623	22112
875.751	22044
875.88	22268
876.008	22162
876.136	22192
876.265	22466
876.393	22702
876.521	22474
876.65	22702
876.778	22398
876.906	22390
877.034	22390
877.162	22451
877.29	22478
877.418	22451
877.546	22382
877.674	22402
877.802	22489
877.93	22390
878.058	22367
878.185	22371
878.313	22402
878.441	22379
878.568	22386
878.696	22360
878.824	22432
878.951	22565
879.079	22554
879.206	22626
879.333	22561
879.461	22500
879.588	22584
879.715	22577
879.842	22550
879.97	22447
880.097	22169
880.224	22242
880.351	22265
880.478	22322
880.605	22139
880.732	22280
880.859	22386
880.986	22337
881.112	22253
881.239	22139
881.366	22154
881.493	22025
881.619	21907
881.746	21892
881.872	21827
881.999	21835
882.125	21686
882.252	21850
882.378	21876
882.505	21892
882.631	21724
882.757	21595
882.883	21519
883.01	21572
883.136	21477
883.262	21416
883.388	21389
883.514	21526
883.64	21576
883.766	21443
883.892	21291
884.018	21283
884.143	21477
884.269	21583
884.395	21241
884.52	21310
884.646	21131
884.772	21039
884.897	21039
885.023	21169
885.148	21268
885.274	21222
885.399	21256
885.524	21047
885.65	21298
885.775	21157
885.9	21108
886.025	21260
886.15	21237
886.275	21112
886.4	21188
886.525	21146
886.65	21085
886.775	21188
886.9	21367
887.025	21420
887.149	21211
887.274	20925
887.399	20929
887.523	21005
887.648	20826
887.773	20853
887.897	21001
888.021	20906
888.146	20929
888.27	20979
888.395	21062
888.519	21009
888.643	20880
888.767	20963
888.891	20929
889.015	20754
889.139	20804
889.263	20754
889.387	20933
889.511	21070
889.635	20883
889.759	20667
889.883	20849
890.006	20781
890.13	20918
890.254	20663
890.377	20560
890.501	20434
890.624	20511
890.748	20579
890.871	20461
890.995	20214
891.118	20305
891.241	20434
891.364	20362
891.488	20393
891.611	20263
891.734	20366
891.857	20290
891.98	20457
892.103	20313
892.226	20317
892.349	20259
892.471	20084
892.594	20206
892.717	20267
892.839	20240
892.962	20256
893.085	20313
893.207	20233
893.33	20176
893.452	20122
893.575	20191
893.697	20225
893.819	20358
893.941	20457
894.064	20438
894.186	20199
894.308	20088
894.43	20149
894.552	20381
894.674	20309
894.796	20119
894.918	20119
895.04	20157
895.161	20301
895.283	20385
895.405	20210
895.526	20286
895.648	20138
895.769	20286
895.891	20267
896.012	20267
896.134	20218
896.255	20202
896.376	20187
896.498	20180
896.619	20259
896.74	20195
896.861	20206
896.982	20545
897.103	20617
897.224	20556
897.345	20419
897.466	20339
897.587	20294
897.708	20522
897.828	20526
897.949	20408
898.07	20256
898.19	20309
898.311	20602
898.431	20434
898.552	20469
898.672	20381
898.792	20629
898.913	20393
899.033	20229
899.153	20271
899.273	20073
899.393	20153
899.513	20278
899.633	20138
899.753	20134
899.873	20016
899.993	20134
900.113	20153
900.232	20115
900.352	20005
900.472	20142
900.591	19955
900.711	20012
900.83	19898
900.95	20065
901.069	19967
901.189	19890
901.308	19677
901.427	19655
901.546	19540
901.665	19525
901.784	19472
901.904	19396
902.023	19384
902.141	19114
902.26	19015
902.379	19232
902.498	19027
902.617	18897
902.735	19133
902.854	19050
902.973	19023
903.091	18722
903.21	18673
903.328	18753
903.446	18688
903.565	18639
903.683	18502
903.801	18273
903.919	18475
904.038	18460
904.156	18323
904.274	18391
904.392	18239
904.51	18201
904.627	18323
904.745	18346
904.863	18292
904.981	18152
905.098	17977
905.216	17920
905.334	17996
905.451	17920
905.569	17931
905.686	17889
905.803	17961
905.921	17676
906.038	17790
906.155	17710
906.272	17737
906.389	17729
906.506	17512
906.623	17471
906.74	17535
906.857	17448
906.974	17398
907.091	17410
907.208	17478
907.324	17512
907.441	17410
907.557	17280
907.674	17239
907.79	17178
907.907	17204
908.023	17235
908.139	17147
908.256	17269
908.372	17174
908.488	16987
908.604	16835
908.72	16858
908.836	16934
908.952	16930
909.068	16877
909.184	16934
909.3	16862
909.415	16915
909.531	16972
909.647	16694
909.762	16691
909.878	16607
909.993	16618
910.108	16607
910.224	16569
910.339	16630
910.454	16542
910.57	16394
910.685	16398
910.8	16542
910.915	16687
911.03	16337
911.145	16280
911.259	16310
911.374	16242
911.489	16185
911.604	16067
911.718	16048
911.833	15964
911.947	15930
912.062	15785
912.176	15934
912.291	15941
912.405	15953
912.519	16101
912.633	16128
912.748	16017
912.862	15930
912.976	15873
913.09	15663
913.204	15781
913.318	15701
913.431	15865
913.545	15857
913.659	15960
913.772	15827
913.886	15641
914	15538
914.113	15686
914.226	15682
914.34	15599
914.453	15488
914.566	15656
914.68	15435
914.793	15359
914.906	15306
915.019	15245
915.132	15218
915.245	15226
915.358	15268
915.47	15230
915.583	15192
915.696	15245
915.809	15291
915.921	15355
916.034	15066
916.146	15074
916.259	15066
916.371	15123
916.483	15104
916.595	14986
916.708	15051
916.82	14971
916.932	14956
917.044	14857
917.156	14982
917.268	14811
917.38	14868
917.491	14838
917.603	14800
917.715	14887
917.826	14857
917.938	14750
918.049	14670
918.161	14746
918.272	14902
918.384	14933
918.495	14697
918.606	14632
918.717	14594
918.828	14629
918.939	14606
919.05	14499
919.161	14507
919.272	14408
919.383	14450
919.494	14590
919.604	14773
919.715	14575
919.826	14454
919.936	14530
920.047	14655
920.157	14556
920.267	14674
920.378	14632
920.488	14545
920.598	14705
920.708	14807
920.818	14697
920.928	14720
921.038	14777
921.148	14686
921.258	14480
921.368	14450
921.477	14336
921.587	14286
921.697	14130
921.806	14282
921.916	14180
922.025	14016
922.134	13887
922.244	13921
922.353	13993
922.462	13791
922.571	13727
922.68	13575
922.789	13636
922.898	13628
923.007	13487
923.116	13567
923.224	13609
923.333	13529
923.442	13472
923.55	13430
923.659	13400
923.767	13438
923.876	13274
923.984	13430
924.092	13266
924.201	13339
924.309	13221
924.417	13339
924.525	13297
924.633	13187
924.741	14039
924.849	13088
924.956	13072
925.064	12947
925.172	12928
925.279	12996
925.387	13061
925.494	13012
925.602	13110
925.709	13031
925.816	12863
925.924	12901
926.031	13076
926.138	12875
926.245	12966
926.352	12760
926.459	12882
926.566	13004
926.673	12909
926.779	12734
926.886	12738
926.993	12513
927.099	12517
927.206	12597
927.312	12486
927.419	12418
927.525	12490
927.631	12513
927.737	12433
927.843	12399
927.95	12323
928.056	12327
928.162	12342
928.267	12414
928.373	13038
928.479	12426
928.585	12197
928.69	12327
928.796	12361
928.901	12235
929.007	12060
929.112	12209
929.218	12175
929.323	12155
929.428	12095
929.533	12220
929.638	12030
929.743	12030
929.848	12140
929.953	12053
930.058	12049
930.163	11729
930.267	11718
930.372	11798
930.477	11733
930.581	11980
930.685	11904
930.79	11729
930.894	11668
930.998	11646
931.103	11608
931.207	11406
931.311	11349
931.415	11265
931.519	11075
931.623	11079
