Data from test_V78500241_474.txt Node
Date: Fri Mar 25 15:13:09 CST 2022
User: usil
Spectrometer: V785-0024
Trigger mode: 0
Integration Time (sec): 4.000000E-1
Scans to average: 1
Nonlinearity correction enabled: false
Boxcar width: 0
Storing dark spectrum: false
XAxis mode: Wavelengths
Number of Pixels in Spectrum: 1024
>>>>>Begin Spectral Data<<<<<
801.071	27275
801.214	27291
801.356	27112
801.499	26990
801.641	26960
801.783	26944
801.926	27005
802.068	26895
802.211	26663
802.353	26800
802.496	26590
802.638	26674
802.78	26743
802.923	26476
803.065	26514
803.208	26526
803.35	26640
803.492	26727
803.635	26914
803.777	26545
803.919	26689
804.061	26963
804.204	26731
804.346	26667
804.488	26716
804.63	26807
804.773	26549
804.915	26575
805.057	26929
805.199	26701
805.341	26845
805.483	26811
805.626	26845
805.768	26724
805.91	26769
806.052	26807
806.194	26754
806.336	26994
806.478	26834
806.62	26811
806.762	27001
806.904	27085
807.046	27256
807.188	27363
807.33	27275
807.472	27348
807.614	27298
807.756	27127
807.898	27131
808.04	26971
808.182	26994
808.324	27161
808.465	27089
808.607	27298
808.749	27454
808.891	27511
809.033	27557
809.174	27500
809.316	27367
809.458	27412
809.6	27340
809.741	27454
809.883	27557
810.025	27808
810.166	27675
810.308	27610
810.45	27713
810.591	27797
810.733	27553
810.875	27557
811.016	27431
811.158	27450
811.299	27458
811.441	27545
811.582	27572
811.724	27397
811.865	27435
812.007	27439
812.148	27412
812.29	27481
812.431	27492
812.573	27800
812.714	27865
812.855	27994
812.997	28074
813.138	28135
813.279	28147
813.421	27914
813.562	27956
813.703	27819
813.845	27778
813.986	27427
814.127	27169
814.268	27161
814.41	27131
814.551	27077
814.692	27093
814.833	27013
814.974	27165
815.115	27081
815.256	27001
815.397	27070
815.539	26979
815.68	26906
815.821	26762
815.962	26762
816.103	26891
816.244	26705
816.385	26651
816.526	26724
816.666	26412
816.807	26415
816.948	26507
817.089	26476
817.23	26355
817.371	26412
817.512	26389
817.653	26294
817.793	26339
817.934	26404
818.075	26419
818.216	26377
818.356	26370
818.497	26351
818.638	26218
818.778	26115
818.919	26138
819.06	26084
819.2	26286
819.341	26423
819.481	26404
819.622	26606
819.762	26754
819.903	26792
820.043	26518
820.184	26682
820.324	26587
820.465	26629
820.605	26507
820.746	26511
820.886	26336
821.026	26465
821.167	26480
821.307	26522
821.447	26282
821.588	26286
821.728	26180
821.868	25887
822.008	25989
822.149	25826
822.289	25864
822.429	25590
822.569	25544
822.709	25578
822.849	25434
822.99	25392
823.13	25445
823.27	25335
823.41	25244
823.55	25187
823.69	25183
823.83	25202
823.97	25141
824.11	24924
824.25	24947
824.389	24981
824.529	25027
824.669	25015
824.809	25145
824.949	25126
825.089	24935
825.228	25004
825.368	24753
825.508	24749
825.648	24928
825.787	24844
825.927	24932
826.067	24840
826.206	24920
826.346	24909
826.485	24939
826.625	24962
826.765	24977
826.904	24852
827.044	24589
827.183	24597
827.323	24445
827.462	24593
827.601	24601
827.741	24601
827.88	24696
828.02	24391
828.159	24574
828.298	24654
828.437	24616
828.577	24639
828.716	24692
828.855	24433
828.994	24338
829.134	24254
829.273	24391
829.412	24251
829.551	24262
829.69	24292
829.829	24330
829.968	24376
830.107	24350
830.246	24357
830.385	24251
830.524	24205
830.663	24087
830.802	24018
830.941	23969
831.08	23942
831.219	24041
831.357	23855
831.496	24064
831.635	23870
831.774	23821
831.913	23764
832.051	23672
832.19	23695
832.329	23691
832.467	23687
832.606	23524
832.744	23486
832.883	23516
833.022	23558
833.16	23668
833.299	23577
833.437	23608
833.576	23733
833.714	23748
833.852	23756
833.991	23714
834.129	23703
834.267	23767
834.406	23665
834.544	23615
834.682	23638
834.821	23623
834.959	23680
835.097	23570
835.235	23695
835.373	23581
835.511	23573
835.65	23543
835.788	23467
835.926	23379
836.064	23296
836.202	23288
836.34	23429
836.478	23562
836.615	23558
836.753	23608
836.891	23611
837.029	23459
837.167	23444
837.305	23539
837.443	23341
837.58	23387
837.718	23417
837.856	23440
837.993	23315
838.131	23383
838.269	23227
838.406	23254
838.544	23140
838.681	23064
838.819	22961
838.956	22767
839.094	22881
839.231	22873
839.369	23094
839.506	23315
839.643	23003
839.781	22854
839.918	22805
840.055	22816
840.193	22774
840.33	22721
840.467	22850
840.604	22877
840.742	23102
840.879	22672
841.016	22668
841.153	22649
841.29	22839
841.427	22729
841.564	22790
841.701	22771
841.838	22660
841.975	22569
842.112	22706
842.249	22622
842.385	22451
842.522	22835
842.659	22717
842.796	22516
842.933	22493
843.069	22531
843.206	22504
843.343	22535
843.479	22523
843.616	22599
843.752	22325
843.889	22234
844.025	22462
844.162	22303
844.298	22299
844.435	22367
844.571	22299
844.708	22356
844.844	22474
844.98	22348
845.117	22390
845.253	22105
845.389	22109
845.525	22120
845.661	22147
845.798	22032
845.934	22128
846.07	21964
846.206	22112
846.342	22280
846.478	21956
846.614	21823
846.75	21701
846.886	21713
847.022	21857
847.158	21736
847.294	21918
847.429	21755
847.565	21751
847.701	21960
847.837	21485
847.972	21534
848.108	21496
848.244	21523
848.379	21355
848.515	21374
848.65	21466
848.786	21435
848.921	21393
849.057	21447
849.192	21511
849.328	21359
849.463	21507
849.598	21473
849.734	21195
849.869	21138
850.004	21108
850.14	21256
850.275	21119
850.41	21165
850.545	21093
850.68	21081
850.815	21199
850.95	21131
851.085	21291
851.22	21218
851.355	21302
851.49	21135
851.625	21058
851.76	21142
851.895	20979
852.03	21047
852.165	21135
852.299	21112
852.434	21116
852.569	21131
852.703	21123
852.838	21104
852.973	21355
853.107	21222
853.242	21085
853.376	20952
853.511	20853
853.645	20975
853.78	21058
853.914	20925
854.048	20929
854.183	20823
854.317	20762
854.451	21001
854.585	20990
854.72	21009
854.854	21024
854.988	20872
855.122	20986
855.256	20788
855.39	20834
855.524	21089
855.658	20967
855.792	20857
855.926	20994
856.06	21013
856.194	21051
856.327	20842
856.461	20845
856.595	21047
856.729	20948
856.862	21131
856.996	20956
857.13	20994
857.263	20952
857.397	21116
857.53	21028
857.664	20982
857.797	20948
857.931	21036
858.064	21001
858.197	21108
858.331	20857
858.464	21077
858.597	20876
858.731	20956
858.864	20872
858.997	20899
859.13	20948
859.263	21024
859.396	21188
859.529	20872
859.662	20883
859.795	21009
859.928	21001
860.061	21100
860.194	21039
860.327	21024
860.46	20944
860.592	21138
860.725	21135
860.858	20956
860.99	20952
861.123	20864
861.256	20998
861.388	20994
861.521	21766
861.653	20849
861.786	20743
861.918	20910
862.05	20842
862.183	20815
862.315	20933
862.447	21074
862.58	20857
862.712	20708
862.844	20590
862.976	20800
863.108	20800
863.24	21108
863.372	20693
863.504	20663
863.636	20651
863.768	20678
863.9	20625
864.032	20613
864.164	20579
864.296	20648
864.428	20815
864.559	20735
864.691	20640
864.823	20674
864.954	20556
865.086	20663
865.217	20522
865.349	20644
865.48	20617
865.612	20556
865.743	20716
865.875	20598
866.006	20575
866.137	20518
866.269	20621
866.4	20480
866.531	20503
866.662	20377
866.793	20469
866.924	20454
867.055	20621
867.186	20530
867.317	20480
867.448	20381
867.579	20423
867.71	20503
867.841	20389
867.972	20415
868.103	20431
868.233	20518
868.364	20419
868.495	20644
868.625	20731
868.756	20914
868.886	20689
869.017	20811
869.147	20777
869.278	20921
869.408	20693
869.539	20663
869.669	20773
869.799	20826
869.929	20811
870.06	20800
870.19	20910
870.32	21001
870.45	21116
870.58	21135
870.71	21321
870.84	21298
870.97	21245
871.1	21184
871.23	21329
871.36	21408
871.489	21241
871.619	21344
871.749	21332
871.879	21355
872.008	21450
872.138	21329
872.267	21218
872.397	21184
872.526	21074
872.656	21085
872.785	21199
872.915	21416
873.044	21389
873.173	21287
873.303	21294
873.432	21431
873.561	21382
873.69	21538
873.819	21469
873.948	21496
874.077	21317
874.206	21283
874.335	21408
874.464	21507
874.593	21633
874.722	21656
874.851	21675
874.979	21606
875.108	21595
875.237	21496
875.365	21557
875.494	21595
875.623	21679
875.751	21549
875.88	21660
876.008	21755
876.136	21671
876.265	22006
876.393	22044
876.521	22086
876.65	22074
876.778	22040
876.906	21975
877.034	21926
877.162	21987
877.29	21964
877.418	22013
877.546	21941
877.674	22112
877.802	21899
877.93	21892
878.058	21831
878.185	21903
878.313	21762
878.441	21907
878.568	21785
878.696	21774
878.824	22010
878.951	22093
879.079	22097
879.206	22337
879.333	22078
879.461	22002
879.588	22070
879.715	22032
879.842	22234
879.97	21960
880.097	21892
880.224	21774
880.351	21835
880.478	21880
880.605	21759
880.732	21751
880.859	22025
880.986	21812
881.112	21797
881.239	21603
881.366	21561
881.493	21416
881.619	21393
881.746	21363
881.872	21359
881.999	21481
882.125	21272
882.252	21374
882.378	21237
882.505	21504
882.631	21287
882.757	21070
882.883	21123
883.01	21066
883.136	21017
883.262	20960
883.388	20948
883.514	21024
883.64	21081
883.766	21039
883.892	20834
884.018	20845
884.143	21058
884.269	21066
884.395	20826
884.52	20689
884.646	20781
884.772	20712
884.897	20674
885.023	20724
885.148	20933
885.274	20819
885.399	20804
885.524	20674
885.65	20727
885.775	20678
885.9	20640
886.025	20792
886.15	20765
886.275	20602
886.4	20530
886.525	20777
886.65	20564
886.775	20648
886.9	20765
887.025	20933
887.149	20712
887.274	20518
887.399	20530
887.523	20495
887.648	20457
887.773	20328
887.897	20484
888.021	20537
888.146	20370
888.27	20446
888.395	20537
888.519	20533
888.643	20518
888.767	20484
888.891	20465
889.015	20244
889.139	20290
889.263	20244
889.387	20427
889.511	20511
889.635	20313
889.759	20233
889.883	20320
890.006	20404
890.13	20324
890.254	20240
890.377	20054
890.501	20027
890.624	19955
890.748	20115
890.871	19894
890.995	19833
891.118	19803
891.241	19841
891.364	19849
891.488	19944
891.611	19871
891.734	19887
891.857	19845
891.98	19902
892.103	19913
892.226	19868
892.349	19772
892.471	19670
892.594	19833
892.717	19830
892.839	19799
892.962	19890
893.085	19833
893.207	19681
893.33	19605
893.452	19575
893.575	19833
893.697	19689
893.819	19837
893.941	19982
894.064	19947
894.186	19700
894.308	19742
894.43	19932
894.552	19750
894.674	19814
894.796	19685
894.918	19811
895.04	19590
895.161	19731
895.283	19788
895.405	19715
895.526	19875
895.648	19712
895.769	19708
895.891	19879
896.012	19871
896.134	19822
896.255	19803
896.376	19753
896.498	19731
896.619	19818
896.74	19734
896.861	19841
896.982	20225
897.103	20096
897.224	19989
897.345	19974
897.466	19978
897.587	19955
897.708	20001
897.828	19940
897.949	19830
898.07	19864
898.19	19803
898.311	20054
898.431	19925
898.552	19982
898.672	19917
898.792	20073
898.913	20043
899.033	19921
899.153	19734
899.273	19696
899.393	19742
899.513	19807
899.633	19746
899.753	19616
899.873	19696
899.993	19719
900.113	19662
900.232	19704
900.352	19677
900.472	19647
900.591	19495
900.711	19575
900.83	19411
900.95	19582
901.069	19647
901.189	19460
901.308	19175
901.427	19042
901.546	19088
901.665	19168
901.784	19023
901.904	18920
902.023	18935
902.141	18817
902.26	18692
902.379	18719
902.498	18547
902.617	18631
902.735	18738
902.854	18547
902.973	18517
903.091	18273
903.21	18201
903.328	18315
903.446	18239
903.565	18159
903.683	18114
903.801	18019
903.919	18057
904.038	17999
904.156	18041
904.274	18041
904.392	17786
904.51	17745
904.627	17912
904.745	17897
904.863	17999
904.981	17726
905.098	17524
905.216	17558
905.334	17592
905.451	17558
905.569	17501
905.686	17512
905.803	17493
905.921	17307
906.038	17391
906.155	17303
906.272	17254
906.389	17254
906.506	17136
906.623	17143
906.74	17162
906.857	16961
906.974	17045
907.091	17227
907.208	17204
907.324	17090
907.441	16972
907.557	16847
907.674	16854
907.79	16824
907.907	16812
908.023	16927
908.139	16763
908.256	16835
908.372	16771
908.488	16675
908.604	16527
908.72	16493
908.836	16596
908.952	16497
909.068	16645
909.184	16577
909.3	16634
909.415	16569
909.531	16481
909.647	16348
909.762	16196
909.878	16219
909.993	16211
910.108	16124
910.224	16261
910.339	16230
910.454	16124
910.57	15998
910.685	16013
910.8	16181
910.915	16287
911.03	16128
911.145	15876
911.259	15861
911.374	15850
911.489	15789
911.604	15686
911.718	15526
911.833	15572
911.947	15530
912.062	15367
912.176	15610
912.291	15587
912.405	15629
912.519	15793
912.633	15770
912.748	15644
912.862	15587
912.976	15443
913.09	15317
913.204	15370
913.318	15348
913.431	15515
913.545	15431
913.659	15523
913.772	15420
913.886	15313
914	15241
914.113	15317
914.226	15291
914.34	15116
914.453	14998
914.566	15249
914.68	15142
914.793	15142
914.906	14910
915.019	14891
915.132	14849
915.245	14842
915.358	14906
915.47	14876
915.583	14819
915.696	14857
915.809	14910
915.921	14994
916.034	14788
916.146	14678
916.259	14667
916.371	14807
916.483	14693
916.595	14716
916.708	14705
916.82	14644
916.932	14716
917.044	14682
917.156	14476
917.268	14545
917.38	14454
917.491	14469
917.603	14541
917.715	14518
917.826	14583
917.938	14469
918.049	14320
918.161	14488
918.272	14560
918.384	14514
918.495	14492
918.606	14256
918.717	14119
918.828	14309
918.939	14343
919.05	14191
919.161	14252
919.272	14016
919.383	14069
919.494	14263
919.604	14488
919.715	14221
919.826	14126
919.936	14187
920.047	14244
920.157	14202
920.267	14511
920.378	14271
920.488	14374
920.598	14431
920.708	14575
920.818	14415
920.928	14393
921.038	14530
921.148	14533
921.258	14252
921.368	13993
921.477	14016
921.587	13864
921.697	13818
921.806	13978
921.916	13795
922.025	13582
922.134	13700
922.244	13578
922.353	13689
922.462	13495
922.571	13415
922.68	13316
922.789	13285
922.898	13194
923.007	13228
923.116	13274
923.224	13282
923.333	13297
923.442	13149
923.55	13057
923.659	12973
923.767	13137
923.876	13099
923.984	13076
924.092	13050
924.201	13061
924.309	13076
924.417	12977
924.525	13008
924.633	12901
924.741	13826
924.849	12722
924.956	12977
925.064	12707
925.172	12616
925.279	12684
925.387	12707
925.494	12768
925.602	12825
925.709	12711
925.816	12646
925.924	12658
926.031	12738
926.138	12601
926.245	12757
926.352	12654
926.459	12707
926.566	12738
926.673	12544
926.779	12471
926.886	12437
926.993	12330
927.099	12308
927.206	12224
927.312	12220
927.419	12388
927.525	12315
927.631	12251
927.737	12239
927.843	12098
927.95	12026
928.056	12144
928.162	12121
928.267	12175
928.373	12639
928.479	12239
928.585	11973
928.69	12019
928.796	12152
928.901	11950
929.007	11832
929.112	11958
929.218	11874
929.323	11790
929.428	11878
929.533	11984
929.638	11707
929.743	11783
929.848	11748
929.953	11794
930.058	11638
930.163	11482
930.267	11592
930.372	11726
930.477	11554
930.581	11726
930.685	11570
930.79	11425
930.894	11455
930.998	11448
931.103	11455
931.207	11155
931.311	11102
931.415	10961
931.519	10793
931.623	10763
