Data from test_V78500241_266.txt Node
Date: Fri Mar 25 15:11:42 CST 2022
User: usil
Spectrometer: V785-0024
Trigger mode: 0
Integration Time (sec): 4.000000E-1
Scans to average: 1
Nonlinearity correction enabled: false
Boxcar width: 0
Storing dark spectrum: false
XAxis mode: Wavelengths
Number of Pixels in Spectrum: 1024
>>>>>Begin Spectral Data<<<<<
801.071	28303
801.214	28188
801.356	28036
801.499	28002
801.641	27835
801.783	27808
801.926	27991
802.068	27937
802.211	27808
802.353	27618
802.496	27561
802.638	27557
802.78	27568
802.923	27542
803.065	27275
803.208	27648
803.35	27667
803.492	27675
803.635	27755
803.777	27656
803.919	27561
804.061	27979
804.204	27663
804.346	27701
804.488	27610
804.63	27519
804.773	27458
804.915	27641
805.057	27610
805.199	27511
805.341	27720
805.483	27713
805.626	27739
805.768	27595
805.91	27827
806.052	27789
806.194	27675
806.336	28013
806.478	27808
806.62	27652
806.762	27892
806.904	27953
807.046	28128
807.188	28067
807.33	28010
807.472	28291
807.614	28082
807.756	28006
807.898	27945
808.04	28006
808.182	27991
808.324	27918
808.465	28048
808.607	28109
808.749	28295
808.891	28466
809.033	28557
809.174	28504
809.316	28470
809.458	28306
809.6	28386
809.741	28462
809.883	28409
810.025	28523
810.166	28531
810.308	28470
810.45	28584
810.591	28508
810.733	28341
810.875	28181
811.016	28265
811.158	28196
811.299	28428
811.441	28409
811.582	28500
811.724	28188
811.865	28341
812.007	28242
812.148	28295
812.29	28276
812.431	28443
812.573	28561
812.714	28759
812.855	28713
812.997	28873
813.138	29060
813.279	28987
813.421	28858
813.562	28885
813.703	28622
813.845	28497
813.986	28257
814.127	27964
814.268	27899
814.41	27903
814.551	27895
814.692	28082
814.833	27895
814.974	27850
815.115	27873
815.256	27770
815.397	27770
815.539	27797
815.68	27694
815.821	27633
815.962	27770
816.103	27759
816.244	27641
816.385	27549
816.526	27378
816.666	27260
816.807	27256
816.948	27249
817.089	27389
817.23	27256
817.371	27157
817.512	27192
817.653	27096
817.793	27100
817.934	27256
818.075	27157
818.216	27154
818.356	27237
818.497	27066
818.638	26864
818.778	26834
818.919	26811
819.06	26948
819.2	27142
819.341	27039
819.481	27154
819.622	27199
819.762	27466
819.903	27435
820.043	27344
820.184	27310
820.324	27207
820.465	27313
820.605	27252
820.746	27112
820.886	27032
821.026	27055
821.167	27207
821.307	27127
821.447	27169
821.588	27100
821.728	26971
821.868	26705
822.008	26640
822.149	26564
822.289	26583
822.429	26343
822.569	26355
822.709	26400
822.849	25902
822.99	26016
823.13	26031
823.27	26005
823.41	25898
823.55	25814
823.69	25887
823.83	25898
823.97	25852
824.11	25734
824.25	25582
824.389	25784
824.529	25746
824.669	25567
824.809	25731
824.949	25791
825.089	25738
825.228	25738
825.368	25525
825.508	25495
825.648	25533
825.787	25464
825.927	25712
826.067	25525
826.206	25457
826.346	25689
826.485	25582
826.625	25502
826.765	25597
826.904	25624
827.044	25400
827.183	25282
827.323	25266
827.462	25194
827.601	25384
827.741	25198
827.88	25255
828.02	25118
828.159	25171
828.298	25175
828.437	25217
828.577	25114
828.716	25251
828.855	25137
828.994	25027
829.134	25053
829.273	25065
829.412	24852
829.551	24840
829.69	24894
829.829	24970
829.968	24947
830.107	24973
830.246	24878
830.385	24741
830.524	24783
830.663	24722
830.802	24604
830.941	24563
831.08	24452
831.219	24460
831.357	24563
831.496	24665
831.635	24547
831.774	24426
831.913	24289
832.051	24205
832.19	24334
832.329	24247
832.467	24270
832.606	24167
832.744	24114
832.883	24178
833.022	24083
833.16	24228
833.299	24239
833.437	24266
833.576	24224
833.714	24243
833.852	24277
833.991	24167
834.129	24220
834.267	24365
834.406	24262
834.544	24201
834.682	24133
834.821	24182
834.959	24429
835.097	24148
835.235	24171
835.373	24174
835.511	24136
835.65	24205
835.788	24095
835.926	23901
836.064	23954
836.202	23935
836.34	23965
836.478	24038
836.615	24091
836.753	24064
836.891	24060
837.029	24049
837.167	23999
837.305	23977
837.443	23954
837.58	23843
837.718	24026
837.856	23935
837.993	23684
838.131	23847
838.269	23707
838.406	23786
838.544	23649
838.681	23531
838.819	23425
838.956	23292
839.094	23345
839.231	23459
839.369	23368
839.506	23710
839.643	23528
839.781	23360
839.918	23174
840.055	23288
840.193	23307
840.33	23277
840.467	23242
840.604	23204
840.742	23421
840.879	23025
841.016	23178
841.153	23197
841.29	23261
841.427	23315
841.564	23212
841.701	23334
841.838	23037
841.975	23086
842.112	23010
842.249	22991
842.385	22961
842.522	23181
842.659	23003
842.796	22816
842.933	22854
843.069	22877
843.206	22854
843.343	23052
843.479	22892
843.616	22889
843.752	22733
843.889	22733
844.025	22809
844.162	22706
844.298	22809
844.435	22702
844.571	22634
844.708	22717
844.844	22930
844.98	22805
845.117	22797
845.253	22843
845.389	22508
845.525	22729
845.661	22615
845.798	22451
845.934	22527
846.07	22265
846.206	22584
846.342	22577
846.478	22390
846.614	22143
846.75	22093
846.886	22219
847.022	22150
847.158	22276
847.294	22207
847.429	22246
847.565	22051
847.701	22303
847.837	21945
847.972	21842
848.108	21998
848.244	21903
848.379	21720
848.515	21755
848.65	21682
848.786	21934
848.921	21827
849.057	21778
849.192	21766
849.328	21747
849.463	21625
849.598	21603
849.734	21610
849.869	21511
850.004	21431
850.14	21454
850.275	21614
850.41	21466
850.545	21412
850.68	21481
850.815	21545
850.95	21534
851.085	21618
851.22	21583
851.355	21389
851.49	21332
851.625	21462
851.76	21477
851.895	21389
852.03	21466
852.165	21401
852.299	21515
852.434	21511
852.569	21439
852.703	21389
852.838	21606
852.973	21595
853.107	21625
853.242	21515
853.376	21268
853.511	21104
853.645	21214
853.78	21424
853.914	21233
854.048	21192
854.183	21275
854.317	21199
854.451	21469
854.585	21291
854.72	21378
854.854	21222
854.988	21173
855.122	21256
855.256	21161
855.39	21199
855.524	21275
855.658	21291
855.792	21397
855.926	21340
856.06	21294
856.194	21275
856.327	21226
856.461	21264
856.595	21195
856.729	21222
856.862	21310
856.996	21359
857.13	21355
857.263	21435
857.397	21351
857.53	21332
857.664	21393
857.797	21317
857.931	21367
858.064	21344
858.197	21405
858.331	21306
858.464	21291
858.597	21195
858.731	21146
858.864	21207
858.997	21169
859.13	21313
859.263	21313
859.396	21329
859.529	21222
859.662	21173
859.795	21218
859.928	21165
860.061	21302
860.194	21431
860.327	21344
860.46	21256
860.592	21378
860.725	21374
860.858	21313
860.99	21138
861.123	21062
861.256	21211
861.388	21207
861.521	21869
861.653	21211
861.786	21154
861.918	21009
862.05	21173
862.183	21180
862.315	21192
862.447	21336
862.58	21116
862.712	20933
862.844	20887
862.976	21039
863.108	21032
863.24	21462
863.372	21028
863.504	20998
863.636	20979
863.768	21013
863.9	21001
864.032	20845
864.164	20982
864.296	20929
864.428	21005
864.559	21108
864.691	20982
864.823	20918
864.954	21001
865.086	20963
865.217	20845
865.349	20750
865.48	20834
865.612	20975
865.743	20990
865.875	20925
866.006	20834
866.137	20823
866.269	20670
866.4	20891
866.531	20921
866.662	20708
866.793	20845
866.924	20769
867.055	20830
867.186	20781
867.317	20720
867.448	20613
867.579	20864
867.71	20678
867.841	20735
867.972	20918
868.103	20640
868.233	20785
868.364	20807
868.495	20834
868.625	21066
868.756	21138
868.886	20861
869.017	21089
869.147	21135
869.278	21146
869.408	21043
869.539	21043
869.669	21058
869.799	21096
869.929	21180
870.06	21230
870.19	21386
870.32	21317
870.45	21313
870.58	21367
870.71	21591
870.84	21469
870.97	21500
871.1	21431
871.23	21610
871.36	21644
871.489	21618
871.619	21633
871.749	21633
871.879	21511
872.008	21648
872.138	21648
872.267	21637
872.397	21408
872.526	21397
872.656	21534
872.785	21473
872.915	21564
873.044	21629
873.173	21618
873.303	21717
873.432	21629
873.561	21755
873.69	21743
873.819	21675
873.948	21785
874.077	21656
874.206	21549
874.335	21622
874.464	21732
874.593	21895
874.722	21751
874.851	21895
874.979	21865
875.108	21876
875.237	21842
875.365	21675
875.494	21781
875.623	21926
875.751	21888
875.88	21884
876.008	22112
876.136	22120
876.265	22325
876.393	22466
876.521	22348
876.65	22306
876.778	22230
876.906	22333
877.034	22131
877.162	22188
877.29	22261
877.418	22188
877.546	22303
877.674	22223
877.802	22185
877.93	22147
878.058	22158
878.185	22006
878.313	22147
878.441	22230
878.568	22048
878.696	22002
878.824	22276
878.951	22196
879.079	22356
879.206	22466
879.333	22314
879.461	22196
879.588	22356
879.715	22306
879.842	22325
879.97	22238
880.097	21899
880.224	22204
880.351	22105
880.478	22070
880.605	21937
880.732	21953
880.859	22272
880.986	22048
881.112	22002
881.239	21941
881.366	21793
881.493	21732
881.619	21675
881.746	21686
881.872	21622
881.999	21606
882.125	21526
882.252	21667
882.378	21538
882.505	21720
882.631	21374
882.757	21260
882.883	21310
883.01	21260
883.136	21268
883.262	21146
883.388	21203
883.514	21389
883.64	21408
883.766	21142
883.892	21108
884.018	21047
884.143	21256
884.269	21424
884.395	21138
884.52	21058
884.646	20952
884.772	20910
884.897	20868
885.023	21013
885.148	21074
885.274	21123
885.399	21043
885.524	20921
885.65	20910
885.775	20967
885.9	20838
886.025	20925
886.15	20952
886.275	20910
886.4	20941
886.525	20979
886.65	20804
886.775	20849
886.9	21135
887.025	21260
887.149	20834
887.274	20758
887.399	20625
887.523	20781
887.648	20663
887.773	20613
887.897	20788
888.021	20792
888.146	20625
888.27	20796
888.395	20857
888.519	20705
888.643	20667
888.767	20743
888.891	20560
889.015	20556
889.139	20549
889.263	20461
889.387	20613
889.511	20678
889.635	20655
889.759	20473
889.883	20465
890.006	20537
890.13	20659
890.254	20396
890.377	20446
890.501	20237
890.624	20126
890.748	20317
890.871	20130
890.995	20142
891.118	20100
891.241	20134
891.364	20084
891.488	20065
891.611	20005
891.734	19986
891.857	20103
891.98	20058
892.103	20153
892.226	20020
892.349	19989
892.471	19814
892.594	19959
892.717	20008
892.839	20001
892.962	20027
893.085	20054
893.207	20016
893.33	19997
893.452	19970
893.575	20107
893.697	20020
893.819	20195
893.941	20229
894.064	19989
894.186	19913
894.308	19833
894.43	20054
894.552	20180
894.674	20088
894.796	19967
894.918	19936
895.04	19879
895.161	20031
895.283	20039
895.405	19864
895.526	20050
895.648	19944
895.769	20031
895.891	20005
896.012	20134
896.134	20107
896.255	20001
896.376	19894
896.498	20035
896.619	20031
896.74	20122
896.861	20092
896.982	20233
897.103	20484
897.224	20237
897.345	20256
897.466	20126
897.587	20252
897.708	20351
897.828	20256
897.949	20096
898.07	20065
898.19	20054
898.311	20275
898.431	20138
898.552	20180
898.672	20282
898.792	20328
898.913	20183
899.033	20073
899.153	19917
899.273	19830
899.393	20005
899.513	20054
899.633	19978
899.753	19959
899.873	19928
899.993	19890
900.113	19856
900.232	19883
900.352	19898
900.472	19765
900.591	19693
900.711	19788
900.83	19693
900.95	19837
901.069	19776
901.189	19628
901.308	19411
901.427	19255
901.546	19362
901.665	19441
901.784	19308
901.904	19187
902.023	19095
902.141	18825
902.26	18848
902.379	18863
902.498	18852
902.617	18779
902.735	18753
902.854	18837
902.973	18791
903.091	18414
903.21	18547
903.328	18456
903.446	18399
903.565	18304
903.683	18304
903.801	18190
903.919	18300
904.038	18258
904.156	18022
904.274	18068
904.392	18095
904.51	17999
904.627	18034
904.745	18095
904.863	18034
904.981	17722
905.098	17779
905.216	17718
905.334	17756
905.451	17703
905.569	17764
905.686	17771
905.803	17642
905.921	17608
906.038	17646
906.155	17551
906.272	17459
906.389	17436
906.506	17242
906.623	17208
906.74	17185
906.857	17113
906.974	17181
907.091	17296
907.208	17417
907.324	17212
907.441	17136
907.557	16961
907.674	16919
907.79	16862
907.907	16911
908.023	16957
908.139	16991
908.256	16930
908.372	16805
908.488	16721
908.604	16717
908.72	16664
908.836	16710
908.952	16641
909.068	16672
909.184	16847
909.3	16622
909.415	16596
909.531	16519
909.647	16409
909.762	16405
909.878	16360
909.993	16371
910.108	16299
910.224	16367
910.339	16352
910.454	16177
910.57	16196
910.685	16147
910.8	16337
910.915	16291
911.03	16143
911.145	15991
911.259	15979
911.374	15941
911.489	15827
911.604	15717
911.718	15797
911.833	15667
911.947	15656
912.062	15523
912.176	15622
912.291	15679
912.405	15736
912.519	15709
912.633	15861
912.748	15690
912.862	15610
912.976	15591
913.09	15359
913.204	15500
913.318	15447
913.431	15504
913.545	15652
913.659	15637
913.772	15477
913.886	15291
914	15321
914.113	15351
914.226	15542
914.34	15382
914.453	15142
914.566	15294
914.68	15275
914.793	15119
914.906	15005
915.019	14990
915.132	14956
915.245	14944
915.358	15066
915.47	14914
915.583	14952
915.696	14899
915.809	14960
915.921	15062
916.034	14899
916.146	14868
916.259	14781
916.371	14891
916.483	14933
916.595	14826
916.708	14769
916.82	14800
916.932	14800
917.044	14739
917.156	14720
917.268	14617
917.38	14674
917.491	14598
917.603	14545
917.715	14606
917.826	14632
917.938	14488
918.049	14530
918.161	14415
918.272	14598
918.384	14636
918.495	14579
918.606	14339
918.717	14225
918.828	14370
918.939	14320
919.05	14256
919.161	14343
919.272	14058
919.383	14259
919.494	14366
919.604	14583
919.715	14328
919.826	14248
919.936	14298
920.047	14343
920.157	14305
920.267	14499
920.378	14240
920.488	14240
920.598	14355
920.708	14533
920.818	14393
920.928	14400
921.038	14560
921.148	14564
921.258	14294
921.368	14164
921.477	14081
921.587	14058
921.697	13970
921.806	14054
921.916	13879
922.025	13780
922.134	13727
922.244	13655
922.353	13700
922.462	13540
922.571	13480
922.68	13346
922.789	13411
922.898	13297
923.007	13278
923.116	13278
923.224	13255
923.333	13289
923.442	13145
923.55	13126
923.659	13141
923.767	13251
923.876	13072
923.984	13217
924.092	13088
924.201	13126
924.309	13019
924.417	13126
924.525	13053
924.633	13004
924.741	13738
924.849	12814
924.956	12924
925.064	12795
925.172	12688
925.279	12703
925.387	12730
925.494	12722
925.602	12939
925.709	12817
925.816	12620
925.924	12715
926.031	12802
926.138	12681
926.245	12688
926.352	12669
926.459	12753
926.566	12757
926.673	12563
926.779	12502
926.886	12486
926.993	12350
927.099	12262
927.206	12235
927.312	12239
927.419	12346
927.525	12296
927.631	12365
927.737	12205
927.843	12171
927.95	12110
928.056	12167
928.162	12079
928.267	12190
928.373	12658
928.479	12171
928.585	11977
928.69	12079
928.796	12171
928.901	12060
929.007	11786
929.112	11939
929.218	11992
929.323	11939
929.428	11916
929.533	12003
929.638	11836
929.743	11817
929.848	11870
929.953	11805
930.058	11688
930.163	11493
930.267	11570
930.372	11748
930.477	11383
930.581	11775
930.685	11668
930.79	11482
930.894	11486
930.998	11406
931.103	11566
931.207	11235
931.311	11124
931.415	10961
931.519	10824
931.623	10858
