Data from test_V78500241_991.txt Node
Date: Fri Mar 25 15:16:45 CST 2022
User: usil
Spectrometer: V785-0024
Trigger mode: 0
Integration Time (sec): 4.000000E-1
Scans to average: 1
Nonlinearity correction enabled: false
Boxcar width: 0
Storing dark spectrum: false
XAxis mode: Wavelengths
Number of Pixels in Spectrum: 1024
>>>>>Begin Spectral Data<<<<<
801.071	28192
801.214	28284
801.356	28051
801.499	27972
801.641	27808
801.783	27960
801.926	27991
802.068	27861
802.211	27842
802.353	27842
802.496	27576
802.638	27458
802.78	27473
802.923	27572
803.065	27500
803.208	27576
803.35	27515
803.492	27637
803.635	27679
803.777	27713
803.919	27713
804.061	28204
804.204	27816
804.346	27804
804.488	27823
804.63	27679
804.773	27705
804.915	27789
805.057	27914
805.199	27804
805.341	27701
805.483	27979
805.626	27804
805.768	27953
805.91	27930
806.052	27907
806.194	27922
806.336	28093
806.478	28082
806.62	28017
806.762	28055
806.904	28226
807.046	28516
807.188	28287
807.33	28390
807.472	28344
807.614	28207
807.756	28299
807.898	28230
808.04	28215
808.182	28200
808.324	28360
808.465	28253
808.607	28489
808.749	28626
808.891	28672
809.033	28771
809.174	28596
809.316	28584
809.458	28618
809.6	28618
809.741	28820
809.883	28744
810.025	29052
810.166	28957
810.308	28847
810.45	28877
810.591	28721
810.733	28687
810.875	28744
811.016	28466
811.158	28550
811.299	28694
811.441	28957
811.582	28577
811.724	28596
811.865	28634
812.007	28531
812.148	28706
812.29	28634
812.431	28755
812.573	28942
812.714	29193
812.855	29242
812.997	29258
813.138	29326
813.279	29387
813.421	29448
813.562	29105
813.703	29067
813.845	28915
813.986	28630
814.127	28398
814.268	28356
814.41	28405
814.551	28428
814.692	28466
814.833	28211
814.974	28150
815.115	28299
815.256	28109
815.397	28234
815.539	28211
815.68	28128
815.821	28029
815.962	28230
816.103	28261
816.244	28101
816.385	27956
816.526	27880
816.666	27816
816.807	27538
816.948	27633
817.089	27778
817.23	27675
817.371	27629
817.512	27671
817.653	27682
817.793	27610
817.934	27622
818.075	27538
818.216	27641
818.356	27564
818.497	27545
818.638	27336
818.778	27439
818.919	27389
819.06	27424
819.2	27633
819.341	27720
819.481	27797
819.622	27846
819.762	27987
819.903	27865
820.043	27960
820.184	27797
820.324	27778
820.465	27751
820.605	27667
820.746	27709
820.886	27511
821.026	27705
821.167	27743
821.307	27785
821.447	27686
821.588	27686
821.728	27431
821.868	27359
822.008	26967
822.149	27207
822.289	27055
822.429	26781
822.569	26857
822.709	26796
822.849	26617
822.99	26682
823.13	26686
823.27	26708
823.41	26564
823.55	26347
823.69	26476
823.83	26427
823.97	26381
824.11	26149
824.25	26267
824.389	26286
824.529	26461
824.669	26248
824.809	26351
824.949	26461
825.089	26385
825.228	26374
825.368	26233
825.508	26191
825.648	26111
825.787	26142
825.927	26298
826.067	26054
826.206	26199
826.346	26180
826.485	26126
826.625	26149
826.765	26229
826.904	26347
827.044	25894
827.183	25921
827.323	25959
827.462	25982
827.601	25879
827.741	25856
827.88	25970
828.02	25898
828.159	25864
828.298	25944
828.437	26062
828.577	25864
828.716	25982
828.855	25833
828.994	25571
829.134	25693
829.273	25753
829.412	25548
829.551	25605
829.69	25624
829.829	25738
829.968	25635
830.107	25738
830.246	25609
830.385	25575
830.524	25381
830.663	25506
830.802	25392
830.941	25244
831.08	25289
831.219	25403
831.357	25282
831.496	25354
831.635	25320
831.774	25209
831.913	25069
832.051	24970
832.19	25031
832.329	25004
832.467	25042
832.606	24863
832.744	24970
832.883	24943
833.022	24837
833.16	25023
833.299	24962
833.437	24901
833.576	24951
833.714	24973
833.852	24966
833.991	25031
834.129	25103
834.267	25137
834.406	24962
834.544	25057
834.682	25034
834.821	24878
834.959	25160
835.097	24802
835.235	24852
835.373	24924
835.511	24981
835.65	24878
835.788	24939
835.926	24749
836.064	24677
836.202	24700
836.34	24768
836.478	24848
836.615	24730
836.753	24840
836.891	24909
837.029	24848
837.167	24798
837.305	24760
837.443	24692
837.58	24722
837.718	24760
837.856	24589
837.993	24601
838.131	24741
838.269	24544
838.406	24528
838.544	24551
838.681	24376
838.819	24350
838.956	24190
839.094	24129
839.231	24247
839.369	24357
839.506	24582
839.643	24319
839.781	24121
839.918	24072
840.055	24247
840.193	24140
840.33	24072
840.467	24018
840.604	24087
840.742	24308
840.879	23958
841.016	24049
841.153	23916
841.29	24060
841.427	23942
841.564	23958
841.701	23969
841.838	23984
841.975	23882
842.112	23923
842.249	23817
842.385	23783
842.522	23992
842.659	23786
842.796	23699
842.933	23710
843.069	23809
843.206	23699
843.343	23893
843.479	23843
843.616	23733
843.752	23531
843.889	23611
844.025	23589
844.162	23501
844.298	23752
844.435	23528
844.571	23520
844.708	23665
844.844	23653
844.98	23657
845.117	23676
845.253	23554
845.389	23520
845.525	23414
845.661	23414
845.798	23223
845.934	23284
846.07	23280
846.206	23341
846.342	23440
846.478	23326
846.614	23048
846.75	22968
846.886	23003
847.022	23200
847.158	23132
847.294	23071
847.429	22949
847.565	23029
847.701	23216
847.837	22721
847.972	22656
848.108	22949
848.244	22858
848.379	22793
848.515	22626
848.65	22668
848.786	22561
848.921	22672
849.057	22694
849.192	22733
849.328	22615
849.463	22641
849.598	22523
849.734	22470
849.869	22504
850.004	22371
850.14	22436
850.275	22329
850.41	22325
850.545	22306
850.68	22348
850.815	22367
850.95	22284
851.085	22535
851.22	22478
851.355	22356
851.49	22230
851.625	22322
851.76	22287
851.895	22238
852.03	22268
852.165	22215
852.299	22413
852.434	22481
852.569	22314
852.703	22337
852.838	22459
852.973	22462
853.107	22573
853.242	22265
853.376	22181
853.511	21998
853.645	22135
853.78	22360
853.914	22253
854.048	22090
854.183	22249
854.317	22200
854.451	22348
854.585	22090
854.72	22211
854.854	22192
854.988	22093
855.122	22238
855.256	22029
855.39	22215
855.524	22284
855.658	22204
855.792	22147
855.926	22196
856.06	22192
856.194	22249
856.327	22181
856.461	22112
856.595	22166
856.729	22173
856.862	22299
856.996	22200
857.13	22291
857.263	22386
857.397	22226
857.53	22093
857.664	22112
857.797	22249
857.931	22295
858.064	22257
858.197	22242
858.331	22242
858.464	22029
858.597	22036
858.731	22169
858.864	22234
858.997	22147
859.13	22166
859.263	22257
859.396	22314
859.529	22207
859.662	21994
859.795	22143
859.928	22036
860.061	22272
860.194	22447
860.327	22329
860.46	22234
860.592	22306
860.725	22344
860.858	22287
860.99	22143
861.123	22192
861.256	22097
861.388	22272
861.521	22957
861.653	22044
861.786	21892
861.918	21903
862.05	22101
862.183	22128
862.315	22249
862.447	22135
862.58	22032
862.712	21941
862.844	21968
862.976	22063
863.108	21835
863.24	22238
863.372	21854
863.504	21759
863.636	21869
863.768	21941
863.9	21937
864.032	21857
864.164	21922
864.296	21945
864.428	21918
864.559	21930
864.691	21903
864.823	21869
864.954	21816
865.086	21823
865.217	21747
865.349	21622
865.48	21827
865.612	21759
865.743	21972
865.875	21819
866.006	21690
866.137	21717
866.269	21766
866.4	21720
866.531	21698
866.662	21629
866.793	21572
866.924	21690
867.055	21770
867.186	21652
867.317	21492
867.448	21515
867.579	21701
867.71	21553
867.841	21564
867.972	21804
868.103	21652
868.233	21648
868.364	21580
868.495	21865
868.625	21903
868.756	22093
868.886	21857
869.017	21880
869.147	21934
869.278	22063
869.408	22010
869.539	21907
869.669	21987
869.799	21968
869.929	21991
870.06	21998
870.19	22177
870.32	22188
870.45	22246
870.58	22390
870.71	22360
870.84	22478
870.97	22371
871.1	22337
871.23	22428
871.36	22421
871.489	22436
871.619	22516
871.749	22470
871.879	22459
872.008	22721
872.138	22474
872.267	22466
872.397	22523
872.526	22360
872.656	22318
872.785	22382
872.915	22519
873.044	22710
873.173	22622
873.303	22588
873.432	22508
873.561	22664
873.69	22584
873.819	22672
873.948	22584
874.077	22687
874.206	22481
874.335	22565
874.464	22710
874.593	22866
874.722	22698
874.851	22797
874.979	22748
875.108	22835
875.237	22710
875.365	22592
875.494	22679
875.623	22828
875.751	22710
875.88	22858
876.008	22774
876.136	22976
876.265	23041
876.393	23185
876.521	23178
876.65	23242
876.778	23242
876.906	23044
877.034	22991
877.162	23041
877.29	22987
877.418	23083
877.546	23143
877.674	23029
877.802	23166
877.93	23010
878.058	23041
878.185	22889
878.313	22995
878.441	23033
878.568	22999
878.696	23003
878.824	23102
878.951	23147
879.079	23345
879.206	23288
879.333	23288
879.461	23208
879.588	23296
879.715	23189
879.842	23417
879.97	23181
880.097	22919
880.224	22942
880.351	22980
880.478	22927
880.605	22889
880.732	23029
880.859	23071
880.986	23010
881.112	23056
881.239	22786
881.366	22683
881.493	22557
881.619	22474
881.746	22538
881.872	22474
881.999	22478
882.125	22413
882.252	22577
882.378	22523
882.505	22500
882.631	22478
882.757	22173
882.883	22314
883.01	22207
883.136	22143
883.262	22051
883.388	22021
883.514	22219
883.64	22257
883.766	22143
883.892	21960
884.018	22032
884.143	22120
884.269	22238
884.395	21789
884.52	21880
884.646	21808
884.772	21774
884.897	21789
885.023	21854
885.148	22010
885.274	21804
885.399	21747
885.524	21812
885.65	21816
885.775	21895
885.9	21663
886.025	21827
886.15	21827
886.275	21808
886.4	21663
886.525	21778
886.65	21747
886.775	21675
886.9	21857
887.025	21998
887.149	21759
887.274	21648
887.399	21591
887.523	21530
887.648	21523
887.773	21599
887.897	21686
888.021	21564
888.146	21534
888.27	21568
888.395	21663
888.519	21595
888.643	21633
888.767	21671
888.891	21424
889.015	21386
889.139	21580
889.263	21378
889.387	21561
889.511	21561
889.635	21386
889.759	21256
889.883	21359
890.006	21443
890.13	21428
890.254	21268
890.377	21393
890.501	21218
890.624	21077
890.748	21123
890.871	21043
890.995	20967
891.118	20902
891.241	20952
891.364	20975
891.488	21001
891.611	20921
891.734	20952
891.857	21116
891.98	20948
892.103	20902
892.226	20963
892.349	20948
892.471	20750
892.594	20872
892.717	20811
892.839	20872
892.962	20807
893.085	20937
893.207	20864
893.33	20663
893.452	20644
893.575	20906
893.697	20727
893.819	20921
893.941	21074
894.064	20933
894.186	20788
894.308	20845
894.43	20914
894.552	20986
894.674	20762
894.796	20670
894.918	20830
895.04	20838
895.161	20864
895.283	20788
895.405	20697
895.526	20819
895.648	20663
895.769	20720
895.891	20792
896.012	20883
896.134	20864
896.255	20785
896.376	20887
896.498	20785
896.619	20705
896.74	20697
896.861	20819
896.982	21176
897.103	21260
897.224	21138
897.345	20948
897.466	20929
897.587	20868
897.708	21116
897.828	20990
897.949	20975
898.07	20838
898.19	20876
898.311	21116
898.431	21100
898.552	20956
898.672	21093
898.792	21116
898.913	21058
899.033	20743
899.153	20830
899.273	20613
899.393	20735
899.513	20705
899.633	20735
899.753	20697
899.873	20743
899.993	20815
900.113	20667
900.232	20758
900.352	20727
900.472	20530
900.591	20442
900.711	20473
900.83	20374
900.95	20590
901.069	20552
901.189	20393
901.308	20218
901.427	20027
901.546	20130
901.665	20111
901.784	20111
901.904	19970
902.023	19906
902.141	19537
902.26	19647
902.379	19731
902.498	19556
902.617	19529
902.735	19559
902.854	19582
902.973	19544
903.091	19274
903.21	19304
903.328	19251
903.446	19141
903.565	19175
903.683	19145
903.801	18977
903.919	18993
904.038	18977
904.156	18764
904.274	18943
904.392	18810
904.51	18859
904.627	18711
904.745	18779
904.863	18840
904.981	18498
905.098	18578
905.216	18338
905.334	18688
905.451	18616
905.569	18376
905.686	18532
905.803	18441
905.921	18277
906.038	18342
906.155	18395
906.272	18053
906.389	18102
906.506	18045
906.623	18057
906.74	18019
906.857	17889
906.974	17954
907.091	18091
907.208	18114
907.324	18041
907.441	17855
907.557	17710
907.674	17722
907.79	17615
907.907	17646
908.023	17722
908.139	17726
908.256	17623
908.372	17638
908.488	17619
908.604	17440
908.72	17337
908.836	17414
908.952	17398
909.068	17444
909.184	17455
909.3	17387
909.415	17459
909.531	17360
909.647	17140
909.762	17261
909.878	17060
909.993	17140
910.108	17037
910.224	17155
910.339	17136
910.454	17029
910.57	16972
910.685	16793
910.8	17075
910.915	17079
911.03	16812
911.145	16748
911.259	16729
911.374	16820
911.489	16668
911.604	16611
911.718	16443
911.833	16421
911.947	16325
912.062	16299
912.176	16299
912.291	16512
912.405	16436
912.519	16592
912.633	16542
912.748	16455
912.862	16481
912.976	16219
913.09	16105
913.204	16261
913.318	16234
913.431	16382
913.545	16325
913.659	16272
913.772	16257
913.886	16169
914	16017
914.113	16086
914.226	16246
914.34	16166
914.453	15869
914.566	16074
914.68	15865
914.793	15873
914.906	15751
915.019	15652
915.132	15561
915.245	15652
915.358	15694
915.47	15679
915.583	15679
915.696	15675
915.809	15652
915.921	15759
916.034	15580
916.146	15545
916.259	15496
916.371	15553
916.483	15648
916.595	15481
916.708	15549
916.82	15469
916.932	15428
917.044	15389
917.156	15439
917.268	15252
917.38	15332
917.491	15275
917.603	15310
917.715	15378
917.826	15370
917.938	15233
918.049	15039
918.161	15237
918.272	15351
918.384	15378
918.495	15264
918.606	15058
918.717	14967
918.828	15104
918.939	15066
919.05	14899
919.161	14937
919.272	14758
919.383	14773
919.494	15047
919.604	15138
919.715	15020
919.826	14918
919.936	14960
920.047	15001
920.157	14979
920.267	15135
920.378	15089
920.488	14967
920.598	15127
920.708	15287
920.818	15020
920.928	15192
921.038	15176
921.148	15230
921.258	14990
921.368	14826
921.477	14804
921.587	14644
921.697	14564
921.806	14678
921.916	14629
922.025	14408
922.134	14351
922.244	14263
922.353	14366
922.462	14275
922.571	14161
922.68	14020
922.789	13989
922.898	14092
923.007	13925
923.116	14062
923.224	13963
923.333	13932
923.442	13875
923.55	13731
923.659	13807
923.767	13845
923.876	13784
923.984	13769
924.092	13696
924.201	13734
924.309	13636
924.417	13685
924.525	13731
924.633	13601
924.741	14514
924.849	13464
924.956	13563
925.064	13392
925.172	13350
925.279	13400
925.387	13369
925.494	13331
925.602	13369
925.709	13476
925.816	13168
925.924	13255
926.031	13354
926.138	13274
926.245	13312
926.352	13266
926.459	13335
926.566	13381
926.673	13240
926.779	13145
926.886	13122
926.993	12973
927.099	12875
927.206	12871
927.312	12951
927.419	13019
927.525	12954
927.631	12932
927.737	12779
927.843	12852
927.95	12730
928.056	12726
928.162	12817
928.267	12798
928.373	13316
928.479	12776
928.585	12509
928.69	12665
928.796	12798
928.901	12574
929.007	12456
929.112	12559
929.218	12536
929.323	12513
929.428	12403
929.533	12616
929.638	12410
929.743	12471
929.848	12418
929.953	12323
930.058	12308
930.163	12057
930.267	12216
930.372	12281
930.477	12076
930.581	12327
930.685	12140
930.79	12087
930.894	12026
930.998	12019
931.103	12121
931.207	11722
931.311	11729
931.415	11562
931.519	11379
931.623	11414
