Data from test_V78500241_240.txt Node
Date: Fri Mar 25 15:11:31 CST 2022
User: usil
Spectrometer: V785-0024
Trigger mode: 0
Integration Time (sec): 4.000000E-1
Scans to average: 1
Nonlinearity correction enabled: false
Boxcar width: 0
Storing dark spectrum: false
XAxis mode: Wavelengths
Number of Pixels in Spectrum: 1024
>>>>>Begin Spectral Data<<<<<
801.071	28025
801.214	28124
801.356	27701
801.499	27914
801.641	27553
801.783	27705
801.926	27686
802.068	27564
802.211	27450
802.353	27469
802.496	27283
802.638	27203
802.78	27340
802.923	27081
803.065	27142
803.208	27150
803.35	27336
803.492	27359
803.635	27195
803.777	27188
803.919	27485
804.061	27793
804.204	27431
804.346	27192
804.488	27085
804.63	27332
804.773	27218
804.915	27325
805.057	27313
805.199	27256
805.341	27340
805.483	27405
805.626	27481
805.768	27332
805.91	27359
806.052	27485
806.194	27310
806.336	27564
806.478	27374
806.62	27317
806.762	27534
806.904	27747
807.046	27949
807.188	27831
807.33	27865
807.472	27701
807.614	27774
807.756	27854
807.898	27705
808.04	27587
808.182	27583
808.324	27633
808.465	27679
808.607	27800
808.749	27907
808.891	28109
809.033	28169
809.174	28086
809.316	27945
809.458	28059
809.6	27827
809.741	28154
809.883	28249
810.025	28356
810.166	28265
810.308	28249
810.45	28105
810.591	28177
810.733	28013
810.875	27934
811.016	27911
811.158	27705
811.299	27994
811.441	28177
811.582	27873
811.724	27888
811.865	27911
812.007	27930
812.148	27945
812.29	27979
812.431	28067
812.573	28166
812.714	28440
812.855	28417
812.997	28592
813.138	28634
813.279	28607
813.421	28478
813.562	28462
813.703	28234
813.845	28101
813.986	27876
814.127	27747
814.268	27660
814.41	27485
814.551	27538
814.692	27648
814.833	27351
814.974	27549
815.115	27656
815.256	27542
815.397	27439
815.539	27477
815.68	27325
815.821	27325
815.962	27393
816.103	27412
816.244	27245
816.385	27127
816.526	27135
816.666	26872
816.807	26781
816.948	26902
817.089	26952
817.23	26899
817.371	26830
817.512	26640
817.653	26762
817.793	26746
817.934	26834
818.075	26857
818.216	26796
818.356	26670
818.497	26609
818.638	26552
818.778	26442
818.919	26602
819.06	26617
819.2	26724
819.341	26640
819.481	26720
819.622	26940
819.762	27055
819.903	26963
820.043	26834
820.184	26686
820.324	26853
820.465	26921
820.605	26902
820.746	26838
820.886	26689
821.026	26765
821.167	26708
821.307	26845
821.447	26693
821.588	26522
821.728	26602
821.868	26309
822.008	26324
822.149	26195
822.289	26191
822.429	26111
822.569	25849
822.709	25845
822.849	25761
822.99	25685
823.13	25578
823.27	25597
823.41	25601
823.55	25419
823.69	25597
823.83	25563
823.97	25453
824.11	25327
824.25	25285
824.389	25324
824.529	25419
824.669	25232
824.809	25476
824.949	25400
825.089	25377
825.228	25388
825.368	25213
825.508	25023
825.648	25122
825.787	25107
825.927	25232
826.067	25141
826.206	25080
826.346	25133
826.485	25297
826.625	25053
826.765	25236
826.904	25152
827.044	24863
827.183	24890
827.323	24924
827.462	24859
827.601	24871
827.741	24802
827.88	24768
828.02	24837
828.159	24738
828.298	24863
828.437	24890
828.577	24779
828.716	24825
828.855	24802
828.994	24505
829.134	24585
829.273	24593
829.412	24456
829.551	24460
829.69	24570
829.829	24608
829.968	24505
830.107	24585
830.246	24502
830.385	24334
830.524	24365
830.663	24384
830.802	24209
830.941	24079
831.08	23977
831.219	24053
831.357	24232
831.496	24300
831.635	24144
831.774	23988
831.913	24125
832.051	23965
832.19	23843
832.329	23908
832.467	23817
832.606	23718
832.744	23874
832.883	23779
833.022	23756
833.16	23722
833.299	23824
833.437	23680
833.576	23817
833.714	23817
833.852	23836
833.991	23771
834.129	23927
834.267	23813
834.406	23718
834.544	23908
834.682	23866
834.821	23885
834.959	23992
835.097	23676
835.235	23779
835.373	23874
835.511	23760
835.65	23547
835.788	23665
835.926	23490
836.064	23554
836.202	23356
836.34	23687
836.478	23786
836.615	23623
836.753	23627
836.891	23729
837.029	23581
837.167	23676
837.305	23619
837.443	23467
837.58	23573
837.718	23482
837.856	23433
837.993	23353
838.131	23425
838.269	23292
838.406	23360
838.544	23280
838.681	23117
838.819	23212
838.956	22930
839.094	22930
839.231	22911
839.369	22919
839.506	23277
839.643	23124
839.781	22987
839.918	22672
840.055	22930
840.193	22889
840.33	22915
840.467	22850
840.604	22812
840.742	23159
840.879	22763
841.016	22729
841.153	22622
841.29	22793
841.427	22782
841.564	22854
841.701	22752
841.838	22748
841.975	22740
842.112	22687
842.249	22607
842.385	22634
842.522	22801
842.659	22527
842.796	22478
842.933	22626
843.069	22516
843.206	22508
843.343	22596
843.479	22561
843.616	22607
843.752	22325
843.889	22402
844.025	22462
844.162	22310
844.298	22459
844.435	22280
844.571	22268
844.708	22474
844.844	22466
844.98	22440
845.117	22481
845.253	22261
845.389	22185
845.525	22135
845.661	22185
845.798	22082
845.934	22166
846.07	22013
846.206	22006
846.342	22181
846.478	22086
846.614	21789
846.75	21625
846.886	21682
847.022	21846
847.158	21747
847.294	21865
847.429	21865
847.565	21652
847.701	22021
847.837	21374
847.972	21485
848.108	21591
848.244	21572
848.379	21370
848.515	21283
848.65	21321
848.786	21363
848.921	21222
849.057	21462
849.192	21329
849.328	21382
849.463	21382
849.598	21252
849.734	21195
849.869	21157
850.004	21066
850.14	21211
850.275	21100
850.41	20952
850.545	21123
850.68	20967
850.815	21096
850.95	21024
851.085	21325
851.22	21154
851.355	21039
851.49	21062
851.625	20967
851.76	20937
851.895	20933
852.03	20982
852.165	21116
852.299	21070
852.434	21173
852.569	21222
852.703	21020
852.838	21180
852.973	21355
853.107	21192
853.242	21074
853.376	20891
853.511	20796
853.645	20842
853.78	20952
853.914	20910
854.048	20880
854.183	20834
854.317	20918
854.451	21024
854.585	20788
854.72	20876
854.854	20998
854.988	20906
855.122	20925
855.256	20777
855.39	21017
855.524	20941
855.658	20998
855.792	20876
855.926	21104
856.06	20952
856.194	20857
856.327	20823
856.461	20864
856.595	20804
856.729	20906
856.862	21066
856.996	20910
857.13	20906
857.263	20994
857.397	21074
857.53	20891
857.664	20944
857.797	20899
857.931	20986
858.064	20990
858.197	20982
858.331	20857
858.464	20758
858.597	20765
858.731	20906
858.864	20830
858.997	20792
859.13	20933
859.263	20899
859.396	20941
859.529	20880
859.662	20891
859.795	20807
859.928	20788
860.061	20952
860.194	21074
860.327	20925
860.46	20811
860.592	20998
860.725	21066
860.858	21058
860.99	20872
861.123	20815
861.256	20796
861.388	20857
861.521	21507
861.653	20727
861.786	20743
861.918	20708
862.05	20762
862.183	20807
862.315	20838
862.447	20864
862.58	20842
862.712	20663
862.844	20598
862.976	20648
863.108	20583
863.24	20986
863.372	20545
863.504	20590
863.636	20594
863.768	20651
863.9	20670
864.032	20393
864.164	20476
864.296	20549
864.428	20689
864.559	20651
864.691	20617
864.823	20552
864.954	20461
865.086	20511
865.217	20389
865.349	20347
865.48	20434
865.612	20450
865.743	20518
865.875	20514
866.006	20495
866.137	20431
866.269	20488
866.4	20434
866.531	20457
866.662	20305
866.793	20408
866.924	20389
867.055	20461
867.186	20343
867.317	20282
867.448	20324
867.579	20339
867.71	20423
867.841	20240
867.972	20324
868.103	20362
868.233	20412
868.364	20294
868.495	20507
868.625	20655
868.756	20644
868.886	20590
869.017	20606
869.147	20777
869.278	20811
869.408	20674
869.539	20530
869.669	20659
869.799	20609
869.929	20788
870.06	20655
870.19	20902
870.32	20842
870.45	21055
870.58	20937
870.71	21154
870.84	21108
870.97	21214
871.1	21017
871.23	21302
871.36	21176
871.489	21085
871.619	21192
871.749	21127
871.879	21230
872.008	21306
872.138	21325
872.267	21192
872.397	21161
872.526	21005
872.656	21051
872.785	20971
872.915	21249
873.044	21325
873.173	21245
873.303	21256
873.432	21260
873.561	21279
873.69	21252
873.819	21241
873.948	21287
874.077	21237
874.206	21203
874.335	21211
874.464	21363
874.593	21538
874.722	21431
874.851	21576
874.979	21481
875.108	21523
875.237	21458
875.365	21370
875.494	21393
875.623	21511
875.751	21481
875.88	21519
876.008	21747
876.136	21671
876.265	21812
876.393	21987
876.521	22006
876.65	21956
876.778	21857
876.906	21774
877.034	21667
877.162	21869
877.29	21778
877.418	21804
877.546	21838
877.674	21869
877.802	21846
877.93	21846
878.058	21778
878.185	21675
878.313	21869
878.441	21918
878.568	21652
878.696	21797
878.824	21766
878.951	21892
879.079	21880
879.206	22154
879.333	21876
879.461	21915
879.588	21876
879.715	22029
879.842	22097
879.97	21861
880.097	21618
880.224	21641
880.351	21713
880.478	21850
880.605	21504
880.732	21739
880.859	21846
880.986	21644
881.112	21652
881.239	21568
881.366	21363
881.493	21291
881.619	21214
881.746	21325
881.872	21283
881.999	21169
882.125	21154
882.252	21348
882.378	21203
882.505	21287
882.631	21089
882.757	21024
882.883	21089
883.01	20891
883.136	20899
883.262	20845
883.388	20781
883.514	20918
883.64	20956
883.766	20796
883.892	20659
884.018	20746
884.143	20998
884.269	20952
884.395	20590
884.52	20613
884.646	20545
884.772	20476
884.897	20602
885.023	20571
885.148	20636
885.274	20754
885.399	20739
885.524	20571
885.65	20560
885.775	20617
885.9	20442
886.025	20735
886.15	20762
886.275	20667
886.4	20537
886.525	20419
886.65	20469
886.775	20389
886.9	20659
887.025	20785
887.149	20613
887.274	20374
887.399	20332
887.523	20374
887.648	20400
887.773	20161
887.897	20461
888.021	20366
888.146	20290
888.27	20404
888.395	20511
888.519	20393
888.643	20328
888.767	20408
888.891	20313
889.015	20237
889.139	20221
889.263	20244
889.387	20256
889.511	20290
889.635	20164
889.759	20187
889.883	20229
890.006	20103
890.13	20225
890.254	19978
890.377	20027
890.501	19894
890.624	19757
890.748	20058
890.871	19811
890.995	19742
891.118	19662
891.241	19788
891.364	19723
891.488	19826
891.611	19666
891.734	19765
891.857	19700
891.98	19746
892.103	19712
892.226	19769
892.349	19700
892.471	19453
892.594	19651
892.717	19689
892.839	19712
892.962	19495
893.085	19719
893.207	19586
893.33	19571
893.452	19655
893.575	19521
893.697	19605
893.819	19719
893.941	19799
894.064	19765
894.186	19495
894.308	19567
894.43	19590
894.552	19814
894.674	19765
894.796	19415
894.918	19776
895.04	19605
895.161	19655
895.283	19712
895.405	19582
895.526	19643
895.648	19590
895.769	19635
895.891	19712
896.012	19860
896.134	19845
896.255	19632
896.376	19712
896.498	19738
896.619	19734
896.74	19670
896.861	19761
896.982	19932
897.103	20187
897.224	19909
897.345	19951
897.466	19765
897.587	19871
897.708	20043
897.828	19978
897.949	19944
898.07	19833
898.19	19753
898.311	19970
898.431	19822
898.552	19894
898.672	19849
898.792	19940
898.913	19944
899.033	19807
899.153	19776
899.273	19567
899.393	19586
899.513	19632
899.633	19480
899.753	19632
899.873	19552
899.993	19605
900.113	19480
900.232	19548
900.352	19590
900.472	19506
900.591	19282
900.711	19411
900.83	19438
900.95	19491
901.069	19339
901.189	19350
901.308	19050
901.427	18882
901.546	18993
901.665	19050
901.784	18913
901.904	18882
902.023	18715
902.141	18559
902.26	18597
902.379	18639
902.498	18612
902.617	18456
902.735	18509
902.854	18467
902.973	18399
903.091	18155
903.21	18125
903.328	18133
903.446	18117
903.565	18019
903.683	18034
903.801	17885
903.919	17882
904.038	17908
904.156	17828
904.274	17832
904.392	17741
904.51	17786
904.627	17760
904.745	17794
904.863	17726
904.981	17630
905.098	17452
905.216	17334
905.334	17372
905.451	17387
905.569	17258
905.686	17410
905.803	17391
905.921	17212
906.038	17254
906.155	17269
906.272	17155
906.389	17105
906.506	16972
906.623	16965
906.74	16961
906.857	16889
906.974	16919
907.091	16976
907.208	17033
907.324	16923
907.441	16774
907.557	16672
907.674	16672
907.79	16561
907.907	16573
908.023	16615
908.139	16664
908.256	16596
908.372	16584
908.488	16542
908.604	16409
908.72	16398
908.836	16402
908.952	16455
909.068	16436
909.184	16470
909.3	16265
909.415	16310
909.531	16272
909.647	16090
909.762	16048
909.878	16067
909.993	15991
910.108	16067
910.224	16067
910.339	16040
910.454	15907
910.57	15869
910.685	15759
910.8	16048
910.915	16021
911.03	15945
911.145	15694
911.259	15652
911.374	15622
911.489	15568
911.604	15534
911.718	15458
911.833	15454
911.947	15298
912.062	15214
912.176	15332
912.291	15355
912.405	15408
912.519	15367
912.633	15534
912.748	15477
912.862	15310
912.976	15275
913.09	15142
913.204	15192
913.318	15321
913.431	15348
913.545	15321
913.659	15264
913.772	15192
913.886	15138
914	15047
914.113	15077
914.226	15165
914.34	15028
914.453	14861
914.566	15009
914.68	14998
914.793	14925
914.906	14697
915.019	14648
915.132	14571
915.245	14667
915.358	14682
915.47	14598
915.583	14693
915.696	14693
915.809	14777
915.921	14731
916.034	14617
916.146	14632
916.259	14442
916.371	14724
916.483	14640
916.595	14594
916.708	14408
916.82	14541
916.932	14465
917.044	14469
917.156	14408
917.268	14385
917.38	14351
917.491	14343
917.603	14328
917.715	14385
917.826	14415
917.938	14240
918.049	14183
918.161	14313
918.272	14446
918.384	14393
918.495	14202
918.606	14180
918.717	13974
918.828	14069
918.939	14069
919.05	14031
919.161	14096
919.272	13909
919.383	13963
919.494	14069
919.604	14256
919.715	14016
919.826	13925
919.936	14027
920.047	14062
920.157	14043
920.267	14225
920.378	14149
920.488	13921
920.598	14172
920.708	14271
920.818	14107
920.928	14134
921.038	14427
921.148	14317
921.258	14008
921.368	13864
921.477	13818
921.587	13666
921.697	13738
921.806	13772
921.916	13666
922.025	13499
922.134	13483
922.244	13392
922.353	13453
922.462	13377
922.571	13206
922.68	13061
922.789	13031
922.898	13129
923.007	13004
923.116	12951
923.224	13061
923.333	12973
923.442	12943
923.55	12886
923.659	12878
923.767	12981
923.876	12825
923.984	12913
924.092	12719
924.201	12844
924.309	12821
924.417	12837
924.525	12688
924.633	12749
924.741	13628
924.849	12525
924.956	12760
925.064	12540
925.172	12445
925.279	12426
925.387	12528
925.494	12437
925.602	12593
925.709	12635
925.816	12445
925.924	12448
926.031	12540
926.138	12452
926.245	12494
926.352	12289
926.459	12506
926.566	12601
926.673	12334
926.779	12254
926.886	12300
926.993	12106
927.099	12076
927.206	12095
927.312	11942
927.419	12140
927.525	12079
927.631	12121
927.737	12060
927.843	11904
927.95	11813
928.056	11828
928.162	11908
928.267	11961
928.373	12464
928.479	12038
928.585	11760
928.69	11817
928.796	11897
928.901	11783
929.007	11623
929.112	11745
929.218	11798
929.323	11718
929.428	11760
929.533	11733
929.638	11520
929.743	11608
929.848	11672
929.953	11657
930.058	11528
930.163	11353
930.267	11345
930.372	11509
930.477	11360
930.581	11627
930.685	11440
930.79	11258
930.894	11223
930.998	11315
931.103	11311
931.207	10953
931.311	10915
931.415	10809
931.519	10611
931.623	10611
