Data from test_V78500241_1097.txt Node
Date: Fri Mar 25 15:17:29 CST 2022
User: usil
Spectrometer: V785-0024
Trigger mode: 0
Integration Time (sec): 4.000000E-1
Scans to average: 1
Nonlinearity correction enabled: false
Boxcar width: 0
Storing dark spectrum: false
XAxis mode: Wavelengths
Number of Pixels in Spectrum: 1024
>>>>>Begin Spectral Data<<<<<
801.071	28459
801.214	28390
801.356	28063
801.499	28124
801.641	27888
801.783	27892
801.926	28021
802.068	27975
802.211	27876
802.353	27892
802.496	27663
802.638	27549
802.78	27603
802.923	27667
803.065	27667
803.208	27534
803.35	27705
803.492	27835
803.635	27838
803.777	27724
803.919	27804
804.061	28143
804.204	27918
804.346	27827
804.488	27713
804.63	27804
804.773	27903
804.915	27766
805.057	28044
805.199	27827
805.341	27918
805.483	28082
805.626	28025
805.768	27884
805.91	28048
806.052	27941
806.194	27857
806.336	28398
806.478	28128
806.62	27960
806.762	28143
806.904	28367
807.046	28622
807.188	28546
807.33	28485
807.472	28580
807.614	28485
807.756	28462
807.898	28295
808.04	28261
808.182	28261
808.324	28249
808.465	28508
808.607	28656
808.749	28683
808.891	28866
809.033	28831
809.174	28782
809.316	28740
809.458	28801
809.6	28573
809.741	28816
809.883	28862
810.025	28999
810.166	28919
810.308	29048
810.45	28881
810.591	28820
810.733	28736
810.875	28683
811.016	28653
811.158	28641
811.299	28790
811.441	28850
811.582	28987
811.724	28748
811.865	28721
812.007	28713
812.148	28641
812.29	28835
812.431	28919
812.573	29151
812.714	29060
812.855	29212
812.997	29220
813.138	29463
813.279	29387
813.421	29265
813.562	29231
813.703	29147
813.845	28946
813.986	28736
814.127	28618
814.268	28405
814.41	28363
814.551	28356
814.692	28401
814.833	28432
814.974	28382
815.115	28424
815.256	28329
815.397	28329
815.539	28318
815.68	28211
815.821	28265
815.962	28204
816.103	28238
816.244	28112
816.385	27987
816.526	28120
816.666	27861
816.807	27823
816.948	27762
817.089	27865
817.23	27823
817.371	27793
817.512	27751
817.653	27934
817.793	27835
817.934	27793
818.075	27835
818.216	27861
818.356	27759
818.497	27671
818.638	27583
818.778	27504
818.919	27568
819.06	27530
819.2	27724
819.341	27838
819.481	27850
819.622	27968
819.762	28074
819.903	28021
820.043	27998
820.184	27911
820.324	27899
820.465	27835
820.605	28010
820.746	27884
820.886	27709
821.026	27789
821.167	27823
821.307	27956
821.447	27789
821.588	27648
821.728	27660
821.868	27344
822.008	27344
822.149	27348
822.289	27329
822.429	27032
822.569	27096
822.709	27005
822.849	26765
822.99	26670
823.13	26819
823.27	26746
823.41	26564
823.55	26473
823.69	26712
823.83	26503
823.97	26571
824.11	26408
824.25	26404
824.389	26366
824.529	26648
824.669	26423
824.809	26438
824.949	26484
825.089	26434
825.228	26442
825.368	26259
825.508	26301
825.648	26343
825.787	26267
825.927	26408
826.067	26225
826.206	26278
826.346	26275
826.485	26336
826.625	26301
826.765	26385
826.904	26336
827.044	26111
827.183	26149
827.323	26005
827.462	25921
827.601	26244
827.741	26111
827.88	26092
828.02	25955
828.159	25959
828.298	26130
828.437	26103
828.577	25902
828.716	26142
828.855	26001
828.994	25708
829.134	25734
829.273	25742
829.412	25666
829.551	25715
829.69	25681
829.829	25769
829.968	25814
830.107	25681
830.246	25753
830.385	25639
830.524	25586
830.663	25445
830.802	25457
830.941	25278
831.08	25301
831.219	25476
831.357	25510
831.496	25453
831.635	25343
831.774	25293
831.913	25164
832.051	25373
832.19	25129
832.329	25240
832.467	25015
832.606	24932
832.744	25076
832.883	25015
833.022	24905
833.16	25084
833.299	25023
833.437	25107
833.576	25027
833.714	25114
833.852	25198
833.991	25107
834.129	25141
834.267	25148
834.406	25103
834.544	25122
834.682	25217
834.821	25065
834.959	25217
835.097	24996
835.235	25244
835.373	25061
835.511	24935
835.65	24867
835.788	25065
835.926	24909
836.064	24772
836.202	24867
836.34	24939
836.478	25004
836.615	24814
836.753	24852
836.891	25000
837.029	24897
837.167	24970
837.305	24871
837.443	24821
837.58	24707
837.718	24875
837.856	24810
837.993	24665
838.131	24783
838.269	24661
838.406	24757
838.544	24563
838.681	24498
838.819	24456
838.956	24133
839.094	24251
839.231	24384
839.369	24384
839.506	24616
839.643	24475
839.781	24300
839.918	24224
840.055	24289
840.193	24235
840.33	24136
840.467	24300
840.604	24148
840.742	24395
840.879	24182
841.016	24018
841.153	24060
841.29	24410
841.427	24205
841.564	24228
841.701	24038
841.838	24148
841.975	24125
842.112	24060
842.249	24030
842.385	23912
842.522	24159
842.659	23988
842.796	23779
842.933	23893
843.069	23828
843.206	23969
843.343	24064
843.479	23939
843.616	23870
843.752	23676
843.889	23767
844.025	23912
844.162	23653
844.298	23859
844.435	23634
844.571	23657
844.708	23733
844.844	23866
844.98	23859
845.117	23809
845.253	23676
845.389	23379
845.525	23619
845.661	23512
845.798	23471
845.934	23497
846.07	23429
846.206	23414
846.342	23562
846.478	23318
846.614	23258
846.75	23003
846.886	23052
847.022	23208
847.158	23235
847.294	23178
847.429	23109
847.565	23094
847.701	23379
847.837	22896
847.972	22839
848.108	23010
848.244	22904
848.379	22778
848.515	22755
848.65	22736
848.786	22675
848.921	22809
849.057	22877
849.192	22976
849.328	22706
849.463	22877
849.598	22577
849.734	22683
849.869	22569
850.004	22588
850.14	22546
850.275	22603
850.41	22500
850.545	22535
850.68	22481
850.815	22500
850.95	22478
851.085	22675
851.22	22653
851.355	22527
851.49	22481
851.625	22466
851.76	22470
851.895	22402
852.03	22341
852.165	22565
852.299	22580
852.434	22618
852.569	22478
852.703	22485
852.838	22436
852.973	22519
853.107	22687
853.242	22481
853.376	22402
853.511	22333
853.645	22276
853.78	22504
853.914	22508
854.048	22356
854.183	22306
854.317	22200
854.451	22557
854.585	22280
854.72	22261
854.854	22462
854.988	22280
855.122	22303
855.256	22249
855.39	22337
855.524	22344
855.658	22386
855.792	22303
855.926	22253
856.06	22375
856.194	22478
856.327	22207
856.461	22238
856.595	22074
856.729	22287
856.862	22459
856.996	22322
857.13	22459
857.263	22474
857.397	22462
857.53	22348
857.664	22440
857.797	22375
857.931	22474
858.064	22405
858.197	22409
858.331	22223
858.464	22284
858.597	22173
858.731	22466
858.864	22268
858.997	22352
859.13	22390
859.263	22363
859.396	22356
859.529	22257
859.662	22379
859.795	22173
859.928	22238
860.061	22500
860.194	22478
860.327	22382
860.46	22246
860.592	22538
860.725	22402
860.858	22382
860.99	22360
861.123	22257
861.256	22310
861.388	22280
861.521	22892
861.653	22131
861.786	22150
861.918	22207
862.05	22280
862.183	22128
862.315	22253
862.447	22272
862.58	22295
862.712	21987
862.844	22013
862.976	22150
863.108	22082
863.24	22580
863.372	21903
863.504	21949
863.636	21953
863.768	21964
863.9	21953
864.032	21937
864.164	21930
864.296	22093
864.428	22082
864.559	22086
864.691	22166
864.823	22090
864.954	21949
865.086	22051
865.217	21975
865.349	21800
865.48	21915
865.612	21854
865.743	21907
865.875	21968
866.006	21892
866.137	21937
866.269	21888
866.4	21755
866.531	21930
866.662	21728
866.793	21850
866.924	21876
867.055	21983
867.186	21827
867.317	21747
867.448	21701
867.579	21690
867.71	21857
867.841	21747
867.972	21800
868.103	21797
868.233	21861
868.364	21827
868.495	21937
868.625	22059
868.756	22173
868.886	21926
869.017	22128
869.147	22211
869.278	22204
869.408	22128
869.539	21941
869.669	22097
869.799	22078
869.929	22234
870.06	22238
870.19	22394
870.32	22211
870.45	22516
870.58	22348
870.71	22523
870.84	22481
870.97	22402
871.1	22428
871.23	22588
871.36	22698
871.489	22592
871.619	22729
871.749	22664
871.879	22675
872.008	22733
872.138	22634
872.267	22672
872.397	22649
872.526	22424
872.656	22451
872.785	22428
872.915	22774
873.044	22649
873.173	22679
873.303	22824
873.432	22755
873.561	22618
873.69	22725
873.819	22611
873.948	22790
874.077	22664
874.206	22645
874.335	22759
874.464	22805
874.593	22839
874.722	22805
874.851	22957
874.979	22915
875.108	22831
875.237	22755
875.365	22809
875.494	22790
875.623	23010
875.751	22839
875.88	22835
876.008	23052
876.136	23033
876.265	23227
876.393	23410
876.521	23269
876.65	23429
876.778	23277
876.906	23166
877.034	23193
877.162	23235
877.29	23216
877.418	23220
877.546	23364
877.674	23242
877.802	23231
877.93	23166
878.058	23136
878.185	23060
878.313	23121
878.441	23250
878.568	23075
878.696	23208
878.824	23079
878.951	23303
879.079	23334
879.206	23467
879.333	23433
879.461	23181
879.588	23307
879.715	23360
879.842	23467
879.97	23220
880.097	23067
880.224	22980
880.351	23086
880.478	23143
880.605	22835
880.732	23079
880.859	23277
880.986	23166
881.112	23090
881.239	22862
881.366	22816
881.493	22683
881.619	22706
881.746	22584
881.872	22645
881.999	22577
882.125	22561
882.252	22615
882.378	22611
882.505	22740
882.631	22474
882.757	22367
882.883	22329
883.01	22215
883.136	22204
883.262	22200
883.388	22166
883.514	22265
883.64	22333
883.766	22265
883.892	22082
884.018	22109
884.143	22192
884.269	22306
884.395	22074
884.52	21915
884.646	21918
884.772	21941
884.897	21915
885.023	21945
885.148	21998
885.274	22029
885.399	22025
885.524	21945
885.65	21960
885.775	21949
885.9	21903
886.025	22002
886.15	22036
886.275	21968
886.4	21831
886.525	21850
886.65	21857
886.775	21892
886.9	22063
887.025	22074
887.149	21831
887.274	21816
887.399	21629
887.523	21709
887.648	21610
887.773	21538
887.897	21751
888.021	21762
888.146	21667
888.27	21736
888.395	21774
888.519	21762
888.643	21713
888.767	21762
888.891	21526
889.015	21496
889.139	21545
889.263	21526
889.387	21454
889.511	21766
889.635	21492
889.759	21454
889.883	21496
890.006	21401
890.13	21644
890.254	21424
890.377	21370
890.501	21245
890.624	21325
890.748	21302
890.871	21230
890.995	20998
891.118	21036
891.241	21036
891.364	21062
891.488	21218
891.611	20998
891.734	20990
891.857	21058
891.98	21001
892.103	21123
892.226	21062
892.349	20941
892.471	20773
892.594	20967
892.717	21013
892.839	20960
892.962	21009
893.085	20994
893.207	21005
893.33	20773
893.452	20777
893.575	20918
893.697	20842
893.819	20990
893.941	21192
894.064	20963
894.186	20826
894.308	20796
894.43	20956
894.552	20918
894.674	20948
894.796	20899
894.918	20883
895.04	20754
895.161	20979
895.283	20998
895.405	20861
895.526	20845
895.648	20887
895.769	20899
895.891	20883
896.012	20956
896.134	20758
896.255	20887
896.376	20807
896.498	20891
896.619	20849
896.74	20781
896.861	20929
896.982	21154
897.103	21401
897.224	21157
897.345	21070
897.466	21089
897.587	21017
897.708	21252
897.828	21112
897.949	21028
898.07	21001
898.19	21005
898.311	21032
898.431	21112
898.552	20971
898.672	21131
898.792	21222
898.913	21058
899.033	20994
899.153	20788
899.273	20765
899.393	20868
899.513	20876
899.633	20861
899.753	20796
899.873	20842
899.993	20796
900.113	20758
900.232	20876
900.352	20735
900.472	20629
900.591	20503
900.711	20590
900.83	20530
900.95	20743
901.069	20648
901.189	20442
901.308	20240
901.427	20149
901.546	20062
901.665	20122
901.784	20195
901.904	20103
902.023	19913
902.141	19894
902.26	19715
902.379	19738
902.498	19693
902.617	19761
902.735	19734
902.854	19696
902.973	19518
903.091	19320
903.21	19285
903.328	19320
903.446	19339
903.565	19206
903.683	19160
903.801	19095
903.919	19103
904.038	19148
904.156	18924
904.274	18920
904.392	18821
904.51	18856
904.627	18810
904.745	19034
904.863	18916
904.981	18639
905.098	18532
905.216	18566
905.334	18642
905.451	18452
905.569	18570
905.686	18677
905.803	18593
905.921	18376
906.038	18593
906.155	18422
906.272	18277
906.389	18407
906.506	18129
906.623	18155
906.74	18133
906.857	17958
906.974	18106
907.091	18232
907.208	18174
907.324	18148
907.441	18026
907.557	17904
907.674	17802
907.79	17752
907.907	17832
908.023	17802
908.139	17824
908.256	17707
908.372	17775
908.488	17726
908.604	17592
908.72	17558
908.836	17554
908.952	17406
909.068	17478
909.184	17600
909.3	17623
909.415	17497
909.531	17509
909.647	17231
909.762	17269
909.878	17162
909.993	17220
910.108	17277
910.224	17212
910.339	17098
910.454	17178
910.57	17166
910.685	16984
910.8	17254
910.915	17140
911.03	17048
911.145	16923
911.259	16908
911.374	16854
911.489	16725
911.604	16706
911.718	16611
911.833	16481
911.947	16417
912.062	16268
912.176	16618
912.291	16558
912.405	16565
912.519	16672
912.633	16721
912.748	16599
912.862	16531
912.976	16402
913.09	16314
913.204	16303
913.318	16367
913.431	16489
913.545	16436
913.659	16554
913.772	16310
913.886	16226
914	16166
914.113	16280
914.226	16295
914.34	16211
914.453	16071
914.566	16177
914.68	16036
914.793	16032
914.906	15793
915.019	15842
915.132	15701
915.245	15846
915.358	15629
915.47	15747
915.583	15739
915.696	15755
915.809	15819
915.921	15934
916.034	15720
916.146	15633
916.259	15580
916.371	15800
916.483	15705
916.595	15606
916.708	15526
916.82	15587
916.932	15526
917.044	15488
917.156	15477
917.268	15462
917.38	15477
917.491	15321
917.603	15378
917.715	15458
917.826	15443
917.938	15363
918.049	15214
918.161	15325
918.272	15469
918.384	15405
918.495	15332
918.606	15207
918.717	15104
918.828	15146
918.939	15081
919.05	15089
919.161	15104
919.272	14941
919.383	14925
919.494	15138
919.604	15332
919.715	15112
919.826	14967
919.936	15047
920.047	15100
920.157	15081
920.267	15184
920.378	15131
920.488	14956
920.598	15306
920.708	15340
920.818	15214
920.928	15116
921.038	15329
921.148	15329
921.258	14986
921.368	14944
921.477	14857
921.587	14830
921.697	14636
921.806	14872
921.916	14610
922.025	14469
922.134	14473
922.244	14408
922.353	14419
922.462	14339
922.571	14282
922.68	14149
922.789	14046
922.898	14077
923.007	14050
923.116	14062
923.224	14024
923.333	14016
923.442	13928
923.55	13772
923.659	13849
923.767	13947
923.876	13909
923.984	13837
924.092	13693
924.201	13807
924.309	13864
924.417	13791
924.525	13765
924.633	13826
924.741	14670
924.849	13544
924.956	13742
925.064	13510
925.172	13438
925.279	13559
925.387	13384
925.494	13559
925.602	13681
925.709	13415
925.816	13369
925.924	13343
926.031	13472
926.138	13324
926.245	13415
926.352	13225
926.459	13350
926.566	13491
926.673	13358
926.779	13107
926.886	13225
926.993	13114
927.099	12977
927.206	12973
927.312	12897
927.419	13080
927.525	13019
927.631	13004
927.737	12829
927.843	12814
927.95	12764
928.056	12909
928.162	12837
928.267	12810
928.373	13476
928.479	12764
928.585	12719
928.69	12730
928.796	12806
928.901	12684
929.007	12479
929.112	12764
929.218	12566
929.323	12563
929.428	12612
929.533	12582
929.638	12490
929.743	12570
929.848	12525
929.953	12547
930.058	12422
930.163	12213
930.267	12243
930.372	12338
930.477	12213
930.581	12361
930.685	12213
930.79	12068
930.894	12095
930.998	12045
931.103	12167
931.207	11821
931.311	11752
931.415	11661
931.519	11436
931.623	11406
