Data from test_V78500241_3085.txt Node
Date: Fri Mar 25 15:31:20 CST 2022
User: usil
Spectrometer: V785-0024
Trigger mode: 0
Integration Time (sec): 4.000000E-1
Scans to average: 1
Nonlinearity correction enabled: false
Boxcar width: 0
Storing dark spectrum: false
XAxis mode: Wavelengths
Number of Pixels in Spectrum: 1024
>>>>>Begin Spectral Data<<<<<
801.071	27203
801.214	27207
801.356	27089
801.499	26933
801.641	26895
801.783	26857
801.926	26963
802.068	26796
802.211	26750
802.353	26735
802.496	26602
802.638	26511
802.78	26393
802.923	26389
803.065	26408
803.208	26358
803.35	26385
803.492	26739
803.635	26621
803.777	26621
803.919	26625
804.061	27017
804.204	26590
804.346	26617
804.488	26488
804.63	26480
804.773	26632
804.915	26720
805.057	26667
805.199	26632
805.341	26625
805.483	26796
805.626	26796
805.768	26701
805.91	26724
806.052	26785
806.194	26590
806.336	26800
806.478	26773
806.62	26674
806.762	26842
806.904	26956
807.046	27161
807.188	27070
807.33	27237
807.472	27127
807.614	27199
807.756	27135
807.898	26887
808.04	26853
808.182	26902
808.324	26994
808.465	26933
808.607	27241
808.749	27420
808.891	27275
809.033	27378
809.174	27344
809.316	27233
809.458	27310
809.6	27211
809.741	27408
809.883	27412
810.025	27698
810.166	27557
810.308	27660
810.45	27591
810.591	27351
810.733	27382
810.875	27237
811.016	27298
811.158	27279
811.299	27462
811.441	27504
811.582	27568
811.724	27427
811.865	27222
812.007	27336
812.148	27192
812.29	27370
812.431	27450
812.573	27583
812.714	27739
812.855	27682
812.997	27911
813.138	27876
813.279	27808
813.421	27838
813.562	27705
813.703	27599
813.845	27488
813.986	27169
814.127	27013
814.268	26933
814.41	27043
814.551	26861
814.692	27047
814.833	26857
814.974	26735
815.115	26864
815.256	26750
815.397	26906
815.539	26864
815.68	26807
815.821	26549
815.962	26796
816.103	26708
816.244	26408
816.385	26564
816.526	26492
816.666	26339
816.807	26180
816.948	26271
817.089	26358
817.23	26248
817.371	26183
817.512	26077
817.653	26240
817.793	26199
817.934	26244
818.075	26229
818.216	26240
818.356	26107
818.497	26058
818.638	25917
818.778	25837
818.919	25974
819.06	26096
819.2	26134
819.341	26168
819.481	26119
819.622	26431
819.762	26480
819.903	26473
820.043	26427
820.184	26290
820.324	26358
820.465	26396
820.605	26431
820.746	26145
820.886	26077
821.026	26301
821.167	26225
821.307	26366
821.447	26218
821.588	26195
821.728	26138
821.868	25841
822.008	25715
822.149	25620
822.289	25708
822.429	25468
822.569	25339
822.709	25415
822.849	25221
822.99	25190
823.13	25190
823.27	25145
823.41	24920
823.55	24913
823.69	25069
823.83	25008
823.97	24939
824.11	24768
824.25	24753
824.389	24711
824.529	24741
824.669	24730
824.809	24981
824.949	24943
825.089	24810
825.228	24844
825.368	24639
825.508	24612
825.648	24661
825.787	24688
825.927	24738
826.067	24639
826.206	24707
826.346	24730
826.485	24745
826.625	24715
826.765	24700
826.904	24840
827.044	24521
827.183	24445
827.323	24407
827.462	24414
827.601	24456
827.741	24319
827.88	24456
828.02	24369
828.159	24270
828.298	24369
828.437	24410
828.577	24319
828.716	24437
828.855	24315
828.994	24087
829.134	24209
829.273	24102
829.412	23950
829.551	24068
829.69	24018
829.829	24076
829.968	24216
830.107	24254
830.246	24125
830.385	23969
830.524	24053
830.663	23756
830.802	23855
830.941	23630
831.08	23657
831.219	23840
831.357	23684
831.496	23950
831.635	23741
831.774	23585
831.913	23577
832.051	23581
832.19	23433
832.329	23429
832.467	23391
832.606	23387
832.744	23364
832.883	23326
833.022	23337
833.16	23254
833.299	23334
833.437	23467
833.576	23364
833.714	23326
833.852	23395
833.991	23497
834.129	23558
834.267	23368
834.406	23497
834.544	23547
834.682	23395
834.821	23482
834.959	23554
835.097	23322
835.235	23391
835.373	23368
835.511	23455
835.65	23330
835.788	23254
835.926	23170
836.064	23166
836.202	23079
836.34	23360
836.478	23322
836.615	23288
836.753	23296
836.891	23269
837.029	23360
837.167	23258
837.305	23086
837.443	23109
837.58	23094
837.718	23208
837.856	23083
837.993	23086
838.131	23204
838.269	23041
838.406	23029
838.544	23041
838.681	22892
838.819	22729
838.956	22531
839.094	22603
839.231	22679
839.369	22767
839.506	23003
839.643	22797
839.781	22592
839.918	22428
840.055	22599
840.193	22588
840.33	22531
840.467	22691
840.604	22523
840.742	22653
840.879	22565
841.016	22440
841.153	22382
841.29	22531
841.427	22577
841.564	22523
841.701	22592
841.838	22546
841.975	22519
842.112	22500
842.249	22386
842.385	22352
842.522	22637
842.659	22382
842.796	22257
842.933	22284
843.069	22295
843.206	22337
843.343	22363
843.479	22310
843.616	22329
843.752	22215
843.889	22147
844.025	22215
844.162	22135
844.298	22185
844.435	22070
844.571	21991
844.708	22101
844.844	22268
844.98	22158
845.117	22291
845.253	22143
845.389	21945
845.525	21968
845.661	21838
845.798	21804
845.934	21911
846.07	21751
846.206	21781
846.342	21861
846.478	21755
846.614	21553
846.75	21561
846.886	21488
847.022	21682
847.158	21625
847.294	21629
847.429	21553
847.565	21576
847.701	21690
847.837	21283
847.972	21169
848.108	21351
848.244	21233
848.379	21233
848.515	21173
848.65	21100
848.786	21081
848.921	21116
849.057	21135
849.192	21207
849.328	21176
849.463	21024
849.598	21123
849.734	21100
849.869	20979
850.004	20864
850.14	20921
850.275	20910
850.41	20823
850.545	20727
850.68	20845
850.815	20982
850.95	20902
851.085	21138
851.22	20963
851.355	20857
851.49	20895
851.625	20948
851.76	20891
851.895	20788
852.03	20853
852.165	21036
852.299	21005
852.434	21036
852.569	20948
852.703	20921
852.838	20963
852.973	20994
853.107	20918
853.242	20918
853.376	20811
853.511	20590
853.645	20682
853.78	20845
853.914	20739
854.048	20594
854.183	20693
854.317	20811
854.451	20929
854.585	20746
854.72	20659
854.854	20883
854.988	20678
855.122	20720
855.256	20621
855.39	20777
855.524	20708
855.658	20849
855.792	20773
855.926	20667
856.06	20705
856.194	20731
856.327	20720
856.461	20674
856.595	20613
856.729	20750
856.862	20739
856.996	20754
857.13	20979
857.263	20891
857.397	20891
857.53	20678
857.664	20769
857.797	20754
857.931	20845
858.064	20804
858.197	20876
858.331	20739
858.464	20712
858.597	20697
858.731	20758
858.864	20678
858.997	20861
859.13	20785
859.263	20792
859.396	20746
859.529	20750
859.662	20693
859.795	20617
859.928	20667
860.061	20788
860.194	20948
860.327	20857
860.46	20720
860.592	20868
860.725	20933
860.858	20777
860.99	20773
861.123	20724
861.256	20686
861.388	20739
861.521	21279
861.653	20571
861.786	20575
861.918	20507
862.05	20640
862.183	20739
862.315	20746
862.447	20689
862.58	20651
862.712	20396
862.844	20370
862.976	20644
863.108	20560
863.24	20830
863.372	20450
863.504	20431
863.636	20488
863.768	20560
863.9	20526
864.032	20434
864.164	20484
864.296	20320
864.428	20541
864.559	20514
864.691	20579
864.823	20484
864.954	20423
865.086	20374
865.217	20374
865.349	20351
865.48	20347
865.612	20320
865.743	20507
865.875	20324
866.006	20396
866.137	20358
866.269	20351
866.4	20450
866.531	20366
866.662	20214
866.793	20218
866.924	20218
867.055	20347
867.186	20332
867.317	20343
867.448	20305
867.579	20358
867.71	20267
867.841	20271
867.972	20298
868.103	20199
868.233	20298
868.364	20225
868.495	20294
868.625	20488
868.756	20606
868.886	20526
869.017	20473
869.147	20716
869.278	20602
869.408	20518
869.539	20590
869.669	20575
869.799	20606
869.929	20689
870.06	20697
870.19	20853
870.32	20777
870.45	20971
870.58	20971
870.71	21093
870.84	21119
870.97	20982
871.1	21001
871.23	21051
871.36	21142
871.489	21096
871.619	21161
871.749	21195
871.879	21116
872.008	21207
872.138	21188
872.267	21203
872.397	20990
872.526	21108
872.656	20967
872.785	20952
872.915	21116
873.044	21268
873.173	21089
873.303	21188
873.432	21104
873.561	21275
873.69	21237
873.819	21226
873.948	21245
874.077	21222
874.206	21169
874.335	21077
874.464	21302
874.593	21431
874.722	21348
874.851	21332
874.979	21530
875.108	21359
875.237	21355
875.365	21287
875.494	21412
875.623	21462
875.751	21405
875.88	21389
876.008	21599
876.136	21728
876.265	21819
876.393	21930
876.521	21895
876.65	21728
876.778	21804
876.906	21789
877.034	21781
877.162	21846
877.29	21591
877.418	21759
877.546	21785
877.674	21610
877.802	21911
877.93	21770
878.058	21713
878.185	21549
878.313	21705
878.441	21705
878.568	21614
878.696	21656
878.824	21759
878.951	21789
879.079	21911
879.206	21895
879.333	21895
879.461	21656
879.588	21922
879.715	21934
879.842	22074
879.97	21778
880.097	21629
880.224	21591
880.351	21675
880.478	21625
880.605	21561
880.732	21538
880.859	21895
880.986	21599
881.112	21564
881.239	21405
881.366	21291
881.493	21218
881.619	21184
881.746	21154
881.872	21157
881.999	21077
882.125	21085
882.252	21180
882.378	20971
882.505	21325
882.631	20960
882.757	20925
882.883	20891
883.01	20804
883.136	20701
883.262	20746
883.388	20667
883.514	20944
883.64	20834
883.766	20781
883.892	20731
884.018	20670
884.143	20819
884.269	20967
884.395	20549
884.52	20499
884.646	20495
884.772	20434
884.897	20381
885.023	20587
885.148	20518
885.274	20686
885.399	20621
885.524	20454
885.65	20484
885.775	20465
885.9	20484
886.025	20617
886.15	20659
886.275	20389
886.4	20400
886.525	20492
886.65	20469
886.775	20438
886.9	20663
887.025	20731
887.149	20495
887.274	20244
887.399	20240
887.523	20324
887.648	20172
887.773	20233
887.897	20218
888.021	20370
888.146	20126
888.27	20518
888.395	20393
888.519	20309
888.643	20229
888.767	20317
888.891	20278
889.015	20043
889.139	20138
889.263	20103
889.387	20164
889.511	20324
889.635	20252
889.759	20065
889.883	20126
890.006	19978
890.13	20126
890.254	19913
890.377	19959
890.501	19826
890.624	19856
890.748	19963
890.871	19776
890.995	19681
891.118	19628
891.241	19594
891.364	19734
891.488	19738
891.611	19643
891.734	19731
891.857	19784
891.98	19731
892.103	19803
892.226	19609
892.349	19693
892.471	19616
892.594	19582
892.717	19609
892.839	19670
892.962	19582
893.085	19605
893.207	19525
893.33	19422
893.452	19472
893.575	19544
893.697	19521
893.819	19715
893.941	19837
894.064	19712
894.186	19525
894.308	19552
894.43	19696
894.552	19807
894.674	19734
894.796	19472
894.918	19552
895.04	19499
895.161	19537
895.283	19571
895.405	19563
895.526	19609
895.648	19556
895.769	19639
895.891	19632
896.012	19693
896.134	19586
896.255	19597
896.376	19666
896.498	19556
896.619	19655
896.74	19647
896.861	19616
896.982	19906
897.103	20065
897.224	19849
897.345	19803
897.466	19830
897.587	19784
897.708	19921
897.828	19826
897.949	19852
898.07	19578
898.19	19734
898.311	19860
898.431	19849
898.552	19826
898.672	20005
898.792	19830
898.913	19871
899.033	19685
899.153	19594
899.273	19510
899.393	19643
899.513	19635
899.633	19620
899.753	19559
899.873	19575
899.993	19601
900.113	19426
900.232	19487
900.352	19487
900.472	19415
900.591	19274
900.711	19388
900.83	19373
900.95	19472
901.069	19483
901.189	19225
901.308	19019
901.427	18973
901.546	18970
901.665	18966
901.784	18867
901.904	18897
902.023	18768
902.141	18623
902.26	18540
902.379	18448
902.498	18483
902.617	18456
902.735	18407
902.854	18399
902.973	18426
903.091	18087
903.21	18079
903.328	18083
903.446	18053
903.565	17950
903.683	17973
903.801	17817
903.919	17942
904.038	17988
904.156	17783
904.274	17908
904.392	17783
904.51	17665
904.627	17680
904.745	17737
904.863	17745
904.981	17589
905.098	17520
905.216	17425
905.334	17444
905.451	17455
905.569	17444
905.686	17459
905.803	17341
905.921	17296
906.038	17303
906.155	17239
906.272	17067
906.389	17094
906.506	16835
906.623	16866
906.74	16885
906.857	16866
906.974	16850
907.091	16980
907.208	17113
907.324	17010
907.441	16736
907.557	16702
907.674	16645
907.79	16641
907.907	16573
908.023	16694
908.139	16717
908.256	16561
908.372	16596
908.488	16470
908.604	16462
908.72	16344
908.836	16398
908.952	16314
909.068	16402
909.184	16455
909.3	16402
909.415	16398
909.531	16413
909.647	16188
909.762	16124
909.878	16173
909.993	16181
910.108	16048
910.224	16101
910.339	16059
910.454	15983
910.57	15949
910.685	15819
910.8	16230
910.915	16120
911.03	15846
911.145	15804
911.259	15656
911.374	15732
911.489	15679
911.604	15523
911.718	15401
911.833	15355
911.947	15313
912.062	15416
912.176	15625
912.291	15496
912.405	15458
912.519	15660
912.633	15728
912.748	15450
912.862	15526
912.976	15230
913.09	15154
913.204	15226
913.318	15332
913.431	15306
913.545	15351
913.659	15378
913.772	15233
913.886	15062
914	15116
914.113	15131
914.226	15131
914.34	15123
914.453	14929
914.566	15062
914.68	14887
914.793	14963
914.906	14743
915.019	14720
915.132	14564
915.245	14659
915.358	14804
915.47	14689
915.583	14705
915.696	14758
915.809	14769
915.921	14834
916.034	14651
916.146	14560
916.259	14610
916.371	14648
916.483	14682
916.595	14412
916.708	14610
916.82	14541
916.932	14541
917.044	14484
917.156	14507
917.268	14366
917.38	14305
917.491	14332
917.603	14351
917.715	14412
917.826	14385
917.938	14317
918.049	14275
918.161	14282
918.272	14381
918.384	14457
918.495	14336
918.606	14153
918.717	14062
918.828	14172
918.939	14115
919.05	14012
919.161	14058
919.272	13925
919.383	14073
919.494	14168
919.604	14351
919.715	14088
919.826	14107
919.936	14001
920.047	14107
920.157	14073
920.267	14267
920.378	14138
920.488	14012
920.598	14237
920.708	14347
920.818	14286
920.928	14214
921.038	14419
921.148	14301
921.258	14176
921.368	14054
921.477	13902
921.587	13791
921.697	13681
921.806	13841
921.916	13746
922.025	13483
922.134	13559
922.244	13464
922.353	13620
922.462	13312
922.571	13278
922.68	13171
922.789	13225
922.898	13183
923.007	13065
923.116	13152
923.224	13190
923.333	13057
923.442	13091
923.55	13012
923.659	13004
923.767	13042
923.876	13008
923.984	13042
924.092	12848
924.201	12875
924.309	12981
924.417	12913
924.525	12817
924.633	12833
924.741	13719
924.849	12547
924.956	12776
925.064	12574
925.172	12506
925.279	12555
925.387	12566
925.494	12593
925.602	12719
925.709	12703
925.816	12528
925.924	12525
926.031	12608
926.138	12547
926.245	12494
926.352	12456
926.459	12559
926.566	12608
926.673	12566
926.779	12391
926.886	12285
926.993	12175
927.099	12224
927.206	12095
927.312	12148
927.419	12190
927.525	12159
927.631	12144
927.737	12098
927.843	12022
927.95	11916
928.056	11984
928.162	12003
928.267	12034
928.373	12684
928.479	12034
928.585	11897
928.69	11988
928.796	12015
928.901	11847
929.007	11703
929.112	11912
929.218	11733
929.323	11642
929.428	11699
929.533	11824
929.638	11592
929.743	11756
929.848	11733
929.953	11684
930.058	11691
930.163	11406
930.267	11360
930.372	11554
930.477	11395
930.581	11619
930.685	11493
930.79	11284
930.894	11242
930.998	11322
931.103	11387
931.207	11136
931.311	10984
931.415	10965
931.519	10721
931.623	10675
