Data from test_V78500241_3294.txt Node
Date: Fri Mar 25 15:32:47 CST 2022
User: usil
Spectrometer: V785-0024
Trigger mode: 0
Integration Time (sec): 4.000000E-1
Scans to average: 1
Nonlinearity correction enabled: false
Boxcar width: 0
Storing dark spectrum: false
XAxis mode: Wavelengths
Number of Pixels in Spectrum: 1024
>>>>>Begin Spectral Data<<<<<
801.071	27325
801.214	27192
801.356	27085
801.499	26998
801.641	26914
801.783	26895
801.926	26967
802.068	26857
802.211	26830
802.353	26602
802.496	26473
802.638	26636
802.78	26583
802.923	26377
803.065	26317
803.208	26461
803.35	26480
803.492	26712
803.635	26712
803.777	26579
803.919	26735
804.061	26868
804.204	26712
804.346	26655
804.488	26743
804.63	26583
804.773	26598
804.915	26655
805.057	26773
805.199	26674
805.341	26773
805.483	26895
805.626	26815
805.768	26746
805.91	26746
806.052	26807
806.194	26693
806.336	26925
806.478	26644
806.62	26667
806.762	27005
806.904	26963
807.046	27264
807.188	27188
807.33	27302
807.472	27169
807.614	27024
807.756	27218
807.898	27028
808.04	26937
808.182	27058
808.324	27096
808.465	26986
808.607	27214
808.749	27416
808.891	27397
809.033	27507
809.174	27450
809.316	27363
809.458	27393
809.6	27287
809.741	27534
809.883	27454
810.025	27622
810.166	27492
810.308	27656
810.45	27694
810.591	27580
810.733	27359
810.875	27382
811.016	27241
811.158	27355
811.299	27553
811.441	27648
811.582	27542
811.724	27519
811.865	27329
812.007	27348
812.148	27207
812.29	27458
812.431	27481
812.573	27606
812.714	27842
812.855	27808
812.997	27827
813.138	28036
813.279	28006
813.421	27831
813.562	27857
813.703	27724
813.845	27439
813.986	27287
814.127	27237
814.268	27108
814.41	27039
814.551	27001
814.692	27112
814.833	26937
814.974	26956
815.115	26990
815.256	26861
815.397	26998
815.539	26864
815.68	26914
815.821	26708
815.962	26758
816.103	26826
816.244	26640
816.385	26590
816.526	26545
816.666	26347
816.807	26301
816.948	26446
817.089	26366
817.23	26244
817.371	26240
817.512	26415
817.653	26191
817.793	26122
817.934	26301
818.075	26259
818.216	26248
818.356	26088
818.497	26054
818.638	26077
818.778	25959
818.919	26107
819.06	26111
819.2	26199
819.341	26252
819.481	26347
819.622	26495
819.762	26659
819.903	26533
820.043	26374
820.184	26457
820.324	26419
820.465	26434
820.605	26343
820.746	26503
820.886	26290
821.026	26339
821.167	26336
821.307	26568
821.447	26309
821.588	26252
821.728	26043
821.868	25951
822.008	25894
822.149	25833
822.289	25715
822.429	25533
822.569	25506
822.709	25506
822.849	25259
822.99	25464
823.13	25240
823.27	25354
823.41	25015
823.55	25141
823.69	25164
823.83	25069
823.97	24996
824.11	24989
824.25	24966
824.389	24875
824.529	24825
824.669	24901
824.809	24905
824.949	24989
825.089	24905
825.228	24985
825.368	24677
825.508	24848
825.648	24696
825.787	24962
825.927	24878
826.067	24719
826.206	24791
826.346	24844
826.485	24954
826.625	24829
826.765	24837
826.904	24821
827.044	24612
827.183	24540
827.323	24502
827.462	24528
827.601	24471
827.741	24566
827.88	24551
828.02	24433
828.159	24464
828.298	24502
828.437	24414
828.577	24285
828.716	24555
828.855	24277
828.994	24224
829.134	24186
829.273	24186
829.412	24224
829.551	24266
829.69	24235
829.829	24270
829.968	24277
830.107	24273
830.246	24197
830.385	24136
830.524	24171
830.663	24038
830.802	23980
830.941	23786
831.08	23897
831.219	23889
831.357	23874
831.496	24034
831.635	23836
831.774	23691
831.913	23653
832.051	23695
832.19	23695
832.329	23760
832.467	23627
832.606	23353
832.744	23391
832.883	23554
833.022	23425
833.16	23459
833.299	23509
833.437	23516
833.576	23585
833.714	23577
833.852	23570
833.991	23558
834.129	23463
834.267	23729
834.406	23539
834.544	23589
834.682	23646
834.821	23501
834.959	23722
835.097	23592
835.235	23668
835.373	23493
835.511	23604
835.65	23478
835.788	23490
835.926	23318
836.064	23318
836.202	23269
836.34	23455
836.478	23436
836.615	23459
836.753	23520
836.891	23490
837.029	23634
837.167	23395
837.305	23387
837.443	23334
837.58	23200
837.718	23330
837.856	23185
837.993	23109
838.131	23322
838.269	23105
838.406	23174
838.544	23041
838.681	22934
838.819	23033
838.956	22736
839.094	22702
839.231	22816
839.369	22946
839.506	23185
839.643	22991
839.781	22767
839.918	22580
840.055	22805
840.193	22694
840.33	22774
840.467	22607
840.604	22805
840.742	22877
840.879	22607
841.016	22656
841.153	22630
841.29	22919
841.427	22580
841.564	22725
841.701	22713
841.838	22615
841.975	22592
842.112	22630
842.249	22622
842.385	22519
842.522	22831
842.659	22474
842.796	22497
842.933	22451
843.069	22306
843.206	22322
843.343	22447
843.479	22322
843.616	22402
843.752	22188
843.889	22188
844.025	22367
844.162	22200
844.298	22242
844.435	22154
844.571	22120
844.708	22356
844.844	22451
844.98	22352
845.117	22424
845.253	22154
845.389	21983
845.525	22147
845.661	22188
845.798	21854
845.934	21975
846.07	22070
846.206	21945
846.342	22017
846.478	21975
846.614	21679
846.75	21701
846.886	21591
847.022	21778
847.158	21808
847.294	21751
847.429	21717
847.565	21606
847.701	21895
847.837	21321
847.972	21397
848.108	21500
848.244	21466
848.379	21272
848.515	21294
848.65	21188
848.786	21123
848.921	21336
849.057	21431
849.192	21363
849.328	21405
849.463	21359
849.598	21408
849.734	21146
849.869	21123
850.004	21100
850.14	21146
850.275	21077
850.41	20990
850.545	21036
850.68	21062
850.815	21062
850.95	21001
851.085	21431
851.22	21211
851.355	21066
851.49	21062
851.625	21108
851.76	21066
851.895	20925
852.03	21017
852.165	21013
852.299	21058
852.434	21245
852.569	21077
852.703	21024
852.838	21028
852.973	21230
853.107	21192
853.242	20975
853.376	20952
853.511	20830
853.645	20868
853.78	20925
853.914	20937
854.048	20864
854.183	20906
854.317	20845
854.451	20963
854.585	21001
854.72	20948
854.854	21017
854.988	20872
855.122	20967
855.256	20746
855.39	20765
855.524	20941
855.658	20960
855.792	20960
855.926	20887
856.06	20986
856.194	21009
856.327	20921
856.461	20849
856.595	20731
856.729	20823
856.862	20963
856.996	20941
857.13	20952
857.263	20910
857.397	20956
857.53	20823
857.664	20941
857.797	21077
857.931	20963
858.064	20864
858.197	20998
858.331	20864
858.464	20811
858.597	20792
858.731	20800
858.864	20746
858.997	20880
859.13	20994
859.263	20960
859.396	20891
859.529	20792
859.662	20834
859.795	20842
859.928	20937
860.061	21116
860.194	21062
860.327	20937
860.46	20853
860.592	20902
860.725	21001
860.858	21066
860.99	20887
861.123	20811
861.256	20876
861.388	20944
861.521	21439
861.653	20754
861.786	20648
861.918	20724
862.05	20743
862.183	20769
862.315	20777
862.447	20899
862.58	20769
862.712	20701
862.844	20602
862.976	20663
863.108	20731
863.24	21039
863.372	20530
863.504	20602
863.636	20640
863.768	20686
863.9	20594
864.032	20571
864.164	20590
864.296	20606
864.428	20609
864.559	20617
864.691	20602
864.823	20743
864.954	20480
865.086	20473
865.217	20564
865.349	20427
865.48	20533
865.612	20503
865.743	20629
865.875	20549
866.006	20396
866.137	20454
866.269	20549
866.4	20438
866.531	20511
866.662	20419
866.793	20465
866.924	20442
867.055	20511
867.186	20469
867.317	20427
867.448	20286
867.579	20366
867.71	20290
867.841	20385
867.972	20438
868.103	20404
868.233	20476
868.364	20408
868.495	20469
868.625	20663
868.756	20746
868.886	20526
869.017	20670
869.147	20792
869.278	20735
869.408	20712
869.539	20667
869.669	20712
869.799	20830
869.929	20853
870.06	20823
870.19	21013
870.32	20948
870.45	21032
870.58	21013
870.71	21218
870.84	21211
870.97	21009
871.1	21020
871.23	21203
871.36	21325
871.489	21222
871.619	21249
871.749	21268
871.879	21230
872.008	21386
872.138	21268
872.267	21211
872.397	21176
872.526	21203
872.656	21108
872.785	21039
872.915	21275
873.044	21275
873.173	21283
873.303	21351
873.432	21351
873.561	21485
873.69	21355
873.819	21298
873.948	21431
874.077	21348
874.206	21218
874.335	21256
874.464	21549
874.593	21481
874.722	21439
874.851	21576
874.979	21557
875.108	21595
875.237	21458
875.365	21515
875.494	21564
875.623	21587
875.751	21431
875.88	21614
876.008	21701
876.136	21785
876.265	22013
876.393	22070
876.521	22013
876.65	22063
876.778	22017
876.906	21816
877.034	21861
877.162	21991
877.29	21781
877.418	21861
877.546	21873
877.674	21823
877.802	22017
877.93	21797
878.058	21835
878.185	21918
878.313	21781
878.441	21895
878.568	21812
878.696	21690
878.824	22074
878.951	21915
879.079	22101
879.206	22074
879.333	22158
879.461	21964
879.588	21888
879.715	21987
879.842	22059
879.97	21968
880.097	21755
880.224	21728
880.351	21808
880.478	21861
880.605	21698
880.732	21705
880.859	21941
880.986	21739
881.112	21827
881.239	21694
881.366	21534
881.493	21401
881.619	21260
881.746	21340
881.872	21268
881.999	21222
882.125	21214
882.252	21386
882.378	21264
882.505	21405
882.631	21093
882.757	21017
882.883	21055
883.01	21013
883.136	21032
883.262	20857
883.388	20853
883.514	21039
883.64	21096
883.766	20971
883.892	20773
884.018	20743
884.143	20902
884.269	20998
884.395	20644
884.52	20716
884.646	20727
884.772	20617
884.897	20689
885.023	20701
885.148	20781
885.274	20864
885.399	20746
885.524	20644
885.65	20670
885.775	20667
885.9	20579
886.025	20682
886.15	20765
886.275	20537
886.4	20571
886.525	20667
886.65	20469
886.775	20545
886.9	20750
887.025	20823
887.149	20594
887.274	20461
887.399	20423
887.523	20434
887.648	20396
887.773	20267
887.897	20423
888.021	20446
888.146	20400
888.27	20514
888.395	20473
888.519	20366
888.643	20461
888.767	20423
888.891	20324
889.015	20138
889.139	20237
889.263	20138
889.387	20298
889.511	20408
889.635	20389
889.759	20221
889.883	20233
890.006	20259
890.13	20172
890.254	20115
890.377	20111
890.501	20100
890.624	20062
890.748	19959
890.871	19826
890.995	19887
891.118	19742
891.241	19772
891.364	19826
891.488	19989
891.611	19795
891.734	19917
891.857	19841
891.98	19818
892.103	19913
892.226	19708
892.349	19693
892.471	19666
892.594	19639
892.717	19746
892.839	19746
892.962	19799
893.085	19757
893.207	19803
893.33	19601
893.452	19544
893.575	19757
893.697	19731
893.819	19852
893.941	19898
894.064	19932
894.186	19681
894.308	19616
894.43	19788
894.552	19967
894.674	19795
894.796	19681
894.918	19681
895.04	19674
895.161	19723
895.283	19681
895.405	19632
895.526	19715
895.648	19719
895.769	19712
895.891	19689
896.012	19860
896.134	19727
896.255	19715
896.376	19708
896.498	19693
896.619	19662
896.74	19776
896.861	19769
896.982	20016
897.103	20206
897.224	19944
897.345	19947
897.466	19925
897.587	19963
897.708	20157
897.828	19921
897.949	19986
898.07	19643
898.19	19890
898.311	19967
898.431	19928
898.552	19894
898.672	20100
898.792	20035
898.913	20001
899.033	19807
899.153	19727
899.273	19655
899.393	19765
899.513	19731
899.633	19746
899.753	19799
899.873	19723
899.993	19822
900.113	19594
900.232	19632
900.352	19624
900.472	19499
900.591	19430
900.711	19502
900.83	19430
900.95	19521
901.069	19548
901.189	19369
901.308	19221
901.427	19152
901.546	19019
901.665	19133
901.784	18966
901.904	19046
902.023	18871
902.141	18719
902.26	18642
902.379	18696
902.498	18639
902.617	18528
902.735	18604
902.854	18589
902.973	18475
903.091	18289
903.21	18300
903.328	18273
903.446	18087
903.565	18019
903.683	18136
903.801	17908
903.919	17999
904.038	17904
904.156	17889
904.274	17897
904.392	17798
904.51	17790
904.627	17908
904.745	17912
904.863	17931
904.981	17573
905.098	17505
905.216	17467
905.334	17562
905.451	17630
905.569	17448
905.686	17497
905.803	17490
905.921	17296
906.038	17429
906.155	17349
906.272	17170
906.389	17220
906.506	17071
906.623	17098
906.74	17060
906.857	16889
906.974	16938
907.091	17159
907.208	17292
907.324	17113
907.441	16987
907.557	16877
907.674	16854
907.79	16733
907.907	16710
908.023	16793
908.139	16694
908.256	16748
908.372	16733
908.488	16618
908.604	16588
908.72	16447
908.836	16554
908.952	16478
909.068	16516
909.184	16508
909.3	16512
909.415	16447
909.531	16550
909.647	16371
909.762	16211
909.878	16246
909.993	16177
910.108	16162
910.224	16207
910.339	16097
910.454	16029
910.57	16021
910.685	16021
910.8	16188
910.915	16185
911.03	16013
911.145	15876
911.259	15793
911.374	15747
911.489	15663
911.604	15682
911.718	15572
911.833	15633
911.947	15481
912.062	15481
912.176	15530
912.291	15610
912.405	15610
912.519	15709
912.633	15774
912.748	15637
912.862	15462
912.976	15393
913.09	15283
913.204	15405
913.318	15401
913.431	15530
913.545	15473
913.659	15466
913.772	15374
913.886	15241
914	15249
914.113	15321
914.226	15214
914.34	15268
914.453	15062
914.566	15237
914.68	15051
914.793	15081
914.906	14914
915.019	14845
915.132	14701
915.245	14804
915.358	14857
915.47	14758
915.583	14788
915.696	14788
915.809	14834
915.921	14876
916.034	14762
916.146	14716
916.259	14670
916.371	14773
916.483	14765
916.595	14651
916.708	14636
916.82	14587
916.932	14522
917.044	14606
917.156	14537
917.268	14381
917.38	14564
917.491	14431
917.603	14366
917.715	14526
917.826	14495
917.938	14454
918.049	14290
918.161	14480
918.272	14522
918.384	14514
918.495	14366
918.606	14294
918.717	14180
918.828	14259
918.939	14324
919.05	14153
919.161	14267
919.272	14020
919.383	14043
919.494	14244
919.604	14423
919.715	14221
919.826	14115
919.936	14161
920.047	14278
920.157	14267
920.267	14351
920.378	14199
920.488	14149
920.598	14366
920.708	14488
920.818	14347
920.928	14309
921.038	14408
921.148	14556
921.258	14176
921.368	14069
921.477	14016
921.587	13906
921.697	13887
921.806	13947
921.916	13776
922.025	13662
922.134	13567
922.244	13601
922.353	13670
922.462	13502
922.571	13388
922.68	13324
922.789	13247
922.898	13183
923.007	13160
923.116	13282
923.224	13316
923.333	13213
923.442	13129
923.55	12981
923.659	13141
923.767	13050
923.876	13015
923.984	13061
924.092	12989
924.201	13065
924.309	13023
924.417	12901
924.525	12958
924.633	13034
924.741	13902
924.849	12722
924.956	12878
925.064	12620
925.172	12627
925.279	12635
925.387	12612
925.494	12688
925.602	12726
925.709	12700
925.816	12559
925.924	12684
926.031	12684
926.138	12593
926.245	12662
926.352	12589
926.459	12692
926.566	12749
926.673	12502
926.779	12437
926.886	12407
926.993	12273
927.099	12308
927.206	12148
927.312	12194
927.419	12209
927.525	12224
927.631	12292
927.737	12178
927.843	12095
927.95	11984
928.056	11996
928.162	12213
928.267	12060
928.373	12681
928.479	12175
928.585	11935
928.69	12049
928.796	12030
928.901	11920
929.007	11832
929.112	11927
929.218	11893
929.323	11790
929.428	11775
929.533	11863
929.638	11707
929.743	11916
929.848	11805
929.953	11752
930.058	11608
930.163	11467
930.267	11589
930.372	11657
930.477	11410
930.581	11710
930.685	11478
930.79	11376
930.894	11356
930.998	11353
931.103	11532
931.207	11178
931.311	11086
931.415	10961
931.519	10847
931.623	10725
