Data from test_V78500241_2975.txt Node
Date: Fri Mar 25 15:30:34 CST 2022
User: usil
Spectrometer: V785-0024
Trigger mode: 0
Integration Time (sec): 4.000000E-1
Scans to average: 1
Nonlinearity correction enabled: false
Boxcar width: 0
Storing dark spectrum: false
XAxis mode: Wavelengths
Number of Pixels in Spectrum: 1024
>>>>>Begin Spectral Data<<<<<
801.071	27161
801.214	27138
801.356	26956
801.499	26785
801.641	26686
801.783	26724
801.926	26788
802.068	26609
802.211	26583
802.353	26625
802.496	26393
802.638	26469
802.78	26282
802.923	26119
803.065	26221
803.208	26062
803.35	26370
803.492	26339
803.635	26431
803.777	26332
803.919	26606
804.061	26880
804.204	26507
804.346	26423
804.488	26362
804.63	26339
804.773	26313
804.915	26374
805.057	26636
805.199	26396
805.341	26469
805.483	26598
805.626	26503
805.768	26545
805.91	26686
806.052	26594
806.194	26393
806.336	26609
806.478	26488
806.62	26598
806.762	26682
806.904	26868
807.046	26971
807.188	27009
807.33	27116
807.472	26960
807.614	26918
807.756	26834
807.898	26880
808.04	26781
808.182	26883
808.324	26849
808.465	26731
808.607	27024
808.749	27157
808.891	27321
809.033	27237
809.174	27279
809.316	26960
809.458	27150
809.6	27070
809.741	27291
809.883	27287
810.025	27427
810.166	27504
810.308	27424
810.45	27321
810.591	27336
810.733	27146
810.875	27077
811.016	26971
811.158	27157
811.299	27241
811.441	27397
811.582	27367
811.724	27135
811.865	27051
812.007	27161
812.148	27013
812.29	27150
812.431	27268
812.573	27283
812.714	27595
812.855	27644
812.997	27755
813.138	27914
813.279	27732
813.421	27701
813.562	27663
813.703	27507
813.845	27477
813.986	27001
814.127	26925
814.268	26788
814.41	26811
814.551	26735
814.692	26849
814.833	26769
814.974	26857
815.115	26845
815.256	26716
815.397	26686
815.539	26727
815.68	26590
815.821	26522
815.962	26613
816.103	26488
816.244	26290
816.385	26362
816.526	26210
816.666	26180
816.807	26020
816.948	26172
817.089	26134
817.23	26096
817.371	26081
817.512	26145
817.653	25978
817.793	25970
817.934	26069
818.075	26134
818.216	26058
818.356	25955
818.497	25879
818.638	25845
818.778	25731
818.919	25704
819.06	25871
819.2	26058
819.341	26168
819.481	25989
819.622	26149
819.762	26404
819.903	26195
820.043	26229
820.184	26275
820.324	26153
820.465	26191
820.605	26081
820.746	26092
820.886	26008
821.026	26130
821.167	25989
821.307	26164
821.447	25932
821.588	25913
821.728	25852
821.868	25647
822.008	25521
822.149	25518
822.289	25426
822.429	25274
822.569	25240
822.709	25236
822.849	24989
822.99	25091
823.13	25084
823.27	24958
823.41	24783
823.55	24764
823.69	24916
823.83	24886
823.97	24654
824.11	24536
824.25	24635
824.389	24566
824.529	24749
824.669	24684
824.809	24696
824.949	24787
825.089	24635
825.228	24623
825.368	24456
825.508	24445
825.648	24528
825.787	24570
825.927	24547
826.067	24456
826.206	24407
826.346	24639
826.485	24582
826.625	24582
826.765	24532
826.904	24502
827.044	24338
827.183	24174
827.323	24194
827.462	24197
827.601	24144
827.741	24136
827.88	24174
828.02	24114
828.159	24159
828.298	24342
828.437	24262
828.577	24072
828.716	24270
828.855	24091
828.994	23859
829.134	23939
829.273	23901
829.412	23992
829.551	23843
829.69	23832
829.829	23863
829.968	24026
830.107	23912
830.246	23882
830.385	23851
830.524	23798
830.663	23783
830.802	23668
830.941	23547
831.08	23627
831.219	23562
831.357	23592
831.496	23676
831.635	23501
831.774	23402
831.913	23341
832.051	23311
832.19	23307
832.329	23288
832.467	23124
832.606	23216
832.744	23128
832.883	23109
833.022	23128
833.16	23220
833.299	23155
833.437	23269
833.576	23345
833.714	23349
833.852	23280
833.991	23318
834.129	23421
834.267	23250
834.406	23140
834.544	23345
834.682	23075
834.821	23143
834.959	23436
835.097	23162
835.235	23334
835.373	23242
835.511	23254
835.65	23094
835.788	23025
835.926	22877
836.064	22850
836.202	22900
836.34	23003
836.478	23143
836.615	23022
836.753	22961
836.891	23086
837.029	23121
837.167	23060
837.305	22873
837.443	22972
837.58	22805
837.718	22911
837.856	22995
837.993	22919
838.131	22873
838.269	22778
838.406	22930
838.544	22694
838.681	22554
838.819	22618
838.956	22402
839.094	22371
839.231	22497
839.369	22599
839.506	22831
839.643	22702
839.781	22371
839.918	22356
840.055	22367
840.193	22322
840.33	22257
840.467	22310
840.604	22348
840.742	22580
840.879	22253
841.016	22158
841.153	22196
841.29	22417
841.427	22299
841.564	22318
841.701	22265
841.838	22173
841.975	22306
842.112	22314
842.249	22272
842.385	22169
842.522	22272
842.659	22215
842.796	22055
842.933	22021
843.069	21979
843.206	21956
843.343	22032
843.479	22051
843.616	22051
843.752	21918
843.889	21838
844.025	22032
844.162	21770
844.298	21804
844.435	21747
844.571	21709
844.708	21823
844.844	21922
844.98	21968
845.117	21972
845.253	21743
845.389	21667
845.525	21701
845.661	21671
845.798	21622
845.934	21736
846.07	21629
846.206	21523
846.342	21629
846.478	21644
846.614	21378
846.75	21085
846.886	21344
847.022	21386
847.158	21329
847.294	21447
847.429	21348
847.565	21340
847.701	21507
847.837	21051
847.972	20960
848.108	21081
848.244	21108
848.379	21043
848.515	20887
848.65	20906
848.786	20800
848.921	20857
849.057	21055
849.192	20975
849.328	20994
849.463	20921
849.598	20914
849.734	20830
849.869	20758
850.004	20640
850.14	20720
850.275	20754
850.41	20613
850.545	20598
850.68	20716
850.815	20590
850.95	20701
851.085	20739
851.22	20849
851.355	20765
851.49	20621
851.625	20549
851.76	20625
851.895	20636
852.03	20670
852.165	20670
852.299	20800
852.434	20769
852.569	20621
852.703	20682
852.838	20834
852.973	20819
853.107	20785
853.242	20621
853.376	20465
853.511	20446
853.645	20571
853.78	20640
853.914	20423
854.048	20488
854.183	20419
854.317	20469
854.451	20648
854.585	20488
854.72	20469
854.854	20575
854.988	20575
855.122	20438
855.256	20339
855.39	20476
855.524	20552
855.658	20609
855.792	20568
855.926	20556
856.06	20446
856.194	20629
856.327	20431
856.461	20434
856.595	20480
856.729	20469
856.862	20613
856.996	20518
857.13	20583
857.263	20674
857.397	20579
857.53	20427
857.664	20530
857.797	20549
857.931	20537
858.064	20621
858.197	20587
858.331	20655
858.464	20450
858.597	20431
858.731	20526
858.864	20499
858.997	20419
859.13	20514
859.263	20434
859.396	20648
859.529	20423
859.662	20518
859.795	20480
859.928	20514
860.061	20613
860.194	20754
860.327	20568
860.46	20469
860.592	20689
860.725	20708
860.858	20689
860.99	20427
861.123	20427
861.256	20454
861.388	20480
861.521	21154
861.653	20237
861.786	20210
861.918	20225
862.05	20415
862.183	20389
862.315	20362
862.447	20670
862.58	20549
862.712	20278
862.844	20138
862.976	20317
863.108	20385
863.24	20609
863.372	20305
863.504	20202
863.636	20278
863.768	20172
863.9	20355
864.032	20092
864.164	20221
864.296	20176
864.428	20332
864.559	20442
864.691	20286
864.823	20195
864.954	20210
865.086	20301
865.217	20100
865.349	20081
865.48	20248
865.612	20153
865.743	20324
865.875	20168
866.006	20199
866.137	20084
866.269	20119
866.4	20088
866.531	20096
866.662	20081
866.793	20103
866.924	20081
867.055	20065
867.186	20130
867.317	20012
867.448	19887
867.579	20005
867.71	19898
867.841	19940
867.972	20103
868.103	20153
868.233	20191
868.364	20039
868.495	20081
868.625	20278
868.756	20320
868.886	20214
869.017	20309
869.147	20377
869.278	20560
869.408	20305
869.539	20317
869.669	20427
869.799	20313
869.929	20286
870.06	20454
870.19	20568
870.32	20526
870.45	20530
870.58	20712
870.71	20815
870.84	20796
870.97	20712
871.1	20724
871.23	20800
871.36	20887
871.489	20823
871.619	20925
871.749	20727
871.879	20956
872.008	21020
872.138	20876
872.267	20811
872.397	20861
872.526	20788
872.656	20804
872.785	20769
872.915	21001
873.044	21024
873.173	20902
873.303	20937
873.432	20937
873.561	20990
873.69	20960
873.819	21100
873.948	21043
874.077	20929
874.206	20906
874.335	20948
874.464	20960
874.593	21275
874.722	21058
874.851	21252
874.979	21195
875.108	21192
875.237	21150
875.365	21085
875.494	21112
875.623	21279
875.751	21226
875.88	21161
876.008	21329
876.136	21443
876.265	21595
876.393	21690
876.521	21633
876.65	21682
876.778	21587
876.906	21583
877.034	21504
877.162	21603
877.29	21511
877.418	21526
877.546	21606
877.674	21542
877.802	21564
877.93	21481
878.058	21553
878.185	21424
878.313	21530
878.441	21500
878.568	21435
878.696	21363
878.824	21462
878.951	21591
879.079	21800
879.206	21819
879.333	21713
879.461	21561
879.588	21671
879.715	21682
879.842	21895
879.97	21511
880.097	21443
880.224	21370
880.351	21370
880.478	21355
880.605	21329
880.732	21325
880.859	21488
880.986	21359
881.112	21466
881.239	21233
881.366	21154
881.493	21032
881.619	20921
881.746	20918
881.872	20902
881.999	20880
882.125	20891
882.252	20880
882.378	21055
882.505	21077
882.631	20792
882.757	20648
882.883	20674
883.01	20769
883.136	20621
883.262	20594
883.388	20438
883.514	20629
883.64	20773
883.766	20575
883.892	20495
884.018	20393
884.143	20469
884.269	20629
884.395	20442
884.52	20347
884.646	20412
884.772	20317
884.897	20172
885.023	20396
885.148	20495
885.274	20381
885.399	20427
885.524	20267
885.65	20298
885.775	20278
885.9	20271
886.025	20351
886.15	20412
886.275	20202
886.4	20039
886.525	20233
886.65	20206
886.775	20210
886.9	20328
887.025	20587
887.149	20347
887.274	20065
887.399	20199
887.523	20100
887.648	19978
887.773	20005
887.897	20206
888.021	20069
888.146	20069
888.27	20172
888.395	20122
888.519	20157
888.643	20168
888.767	20221
888.891	20054
889.015	19887
889.139	19947
889.263	19871
889.387	20008
889.511	20126
889.635	19967
889.759	19772
889.883	19852
890.006	19917
890.13	20005
890.254	19734
890.377	19693
890.501	19613
890.624	19639
890.748	19624
890.871	19502
890.995	19358
891.118	19510
891.241	19548
891.364	19449
891.488	19540
891.611	19396
891.734	19422
891.857	19575
891.98	19430
892.103	19537
892.226	19422
892.349	19453
892.471	19164
892.594	19449
892.717	19449
892.839	19324
892.962	19464
893.085	19540
893.207	19426
893.33	19301
893.452	19411
893.575	19396
893.697	19384
893.819	19472
893.941	19594
894.064	19563
894.186	19411
894.308	19331
894.43	19460
894.552	19628
894.674	19449
894.796	19354
894.918	19228
895.04	19293
895.161	19495
895.283	19324
895.405	19240
895.526	19316
895.648	19362
895.769	19316
895.891	19396
896.012	19468
896.134	19426
896.255	19426
896.376	19331
896.498	19373
896.619	19453
896.74	19301
896.861	19476
896.982	19830
897.103	19784
897.224	19616
897.345	19582
897.466	19510
897.587	19544
897.708	19811
897.828	19639
897.949	19624
898.07	19411
898.19	19563
898.311	19655
898.431	19655
898.552	19651
898.672	19700
898.792	19655
898.913	19681
899.033	19567
899.153	19434
899.273	19293
899.393	19422
899.513	19476
899.633	19480
899.753	19460
899.873	19270
899.993	19411
900.113	19297
900.232	19324
900.352	19316
900.472	19240
900.591	19141
900.711	19274
900.83	19095
900.95	19236
901.069	19217
901.189	19118
901.308	18871
901.427	18825
901.546	18688
901.665	18776
901.784	18840
901.904	18517
902.023	18582
902.141	18350
902.26	18289
902.379	18433
902.498	18300
902.617	18308
902.735	18308
902.854	18239
902.973	18197
903.091	18019
903.21	18045
903.328	17912
903.446	17893
903.565	17794
903.683	17809
903.801	17680
903.919	17745
904.038	17760
904.156	17642
904.274	17668
904.392	17505
904.51	17577
904.627	17471
904.745	17539
904.863	17600
904.981	17299
905.098	17368
905.216	17181
905.334	17303
905.451	17269
905.569	17200
905.686	17288
905.803	17086
905.921	17022
906.038	17189
906.155	17140
906.272	16965
906.389	16885
906.506	16824
906.623	16828
906.74	16835
906.857	16618
906.974	16672
907.091	16858
907.208	16850
907.324	16786
907.441	16679
907.557	16603
907.674	16561
907.79	16417
907.907	16466
908.023	16565
908.139	16592
908.256	16402
908.372	16303
908.488	16409
908.604	16291
908.72	16154
908.836	16200
908.952	16234
909.068	16299
909.184	16284
909.3	16169
909.415	16265
909.531	16219
909.647	15994
909.762	15945
909.878	15972
909.993	15876
910.108	15759
910.224	15835
910.339	15903
910.454	15827
910.57	15762
910.685	15682
910.8	15876
910.915	15808
911.03	15739
911.145	15603
911.259	15504
911.374	15507
911.489	15534
911.604	15397
911.718	15302
911.833	15450
911.947	15207
912.062	15199
912.176	15412
912.291	15374
912.405	15279
912.519	15633
912.633	15511
912.748	15313
912.862	15245
912.976	15150
913.09	15009
913.204	14960
913.318	15138
913.431	15233
913.545	15252
913.659	15169
913.772	14967
913.886	14952
914	14861
914.113	14990
914.226	15043
914.34	14914
914.453	14781
914.566	15005
914.68	14872
914.793	14807
914.906	14598
915.019	14613
915.132	14533
915.245	14537
915.358	14583
915.47	14503
915.583	14583
915.696	14533
915.809	14697
915.921	14587
916.034	14480
916.146	14469
916.259	14389
916.371	14533
916.483	14545
916.595	14427
916.708	14374
916.82	14309
916.932	14328
917.044	14412
917.156	14370
917.268	14218
917.38	14256
917.491	14240
917.603	14218
917.715	14278
917.826	14233
917.938	14077
918.049	14054
918.161	14183
918.272	14286
918.384	14298
918.495	14164
918.606	14031
918.717	13928
918.828	14005
918.939	13967
919.05	13917
919.161	13967
919.272	13753
919.383	13852
919.494	13955
919.604	14039
919.715	13967
919.826	13890
919.936	13913
920.047	14046
920.157	13974
920.267	14233
920.378	13955
920.488	13974
920.598	14138
920.708	14229
920.818	14153
920.928	14069
921.038	14233
921.148	14240
921.258	13856
921.368	13879
921.477	13750
921.587	13670
921.697	13670
921.806	13757
921.916	13590
922.025	13377
922.134	13445
922.244	13247
922.353	13400
922.462	13198
922.571	13232
922.68	13008
922.789	13027
922.898	13004
923.007	12977
923.116	13042
923.224	13069
923.333	12977
923.442	12875
923.55	12852
923.659	12863
923.767	12852
923.876	12738
923.984	12867
924.092	12696
924.201	12833
924.309	12757
924.417	12757
924.525	12662
924.633	12749
924.741	13525
924.849	12555
924.956	12669
925.064	12544
925.172	12418
925.279	12452
925.387	12448
925.494	12403
925.602	12597
925.709	12464
925.816	12410
925.924	12464
926.031	12559
926.138	12418
926.245	12547
926.352	12357
926.459	12433
926.566	12475
926.673	12304
926.779	12224
926.886	12254
926.993	12110
927.099	12076
927.206	11999
927.312	11977
927.419	12114
927.525	12022
927.631	12064
927.737	11980
927.843	11992
927.95	11851
928.056	11798
928.162	11931
928.267	11923
928.373	12547
928.479	11942
928.585	11676
928.69	11840
928.796	11821
928.901	11722
929.007	11600
929.112	11684
929.218	11668
929.323	11703
929.428	11596
929.533	11619
929.638	11490
929.743	11551
929.848	11642
929.953	11657
930.058	11478
930.163	11242
930.267	11330
930.372	11391
930.477	11284
930.581	11486
930.685	11326
930.79	11162
930.894	11269
930.998	11147
931.103	11315
931.207	10930
931.311	10923
931.415	10786
931.519	10607
931.623	10634
