Data from test_V78500241_1753.txt Node
Date: Fri Mar 25 15:22:03 CST 2022
User: usil
Spectrometer: V785-0024
Trigger mode: 0
Integration Time (sec): 4.000000E-1
Scans to average: 1
Nonlinearity correction enabled: false
Boxcar width: 0
Storing dark spectrum: false
XAxis mode: Wavelengths
Number of Pixels in Spectrum: 1024
>>>>>Begin Spectral Data<<<<<
801.071	27781
801.214	27736
801.356	27530
801.499	27507
801.641	27507
801.783	27374
801.926	27325
802.068	27370
802.211	27317
802.353	27260
802.496	27081
802.638	27116
802.78	27112
802.923	27039
803.065	26975
803.208	26921
803.35	27131
803.492	27180
803.635	27283
803.777	27074
803.919	27150
804.061	27534
804.204	27355
804.346	27233
804.488	27283
804.63	27226
804.773	27119
804.915	27397
805.057	27378
805.199	27161
805.341	27260
805.483	27374
805.626	27348
805.768	27325
805.91	27344
806.052	27485
806.194	27325
806.336	27496
806.478	27427
806.62	27336
806.762	27473
806.904	27770
807.046	27934
807.188	27884
807.33	27819
807.472	27808
807.614	27682
807.756	27888
807.898	27698
808.04	27500
808.182	27705
808.324	27831
808.465	27770
808.607	27869
808.749	28097
808.891	28029
809.033	28147
809.174	28112
809.316	27888
809.458	27930
809.6	28006
809.741	28181
809.883	28101
810.025	28291
810.166	28280
810.308	28341
810.45	28162
810.591	28215
810.733	28051
810.875	27945
811.016	27797
811.158	27892
811.299	28055
811.441	28128
811.582	28219
811.724	27922
811.865	28109
812.007	28036
812.148	27964
812.29	28013
812.431	28181
812.573	28344
812.714	28371
812.855	28527
812.997	28542
813.138	28858
813.279	28660
813.421	28573
813.562	28466
813.703	28341
813.845	28246
813.986	28044
814.127	27854
814.268	27747
814.41	27869
814.551	27641
814.692	27690
814.833	27762
814.974	27736
815.115	27656
815.256	27667
815.397	27610
815.539	27538
815.68	27454
815.821	27477
815.962	27561
816.103	27439
816.244	27412
816.385	27298
816.526	27211
816.666	27188
816.807	27017
816.948	27089
817.089	27150
817.23	26990
817.371	26998
817.512	27001
817.653	26929
817.793	26963
817.934	27005
818.075	27051
818.216	27116
818.356	26914
818.497	26823
818.638	26853
818.778	26727
818.919	26762
819.06	26944
819.2	26971
819.341	27081
819.481	27051
819.622	27047
819.762	27481
819.903	27222
820.043	27233
820.184	27237
820.324	27184
820.465	27192
820.605	27135
820.746	27123
820.886	26906
821.026	27100
821.167	27039
821.307	27154
821.447	27142
821.588	26864
821.728	26811
821.868	26571
822.008	26621
822.149	26552
822.289	26404
822.429	26229
822.569	26115
822.709	26142
822.849	25989
822.99	25970
823.13	25818
823.27	25898
823.41	25833
823.55	25639
823.69	25738
823.83	25811
823.97	25845
824.11	25514
824.25	25567
824.389	25544
824.529	25738
824.669	25548
824.809	25845
824.949	25685
825.089	25529
825.228	25597
825.368	25449
825.508	25468
825.648	25552
825.787	25521
825.927	25495
826.067	25430
826.206	25613
826.346	25365
826.485	25609
826.625	25533
826.765	25765
826.904	25540
827.044	25282
827.183	25270
827.323	25255
827.462	25324
827.601	25209
827.741	25232
827.88	25301
828.02	25099
828.159	25190
828.298	25221
828.437	25202
828.577	25076
828.716	25244
828.855	25164
828.994	24844
829.134	24951
829.273	24989
829.412	24894
829.551	24992
829.69	24810
829.829	24939
829.968	24932
830.107	24947
830.246	24992
830.385	24875
830.524	24779
830.663	24814
830.802	24642
830.941	24410
831.08	24467
831.219	24604
831.357	24578
831.496	24719
831.635	24521
831.774	24399
831.913	24445
832.051	24311
832.19	24277
832.329	24270
832.467	24285
832.606	24304
832.744	24133
832.883	24224
833.022	24197
833.16	24292
833.299	24296
833.437	24209
833.576	24376
833.714	24376
833.852	24334
833.991	24448
834.129	24350
834.267	24369
834.406	24296
834.544	24296
834.682	24251
834.821	24258
834.959	24315
835.097	24182
835.235	24357
835.373	24247
835.511	24281
835.65	24239
835.788	24178
835.926	24045
836.064	23927
836.202	23961
836.34	24163
836.478	24133
836.615	24121
836.753	23996
836.891	24270
837.029	24216
837.167	24194
837.305	24053
837.443	23927
837.58	23973
837.718	24114
837.856	23996
837.993	23912
838.131	23996
838.269	23904
838.406	23901
838.544	23885
838.681	23638
838.819	23600
838.956	23566
839.094	23433
839.231	23520
839.369	23680
839.506	23931
839.643	23585
839.781	23524
839.918	23474
840.055	23391
840.193	23486
840.33	23265
840.467	23478
840.604	23337
840.742	23615
840.879	23235
841.016	23326
841.153	23216
841.29	23459
841.427	23334
841.564	23341
841.701	23334
841.838	23387
841.975	23398
842.112	23246
842.249	23193
842.385	23174
842.522	23261
842.659	23064
842.796	22991
842.933	23258
843.069	23079
843.206	23090
843.343	23151
843.479	23159
843.616	23113
843.752	22957
843.889	22786
844.025	23105
844.162	22976
844.298	22866
844.435	22915
844.571	22889
844.708	22949
844.844	23006
844.98	23041
845.117	23006
845.253	22927
845.389	22881
845.525	22797
845.661	22713
845.798	22721
845.934	22615
846.07	22580
846.206	22554
846.342	22839
846.478	22546
846.614	22424
846.75	22314
846.886	22318
847.022	22478
847.158	22303
847.294	22489
847.429	22386
847.565	22348
847.701	22634
847.837	22116
847.972	22112
848.108	22284
848.244	22238
848.379	22101
848.515	22086
848.65	21934
848.786	21899
848.921	21998
849.057	22093
849.192	22036
849.328	21720
849.463	22029
849.598	21972
849.734	21934
849.869	21804
850.004	21648
850.14	21759
850.275	21732
850.41	21572
850.545	21633
850.68	21667
850.815	21743
850.95	21770
851.085	21911
851.22	21854
851.355	21682
851.49	21713
851.625	21728
851.76	21682
851.895	21736
852.03	21481
852.165	21641
852.299	21736
852.434	21778
852.569	21656
852.703	21682
852.838	21888
852.973	21781
853.107	21850
853.242	21671
853.376	21473
853.511	21370
853.645	21542
853.78	21705
853.914	21610
854.048	21481
854.183	21466
854.317	21530
854.451	21694
854.585	21610
854.72	21473
854.854	21564
854.988	21405
855.122	21469
855.256	21340
855.39	21538
855.524	21450
855.658	21485
855.792	21519
855.926	21523
856.06	21614
856.194	21625
856.327	21469
856.461	21466
856.595	21458
856.729	21610
856.862	21686
856.996	21641
857.13	21667
857.263	21568
857.397	21641
857.53	21530
857.664	21576
857.797	21736
857.931	21618
858.064	21534
858.197	21542
858.331	21405
858.464	21572
858.597	21435
858.731	21572
858.864	21393
858.997	21481
859.13	21526
859.263	21564
859.396	21644
859.529	21439
859.662	21530
859.795	21412
859.928	21511
860.061	21747
860.194	21694
860.327	21587
860.46	21526
860.592	21660
860.725	21663
860.858	21599
860.99	21447
861.123	21462
861.256	21500
861.388	21587
861.521	22253
861.653	21386
861.786	21214
861.918	21275
862.05	21416
862.183	21363
862.315	21458
862.447	21450
862.58	21447
862.712	21340
862.844	21291
862.976	21378
863.108	21393
863.24	21580
863.372	21036
863.504	21256
863.636	21302
863.768	21218
863.9	21363
864.032	21070
864.164	21283
864.296	21287
864.428	21279
864.559	21458
864.691	21306
864.823	21230
864.954	21268
865.086	21252
865.217	21195
865.349	20944
865.48	21150
865.612	21077
865.743	21355
865.875	21146
866.006	21142
866.137	21169
866.269	21157
866.4	21233
866.531	21184
866.662	20960
866.793	21028
866.924	21161
867.055	20982
867.186	21165
867.317	21077
867.448	20887
867.579	20994
867.71	20948
867.841	20925
867.972	21009
868.103	21077
868.233	21070
868.364	21051
868.495	21207
868.625	21298
868.756	21374
868.886	21348
869.017	21268
869.147	21389
869.278	21450
869.408	21355
869.539	21283
869.669	21363
869.799	21298
869.929	21405
870.06	21420
870.19	21618
870.32	21614
870.45	21644
870.58	21606
870.71	21728
870.84	21728
870.97	21751
871.1	21736
871.23	21827
871.36	21911
871.489	21804
871.619	21835
871.749	21846
871.879	21968
872.008	21994
872.138	21926
872.267	21854
872.397	21789
872.526	21831
872.656	21785
872.785	21831
872.915	21934
873.044	21934
873.173	21888
873.303	21937
873.432	21945
873.561	22120
873.69	21922
873.819	21983
873.948	21918
874.077	21956
874.206	21911
874.335	21972
874.464	21922
874.593	22097
874.722	22173
874.851	22188
874.979	22135
875.108	22150
875.237	22017
875.365	22109
875.494	22177
875.623	22147
875.751	22059
875.88	22192
876.008	22265
876.136	22310
876.265	22588
876.393	22725
876.521	22577
876.65	22660
876.778	22588
876.906	22428
877.034	22405
877.162	22569
877.29	22481
877.418	22504
877.546	22474
877.674	22405
877.802	22516
877.93	22554
878.058	22615
878.185	22470
878.313	22402
878.441	22485
878.568	22428
878.696	22379
878.824	22565
878.951	22687
879.079	22580
879.206	22755
879.333	22630
879.461	22493
879.588	22527
879.715	22774
879.842	22797
879.97	22523
880.097	22325
880.224	22280
880.351	22325
880.478	22261
880.605	22154
880.732	22291
880.859	22512
880.986	22287
881.112	22257
881.239	22276
881.366	22101
881.493	21918
881.619	21918
881.746	21956
881.872	21949
881.999	21937
882.125	21793
882.252	21964
882.378	22032
882.505	22010
882.631	21759
882.757	21686
882.883	21648
883.01	21618
883.136	21644
883.262	21443
883.388	21466
883.514	21603
883.64	21561
883.766	21416
883.892	21359
884.018	21450
884.143	21553
884.269	21660
884.395	21340
884.52	21211
884.646	21272
884.772	21154
884.897	21157
885.023	21355
885.148	21207
885.274	21370
885.399	21363
885.524	21203
885.65	21329
885.775	21252
885.9	21157
886.025	21378
886.15	21351
886.275	21195
886.4	21127
886.525	21199
886.65	21188
886.775	21222
886.9	21363
887.025	21545
887.149	21165
887.274	21112
887.399	20971
887.523	21043
887.648	20921
887.773	20891
887.897	21146
888.021	21013
888.146	20902
888.27	21028
888.395	21123
888.519	21146
888.643	20925
888.767	20929
888.891	20956
889.015	20800
889.139	20792
889.263	20686
889.387	20781
889.511	21081
889.635	20819
889.759	20739
889.883	20800
890.006	20746
890.13	20845
890.254	20712
890.377	20743
890.501	20598
890.624	20484
890.748	20530
890.871	20457
890.995	20347
891.118	20267
891.241	20351
891.364	20366
891.488	20484
891.611	20393
891.734	20343
891.857	20347
891.98	20332
892.103	20412
892.226	20343
892.349	20290
892.471	20092
892.594	20252
892.717	20415
892.839	20282
892.962	20263
893.085	20301
893.207	20214
893.33	20195
893.452	20191
893.575	20343
893.697	20100
893.819	20362
893.941	20537
894.064	20396
894.186	20233
894.308	20210
894.43	20324
894.552	20438
894.674	20358
894.796	20100
894.918	20183
895.04	20202
895.161	20362
895.283	20305
895.405	20088
895.526	20278
895.648	20309
895.769	20259
895.891	20244
896.012	20225
896.134	20328
896.255	20339
896.376	20119
896.498	20180
896.619	20210
896.74	20252
896.861	20366
896.982	20598
897.103	20746
897.224	20454
897.345	20575
897.466	20366
897.587	20461
897.708	20511
897.828	20533
897.949	20366
898.07	20438
898.19	20404
898.311	20438
898.431	20366
898.552	20503
898.672	20625
898.792	20583
898.913	20514
899.033	20290
899.153	20324
899.273	20100
899.393	20317
899.513	20290
899.633	20161
899.753	20134
899.873	20115
899.993	20298
900.113	20248
900.232	20107
900.352	20126
900.472	20039
900.591	19860
900.711	20043
900.83	19890
900.95	20027
901.069	20100
901.189	19849
901.308	19658
901.427	19499
901.546	19571
901.665	19506
901.784	19620
901.904	19396
902.023	19255
902.141	19114
902.26	19091
902.379	19206
902.498	19076
902.617	18970
902.735	19137
902.854	18939
902.973	18989
903.091	18745
903.21	18650
903.328	18719
903.446	18631
903.565	18532
903.683	18445
903.801	18456
903.919	18437
904.038	18464
904.156	18388
904.274	18399
904.392	18357
904.51	18338
904.627	18209
904.745	18273
904.863	18372
904.981	18133
905.098	17984
905.216	17996
905.334	18125
905.451	17954
905.569	17961
905.686	18064
905.803	17878
905.921	17805
906.038	17836
906.155	17836
906.272	17649
906.389	17604
906.506	17516
906.623	17573
906.74	17497
906.857	17353
906.974	17372
907.091	17532
907.208	17714
907.324	17604
907.441	17349
907.557	17212
907.674	17280
907.79	17166
907.907	17269
908.023	17147
908.139	17353
908.256	17151
908.372	17200
908.488	17159
908.604	16991
908.72	17014
908.836	16927
908.952	16957
909.068	16892
909.184	17022
909.3	16919
909.415	17094
909.531	16869
909.647	16748
909.762	16744
909.878	16736
909.993	16763
910.108	16683
910.224	16561
910.339	16607
910.454	16516
910.57	16436
910.685	16462
910.8	16645
910.915	16672
911.03	16512
911.145	16329
911.259	16169
911.374	16234
911.489	16257
911.604	16181
911.718	15975
911.833	15979
911.947	15903
912.062	15918
912.176	15915
912.291	15979
912.405	16032
912.519	16139
912.633	16162
912.748	16032
912.862	15922
912.976	15857
913.09	15720
913.204	15827
913.318	15915
913.431	15915
913.545	15907
913.659	15884
913.772	15701
913.886	15629
914	15656
914.113	15622
914.226	15660
914.34	15679
914.453	15447
914.566	15671
914.68	15530
914.793	15416
914.906	15329
915.019	15230
915.132	15195
915.245	15169
915.358	15317
915.47	15123
915.583	15268
915.696	15207
915.809	15298
915.921	15389
916.034	15142
916.146	15032
916.259	15085
916.371	15169
916.483	15142
916.595	15112
916.708	15020
916.82	15005
916.932	14971
917.044	15028
917.156	14952
917.268	14823
917.38	14754
917.491	14857
917.603	14883
917.715	14937
917.826	14929
917.938	14830
918.049	14701
918.161	14880
918.272	14906
918.384	14944
918.495	14712
918.606	14682
918.717	14541
918.828	14632
918.939	14765
919.05	14602
919.161	14568
919.272	14427
919.383	14476
919.494	14682
919.604	14811
919.715	14727
919.826	14480
919.936	14530
920.047	14575
920.157	14617
920.267	14689
920.378	14583
920.488	14514
920.598	14712
920.708	14842
920.818	14712
920.928	14743
921.038	14826
921.148	14769
921.258	14514
921.368	14446
921.477	14393
921.587	14305
921.697	14123
921.806	14320
921.916	14130
922.025	14065
922.134	13959
922.244	13982
922.353	13978
922.462	13761
922.571	13731
922.68	13647
922.789	13552
922.898	13632
923.007	13563
923.116	13578
923.224	13586
923.333	13518
923.442	13491
923.55	13464
923.659	13430
923.767	13491
923.876	13373
923.984	13457
924.092	13358
924.201	13270
924.309	13384
924.417	13373
924.525	13270
924.633	13202
924.741	14031
924.849	13095
924.956	13160
925.064	12977
925.172	12989
925.279	13012
925.387	12901
925.494	12996
925.602	13175
925.709	13084
925.816	12977
925.924	12943
926.031	12996
926.138	12916
926.245	12939
926.352	12795
926.459	12985
926.566	13042
926.673	12875
926.779	12776
926.886	12707
926.993	12582
927.099	12589
927.206	12464
927.312	12544
927.419	12631
927.525	12418
927.631	12547
927.737	12460
927.843	12395
927.95	12357
928.056	12380
928.162	12353
928.267	12506
928.373	12970
928.479	12532
928.585	12258
928.69	12311
928.796	12414
928.901	12262
929.007	12106
929.112	12224
929.218	12220
929.323	12175
929.428	12167
929.533	12213
929.638	12045
929.743	12129
929.848	12163
929.953	12003
930.058	11988
930.163	11798
930.267	11760
930.372	12030
930.477	11863
930.581	11965
930.685	11760
930.79	11649
930.894	11691
930.998	11619
931.103	11786
931.207	11444
931.311	11376
931.415	11258
931.519	11090
931.623	11113
