Data from test_V78500241_1393.txt Node
Date: Fri Mar 25 15:19:33 CST 2022
User: usil
Spectrometer: V785-0024
Trigger mode: 0
Integration Time (sec): 4.000000E-1
Scans to average: 1
Nonlinearity correction enabled: false
Boxcar width: 0
Storing dark spectrum: false
XAxis mode: Wavelengths
Number of Pixels in Spectrum: 1024
>>>>>Begin Spectral Data<<<<<
801.071	28070
801.214	27823
801.356	27663
801.499	27637
801.641	27488
801.783	27530
801.926	27580
802.068	27462
802.211	27458
802.353	27302
802.496	27302
802.638	27199
802.78	27195
802.923	27108
803.065	27127
803.208	27157
803.35	27127
803.492	27256
803.635	27401
803.777	27230
803.919	27313
804.061	27701
804.204	27523
804.346	27329
804.488	27344
804.63	27389
804.773	27279
804.915	27355
805.057	27469
805.199	27370
805.341	27507
805.483	27618
805.626	27549
805.768	27405
805.91	27515
806.052	27580
806.194	27492
806.336	27781
806.478	27469
806.62	27500
806.762	27720
806.904	27743
807.046	28109
807.188	27968
807.33	27854
807.472	28124
807.614	27888
807.756	27991
807.898	27808
808.04	27762
808.182	27770
808.324	27831
808.465	27899
808.607	28070
808.749	28162
808.891	28230
809.033	28455
809.174	28295
809.316	28181
809.458	28105
809.6	28295
809.741	28310
809.883	28398
810.025	28462
810.166	28512
810.308	28603
810.45	28401
810.591	28413
810.733	28105
810.875	28070
811.016	28226
811.158	27964
811.299	28303
811.441	28287
811.582	28291
811.724	28124
811.865	28101
812.007	28192
812.148	28177
812.29	28192
812.431	28154
812.573	28577
812.714	28660
812.855	28740
812.997	28824
813.138	28968
813.279	28866
813.421	28733
813.562	28793
813.703	28535
813.845	28401
813.986	28253
814.127	27979
814.268	28002
814.41	27918
814.551	27774
814.692	27819
814.833	27793
814.974	27774
815.115	27903
815.256	27660
815.397	27751
815.539	27751
815.68	27637
815.821	27637
815.962	27705
816.103	27686
816.244	27519
816.385	27477
816.526	27564
816.666	27340
816.807	27195
816.948	27256
817.089	27348
817.23	27294
817.371	27233
817.512	27154
817.653	27150
817.793	27142
817.934	27218
818.075	27211
818.216	27135
818.356	27089
818.497	27020
818.638	26918
818.778	26963
818.919	26864
819.06	26864
819.2	27039
819.341	27241
819.481	27237
819.622	27340
819.762	27306
819.903	27401
820.043	27329
820.184	27302
820.324	27439
820.465	27481
820.605	27283
820.746	27287
820.886	27051
821.026	27325
821.167	27264
821.307	27321
821.447	27192
821.588	27017
821.728	27108
821.868	26682
822.008	26659
822.149	26609
822.289	26549
822.429	26366
822.569	26256
822.709	26301
822.849	26172
822.99	26202
823.13	26202
823.27	26103
823.41	25925
823.55	25868
823.69	25932
823.83	25951
823.97	25883
824.11	25670
824.25	25613
824.389	25868
824.529	25856
824.669	25772
824.809	25947
824.949	25856
825.089	25822
825.228	25898
825.368	25624
825.508	25540
825.648	25597
825.787	25601
825.927	25708
826.067	25514
826.206	25666
826.346	25704
826.485	25803
826.625	25651
826.765	25734
826.904	25677
827.044	25400
827.183	25441
827.323	25381
827.462	25430
827.601	25491
827.741	25339
827.88	25354
828.02	25251
828.159	25308
828.298	25438
828.437	25373
828.577	25358
828.716	25365
828.855	25308
828.994	25148
829.134	24985
829.273	25118
829.412	24977
829.551	25076
829.69	25019
829.829	25137
829.968	25095
830.107	25110
830.246	25110
830.385	25103
830.524	24817
830.663	24833
830.802	24738
830.941	24661
831.08	24574
831.219	24821
831.357	24646
831.496	24932
831.635	24692
831.774	24525
831.913	24582
832.051	24475
832.19	24551
832.329	24509
832.467	24357
832.606	24262
832.744	24205
832.883	24281
833.022	24346
833.16	24467
833.299	24433
833.437	24266
833.576	24429
833.714	24289
833.852	24357
833.991	24410
834.129	24547
834.267	24490
834.406	24369
834.544	24369
834.682	24376
834.821	24502
834.959	24620
835.097	24437
835.235	24429
835.373	24464
835.511	24407
835.65	24133
835.788	24334
835.926	24144
836.064	24133
836.202	24015
836.34	24323
836.478	24285
836.615	24334
836.753	24232
836.891	24338
837.029	24079
837.167	24136
837.305	24136
837.443	23950
837.58	24003
837.718	24121
837.856	24015
837.993	24003
838.131	23916
838.269	23885
838.406	23958
838.544	23824
838.681	23699
838.819	23630
838.956	23562
839.094	23577
839.231	23490
839.369	23786
839.506	23999
839.643	23695
839.781	23577
839.918	23467
840.055	23600
840.193	23497
840.33	23440
840.467	23368
840.604	23463
840.742	23828
840.879	23322
841.016	23330
841.153	23356
841.29	23497
841.427	23474
841.564	23661
841.701	23379
841.838	23440
841.975	23284
842.112	23254
842.249	23391
842.385	23189
842.522	23376
842.659	23250
842.796	23296
842.933	23147
843.069	23083
843.206	23121
843.343	23349
843.479	23208
843.616	23284
843.752	22915
843.889	22991
844.025	23075
844.162	23041
844.298	23060
844.435	23018
844.571	22934
844.708	22999
844.844	23075
844.98	23162
845.117	23029
845.253	22885
845.389	22824
845.525	22900
845.661	22866
845.798	22649
845.934	22809
846.07	22630
846.206	22767
846.342	22698
846.478	22649
846.614	22424
846.75	22356
846.886	22462
847.022	22500
847.158	22440
847.294	22413
847.429	22413
847.565	22451
847.701	22664
847.837	22154
847.972	22154
848.108	22253
848.244	22276
848.379	22131
848.515	22158
848.65	21987
848.786	22067
848.921	22067
849.057	22143
849.192	22055
849.328	22059
849.463	21953
849.598	21915
849.734	21934
849.869	21789
850.004	21823
850.14	21743
850.275	21812
850.41	21770
850.545	21781
850.68	21789
850.815	21717
850.95	21812
851.085	22021
851.22	21888
851.355	21895
851.49	21816
851.625	21766
851.76	21785
851.895	21660
852.03	21667
852.165	21637
852.299	21869
852.434	21846
852.569	21930
852.703	21747
852.838	21720
852.973	21899
853.107	21994
853.242	21625
853.376	21583
853.511	21473
853.645	21447
853.78	21804
853.914	21507
854.048	21603
854.183	21576
854.317	21652
854.451	21846
854.585	21610
854.72	21507
854.854	21583
854.988	21382
855.122	21724
855.256	21428
855.39	21564
855.524	21519
855.658	21591
855.792	21629
855.926	21580
856.06	21583
856.194	21717
856.327	21568
856.461	21492
856.595	21557
856.729	21633
856.862	21728
856.996	21656
857.13	21713
857.263	21759
857.397	21762
857.53	21618
857.664	21606
857.797	21641
857.931	21732
858.064	21545
858.197	21698
858.331	21618
858.464	21629
858.597	21485
858.731	21557
858.864	21549
858.997	21667
859.13	21622
859.263	21549
859.396	21728
859.529	21618
859.662	21576
859.795	21545
859.928	21595
860.061	21705
860.194	21915
860.327	21732
860.46	21618
860.592	21679
860.725	21743
860.858	21770
860.99	21694
861.123	21549
861.256	21557
861.388	21492
861.521	22188
861.653	21458
861.786	21382
861.918	21344
862.05	21519
862.183	21504
862.315	21481
862.447	21637
862.58	21534
862.712	21325
862.844	21325
862.976	21412
863.108	21370
863.24	21808
863.372	21287
863.504	21321
863.636	21283
863.768	21272
863.9	21462
864.032	21237
864.164	21367
864.296	21291
864.428	21302
864.559	21420
864.691	21363
864.823	21428
864.954	21268
865.086	21211
865.217	21249
865.349	21104
865.48	21157
865.612	21222
865.743	21443
865.875	21287
866.006	21104
866.137	21169
866.269	21214
866.4	21146
866.531	21127
866.662	21108
866.793	21100
866.924	21055
867.055	21161
867.186	21176
867.317	21051
867.448	21070
867.579	20967
867.71	21131
867.841	21062
867.972	21085
868.103	21070
868.233	21131
868.364	21188
868.495	21195
868.625	21252
868.756	21530
868.886	21340
869.017	21393
869.147	21504
869.278	21549
869.408	21389
869.539	21321
869.669	21458
869.799	21401
869.929	21469
870.06	21545
870.19	21709
870.32	21606
870.45	21694
870.58	21789
870.71	21831
870.84	21766
870.97	21747
871.1	21671
871.23	22021
871.36	22006
871.489	21926
871.619	21941
871.749	22120
871.879	21899
872.008	22154
872.138	22021
872.267	22051
872.397	21873
872.526	21819
872.656	21701
872.785	21785
872.915	21903
873.044	21953
873.173	21922
873.303	21915
873.432	22048
873.561	22021
873.69	22086
873.819	22051
873.948	21960
874.077	21983
874.206	21892
874.335	21949
874.464	22029
874.593	22207
874.722	22211
874.851	22280
874.979	22215
875.108	22230
875.237	22116
875.365	22131
875.494	22109
875.623	22291
875.751	22128
875.88	22204
876.008	22333
876.136	22428
876.265	22596
876.393	22740
876.521	22656
876.65	22645
876.778	22577
876.906	22577
877.034	22451
877.162	22580
877.29	22481
877.418	22535
877.546	22436
877.674	22569
877.802	22531
877.93	22565
878.058	22500
878.185	22356
878.313	22527
878.441	22577
878.568	22352
878.696	22455
878.824	22649
878.951	22497
879.079	22767
879.206	22927
879.333	22759
879.461	22664
879.588	22580
879.715	22717
879.842	22771
879.97	22634
880.097	22303
880.224	22394
880.351	22451
880.478	22352
880.605	22394
880.732	22344
880.859	22569
880.986	22474
881.112	22382
881.239	22299
881.366	22169
881.493	22010
881.619	22010
881.746	22048
881.872	22048
881.999	21918
882.125	21781
882.252	21949
882.378	22006
882.505	22063
882.631	21785
882.757	21717
882.883	21793
883.01	21682
883.136	21766
883.262	21606
883.388	21564
883.514	21595
883.64	21774
883.766	21671
883.892	21420
884.018	21458
884.143	21511
884.269	21762
884.395	21386
884.52	21332
884.646	21374
884.772	21218
884.897	21119
885.023	21428
885.148	21294
885.274	21408
885.399	21302
885.524	21428
885.65	21218
885.775	21287
885.9	21344
886.025	21428
886.15	21302
886.275	21188
886.4	21260
886.525	21367
886.65	21093
886.775	21218
886.9	21382
887.025	21515
887.149	21268
887.274	21074
887.399	21123
887.523	21043
887.648	21020
887.773	20994
887.897	21169
888.021	21165
888.146	21055
888.27	21207
888.395	21085
888.519	21096
888.643	21062
888.767	21104
888.891	21013
889.015	20929
889.139	20933
889.263	20826
889.387	20979
889.511	21024
889.635	20963
889.759	20804
889.883	20830
890.006	20830
890.13	20921
890.254	20834
890.377	20693
890.501	20678
890.624	20602
890.748	20659
890.871	20499
890.995	20408
891.118	20389
891.241	20488
891.364	20450
891.488	20495
891.611	20370
891.734	20511
891.857	20450
891.98	20404
892.103	20545
892.226	20492
892.349	20252
892.471	20244
892.594	20366
892.717	20237
892.839	20309
892.962	20450
893.085	20355
893.207	20271
893.33	20218
893.452	20244
893.575	20404
893.697	20355
893.819	20415
893.941	20537
894.064	20408
894.186	20221
894.308	20149
894.43	20480
894.552	20377
894.674	20473
894.796	20172
894.918	20324
895.04	20263
895.161	20313
895.283	20404
895.405	20187
895.526	20271
895.648	20377
895.769	20366
895.891	20278
896.012	20480
896.134	20370
896.255	20263
896.376	20271
896.498	20385
896.619	20313
896.74	20355
896.861	20339
896.982	20564
897.103	20743
897.224	20701
897.345	20571
897.466	20408
897.587	20492
897.708	20575
897.828	20514
897.949	20682
898.07	20294
898.19	20404
898.311	20602
898.431	20454
898.552	20530
898.672	20640
898.792	20575
898.913	20507
899.033	20374
899.153	20408
899.273	20214
899.393	20240
899.513	20271
899.633	20400
899.753	20320
899.873	20191
899.993	20385
900.113	20240
900.232	20256
900.352	20153
900.472	20183
900.591	19989
900.711	20069
900.83	19986
900.95	20191
901.069	20157
901.189	19936
901.308	19734
901.427	19655
901.546	19597
901.665	19674
901.784	19704
901.904	19559
902.023	19324
902.141	19213
902.26	19126
902.379	19270
902.498	19190
902.617	19099
902.735	19213
902.854	19126
902.973	19034
903.091	18878
903.21	18867
903.328	18890
903.446	18768
903.565	18719
903.683	18631
903.801	18521
903.919	18544
904.038	18502
904.156	18273
904.274	18513
904.392	18296
904.51	18384
904.627	18342
904.745	18357
904.863	18410
904.981	18178
905.098	17954
905.216	18178
905.334	18125
905.451	18106
905.569	17992
905.686	18133
905.803	17923
905.921	17733
906.038	17836
906.155	17843
906.272	17661
906.389	17733
906.506	17570
906.623	17558
906.74	17615
906.857	17505
906.974	17383
907.091	17646
907.208	17726
907.324	17634
907.441	17463
907.557	17379
907.674	17311
907.79	17140
907.907	17178
908.023	17318
908.139	17303
908.256	17223
908.372	17094
908.488	17197
908.604	17079
908.72	16927
908.836	17029
908.952	16991
909.068	17208
909.184	17242
909.3	17006
909.415	16999
909.531	17033
909.647	16748
909.762	16755
909.878	16679
909.993	16805
910.108	16752
910.224	16717
910.339	16683
910.454	16554
910.57	16630
910.685	16440
910.8	16748
910.915	16645
911.03	16436
911.145	16394
911.259	16291
911.374	16367
911.489	16230
911.604	16200
911.718	15941
911.833	15968
911.947	15975
912.062	15869
912.176	16013
912.291	16097
912.405	16013
912.519	16238
912.633	16211
912.748	16109
912.862	16040
912.976	15812
913.09	15808
913.204	15823
913.318	15937
913.431	15854
913.545	15880
913.659	15945
913.772	15831
913.886	15694
914	15816
914.113	15762
914.226	15759
914.34	15747
914.453	15614
914.566	15641
914.68	15587
914.793	15428
914.906	15355
915.019	15268
915.132	15142
915.245	15252
915.358	15313
915.47	15222
915.583	15195
915.696	15218
915.809	15496
915.921	15378
916.034	15146
916.146	15173
916.259	15108
916.371	15222
916.483	15268
916.595	15077
916.708	15176
916.82	15077
916.932	15093
917.044	14975
917.156	15028
917.268	14876
917.38	14883
917.491	14918
917.603	14925
917.715	14971
917.826	15062
917.938	14811
918.049	14792
918.161	14960
918.272	14925
918.384	14990
918.495	14773
918.606	14693
918.717	14651
918.828	14727
918.939	14735
919.05	14640
919.161	14644
919.272	14389
919.383	14564
919.494	14693
919.604	14758
919.715	14701
919.826	14530
919.936	14651
920.047	14708
920.157	14678
920.267	14857
920.378	14693
920.488	14606
920.598	14788
920.708	14982
920.818	14716
920.928	14724
921.038	14994
921.148	14937
921.258	14575
921.368	14488
921.477	14301
921.587	14328
921.697	14210
921.806	14374
921.916	14202
922.025	14012
922.134	14039
922.244	14058
922.353	14065
922.462	13887
922.571	13784
922.68	13712
922.789	13647
922.898	13746
923.007	13578
923.116	13616
923.224	13647
923.333	13620
923.442	13464
923.55	13468
923.659	13563
923.767	13567
923.876	13445
923.984	13552
924.092	13411
924.201	13449
924.309	13373
924.417	13411
924.525	13259
924.633	13350
924.741	14130
924.849	13133
924.956	13232
925.064	13141
925.172	13072
925.279	12989
925.387	13076
925.494	13126
925.602	13213
925.709	13065
925.816	12962
925.924	12985
926.031	13107
926.138	13034
926.245	12996
926.352	12897
926.459	13046
926.566	13137
926.673	12947
926.779	12757
926.886	12734
926.993	12760
927.099	12536
927.206	12608
927.312	12574
927.419	12646
927.525	12608
927.631	12620
927.737	12544
927.843	12483
927.95	12372
928.056	12426
928.162	12479
928.267	12483
928.373	13095
928.479	12559
928.585	12330
928.69	12319
928.796	12471
928.901	12304
929.007	12213
929.112	12205
929.218	12205
929.323	12232
929.428	12175
929.533	12262
929.638	12136
929.743	12076
929.848	12171
929.953	12095
930.058	11969
930.163	11912
930.267	11901
930.372	11965
930.477	11817
930.581	12041
930.685	11889
930.79	11756
930.894	11771
930.998	11627
931.103	11779
931.207	11436
931.311	11452
931.415	11330
931.519	11121
931.623	11113
