Data from test_V78500241_452.txt Node
Date: Fri Mar 25 15:13:00 CST 2022
User: usil
Spectrometer: V785-0024
Trigger mode: 0
Integration Time (sec): 4.000000E-1
Scans to average: 1
Nonlinearity correction enabled: false
Boxcar width: 0
Storing dark spectrum: false
XAxis mode: Wavelengths
Number of Pixels in Spectrum: 1024
>>>>>Begin Spectral Data<<<<<
801.071	27100
801.214	27211
801.356	26937
801.499	26758
801.641	26762
801.783	26762
801.926	26819
802.068	26765
802.211	26682
802.353	26602
802.496	26366
802.638	26374
802.78	26389
802.923	26396
803.065	26199
803.208	26317
803.35	26381
803.492	26412
803.635	26514
803.777	26503
803.919	26389
804.061	26845
804.204	26511
804.346	26446
804.488	26317
804.63	26434
804.773	26290
804.915	26453
805.057	26579
805.199	26495
805.341	26602
805.483	26678
805.626	26552
805.768	26552
805.91	26606
806.052	26522
806.194	26499
806.336	26659
806.478	26457
806.62	26625
806.762	26712
806.904	26975
807.046	27119
807.188	27039
807.33	26967
807.472	27195
807.614	26952
807.756	26994
807.898	26940
808.04	26746
808.182	26777
808.324	26796
808.465	26948
808.607	26883
808.749	27157
808.891	27199
809.033	27397
809.174	27279
809.316	27104
809.458	27279
809.6	27119
809.741	27291
809.883	27370
810.025	27393
810.166	27458
810.308	27530
810.45	27439
810.591	27572
810.733	27355
810.875	27207
811.016	26963
811.158	27047
811.299	27237
811.441	27249
811.582	27424
811.724	27108
811.865	27135
812.007	27024
812.148	27150
812.29	27249
812.431	27195
812.573	27427
812.714	27542
812.855	27519
812.997	27755
813.138	27850
813.279	27850
813.421	27667
813.562	27819
813.703	27515
813.845	27473
813.986	27161
814.127	27135
814.268	26853
814.41	26857
814.551	26758
814.692	26861
814.833	26765
814.974	26788
815.115	26804
815.256	26815
815.397	26796
815.539	26720
815.68	26674
815.821	26564
815.962	26648
816.103	26533
816.244	26492
816.385	26442
816.526	26313
816.666	26278
816.807	25959
816.948	26195
817.089	26370
817.23	26275
817.371	26161
817.512	25890
817.653	26149
817.793	26138
817.934	26062
818.075	26122
818.216	26145
818.356	26119
818.497	25955
818.638	25761
818.778	25894
818.919	25932
819.06	25860
819.2	26081
819.341	26126
819.481	26172
819.622	26374
819.762	26511
819.903	26355
820.043	26229
820.184	26191
820.324	26218
820.465	26240
820.605	26240
820.746	26275
820.886	26096
821.026	26278
821.167	26092
821.307	26278
821.447	26142
821.588	26065
821.728	25947
821.868	25746
822.008	25666
822.149	25628
822.289	25502
822.429	25293
822.569	25308
822.709	25247
822.849	25095
822.99	25103
823.13	25023
823.27	25004
823.41	24837
823.55	24688
823.69	24894
823.83	24901
823.97	24928
824.11	24570
824.25	24661
824.389	24726
824.529	24760
824.669	24654
824.809	24970
824.949	24844
825.089	24646
825.228	24753
825.368	24517
825.508	24566
825.648	24673
825.787	24601
825.927	24635
826.067	24494
826.206	24593
826.346	24639
826.485	24528
826.625	24601
826.765	24696
826.904	24627
827.044	24391
827.183	24403
827.323	24220
827.462	24292
827.601	24308
827.741	24311
827.88	24456
828.02	24095
828.159	24372
828.298	24304
828.437	24376
828.577	24285
828.716	24350
828.855	24334
828.994	24022
829.134	24117
829.273	24003
829.412	23821
829.551	23965
829.69	23992
829.829	24083
829.968	24106
830.107	24079
830.246	24106
830.385	24003
830.524	23916
830.663	23843
830.802	23779
830.941	23611
831.08	23570
831.219	23726
831.357	23767
831.496	23870
831.635	23627
831.774	23661
831.913	23395
832.051	23452
832.19	23379
832.329	23497
832.467	23315
832.606	23227
832.744	23200
832.883	23292
833.022	23410
833.16	23220
833.299	23322
833.437	23341
833.576	23383
833.714	23372
833.852	23368
833.991	23376
834.129	23558
834.267	23543
834.406	23330
834.544	23421
834.682	23360
834.821	23364
834.959	23528
835.097	23387
835.235	23353
835.373	23406
835.511	23372
835.65	23140
835.788	23292
835.926	23155
836.064	23060
836.202	23208
836.34	23204
836.478	23303
836.615	23204
836.753	23181
836.891	23200
837.029	23288
837.167	23250
837.305	23102
837.443	23220
837.58	23048
837.718	23075
837.856	23132
837.993	23079
838.131	23227
838.269	22991
838.406	23079
838.544	22923
838.681	22812
838.819	22740
838.956	22523
839.094	22554
839.231	22599
839.369	22736
839.506	22923
839.643	22740
839.781	22557
839.918	22531
840.055	22500
840.193	22546
840.33	22436
840.467	22508
840.604	22417
840.742	22763
840.879	22325
841.016	22459
841.153	22440
841.29	22554
841.427	22432
841.564	22470
841.701	22478
841.838	22440
841.975	22386
842.112	22398
842.249	22272
842.385	22287
842.522	22451
842.659	22280
842.796	22253
842.933	22200
843.069	22234
843.206	22192
843.343	22348
843.479	22318
843.616	22200
843.752	22093
843.889	22120
844.025	22257
844.162	22063
844.298	22074
844.435	22143
844.571	22063
844.708	22067
844.844	22265
844.98	22070
845.117	22040
845.253	21987
845.389	22025
845.525	21960
845.661	21759
845.798	21838
845.934	21804
846.07	21641
846.206	21671
846.342	21960
846.478	21679
846.614	21526
846.75	21435
846.886	21424
847.022	21606
847.158	21351
847.294	21397
847.429	21595
847.565	21412
847.701	21709
847.837	21302
847.972	21203
848.108	21310
848.244	21264
848.379	21138
848.515	21081
848.65	21070
848.786	21184
848.921	21096
849.057	21291
849.192	21135
849.328	21237
849.463	21135
849.598	20956
849.734	21051
849.869	20929
850.004	20921
850.14	20769
850.275	20857
850.41	20800
850.545	20807
850.68	20868
850.815	20857
850.95	20956
851.085	21020
851.22	20941
851.355	20941
851.49	20796
851.625	20849
851.76	20796
851.895	20788
852.03	20712
852.165	20754
852.299	20857
852.434	20910
852.569	20952
852.703	20811
852.838	20876
852.973	20975
853.107	21005
853.242	20845
853.376	20731
853.511	20625
853.645	20648
853.78	20792
853.914	20674
854.048	20678
854.183	20785
854.317	20682
854.451	20861
854.585	20648
854.72	20708
854.854	20777
854.988	20651
855.122	20705
855.256	20663
855.39	20712
855.524	20762
855.658	20754
855.792	20735
855.926	20876
856.06	20781
856.194	20807
856.327	20708
856.461	20712
856.595	20617
856.729	20621
856.862	20731
856.996	20697
857.13	20842
857.263	20838
857.397	20792
857.53	20632
857.664	20781
857.797	20796
857.931	20746
858.064	20651
858.197	20910
858.331	20693
858.464	20594
858.597	20556
858.731	20727
858.864	20689
858.997	20492
859.13	20697
859.263	20777
859.396	20689
859.529	20640
859.662	20743
859.795	20609
859.928	20663
860.061	20853
860.194	20891
860.327	20758
860.46	20625
860.592	20716
860.725	20765
860.858	20777
860.99	20826
861.123	20629
861.256	20617
861.388	20724
861.521	21237
861.653	20606
861.786	20488
861.918	20476
862.05	20564
862.183	20484
862.315	20632
862.447	20724
862.58	20636
862.712	20427
862.844	20347
862.976	20564
863.108	20389
863.24	20868
863.372	20339
863.504	20370
863.636	20339
863.768	20461
863.9	20408
864.032	20275
864.164	20355
864.296	20324
864.428	20530
864.559	20389
864.691	20465
864.823	20431
864.954	20457
865.086	20499
865.217	20256
865.349	20172
865.48	20313
865.612	20278
865.743	20423
865.875	20290
866.006	20240
866.137	20362
866.269	20252
866.4	20336
866.531	20336
866.662	20100
866.793	20161
866.924	20275
867.055	20332
867.186	20286
867.317	20256
867.448	20161
867.579	20176
867.71	20153
867.841	20100
867.972	20195
868.103	20195
868.233	20229
868.364	20286
868.495	20301
868.625	20454
868.756	20636
868.886	20336
869.017	20434
869.147	20617
869.278	20594
869.408	20465
869.539	20526
869.669	20533
869.799	20556
869.929	20739
870.06	20609
870.19	20857
870.32	20807
870.45	20769
870.58	20853
870.71	21005
870.84	20990
870.97	20971
871.1	20918
871.23	21032
871.36	21051
871.489	20941
871.619	20982
871.749	20979
871.879	21195
872.008	20990
872.138	21131
872.267	21074
872.397	20880
872.526	20872
872.656	20986
872.785	20937
872.915	21074
873.044	21176
873.173	21127
873.303	21233
873.432	21169
873.561	21199
873.69	21192
873.819	21119
873.948	21131
874.077	21237
874.206	21028
874.335	21116
874.464	21294
874.593	21420
874.722	21408
874.851	21298
874.979	21370
875.108	21428
875.237	21230
875.365	21119
875.494	21260
875.623	21435
875.751	21370
875.88	21317
876.008	21507
876.136	21473
876.265	21675
876.393	21895
876.521	21808
876.65	21800
876.778	21797
876.906	21759
877.034	21724
877.162	21800
877.29	21622
877.418	21804
877.546	21686
877.674	21690
877.802	21766
877.93	21652
878.058	21663
878.185	21675
878.313	21580
878.441	21549
878.568	21447
878.696	21625
878.824	21652
878.951	21876
879.079	21918
879.206	21941
879.333	21816
879.461	21743
879.588	21762
879.715	21941
879.842	21998
879.97	21774
880.097	21561
880.224	21511
880.351	21610
880.478	21606
880.605	21530
880.732	21481
880.859	21709
880.986	21454
881.112	21622
881.239	21340
881.366	21252
881.493	21081
881.619	21093
881.746	21070
881.872	21169
881.999	21020
882.125	21085
882.252	21085
882.378	21104
882.505	21226
882.631	20994
882.757	20899
882.883	20857
883.01	20769
883.136	20724
883.262	20845
883.388	20648
883.514	20838
883.64	20815
883.766	20800
883.892	20609
884.018	20606
884.143	20727
884.269	20800
884.395	20480
884.52	20427
884.646	20431
884.772	20317
884.897	20370
885.023	20431
885.148	20609
885.274	20613
885.399	20552
885.524	20484
885.65	20461
885.775	20526
885.9	20434
886.025	20537
886.15	20415
886.275	20499
886.4	20313
886.525	20480
886.65	20317
886.775	20473
886.9	20575
887.025	20682
887.149	20564
887.274	20320
887.399	20244
887.523	20263
887.648	20199
887.773	20096
887.897	20457
888.021	20252
888.146	20172
888.27	20237
888.395	20423
888.519	20275
888.643	20278
888.767	20248
888.891	20039
889.015	20100
889.139	20100
889.263	20020
889.387	20122
889.511	20328
889.635	20286
889.759	20039
889.883	20027
890.006	19989
890.13	20115
890.254	20001
890.377	19955
890.501	19776
890.624	19746
890.748	19871
890.871	19746
890.995	19674
891.118	19696
891.241	19605
891.364	19616
891.488	19689
891.611	19719
891.734	19578
891.857	19799
891.98	19696
892.103	19662
892.226	19658
892.349	19628
892.471	19422
892.594	19582
892.717	19563
892.839	19346
892.962	19453
893.085	19537
893.207	19529
893.33	19426
893.452	19438
893.575	19723
893.697	19510
893.819	19670
893.941	19799
894.064	19685
894.186	19480
894.308	19381
894.43	19704
894.552	19681
894.674	19514
894.796	19449
894.918	19605
895.04	19441
895.161	19670
895.283	19651
895.405	19422
895.526	19468
895.648	19529
895.769	19441
895.891	19480
896.012	19518
896.134	19582
896.255	19548
896.376	19571
896.498	19480
896.619	19609
896.74	19662
896.861	19575
896.982	19970
897.103	20050
897.224	19856
897.345	19845
897.466	19765
897.587	19811
897.708	19978
897.828	19826
897.949	19788
898.07	19525
898.19	19601
898.311	19753
898.431	19674
898.552	19799
898.672	19830
898.792	19871
898.913	19719
899.033	19685
899.153	19548
899.273	19422
899.393	19556
899.513	19601
899.633	19635
899.753	19613
899.873	19540
899.993	19601
900.113	19460
900.232	19460
900.352	19331
900.472	19362
900.591	19327
900.711	19480
900.83	19202
900.95	19434
901.069	19396
901.189	19255
901.308	18924
901.427	18859
901.546	18890
901.665	18909
901.784	18909
901.904	18768
902.023	18681
902.141	18448
902.26	18357
902.379	18403
902.498	18445
902.617	18460
902.735	18498
902.854	18460
902.973	18353
903.091	18121
903.21	18121
903.328	18057
903.446	17965
903.565	17927
903.683	17977
903.801	17737
903.919	17870
904.038	17809
904.156	17733
904.274	17764
904.392	17748
904.51	17684
904.627	17608
904.745	17760
904.863	17600
904.981	17433
905.098	17341
905.216	17402
905.334	17505
905.451	17315
905.569	17341
905.686	17398
905.803	17318
905.921	17155
906.038	17296
906.155	17166
906.272	17014
906.389	17075
906.506	16927
906.623	16896
906.74	16873
906.857	16831
906.974	16911
907.091	16900
907.208	17041
907.324	16980
907.441	16790
907.557	16660
907.674	16683
907.79	16558
907.907	16584
908.023	16656
908.139	16580
908.256	16596
908.372	16470
908.488	16493
908.604	16390
908.72	16402
908.836	16299
908.952	16310
909.068	16428
909.184	16443
909.3	16295
909.415	16295
909.531	16413
909.647	16036
909.762	16055
909.878	16029
909.993	16010
910.108	16006
910.224	16063
910.339	16002
910.454	15945
910.57	15953
910.685	15823
910.8	16067
910.915	15998
911.03	15930
911.145	15781
911.259	15599
911.374	15618
911.489	15633
911.604	15545
911.718	15454
911.833	15412
911.947	15420
912.062	15291
912.176	15348
912.291	15386
912.405	15405
912.519	15572
912.633	15545
912.748	15454
912.862	15435
912.976	15298
913.09	15077
913.204	15233
913.318	15283
913.431	15344
913.545	15298
913.659	15348
913.772	15203
913.886	14998
914	15097
914.113	15169
914.226	15119
914.34	15154
914.453	14925
914.566	15116
914.68	14895
914.793	14929
914.906	14735
915.019	14708
915.132	14701
915.245	14689
915.358	14636
915.47	14701
915.583	14632
915.696	14686
915.809	14800
915.921	14830
916.034	14598
916.146	14682
916.259	14659
916.371	14648
916.483	14606
916.595	14507
916.708	14442
916.82	14488
916.932	14434
917.044	14552
917.156	14457
917.268	14347
917.38	14404
917.491	14309
917.603	14309
917.715	14423
917.826	14408
917.938	14180
918.049	14176
918.161	14240
918.272	14320
918.384	14412
918.495	14237
918.606	14111
918.717	14069
918.828	14126
918.939	14142
919.05	14012
919.161	14046
919.272	13894
919.383	13932
919.494	14172
919.604	14309
919.715	14119
919.826	14020
919.936	14058
920.047	14138
920.157	14027
920.267	14233
920.378	14058
920.488	14069
920.598	14244
920.708	14385
920.818	14202
920.928	14248
921.038	14374
921.148	14396
921.258	14111
921.368	13959
921.477	13913
921.587	13898
921.697	13753
921.806	13925
921.916	13765
922.025	13582
922.134	13518
922.244	13464
922.353	13468
922.462	13308
922.571	13213
922.68	13240
922.789	13145
922.898	13251
923.007	13137
923.116	13228
923.224	13133
923.333	13133
923.442	13015
923.55	13069
923.659	13088
923.767	13046
923.876	12878
923.984	13034
924.092	12833
924.201	12939
924.309	12886
924.417	12913
924.525	12867
924.633	12772
924.741	13693
924.849	12642
924.956	12833
925.064	12669
925.172	12662
925.279	12582
925.387	12547
925.494	12585
925.602	12749
925.709	12677
925.816	12521
925.924	12650
926.031	12631
926.138	12563
926.245	12578
926.352	12456
926.459	12574
926.566	12639
926.673	12517
926.779	12300
926.886	12296
926.993	12224
927.099	12155
927.206	12140
927.312	12133
927.419	12190
927.525	12159
927.631	12125
927.737	12022
927.843	12045
927.95	11969
928.056	12019
928.162	11999
928.267	12087
928.373	12681
928.479	12087
928.585	11809
928.69	12015
928.796	12026
928.901	11984
929.007	11729
929.112	11764
929.218	11794
929.323	11767
929.428	11745
929.533	11878
929.638	11668
929.743	11745
929.848	11775
929.953	11691
930.058	11623
930.163	11471
930.267	11387
930.372	11551
930.477	11417
930.581	11558
930.685	11402
930.79	11311
930.894	11307
930.998	11307
931.103	11376
931.207	11067
931.311	11025
931.415	10908
931.519	10767
931.623	10698
