Data from test_V78500241_2125.txt Node
Date: Fri Mar 25 15:24:39 CST 2022
User: usil
Spectrometer: V785-0024
Trigger mode: 0
Integration Time (sec): 4.000000E-1
Scans to average: 1
Nonlinearity correction enabled: false
Boxcar width: 0
Storing dark spectrum: false
XAxis mode: Wavelengths
Number of Pixels in Spectrum: 1024
>>>>>Begin Spectral Data<<<<<
801.071	27454
801.214	27435
801.356	27252
801.499	27127
801.641	27036
801.783	27013
801.926	26887
802.068	26971
802.211	26975
802.353	26823
802.496	26655
802.638	26667
802.78	26590
802.923	26594
803.065	26495
803.208	26609
803.35	26636
803.492	26765
803.635	26834
803.777	26708
803.919	26743
804.061	27108
804.204	26902
804.346	26868
804.488	26750
804.63	26693
804.773	26842
804.915	26750
805.057	26967
805.199	26727
805.341	26857
805.483	27062
805.626	26872
805.768	26765
805.91	26887
806.052	26899
806.194	26940
806.336	27119
806.478	26849
806.62	26895
806.762	27024
806.904	27150
807.046	27374
807.188	27336
807.33	27344
807.472	27424
807.614	27306
807.756	27329
807.898	27321
808.04	27085
808.182	27058
808.324	27252
808.465	27214
808.607	27534
808.749	27663
808.891	27591
809.033	27622
809.174	27637
809.316	27622
809.458	27519
809.6	27462
809.741	27701
809.883	27595
810.025	27926
810.166	27888
810.308	27816
810.45	27823
810.591	27671
810.733	27644
810.875	27618
811.016	27458
811.158	27435
811.299	27485
811.441	27618
811.582	27557
811.724	27553
811.865	27488
812.007	27420
812.148	27424
812.29	27663
812.431	27587
812.573	27766
812.714	27956
812.855	28154
812.997	28200
813.138	28284
813.279	28074
813.421	28055
813.562	27975
813.703	27808
813.845	27762
813.986	27317
814.127	27226
814.268	27150
814.41	27272
814.551	27329
814.692	27176
814.833	27096
814.974	27127
815.115	27233
815.256	27036
815.397	26906
815.539	27108
815.68	26914
815.821	26891
815.962	27066
816.103	27028
816.244	26727
816.385	26739
816.526	26769
816.666	26602
816.807	26404
816.948	26381
817.089	26640
817.23	26651
817.371	26549
817.512	26488
817.653	26434
817.793	26461
817.934	26488
818.075	26484
818.216	26575
818.356	26518
818.497	26343
818.638	26199
818.778	26278
818.919	26252
819.06	26138
819.2	26317
819.341	26400
819.481	26366
819.622	26461
819.762	26644
819.903	26686
820.043	26796
820.184	26598
820.324	26598
820.465	26522
820.605	26743
820.746	26518
820.886	26374
821.026	26560
821.167	26480
821.307	26598
821.447	26415
821.588	26191
821.728	26187
821.868	25997
822.008	25932
822.149	26058
822.289	25765
822.429	25719
822.569	25578
822.709	25563
822.849	25457
822.99	25499
823.13	25358
823.27	25365
823.41	25145
823.55	25187
823.69	25324
823.83	25255
823.97	25240
824.11	25095
824.25	24981
824.389	24981
824.529	25114
824.669	25145
824.809	24958
824.949	25221
825.089	25198
825.228	25015
825.368	25099
825.508	24901
825.648	24886
825.787	25027
825.927	24863
826.067	24863
826.206	24894
826.346	24989
826.485	24958
826.625	24905
826.765	25034
826.904	24867
827.044	24635
827.183	24673
827.323	24608
827.462	24604
827.601	24582
827.741	24589
827.88	24604
828.02	24498
828.159	24642
828.298	24566
828.437	24642
828.577	24521
828.716	24585
828.855	24479
828.994	24361
829.134	24205
829.273	24277
829.412	24266
829.551	24243
829.69	24285
829.829	24311
829.968	24289
830.107	24300
830.246	24395
830.385	24155
830.524	24136
830.663	24034
830.802	24045
830.941	23908
831.08	23863
831.219	24022
831.357	24091
831.496	24205
831.635	23912
831.774	23764
831.913	23866
832.051	23760
832.19	23570
832.329	23691
832.467	23638
832.606	23551
832.744	23627
832.883	23608
833.022	23455
833.16	23562
833.299	23649
833.437	23649
833.576	23627
833.714	23699
833.852	23691
833.991	23653
834.129	23687
834.267	23752
834.406	23695
834.544	23547
834.682	23695
834.821	23592
834.959	23775
835.097	23474
835.235	23634
835.373	23691
835.511	23687
835.65	23440
835.788	23501
835.926	23307
836.064	23269
836.202	23307
836.34	23501
836.478	23509
836.615	23322
836.753	23410
836.891	23539
837.029	23585
837.167	23273
837.305	23353
837.443	23391
837.58	23337
837.718	23436
837.856	23383
837.993	23250
838.131	23345
838.269	23064
838.406	23204
838.544	23132
838.681	23041
838.819	22980
838.956	22752
839.094	22828
839.231	22889
839.369	23044
839.506	23159
839.643	23022
839.781	22736
839.918	22850
840.055	22793
840.193	22713
840.33	22649
840.467	22710
840.604	22698
840.742	22915
840.879	22611
841.016	22649
841.153	22588
841.29	22869
841.427	22626
841.564	22725
841.701	22763
841.838	22637
841.975	22656
842.112	22565
842.249	22489
842.385	22356
842.522	22664
842.659	22569
842.796	22615
842.933	22478
843.069	22367
843.206	22462
843.343	22584
843.479	22451
843.616	22440
843.752	22276
843.889	22280
844.025	22443
844.162	22303
844.298	22348
844.435	22207
844.571	22200
844.708	22188
844.844	22421
844.98	22360
845.117	22394
845.253	22143
845.389	22105
845.525	22116
845.661	22166
845.798	21945
845.934	22025
846.07	21972
846.206	21956
846.342	22143
846.478	21941
846.614	21800
846.75	21644
846.886	21751
847.022	21884
847.158	21918
847.294	21717
847.429	21804
847.565	21713
847.701	22025
847.837	21458
847.972	21454
848.108	21542
848.244	21439
848.379	21294
848.515	21279
848.65	21298
848.786	21348
848.921	21344
849.057	21431
849.192	21401
849.328	21241
849.463	21351
849.598	21169
849.734	21123
849.869	21256
850.004	21112
850.14	21081
850.275	21051
850.41	21066
850.545	21017
850.68	20952
850.815	21058
850.95	21020
851.085	21207
851.22	21184
851.355	21108
851.49	20986
851.625	21055
851.76	21070
851.895	20918
852.03	20994
852.165	21051
852.299	21100
852.434	21066
852.569	21051
852.703	21085
852.838	21119
852.973	21279
853.107	21264
853.242	20982
853.376	20880
853.511	20762
853.645	20838
853.78	21074
853.914	20857
854.048	20933
854.183	20853
854.317	20967
854.451	21100
854.585	20887
854.72	20948
854.854	20937
854.988	20891
855.122	20849
855.256	20792
855.39	20826
855.524	21066
855.658	20944
855.792	20918
855.926	20925
856.06	20906
856.194	21096
856.327	20880
856.461	20967
856.595	20773
856.729	20724
856.862	21070
856.996	21074
857.13	20853
857.263	21005
857.397	20918
857.53	20830
857.664	20906
857.797	20914
857.931	20887
858.064	20864
858.197	20986
858.331	20895
858.464	20861
858.597	20834
858.731	20902
858.864	20857
858.997	20842
859.13	20963
859.263	20967
859.396	20918
859.529	20891
859.662	20941
859.795	20937
859.928	20929
860.061	21161
860.194	21123
860.327	20853
860.46	20902
860.592	20979
860.725	21005
860.858	21036
860.99	20941
861.123	20842
861.256	20883
861.388	20880
861.521	21622
861.653	20746
861.786	20705
861.918	20796
862.05	20655
862.183	20800
862.315	20807
862.447	20754
862.58	20838
862.712	20682
862.844	20511
862.976	20598
863.108	20655
863.24	21074
863.372	20385
863.504	20590
863.636	20590
863.768	20564
863.9	20583
864.032	20533
864.164	20568
864.296	20735
864.428	20792
864.559	20556
864.691	20598
864.823	20640
864.954	20670
865.086	20587
865.217	20537
865.349	20446
865.48	20419
865.612	20598
865.743	20705
865.875	20640
866.006	20427
866.137	20499
866.269	20450
866.4	20469
866.531	20450
866.662	20313
866.793	20415
866.924	20476
867.055	20408
867.186	20389
867.317	20332
867.448	20298
867.579	20362
867.71	20244
867.841	20400
867.972	20446
868.103	20313
868.233	20415
868.364	20362
868.495	20454
868.625	20625
868.756	20834
868.886	20575
869.017	20568
869.147	20815
869.278	20868
869.408	20655
869.539	20655
869.669	20834
869.799	20735
869.929	20815
870.06	20697
870.19	21043
870.32	21013
870.45	21013
870.58	21074
870.71	21077
870.84	21241
870.97	20986
871.1	21009
871.23	21230
871.36	21428
871.489	21157
871.619	21291
871.749	21135
871.879	21310
872.008	21481
872.138	21279
872.267	21211
872.397	21249
872.526	21070
872.656	21066
872.785	21161
872.915	21313
873.044	21329
873.173	21348
873.303	21348
873.432	21252
873.561	21298
873.69	21317
873.819	21359
873.948	21485
874.077	21203
874.206	21260
874.335	21192
874.464	21466
874.593	21564
874.722	21454
874.851	21686
874.979	21485
875.108	21583
875.237	21561
875.365	21332
875.494	21542
875.623	21561
875.751	21511
875.88	21549
876.008	21572
876.136	21701
876.265	21892
876.393	21983
876.521	22055
876.65	21953
876.778	21865
876.906	21861
877.034	21934
877.162	21827
877.29	21690
877.418	21892
877.546	21922
877.674	21884
877.802	21865
877.93	21804
878.058	21827
878.185	21724
878.313	21778
878.441	21850
878.568	21762
878.696	21804
878.824	21903
878.951	21861
879.079	22036
879.206	22196
879.333	22025
879.461	22013
879.588	21960
879.715	22093
879.842	22143
879.97	21968
880.097	21835
880.224	21831
880.351	21736
880.478	21743
880.605	21568
880.732	21709
880.859	21937
880.986	21682
881.112	21759
881.239	21583
881.366	21420
881.493	21348
881.619	21260
881.746	21336
881.872	21272
881.999	21374
882.125	21188
882.252	21222
882.378	21226
882.505	21374
882.631	21203
882.757	20925
882.883	21058
883.01	21001
883.136	21001
883.262	20842
883.388	20834
883.514	21009
883.64	21020
883.766	20887
883.892	20686
884.018	20724
884.143	20861
884.269	20967
884.395	20682
884.52	20606
884.646	20735
884.772	20526
884.897	20507
885.023	20609
885.148	20697
885.274	20830
885.399	20659
885.524	20663
885.65	20636
885.775	20648
885.9	20617
886.025	20594
886.15	20670
886.275	20499
886.4	20636
886.525	20590
886.65	20621
886.775	20674
886.9	20663
887.025	20788
887.149	20590
887.274	20355
887.399	20396
887.523	20362
887.648	20351
887.773	20244
887.897	20431
888.021	20431
888.146	20351
888.27	20537
888.395	20552
888.519	20408
888.643	20499
888.767	20343
888.891	20206
889.015	20126
889.139	20263
889.263	20218
889.387	20351
889.511	20450
889.635	20301
889.759	20206
889.883	20164
890.006	20088
890.13	20202
890.254	20096
890.377	20115
890.501	20005
890.624	19761
890.748	19986
890.871	19845
890.995	19826
891.118	19746
891.241	19731
891.364	19734
891.488	19913
891.611	19852
891.734	19731
891.857	19928
891.98	19700
892.103	19799
892.226	19814
892.349	19708
892.471	19647
892.594	19681
892.717	19727
892.839	19704
892.962	19757
893.085	19837
893.207	19784
893.33	19597
893.452	19624
893.575	19871
893.697	19662
893.819	19822
893.941	19860
894.064	19807
894.186	19594
894.308	19723
894.43	19731
894.552	19879
894.674	19784
894.796	19571
894.918	19818
895.04	19696
895.161	19852
895.283	19727
895.405	19700
895.526	19738
895.648	19677
895.769	19784
895.891	19734
896.012	19757
896.134	19814
896.255	19704
896.376	19662
896.498	19674
896.619	19712
896.74	19620
896.861	19795
896.982	19993
897.103	20069
897.224	19902
897.345	19944
897.466	19883
897.587	19925
897.708	20039
897.828	20035
897.949	19818
898.07	19685
898.19	19917
898.311	20005
898.431	19750
898.552	19917
898.672	19978
898.792	20115
898.913	19902
899.033	19826
899.153	19723
899.273	19651
899.393	19620
899.513	19750
899.633	19662
899.753	19639
899.873	19647
899.993	19643
900.113	19681
900.232	19666
900.352	19586
900.472	19590
900.591	19457
900.711	19476
900.83	19377
900.95	19578
901.069	19491
901.189	19373
901.308	19099
901.427	19015
901.546	19148
901.665	19084
901.784	19038
901.904	19000
902.023	18833
902.141	18692
902.26	18585
902.379	18730
902.498	18563
902.617	18578
902.735	18627
902.854	18544
902.973	18559
903.091	18235
903.21	18308
903.328	18262
903.446	18140
903.565	18091
903.683	18045
903.801	18015
903.919	18049
904.038	18022
904.156	17843
904.274	17946
904.392	17824
904.51	17855
904.627	17863
904.745	17851
904.863	17855
904.981	17722
905.098	17524
905.216	17592
905.334	17490
905.451	17528
905.569	17463
905.686	17653
905.803	17493
905.921	17452
906.038	17315
906.155	17212
906.272	17181
906.389	17212
906.506	17018
906.623	17025
906.74	17048
906.857	16873
906.974	16968
907.091	17067
907.208	17216
907.324	16968
907.441	17006
907.557	16919
907.674	16816
907.79	16634
907.907	16641
908.023	16801
908.139	16698
908.256	16729
908.372	16683
908.488	16672
908.604	16596
908.72	16508
908.836	16531
908.952	16443
909.068	16462
909.184	16634
909.3	16481
909.415	16512
909.531	16436
909.647	16246
909.762	16181
909.878	16234
909.993	16215
910.108	16226
910.224	16135
910.339	16188
910.454	16025
910.57	16006
910.685	15937
910.8	16211
910.915	16143
911.03	15983
911.145	15915
911.259	15751
911.374	15804
911.489	15671
911.604	15641
911.718	15496
911.833	15561
911.947	15454
912.062	15344
912.176	15557
912.291	15553
912.405	15439
912.519	15720
912.633	15717
912.748	15603
912.862	15496
912.976	15405
913.09	15195
913.204	15264
913.318	15317
913.431	15542
913.545	15447
913.659	15439
913.772	15340
913.886	15176
914	15256
914.113	15169
914.226	15321
914.34	15173
914.453	15036
914.566	15195
914.68	15062
914.793	15028
914.906	14979
915.019	14777
915.132	14678
915.245	14712
915.358	14735
915.47	14796
915.583	14853
915.696	14792
915.809	14918
915.921	14944
916.034	14724
916.146	14773
916.259	14667
916.371	14876
916.483	14727
916.595	14629
916.708	14571
916.82	14606
916.932	14590
917.044	14621
917.156	14602
917.268	14457
917.38	14514
917.491	14511
917.603	14377
917.715	14480
917.826	14640
917.938	14374
918.049	14324
918.161	14408
918.272	14480
918.384	14507
918.495	14381
918.606	14275
918.717	14183
918.828	14206
918.939	14161
919.05	14103
919.161	14210
919.272	13868
919.383	14054
919.494	14180
919.604	14400
919.715	14176
919.826	14088
919.936	14145
920.047	14336
920.157	14180
920.267	14237
920.378	14202
920.488	14168
920.598	14320
920.708	14469
920.818	14244
920.928	14282
921.038	14438
921.148	14415
921.258	14145
921.368	14058
921.477	13841
921.587	13909
921.697	13841
921.806	13742
921.916	13742
922.025	13590
922.134	13567
922.244	13483
922.353	13613
922.462	13510
922.571	13468
922.68	13312
922.789	13194
922.898	13308
923.007	13103
923.116	13160
923.224	13190
923.333	13259
923.442	13095
923.55	13012
923.659	13008
923.767	13168
923.876	12970
923.984	13137
924.092	12943
924.201	13103
924.309	13015
924.417	13008
924.525	12878
924.633	12894
924.741	13674
924.849	12703
924.956	12806
925.064	12783
925.172	12646
925.279	12662
925.387	12692
925.494	12642
925.602	12738
925.709	12715
925.816	12616
925.924	12551
926.031	12684
926.138	12669
926.245	12658
926.352	12551
926.459	12650
926.566	12688
926.673	12555
926.779	12525
926.886	12262
926.993	12239
927.099	12254
927.206	12148
927.312	12186
927.419	12247
927.525	12213
927.631	12228
927.737	12133
927.843	12171
927.95	12053
928.056	12034
928.162	12091
928.267	12167
928.373	12639
928.479	12076
928.585	11958
928.69	12068
928.796	12072
928.901	11984
929.007	11752
929.112	11904
929.218	11942
929.323	11832
929.428	11783
929.533	11977
929.638	11691
929.743	11707
929.848	11786
929.953	11748
930.058	11558
930.163	11436
930.267	11471
930.372	11638
930.477	11395
930.581	11634
930.685	11554
930.79	11414
930.894	11398
930.998	11368
931.103	11501
931.207	11128
931.311	11109
931.415	10919
931.519	10790
931.623	10820
