Data from test_V78500241_2414.txt Node
Date: Fri Mar 25 15:26:40 CST 2022
User: usil
Spectrometer: V785-0024
Trigger mode: 0
Integration Time (sec): 4.000000E-1
Scans to average: 1
Nonlinearity correction enabled: false
Boxcar width: 0
Storing dark spectrum: false
XAxis mode: Wavelengths
Number of Pixels in Spectrum: 1024
>>>>>Begin Spectral Data<<<<<
801.071	27214
801.214	27146
801.356	26940
801.499	26963
801.641	26773
801.783	26686
801.926	26754
802.068	26754
802.211	26716
802.353	26571
802.496	26488
802.638	26275
802.78	26438
802.923	26218
803.065	26218
803.208	26415
803.35	26457
803.492	26431
803.635	26568
803.777	26473
803.919	26629
804.061	26929
804.204	26651
804.346	26571
804.488	26473
804.63	26613
804.773	26370
804.915	26507
805.057	26598
805.199	26450
805.341	26575
805.483	26644
805.626	26583
805.768	26564
805.91	26648
806.052	26716
806.194	26549
806.336	26663
806.478	26617
806.62	26602
806.762	26697
806.904	26948
807.046	27192
807.188	26994
807.33	27096
807.472	27116
807.614	26921
807.756	27165
807.898	26914
808.04	26906
808.182	26769
808.324	26963
808.465	26956
808.607	27169
808.749	27116
808.891	27298
809.033	27424
809.174	27199
809.316	27233
809.458	27306
809.6	27188
809.741	27279
809.883	27329
810.025	27443
810.166	27469
810.308	27458
810.45	27431
810.591	27378
810.733	27310
810.875	27188
811.016	27077
811.158	27047
811.299	27116
811.441	27287
811.582	27302
811.724	27207
811.865	27214
812.007	27226
812.148	27233
812.29	27348
812.431	27374
812.573	27572
812.714	27591
812.855	27736
812.997	27793
813.138	27808
813.279	27975
813.421	27701
813.562	27553
813.703	27473
813.845	27424
813.986	27169
814.127	26906
814.268	26887
814.41	27032
814.551	26762
814.692	26971
814.833	26872
814.974	26849
815.115	26773
815.256	26716
815.397	26933
815.539	26655
815.68	26556
815.821	26488
815.962	26644
816.103	26533
816.244	26556
816.385	26518
816.526	26450
816.666	26309
816.807	26081
816.948	26195
817.089	26237
817.23	26210
817.371	26161
817.512	26126
817.653	26145
817.793	25978
817.934	26119
818.075	26115
818.216	26229
818.356	26096
818.497	26005
818.638	25864
818.778	25830
818.919	25765
819.06	25925
819.2	25974
819.341	26077
819.481	26145
819.622	26286
819.762	26503
819.903	26469
820.043	26313
820.184	26320
820.324	26328
820.465	26438
820.605	26229
820.746	26275
820.886	26172
821.026	26240
821.167	26191
821.307	26298
821.447	26161
821.588	26020
821.728	25871
821.868	25689
822.008	25655
822.149	25548
822.289	25472
822.429	25491
822.569	25301
822.709	25240
822.849	25118
822.99	25187
823.13	25133
823.27	25221
823.41	24981
823.55	24852
823.69	24909
823.83	24973
823.97	25023
824.11	24639
824.25	24684
824.389	24707
824.529	24833
824.669	24749
824.809	24886
824.949	24852
825.089	24829
825.228	24859
825.368	24650
825.508	24601
825.648	24688
825.787	24661
825.927	24623
826.067	24620
826.206	24536
826.346	24654
826.485	24700
826.625	24540
826.765	24696
826.904	24669
827.044	24372
827.183	24350
827.323	24239
827.462	24353
827.601	24315
827.741	24319
827.88	24296
828.02	24144
828.159	24300
828.298	24376
828.437	24323
828.577	24285
828.716	24369
828.855	24247
828.994	24098
829.134	23893
829.273	24178
829.412	23817
829.551	23958
829.69	23996
829.829	23874
829.968	24136
830.107	24110
830.246	24030
830.385	23980
830.524	23958
830.663	23805
830.802	23794
830.941	23756
831.08	23604
831.219	23733
831.357	23699
831.496	23897
831.635	23646
831.774	23585
831.913	23543
832.051	23520
832.19	23322
832.329	23337
832.467	23334
832.606	23208
832.744	23235
832.883	23200
833.022	23277
833.16	23337
833.299	23246
833.437	23296
833.576	23387
833.714	23383
833.852	23444
833.991	23471
834.129	23463
834.267	23414
834.406	23353
834.544	23402
834.682	23406
834.821	23360
834.959	23520
835.097	23364
835.235	23421
835.373	23455
835.511	23467
835.65	23307
835.788	23189
835.926	23223
836.064	22999
836.202	23003
836.34	23277
836.478	23448
836.615	23208
836.753	23299
836.891	23220
837.029	23216
837.167	23094
837.305	23159
837.443	23208
837.58	23170
837.718	23098
837.856	22957
837.993	23056
838.131	23003
838.269	22976
838.406	22987
838.544	22885
838.681	22660
838.819	22767
838.956	22607
839.094	22607
839.231	22668
839.369	22793
839.506	22972
839.643	22721
839.781	22447
839.918	22451
840.055	22580
840.193	22569
840.33	22432
840.467	22470
840.604	22519
840.742	22755
840.879	22356
841.016	22356
841.153	22344
841.29	22516
841.427	22356
841.564	22409
841.701	22596
841.838	22481
841.975	22451
842.112	22348
842.249	22219
842.385	22352
842.522	22466
842.659	22249
842.796	22257
842.933	22166
843.069	22158
843.206	22112
843.343	22375
843.479	22219
843.616	22173
843.752	21953
843.889	21972
844.025	22188
844.162	22093
844.298	22135
844.435	22036
844.571	22051
844.708	22040
844.844	22105
844.98	22188
845.117	22044
845.253	22044
845.389	21937
845.525	21983
845.661	21770
845.798	21736
845.934	21835
846.07	21675
846.206	21713
846.342	21880
846.478	21778
846.614	21450
846.75	21340
846.886	21485
847.022	21477
847.158	21580
847.294	21663
847.429	21576
847.565	21466
847.701	21724
847.837	21214
847.972	21329
848.108	21294
848.244	21249
848.379	21112
848.515	21001
848.65	21032
848.786	21070
848.921	21077
849.057	21207
849.192	21119
849.328	21089
849.463	21036
849.598	20960
849.734	21051
849.869	20921
850.004	20815
850.14	21017
850.275	20899
850.41	20746
850.545	20762
850.68	20842
850.815	20887
850.95	20891
851.085	21077
851.22	21055
851.355	20849
851.49	20788
851.625	20750
851.76	20800
851.895	20773
852.03	20762
852.165	20769
852.299	20807
852.434	20963
852.569	20899
852.703	20762
852.838	20823
852.973	21036
853.107	20952
853.242	20807
853.376	20838
853.511	20526
853.645	20648
853.78	20921
853.914	20686
854.048	20568
854.183	20674
854.317	20689
854.451	20921
854.585	20632
854.72	20636
854.854	20651
854.988	20556
855.122	20724
855.256	20499
855.39	20609
855.524	20834
855.658	20762
855.792	20727
855.926	20731
856.06	20598
856.194	20769
856.327	20743
856.461	20735
856.595	20617
856.729	20670
856.862	20796
856.996	20686
857.13	20758
857.263	20921
857.397	20739
857.53	20739
857.664	20716
857.797	20667
857.931	20727
858.064	20640
858.197	20769
858.331	20632
858.464	20476
858.597	20556
858.731	20579
858.864	20716
858.997	20514
859.13	20720
859.263	20743
859.396	20735
859.529	20609
859.662	20670
859.795	20670
859.928	20716
860.061	20845
860.194	20880
860.327	20807
860.46	20682
860.592	20701
860.725	20807
860.858	20792
860.99	20800
861.123	20667
861.256	20556
861.388	20609
861.521	21241
861.653	20537
861.786	20537
861.918	20446
862.05	20655
862.183	20682
862.315	20514
862.447	20621
862.58	20697
862.712	20419
862.844	20396
862.976	20518
863.108	20393
863.24	20594
863.372	20362
863.504	20389
863.636	20271
863.768	20377
863.9	20351
864.032	20332
864.164	20294
864.296	20396
864.428	20545
864.559	20347
864.691	20511
864.823	20461
864.954	20385
865.086	20381
865.217	20309
865.349	20202
865.48	20237
865.612	20320
865.743	20377
865.875	20294
866.006	20282
866.137	20320
866.269	20377
866.4	20286
866.531	20149
866.662	20161
866.793	20092
866.924	20084
867.055	20183
867.186	20339
867.317	20183
867.448	20237
867.579	20195
867.71	20088
867.841	20054
867.972	20320
868.103	20214
868.233	20187
868.364	20115
868.495	20351
868.625	20511
868.756	20613
868.886	20442
869.017	20537
869.147	20492
869.278	20473
869.408	20667
869.539	20393
869.669	20587
869.799	20526
869.929	20575
870.06	20640
870.19	20754
870.32	20697
870.45	20701
870.58	20815
870.71	20914
870.84	20975
870.97	20864
871.1	20819
871.23	20971
871.36	21157
871.489	20906
871.619	20948
871.749	21077
871.879	20998
872.008	21199
872.138	21131
872.267	21017
872.397	21009
872.526	20990
872.656	20838
872.785	20864
872.915	21154
873.044	21123
873.173	21135
873.303	21074
873.432	21165
873.561	21230
873.69	21154
873.819	21146
873.948	21291
874.077	21150
874.206	20944
874.335	21131
874.464	21252
874.593	21344
874.722	21439
874.851	21332
874.979	21374
875.108	21359
875.237	21298
875.365	21192
875.494	21268
875.623	21313
875.751	21268
875.88	21226
876.008	21469
876.136	21648
876.265	21747
876.393	21770
876.521	21736
876.65	21895
876.778	21736
876.906	21698
877.034	21629
877.162	21698
877.29	21637
877.418	21698
877.546	21743
877.674	21743
877.802	21717
877.93	21671
878.058	21641
878.185	21553
878.313	21686
878.441	21641
878.568	21564
878.696	21595
878.824	21720
878.951	21739
879.079	21937
879.206	21964
879.333	21865
879.461	21633
879.588	21816
879.715	21789
879.842	21918
879.97	21774
880.097	21435
880.224	21428
880.351	21477
880.478	21625
880.605	21557
880.732	21587
880.859	21724
880.986	21545
881.112	21504
881.239	21378
881.366	21283
881.493	21195
881.619	21089
881.746	21108
881.872	21142
881.999	21051
882.125	21017
882.252	21241
882.378	21062
882.505	21203
882.631	20990
882.757	20773
882.883	20887
883.01	20853
883.136	20731
883.262	20697
883.388	20659
883.514	20697
883.64	20895
883.766	20640
883.892	20560
884.018	20655
884.143	20697
884.269	20804
884.395	20560
884.52	20400
884.646	20503
884.772	20389
884.897	20393
885.023	20495
885.148	20606
885.274	20682
885.399	20469
885.524	20446
885.65	20442
885.775	20533
885.9	20434
886.025	20549
886.15	20564
886.275	20351
886.4	20294
886.525	20465
886.65	20362
886.775	20419
886.9	20469
887.025	20629
887.149	20317
887.274	20278
887.399	20172
887.523	20240
887.648	20161
887.773	20046
887.897	20362
888.021	20237
888.146	20164
888.27	20362
888.395	20320
888.519	20294
888.643	20229
888.767	20339
888.891	20221
889.015	19974
889.139	20115
889.263	20077
889.387	20164
889.511	20275
889.635	20180
889.759	20054
889.883	19986
890.006	19959
890.13	20027
890.254	19932
890.377	19974
890.501	19734
890.624	19719
890.748	19799
890.871	19757
890.995	19624
891.118	19548
891.241	19727
891.364	19582
891.488	19693
891.611	19639
891.734	19559
891.857	19578
891.98	19719
892.103	19635
892.226	19613
892.349	19556
892.471	19381
892.594	19571
892.717	19651
892.839	19567
892.962	19628
893.085	19552
893.207	19525
893.33	19514
893.452	19438
893.575	19590
893.697	19544
893.819	19681
893.941	19765
894.064	19677
894.186	19521
894.308	19457
894.43	19609
894.552	19662
894.674	19628
894.796	19426
894.918	19495
895.04	19441
895.161	19601
895.283	19529
895.405	19480
895.526	19388
895.648	19525
895.769	19567
895.891	19548
896.012	19563
896.134	19544
896.255	19556
896.376	19518
896.498	19525
896.619	19586
896.74	19518
896.861	19556
896.982	19803
897.103	19993
897.224	19769
897.345	19734
897.466	19704
897.587	19784
897.708	19883
897.828	19772
897.949	19742
898.07	19476
898.19	19681
898.311	19712
898.431	19795
898.552	19738
898.672	19761
898.792	19788
898.913	19765
899.033	19677
899.153	19609
899.273	19556
899.393	19639
899.513	19537
899.633	19521
899.753	19457
899.873	19487
899.993	19453
900.113	19453
900.232	19510
900.352	19403
900.472	19324
900.591	19259
900.711	19350
900.83	19285
900.95	19339
901.069	19403
901.189	19141
901.308	19133
901.427	18951
901.546	18852
901.665	18882
901.784	18935
901.904	18692
902.023	18654
902.141	18437
902.26	18467
902.379	18555
902.498	18319
902.617	18395
902.735	18433
902.854	18350
902.973	18353
903.091	18110
903.21	18133
903.328	18106
903.446	18038
903.565	17904
903.683	17870
903.801	17748
903.919	17874
904.038	17794
904.156	17623
904.274	17771
904.392	17661
904.51	17642
904.627	17691
904.745	17722
904.863	17779
904.981	17463
905.098	17341
905.216	17372
905.334	17421
905.451	17376
905.569	17395
905.686	17398
905.803	17398
905.921	17140
906.038	17235
906.155	17140
906.272	16987
906.389	17067
906.506	16915
906.623	16873
906.74	16835
906.857	16774
906.974	16809
907.091	17018
907.208	16999
907.324	16908
907.441	16809
907.557	16790
907.674	16687
907.79	16485
907.907	16573
908.023	16771
908.139	16641
908.256	16538
908.372	16565
908.488	16432
908.604	16409
908.72	16299
908.836	16276
908.952	16398
909.068	16375
909.184	16432
909.3	16371
909.415	16379
909.531	16314
909.647	16162
909.762	16059
909.878	15975
909.993	16025
910.108	16078
910.224	15903
910.339	16044
910.454	16002
910.57	15827
910.685	15797
910.8	16078
910.915	15968
911.03	15907
911.145	15652
911.259	15599
911.374	15641
911.489	15637
911.604	15504
911.718	15408
911.833	15382
911.947	15192
912.062	15279
912.176	15496
912.291	15378
912.405	15294
912.519	15564
912.633	15542
912.748	15450
912.862	15393
912.976	15230
913.09	15214
913.204	15142
913.318	15268
913.431	15344
913.545	15237
913.659	15321
913.772	15093
913.886	15131
914	15116
914.113	15077
914.226	15104
914.34	15093
914.453	14963
914.566	14998
914.68	14971
914.793	14876
914.906	14640
915.019	14590
915.132	14571
915.245	14663
915.358	14712
915.47	14678
915.583	14644
915.696	14739
915.809	14754
915.921	14777
916.034	14552
916.146	14613
916.259	14602
916.371	14667
916.483	14678
916.595	14503
916.708	14419
916.82	14533
916.932	14457
917.044	14408
917.156	14434
917.268	14412
917.38	14324
917.491	14332
917.603	14336
917.715	14526
917.826	14431
917.938	14252
918.049	14134
918.161	14248
918.272	14431
918.384	14336
918.495	14252
918.606	14149
918.717	14103
918.828	14138
918.939	14142
919.05	14016
919.161	14077
919.272	13875
919.383	13913
919.494	14126
919.604	14275
919.715	14084
919.826	14012
919.936	14054
920.047	14103
920.157	14046
920.267	14195
920.378	14069
920.488	14069
920.598	14123
920.708	14400
920.818	14278
920.928	14256
921.038	14389
921.148	14275
921.258	13974
921.368	13860
921.477	13811
921.587	13788
921.697	13670
921.806	13826
921.916	13632
922.025	13567
922.134	13400
922.244	13430
922.353	13476
922.462	13350
922.571	13327
922.68	13213
922.789	13114
922.898	13095
923.007	13046
923.116	13198
923.224	13202
923.333	13084
923.442	12939
923.55	12989
923.659	12875
923.767	13023
923.876	12817
923.984	12916
924.092	12901
924.201	12947
924.309	12951
924.417	12848
924.525	12821
924.633	12863
924.741	13742
924.849	12627
924.956	12635
925.064	12585
925.172	12471
925.279	12494
925.387	12631
925.494	12608
925.602	12776
925.709	12650
925.816	12494
925.924	12486
926.031	12665
926.138	12441
926.245	12483
926.352	12429
926.459	12521
926.566	12559
926.673	12361
926.779	12281
926.886	12292
926.993	12190
927.099	12129
927.206	12072
927.312	12030
927.419	12163
927.525	12136
927.631	12144
927.737	12095
927.843	11973
927.95	11836
928.056	11977
928.162	11935
928.267	12068
928.373	12654
928.479	12064
928.585	11824
928.69	11912
928.796	12011
928.901	11870
929.007	11634
929.112	11794
929.218	11741
929.323	11745
929.428	11684
929.533	11775
929.638	11695
929.743	11783
929.848	11695
929.953	11615
930.058	11566
930.163	11311
930.267	11402
930.372	11490
930.477	11315
930.581	11547
930.685	11501
930.79	11273
930.894	11315
930.998	11242
931.103	11337
931.207	11037
931.311	11006
931.415	10862
931.519	10778
931.623	10721
