Data from test_V78500241_609.txt Node
Date: Fri Mar 25 15:14:05 CST 2022
User: usil
Spectrometer: V785-0024
Trigger mode: 0
Integration Time (sec): 4.000000E-1
Scans to average: 1
Nonlinearity correction enabled: false
Boxcar width: 0
Storing dark spectrum: false
XAxis mode: Wavelengths
Number of Pixels in Spectrum: 1024
>>>>>Begin Spectral Data<<<<<
801.071	27610
801.214	27580
801.356	27393
801.499	27340
801.641	27173
801.783	27351
801.926	27256
802.068	27233
802.211	27104
802.353	27051
802.496	26872
802.638	26914
802.78	26902
802.923	26796
803.065	26739
803.208	26674
803.35	26940
803.492	26937
803.635	26979
803.777	26762
803.919	26994
804.061	27310
804.204	26960
804.346	26921
804.488	26849
804.63	26891
804.773	26921
804.915	26986
805.057	27154
805.199	26906
805.341	27150
805.483	27135
805.626	27013
805.768	26975
805.91	27058
806.052	27222
806.194	27100
806.336	27313
806.478	27195
806.62	27028
806.762	27291
806.904	27241
807.046	27618
807.188	27519
807.33	27511
807.472	27618
807.614	27439
807.756	27454
807.898	27321
808.04	27351
808.182	27397
808.324	27287
808.465	27405
808.607	27641
808.749	27755
808.891	27930
809.033	27922
809.174	27873
809.316	27846
809.458	27770
809.6	27823
809.741	27865
809.883	28044
810.025	28048
810.166	28078
810.308	28051
810.45	28017
810.591	28036
810.733	27823
810.875	27698
811.016	27625
811.158	27679
811.299	27865
811.441	27968
811.582	27827
811.724	27625
811.865	27778
812.007	27774
812.148	27823
812.29	27835
812.431	27949
812.573	28097
812.714	28207
812.855	28268
812.997	28322
813.138	28527
813.279	28386
813.421	28325
813.562	28223
813.703	28226
813.845	28013
813.986	27690
814.127	27500
814.268	27504
814.41	27408
814.551	27374
814.692	27580
814.833	27481
814.974	27526
815.115	27504
815.256	27386
815.397	27408
815.539	27412
815.68	27256
815.821	27142
815.962	27306
816.103	27245
816.244	27070
816.385	26967
816.526	27100
816.666	27009
816.807	26720
816.948	26701
817.089	26887
817.23	26849
817.371	26743
817.512	26575
817.653	26872
817.793	26697
817.934	26750
818.075	26796
818.216	26811
818.356	26720
818.497	26606
818.638	26560
818.778	26389
818.919	26522
819.06	26541
819.2	26583
819.341	26792
819.481	26609
819.622	26826
819.762	27055
819.903	26925
820.043	26895
820.184	26967
820.324	26861
820.465	26823
820.605	26925
820.746	26815
820.886	26644
821.026	26857
821.167	26788
821.307	26899
821.447	26819
821.588	26617
821.728	26552
821.868	26317
822.008	26259
822.149	26275
822.289	26218
822.429	26027
822.569	26043
822.709	25822
822.849	25731
822.99	25898
823.13	25712
823.27	25757
823.41	25552
823.55	25449
823.69	25468
823.83	25499
823.97	25483
824.11	25244
824.25	25365
824.389	25419
824.529	25407
824.669	25346
824.809	25434
824.949	25388
825.089	25487
825.228	25506
825.368	25213
825.508	25202
825.648	25343
825.787	25354
825.927	25225
826.067	25225
826.206	25240
826.346	25282
826.485	25263
826.625	25251
826.765	25373
826.904	25247
827.044	25091
827.183	25114
827.323	25015
827.462	25000
827.601	24806
827.741	24947
827.88	24966
828.02	24844
828.159	24837
828.298	24985
828.437	24962
828.577	24989
828.716	24985
828.855	24913
828.994	24654
829.134	24681
829.273	24768
829.412	24658
829.551	24700
829.69	24677
829.829	24696
829.968	24566
830.107	24498
830.246	24749
830.385	24525
830.524	24593
830.663	24517
830.802	24361
830.941	24262
831.08	24247
831.219	24380
831.357	24300
831.496	24346
831.635	24216
831.774	24163
831.913	24129
832.051	24007
832.19	24095
832.329	24003
832.467	24003
832.606	23927
832.744	23942
832.883	23897
833.022	23961
833.16	23935
833.299	24011
833.437	23939
833.576	23958
833.714	24049
833.852	24102
833.991	24064
834.129	24076
834.267	23992
834.406	23961
834.544	24064
834.682	24049
834.821	24041
834.959	24182
835.097	23946
835.235	24087
835.373	24049
835.511	23927
835.65	23828
835.788	23939
835.926	23752
836.064	23653
836.202	23653
836.34	23904
836.478	23859
836.615	23695
836.753	23901
836.891	23863
837.029	23832
837.167	23802
837.305	23840
837.443	23703
837.58	23687
837.718	23722
837.856	23615
837.993	23619
838.131	23589
838.269	23570
838.406	23623
838.544	23497
838.681	23459
838.819	23292
838.956	23041
839.094	23220
839.231	23170
839.369	23159
839.506	23551
839.643	23471
839.781	23178
839.918	23189
840.055	23174
840.193	23128
840.33	22999
840.467	23094
840.604	23136
840.742	23322
840.879	22942
841.016	23044
841.153	22949
841.29	23288
841.427	22987
841.564	23086
841.701	23029
841.838	23029
841.975	22854
842.112	23014
842.249	22896
842.385	22763
842.522	23079
842.659	22942
842.796	22713
842.933	22790
843.069	22672
843.206	22755
843.343	22862
843.479	22873
843.616	22771
843.752	22554
843.889	22607
844.025	22896
844.162	22607
844.298	22637
844.435	22561
844.571	22531
844.708	22577
844.844	22790
844.98	22790
845.117	22717
845.253	22527
845.389	22538
845.525	22466
845.661	22379
845.798	22367
845.934	22409
846.07	22284
846.206	22337
846.342	22489
846.478	22310
846.614	22051
846.75	21991
846.886	22124
847.022	22086
847.158	22124
847.294	22093
847.429	22097
847.565	22101
847.701	22291
847.837	21850
847.972	21854
848.108	21827
848.244	21884
848.379	21671
848.515	21717
848.65	21595
848.786	21766
848.921	21652
849.057	21652
849.192	21766
849.328	21641
849.463	21720
849.598	21526
849.734	21686
849.869	21481
850.004	21466
850.14	21496
850.275	21412
850.41	21447
850.545	21488
850.68	21386
850.815	21344
850.95	21420
851.085	21694
851.22	21625
851.355	21492
851.49	21450
851.625	21340
851.76	21321
851.895	21374
852.03	21428
852.165	21378
852.299	21405
852.434	21450
852.569	21557
852.703	21374
852.838	21492
852.973	21583
853.107	21530
853.242	21378
853.376	21386
853.511	21150
853.645	21283
853.78	21329
853.914	21370
854.048	21329
854.183	21176
854.317	21344
854.451	21408
854.585	21329
854.72	21173
854.854	21332
854.988	21214
855.122	21237
855.256	21123
855.39	21157
855.524	21203
855.658	21298
855.792	21211
855.926	21310
856.06	21306
856.194	21416
856.327	21268
856.461	21150
856.595	21203
856.729	21176
856.862	21389
856.996	21378
857.13	21264
857.263	21408
857.397	21336
857.53	21188
857.664	21279
857.797	21355
857.931	21435
858.064	21329
858.197	21382
858.331	21332
858.464	21150
858.597	21093
858.731	21310
858.864	21252
858.997	21207
859.13	21329
859.263	21237
859.396	21336
859.529	21256
859.662	21135
859.795	21192
859.928	21317
860.061	21526
860.194	21481
860.327	21287
860.46	21321
860.592	21355
860.725	21412
860.858	21424
860.99	21249
861.123	21226
861.256	21161
861.388	21291
861.521	22131
861.653	21180
861.786	21173
861.918	21138
862.05	21161
862.183	21150
862.315	21256
862.447	21294
862.58	21077
862.712	21070
862.844	21055
862.976	21123
863.108	21161
863.24	21397
863.372	20982
863.504	20979
863.636	21047
863.768	20944
863.9	20979
864.032	20944
864.164	20986
864.296	20944
864.428	21108
864.559	21081
864.691	21096
864.823	20990
864.954	21017
865.086	20914
865.217	20891
865.349	20880
865.48	20979
865.612	20982
865.743	21028
865.875	20994
866.006	20807
866.137	20960
866.269	20845
866.4	20826
866.531	20750
866.662	20781
866.793	20781
866.924	20758
867.055	20948
867.186	20868
867.317	20861
867.448	20743
867.579	20857
867.71	20678
867.841	20815
867.972	20857
868.103	20883
868.233	20792
868.364	20830
868.495	20941
868.625	21100
868.756	21081
868.886	21085
869.017	20963
869.147	21211
869.278	21173
869.408	21123
869.539	21005
869.669	21180
869.799	21123
869.929	21195
870.06	21165
870.19	21313
870.32	21386
870.45	21393
870.58	21500
870.71	21671
870.84	21424
870.97	21496
871.1	21572
871.23	21694
871.36	21660
871.489	21496
871.619	21622
871.749	21694
871.879	21603
872.008	21819
872.138	21633
872.267	21686
872.397	21504
872.526	21386
872.656	21450
872.785	21458
872.915	21732
873.044	21743
873.173	21701
873.303	21774
873.432	21759
873.561	21759
873.69	21785
873.819	21698
873.948	21720
874.077	21667
874.206	21736
874.335	21804
874.464	21865
874.593	21953
874.722	21918
874.851	21953
874.979	21930
875.108	21934
875.237	21876
875.365	21785
875.494	21884
875.623	22109
875.751	21842
875.88	21895
876.008	21964
876.136	22139
876.265	22325
876.393	22451
876.521	22382
876.65	22462
876.778	22242
876.906	22181
877.034	22371
877.162	22219
877.29	22303
877.418	22166
877.546	22253
877.674	22238
877.802	22379
877.93	22226
878.058	22192
878.185	22116
878.313	22299
878.441	22261
878.568	22116
878.696	22207
878.824	22333
878.951	22318
879.079	22417
879.206	22565
879.333	22394
879.461	22299
879.588	22386
879.715	22356
879.842	22462
879.97	22230
880.097	22154
880.224	22029
880.351	22139
880.478	21930
880.605	22029
880.732	22059
880.859	22265
880.986	22196
881.112	22135
881.239	21998
881.366	21808
881.493	21747
881.619	21644
881.746	21675
881.872	21694
881.999	21614
882.125	21580
882.252	21804
882.378	21656
882.505	21709
882.631	21553
882.757	21348
882.883	21447
883.01	21340
883.136	21363
883.262	21207
883.388	21173
883.514	21412
883.64	21450
883.766	21211
883.892	21188
884.018	21207
884.143	21340
884.269	21439
884.395	21028
884.52	21081
884.646	20998
884.772	20902
884.897	20842
885.023	21039
885.148	21009
885.274	21135
885.399	21100
885.524	20948
885.65	21028
885.775	21089
885.9	21001
886.025	21173
886.15	21066
886.275	20933
886.4	20975
886.525	20857
886.65	20857
886.775	20819
886.9	21077
887.025	21233
887.149	21062
887.274	20838
887.399	20667
887.523	20910
887.648	20701
887.773	20686
887.897	20906
888.021	20849
888.146	20823
888.27	20880
888.395	20891
888.519	20750
888.643	20743
888.767	20807
888.891	20773
889.015	20495
889.139	20644
889.263	20594
889.387	20708
889.511	20834
889.635	20731
889.759	20640
889.883	20533
890.006	20739
890.13	20632
890.254	20522
890.377	20499
890.501	20358
890.624	20237
890.748	20267
890.871	20218
890.995	20126
891.118	20111
891.241	20050
891.364	20164
891.488	20195
891.611	20199
891.734	20176
891.857	20168
891.98	20176
892.103	20237
892.226	20122
892.349	20176
892.471	19913
892.594	20111
892.717	20001
892.839	20065
892.962	20012
893.085	20168
893.207	19951
893.33	19970
893.452	20024
893.575	20062
893.697	19997
893.819	20161
893.941	20214
894.064	20183
894.186	19925
894.308	19936
894.43	20103
894.552	20164
894.674	20115
894.796	20035
894.918	19989
895.04	19963
895.161	20142
895.283	20008
895.405	19982
895.526	20035
895.648	20054
895.769	20084
895.891	20153
896.012	20153
896.134	20096
896.255	20096
896.376	19955
896.498	20054
896.619	20122
896.74	20031
896.861	20058
896.982	20404
897.103	20457
897.224	20343
897.345	20248
897.466	20256
897.587	20218
897.708	20415
897.828	20244
897.949	20138
898.07	20111
898.19	20119
898.311	20324
898.431	20286
898.552	20305
898.672	20145
898.792	20351
898.913	20244
899.033	20225
899.153	20043
899.273	20001
899.393	20092
899.513	20035
899.633	20001
899.753	20058
899.873	19826
899.993	20096
900.113	20062
900.232	19864
900.352	19917
900.472	19879
900.591	19871
900.711	19887
900.83	19696
900.95	19776
901.069	19887
901.189	19769
901.308	19506
901.427	19449
901.546	19381
901.665	19392
901.784	19403
901.904	19228
902.023	19084
902.141	19004
902.26	18970
902.379	18909
902.498	18779
902.617	18943
902.735	18897
902.854	18817
902.973	18734
903.091	18544
903.21	18559
903.328	18544
903.446	18521
903.565	18391
903.683	18464
903.801	18266
903.919	18342
904.038	18228
904.156	18144
904.274	18209
904.392	18178
904.51	18007
904.627	18213
904.745	18205
904.863	18194
904.981	18003
905.098	17798
905.216	17882
905.334	17973
905.451	17794
905.569	17794
905.686	17870
905.803	17760
905.921	17676
906.038	17665
906.155	17695
906.272	17509
906.389	17410
906.506	17395
906.623	17288
906.74	17368
906.857	17181
906.974	17318
907.091	17429
907.208	17467
907.324	17330
907.441	17193
907.557	17117
907.674	17071
907.79	17086
907.907	17003
908.023	17090
908.139	16984
908.256	16991
908.372	16911
908.488	17003
908.604	16869
908.72	16782
908.836	16694
908.952	16755
909.068	16862
909.184	16984
909.3	16774
909.415	16801
909.531	16763
909.647	16634
909.762	16405
909.878	16386
909.993	16390
910.108	16497
910.224	16489
910.339	16421
910.454	16329
910.57	16352
910.685	16284
910.8	16474
910.915	16405
911.03	16322
911.145	16086
911.259	16230
911.374	16101
911.489	16025
911.604	15949
911.718	15846
911.833	15846
911.947	15717
912.062	15622
912.176	15728
912.291	15808
912.405	15747
912.519	15911
912.633	16040
912.748	15861
912.862	15778
912.976	15648
913.09	15557
913.204	15713
913.318	15591
913.431	15663
913.545	15633
913.659	15686
913.772	15576
913.886	15526
914	15492
914.113	15519
914.226	15500
914.34	15523
914.453	15306
914.566	15492
914.68	15420
914.793	15325
914.906	15009
915.019	15081
915.132	14937
915.245	14944
915.358	15070
915.47	15058
915.583	15112
915.696	15066
915.809	15188
915.921	15195
916.034	15039
916.146	14990
916.259	14975
916.371	14925
916.483	14979
916.595	14853
916.708	14880
916.82	14857
916.932	14826
917.044	14830
917.156	14830
917.268	14686
917.38	14682
917.491	14754
917.603	14689
917.715	14750
917.826	14674
917.938	14571
918.049	14537
918.161	14682
918.272	14769
918.384	14826
918.495	14640
918.606	14499
918.717	14454
918.828	14454
918.939	14492
919.05	14427
919.161	14526
919.272	14301
919.383	14290
919.494	14522
919.604	14735
919.715	14522
919.826	14358
919.936	14328
920.047	14526
920.157	14522
920.267	14545
920.378	14450
920.488	14438
920.598	14625
920.708	14773
920.818	14541
920.928	14514
921.038	14712
921.148	14674
921.258	14389
921.368	14298
921.477	14210
921.587	14183
921.697	14039
921.806	14115
921.916	14005
922.025	13856
922.134	13818
922.244	13784
922.353	13803
922.462	13666
922.571	13647
922.68	13506
922.789	13407
922.898	13445
923.007	13369
923.116	13575
923.224	13434
923.333	13396
923.442	13346
923.55	13282
923.659	13312
923.767	13343
923.876	13225
923.984	13247
924.092	13225
924.201	13206
924.309	13266
924.417	13187
924.525	13232
924.633	13099
924.741	13830
924.849	13015
924.956	13164
925.064	12977
925.172	12848
925.279	12932
925.387	12935
925.494	12901
925.602	13004
925.709	12989
925.816	12791
925.924	12745
926.031	12951
926.138	12825
926.245	12829
926.352	12734
926.459	12939
926.566	12878
926.673	12741
926.779	12673
926.886	12528
926.993	12464
927.099	12490
927.206	12418
927.312	12452
927.419	12467
927.525	12441
927.631	12418
927.737	12395
927.843	12334
927.95	12194
928.056	12228
928.162	12289
928.267	12330
928.373	12928
928.479	12441
928.585	12148
928.69	12175
928.796	12311
928.901	12136
929.007	12034
929.112	12152
929.218	12175
929.323	12053
929.428	12079
929.533	12205
929.638	11939
929.743	11954
929.848	11973
929.953	11920
930.058	11885
930.163	11676
930.267	11722
930.372	11813
930.477	11756
930.581	11863
930.685	11722
930.79	11554
930.894	11657
930.998	11604
931.103	11714
931.207	11383
931.311	11360
931.415	11231
931.519	11075
931.623	10995
