Data from test_V78500241_993.txt Node
Date: Fri Mar 25 15:16:46 CST 2022
User: usil
Spectrometer: V785-0024
Trigger mode: 0
Integration Time (sec): 4.000000E-1
Scans to average: 1
Nonlinearity correction enabled: false
Boxcar width: 0
Storing dark spectrum: false
XAxis mode: Wavelengths
Number of Pixels in Spectrum: 1024
>>>>>Begin Spectral Data<<<<<
801.071	28295
801.214	28318
801.356	28055
801.499	28025
801.641	27854
801.783	27873
801.926	27869
802.068	27895
802.211	27945
802.353	27701
802.496	27622
802.638	27755
802.78	27641
802.923	27473
803.065	27378
803.208	27667
803.35	27591
803.492	27682
803.635	27816
803.777	27800
803.919	27823
804.061	28048
804.204	27873
804.346	27606
804.488	27652
804.63	27717
804.773	27732
804.915	27899
805.057	27972
805.199	27774
805.341	27835
805.483	27850
805.626	27899
805.768	27941
805.91	27869
806.052	27793
806.194	27861
806.336	28097
806.478	27907
806.62	28055
806.762	27960
806.904	28253
807.046	28382
807.188	28306
807.33	28356
807.472	28223
807.614	28253
807.756	28371
807.898	28295
808.04	28196
808.182	28211
808.324	28215
808.465	28344
808.607	28569
808.749	28637
808.891	28721
809.033	28710
809.174	28523
809.316	28626
809.458	28611
809.6	28599
809.741	28675
809.883	28793
810.025	28778
810.166	28869
810.308	28774
810.45	28999
810.591	28839
810.733	28542
810.875	28592
811.016	28447
811.158	28443
811.299	28702
811.441	28752
811.582	28622
811.724	28630
811.865	28497
812.007	28725
812.148	28611
812.29	28618
812.431	28866
812.573	29071
812.714	28892
812.855	29193
812.997	29227
813.138	29375
813.279	29223
813.421	29200
813.562	29056
813.703	28984
813.845	28820
813.986	28607
814.127	28363
814.268	28314
814.41	28303
814.551	28375
814.692	28538
814.833	28261
814.974	28322
815.115	28394
815.256	28196
815.397	28249
815.539	28261
815.68	28128
815.821	27972
815.962	28234
816.103	28124
816.244	28090
816.385	27873
816.526	27960
816.666	27736
816.807	27637
816.948	27713
817.089	27724
817.23	27660
817.371	27587
817.512	27667
817.653	27660
817.793	27751
817.934	27663
818.075	27663
818.216	27618
818.356	27416
818.497	27519
818.638	27329
818.778	27325
818.919	27416
819.06	27355
819.2	27603
819.341	27606
819.481	27633
819.622	27789
819.762	27979
819.903	28105
820.043	27747
820.184	27682
820.324	27766
820.465	27804
820.605	27785
820.746	27713
820.886	27599
821.026	27793
821.167	27595
821.307	27797
821.447	27648
821.588	27614
821.728	27317
821.868	27283
822.008	27127
822.149	27146
822.289	27100
822.429	27062
822.569	26868
822.709	26830
822.849	26750
822.99	26590
823.13	26587
823.27	26564
823.41	26465
823.55	26336
823.69	26446
823.83	26473
823.97	26377
824.11	26328
824.25	26286
824.389	26313
824.529	26480
824.669	26187
824.809	26339
824.949	26453
825.089	26412
825.228	26442
825.368	26092
825.508	26126
825.648	26278
825.787	26244
825.927	26396
826.067	26153
826.206	26088
826.346	26244
826.485	26324
826.625	26206
826.765	26244
826.904	26107
827.044	26001
827.183	25966
827.323	25845
827.462	26016
827.601	25837
827.741	25871
827.88	26027
828.02	25784
828.159	25799
828.298	25871
828.437	25963
828.577	25704
828.716	25963
828.855	25970
828.994	25655
829.134	25639
829.273	25723
829.412	25643
829.551	25518
829.69	25708
829.829	25647
829.968	25769
830.107	25753
830.246	25635
830.385	25487
830.524	25479
830.663	25468
830.802	25441
830.941	25346
831.08	25331
831.219	25388
831.357	25297
831.496	25453
831.635	25244
831.774	25080
831.913	25065
832.051	25091
832.19	25042
832.329	24947
832.467	24909
832.606	24913
832.744	24882
832.883	24894
833.022	24863
833.16	24939
833.299	24897
833.437	25000
833.576	25103
833.714	24943
833.852	24928
833.991	25072
834.129	25122
834.267	25038
834.406	25164
834.544	24875
834.682	24875
834.821	24920
834.959	24928
835.097	24875
835.235	25023
835.373	24894
835.511	24817
835.65	24852
835.788	24833
835.926	24814
836.064	24589
836.202	24597
836.34	24913
836.478	24920
836.615	24757
836.753	24886
836.891	24882
837.029	24817
837.167	24814
837.305	24730
837.443	24566
837.58	24692
837.718	24551
837.856	24608
837.993	24593
838.131	24589
838.269	24525
838.406	24479
838.544	24437
838.681	24232
838.819	24266
838.956	24102
839.094	24117
839.231	24182
839.369	24270
839.506	24494
839.643	24350
839.781	24095
839.918	24030
840.055	24034
840.193	24144
840.33	23977
840.467	24003
840.604	23965
840.742	24247
840.879	23745
841.016	23935
841.153	23931
841.29	24178
841.427	23961
841.564	24038
841.701	23927
841.838	24038
841.975	23904
842.112	23927
842.249	23817
842.385	23672
842.522	23904
842.659	23805
842.796	23920
842.933	23729
843.069	23695
843.206	23642
843.343	23851
843.479	23828
843.616	23665
843.752	23551
843.889	23657
844.025	23611
844.162	23570
844.298	23486
844.435	23585
844.571	23440
844.708	23596
844.844	23661
844.98	23707
845.117	23634
845.253	23448
845.389	23368
845.525	23436
845.661	23471
845.798	23318
845.934	23299
846.07	23277
846.206	23231
846.342	23208
846.478	23200
846.614	23128
846.75	22858
846.886	22927
847.022	22987
847.158	23006
847.294	22999
847.429	22949
847.565	23090
847.701	23345
847.837	22790
847.972	22698
848.108	22782
848.244	22942
848.379	22538
848.515	22668
848.65	22523
848.786	22497
848.921	22672
849.057	22603
849.192	22698
849.328	22656
849.463	22653
849.598	22428
849.734	22500
849.869	22474
850.004	22360
850.14	22322
850.275	22341
850.41	22299
850.545	22284
850.68	22367
850.815	22318
850.95	22344
851.085	22588
851.22	22538
851.355	22398
851.49	22413
851.625	22325
851.76	22322
851.895	22211
852.03	22291
852.165	22367
852.299	22344
852.434	22409
852.569	22485
852.703	22299
852.838	22462
852.973	22428
853.107	22428
853.242	22291
853.376	22272
853.511	22074
853.645	22010
853.78	22341
853.914	22135
854.048	22166
854.183	22181
854.317	22177
854.451	22344
854.585	22150
854.72	22021
854.854	22299
854.988	22154
855.122	22253
855.256	22032
855.39	22158
855.524	22268
855.658	22287
855.792	22211
855.926	22177
856.06	22166
856.194	22253
856.327	22097
856.461	22097
856.595	22017
856.729	22185
856.862	22405
856.996	22185
857.13	22166
857.263	22097
857.397	22303
857.53	22215
857.664	22116
857.797	22181
857.931	22226
858.064	22268
858.197	22272
858.331	22192
858.464	22124
858.597	22070
858.731	22082
858.864	22238
858.997	22093
859.13	22230
859.263	22223
859.396	22204
859.529	22181
859.662	22147
859.795	22070
859.928	22154
860.061	22371
860.194	22306
860.327	22181
860.46	22200
860.592	22417
860.725	22261
860.858	22223
860.99	22249
861.123	22135
861.256	22139
861.388	22147
861.521	22748
861.653	21968
861.786	21937
861.918	22029
862.05	22021
862.183	22086
862.315	22139
862.447	22249
862.58	22002
862.712	21892
862.844	21972
862.976	21918
863.108	21903
863.24	22188
863.372	21762
863.504	21819
863.636	21812
863.768	21873
863.9	21800
864.032	21812
864.164	21831
864.296	21880
864.428	21972
864.559	21983
864.691	21949
864.823	21846
864.954	21918
865.086	21842
865.217	21747
865.349	21614
865.48	21724
865.612	21717
865.743	21873
865.875	21705
866.006	21778
866.137	21766
866.269	21743
866.4	21622
866.531	21701
866.662	21660
866.793	21713
866.924	21679
867.055	21785
867.186	21690
867.317	21671
867.448	21663
867.579	21629
867.71	21538
867.841	21564
867.972	21572
868.103	21656
868.233	21652
868.364	21717
868.495	21709
868.625	22025
868.756	22002
868.886	21808
869.017	21956
869.147	22059
869.278	22135
869.408	21956
869.539	21987
869.669	22070
869.799	21842
869.929	21964
870.06	22086
870.19	22287
870.32	22200
870.45	22242
870.58	22394
870.71	22367
870.84	22394
870.97	22261
871.1	22333
871.23	22569
871.36	22519
871.489	22443
871.619	22538
871.749	22462
871.879	22577
872.008	22569
872.138	22462
872.267	22573
872.397	22360
872.526	22432
872.656	22386
872.785	22360
872.915	22481
873.044	22550
873.173	22508
873.303	22470
873.432	22603
873.561	22607
873.69	22466
873.819	22546
873.948	22599
874.077	22504
874.206	22447
874.335	22436
874.464	22645
874.593	22763
874.722	22809
874.851	22675
874.979	22778
875.108	22824
875.237	22630
875.365	22531
875.494	22733
875.623	22824
875.751	22774
875.88	22721
876.008	22946
876.136	22797
876.265	23029
876.393	23360
876.521	23151
876.65	23292
876.778	23094
876.906	23067
877.034	23041
877.162	23113
877.29	23010
877.418	22976
877.546	23086
877.674	23098
877.802	23136
877.93	23083
878.058	23060
878.185	22934
878.313	22976
878.441	23044
878.568	23014
878.696	23056
878.824	23098
878.951	23159
879.079	23284
879.206	23341
879.333	23170
879.461	23185
879.588	23083
879.715	23174
879.842	23440
879.97	23189
880.097	22854
880.224	22915
880.351	22972
880.478	22904
880.605	22850
880.732	22896
880.859	22999
880.986	22991
881.112	22797
881.239	22683
881.366	22550
881.493	22577
881.619	22523
881.746	22538
881.872	22421
881.999	22443
882.125	22394
882.252	22565
882.378	22451
882.505	22516
882.631	22337
882.757	22109
882.883	22303
883.01	22181
883.136	22143
883.262	22025
883.388	22032
883.514	22124
883.64	22234
883.766	22097
883.892	21941
884.018	22010
884.143	22055
884.269	22112
884.395	21846
884.52	21774
884.646	21945
884.772	21690
884.897	21595
885.023	21679
885.148	21793
885.274	22025
885.399	21831
885.524	21720
885.65	21675
885.775	21835
885.9	21762
886.025	21937
886.15	21854
886.275	21743
886.4	21720
886.525	21793
886.65	21736
886.775	21675
886.9	21934
887.025	22109
887.149	21774
887.274	21637
887.399	21568
887.523	21641
887.648	21473
887.773	21530
887.897	21610
888.021	21538
888.146	21431
888.27	21717
888.395	21599
888.519	21644
888.643	21553
888.767	21557
888.891	21439
889.015	21492
889.139	21359
889.263	21340
889.387	21526
889.511	21545
889.635	21408
889.759	21298
889.883	21351
890.006	21302
890.13	21443
890.254	21275
890.377	21211
890.501	20971
890.624	21005
890.748	21066
890.871	20963
890.995	20948
891.118	20982
891.241	20918
891.364	20842
891.488	21032
891.611	20979
891.734	20902
891.857	21032
891.98	20895
892.103	21001
892.226	20811
892.349	20788
892.471	20838
892.594	20777
892.717	20781
892.839	20807
892.962	20819
893.085	20880
893.207	20758
893.33	20701
893.452	20758
893.575	20807
893.697	20708
893.819	21081
893.941	21001
894.064	20838
894.186	20849
894.308	20724
894.43	20891
894.552	20982
894.674	20777
894.796	20785
894.918	20762
895.04	20758
895.161	20773
895.283	20739
895.405	20765
895.526	20682
895.648	20773
895.769	20811
895.891	20826
896.012	20807
896.134	20853
896.255	20823
896.376	20743
896.498	20781
896.619	20659
896.74	20765
896.861	20819
896.982	21218
897.103	21211
897.224	21055
897.345	20937
897.466	20906
897.587	20921
897.708	21005
897.828	20982
897.949	20975
898.07	20735
898.19	20895
898.311	20895
898.431	20853
898.552	21032
898.672	21058
898.792	20975
898.913	20971
899.033	20792
899.153	20743
899.273	20533
899.393	20773
899.513	20686
899.633	20632
899.753	20686
899.873	20720
899.993	20667
900.113	20598
900.232	20735
900.352	20667
900.472	20446
900.591	20495
900.711	20507
900.83	20450
900.95	20571
901.069	20579
901.189	20309
901.308	20172
901.427	20035
901.546	20176
901.665	20073
901.784	20081
901.904	19959
902.023	19791
902.141	19605
902.26	19563
902.379	19510
902.498	19483
902.617	19582
902.735	19605
902.854	19441
902.973	19476
903.091	19384
903.21	19244
903.328	19152
903.446	18989
903.565	19015
903.683	19156
903.801	18894
903.919	18996
904.038	19000
904.156	18722
904.274	18844
904.392	18696
904.51	18741
904.627	18760
904.745	18817
904.863	18817
904.981	18631
905.098	18350
905.216	18483
905.334	18521
905.451	18437
905.569	18384
905.686	18456
905.803	18422
905.921	18289
906.038	18342
906.155	18338
906.272	18129
906.389	18129
906.506	17992
906.623	18038
906.74	17961
906.857	17901
906.974	17920
907.091	18060
907.208	18083
907.324	18026
907.441	17752
907.557	17668
907.674	17726
907.79	17646
907.907	17653
908.023	17710
908.139	17726
908.256	17570
908.372	17665
908.488	17630
908.604	17467
908.72	17467
908.836	17288
908.952	17349
909.068	17467
909.184	17398
909.3	17512
909.415	17376
909.531	17414
909.647	17170
909.762	17136
909.878	17159
909.993	17060
910.108	17052
910.224	17124
910.339	17117
910.454	16824
910.57	16904
910.685	16702
910.8	17208
910.915	16968
911.03	16843
911.145	16729
911.259	16691
911.374	16622
911.489	16649
911.604	16550
911.718	16443
911.833	16474
911.947	16356
912.062	16188
912.176	16394
912.291	16348
912.405	16344
912.519	16500
912.633	16573
912.748	16512
912.862	16390
912.976	16276
913.09	16105
913.204	16154
913.318	16238
913.431	16310
913.545	16341
913.659	16363
913.772	16226
913.886	16120
914	16025
914.113	16044
914.226	16135
914.34	16131
914.453	15835
914.566	16051
914.68	15987
914.793	15888
914.906	15637
915.019	15625
915.132	15614
915.245	15534
915.358	15736
915.47	15656
915.583	15568
915.696	15675
915.809	15705
915.921	15709
916.034	15500
916.146	15538
916.259	15439
916.371	15591
916.483	15507
916.595	15405
916.708	15485
916.82	15332
916.932	15454
917.044	15370
917.156	15367
917.268	15294
917.38	15150
917.491	15199
917.603	15329
917.715	15317
917.826	15306
917.938	15218
918.049	15142
918.161	15184
918.272	15272
918.384	15317
918.495	15207
918.606	15036
918.717	14853
918.828	14982
918.939	15005
919.05	14921
919.161	14971
919.272	14830
919.383	14777
919.494	15005
919.604	15112
919.715	15089
919.826	14891
919.936	14941
920.047	14990
920.157	14880
920.267	15154
920.378	14895
920.488	14994
920.598	15131
920.708	15279
920.818	15055
920.928	15142
921.038	15294
921.148	15245
921.258	14857
921.368	14785
921.477	14667
921.587	14716
921.697	14514
921.806	14663
921.916	14594
922.025	14328
922.134	14244
922.244	14256
922.353	14248
922.462	14191
922.571	14115
922.68	13955
922.789	13879
922.898	13970
923.007	13902
923.116	13959
923.224	13940
923.333	13963
923.442	13837
923.55	13746
923.659	13807
923.767	13830
923.876	13750
923.984	13784
924.092	13651
924.201	13769
924.309	13704
924.417	13647
924.525	13563
924.633	13647
924.741	14511
924.849	13480
924.956	13594
925.064	13377
925.172	13274
925.279	13266
925.387	13388
925.494	13331
925.602	13575
925.709	13407
925.816	13293
925.924	13301
926.031	13430
926.138	13301
926.245	13354
926.352	13160
926.459	13384
926.566	13381
926.673	13202
926.779	13137
926.886	13065
926.993	12935
927.099	12878
927.206	12829
927.312	12787
927.419	12882
927.525	12886
927.631	12932
927.737	12821
927.843	12779
927.95	12673
928.056	12658
928.162	12696
928.267	12779
928.373	13228
928.479	12749
928.585	12555
928.69	12658
928.796	12654
928.901	12528
929.007	12433
929.112	12623
929.218	12601
929.323	12380
929.428	12426
929.533	12486
929.638	12342
929.743	12323
929.848	12490
929.953	12270
930.058	12308
930.163	12114
930.267	12201
930.372	12228
930.477	12072
930.581	12334
930.685	12121
930.79	11965
930.894	11958
930.998	12003
931.103	12186
931.207	11729
931.311	11646
931.415	11528
931.519	11387
931.623	11341
