Data from test_V78500241_484.txt Node
Date: Fri Mar 25 15:13:13 CST 2022
User: usil
Spectrometer: V785-0024
Trigger mode: 0
Integration Time (sec): 4.000000E-1
Scans to average: 1
Nonlinearity correction enabled: false
Boxcar width: 0
Storing dark spectrum: false
XAxis mode: Wavelengths
Number of Pixels in Spectrum: 1024
>>>>>Begin Spectral Data<<<<<
801.071	27408
801.214	27355
801.356	27203
801.499	27089
801.641	26998
801.783	26902
801.926	27009
802.068	27032
802.211	26864
802.353	26910
802.496	26670
802.638	26579
802.78	26697
802.923	26655
803.065	26556
803.208	26568
803.35	26522
803.492	26632
803.635	26621
803.777	26682
803.919	26830
804.061	27096
804.204	26762
804.346	26735
804.488	26659
804.63	26746
804.773	26796
804.915	26804
805.057	26781
805.199	26815
805.341	26940
805.483	26960
805.626	26868
805.768	26727
805.91	26769
806.052	26960
806.194	26796
806.336	27165
806.478	26739
806.62	26883
806.762	26967
806.904	27146
807.046	27348
807.188	27344
807.33	27359
807.472	27329
807.614	27233
807.756	27249
807.898	27131
808.04	27180
808.182	26986
808.324	27199
808.465	27150
808.607	27226
808.749	27515
808.891	27561
809.033	27622
809.174	27675
809.316	27412
809.458	27526
809.6	27424
809.741	27564
809.883	27591
810.025	27747
810.166	27759
810.308	27766
810.45	27701
810.591	27755
810.733	27435
810.875	27355
811.016	27412
811.158	27386
811.299	27564
811.441	27675
811.582	27622
811.724	27397
811.865	27386
812.007	27439
812.148	27424
812.29	27523
812.431	27770
812.573	27728
812.714	27835
812.855	28067
812.997	28010
813.138	28344
813.279	28051
813.421	28147
813.562	28010
813.703	27827
813.845	27774
813.986	27405
814.127	27218
814.268	27192
814.41	27135
814.551	26990
814.692	27245
814.833	27154
814.974	27074
815.115	27150
815.256	26990
815.397	27093
815.539	27081
815.68	27062
815.821	26853
815.962	27017
816.103	27036
816.244	26807
816.385	26693
816.526	26724
816.666	26522
816.807	26446
816.948	26453
817.089	26541
817.23	26522
817.371	26415
817.512	26438
817.653	26419
817.793	26393
817.934	26404
818.075	26442
818.216	26385
818.356	26393
818.497	26275
818.638	26237
818.778	26172
818.919	26199
819.06	26252
819.2	26248
819.341	26461
819.481	26465
819.622	26632
819.762	26689
819.903	26754
820.043	26663
820.184	26606
820.324	26663
820.465	26674
820.605	26613
820.746	26587
820.886	26396
821.026	26442
821.167	26385
821.307	26674
821.447	26514
821.588	26202
821.728	26377
821.868	26058
822.008	25978
822.149	25951
822.289	25799
822.429	25605
822.569	25647
822.709	25639
822.849	25308
822.99	25445
823.13	25483
823.27	25411
823.41	25137
823.55	25114
823.69	25228
823.83	25206
823.97	25175
824.11	25027
824.25	25000
824.389	25137
824.529	25118
824.669	25095
824.809	25175
824.949	25042
825.089	25232
825.228	25057
825.368	24837
825.508	24935
825.648	24909
825.787	25023
825.927	25012
826.067	24970
826.206	24821
826.346	24932
826.485	24928
826.625	24943
826.765	25031
826.904	25061
827.044	24677
827.183	24646
827.323	24654
827.462	24635
827.601	24509
827.741	24631
827.88	24741
828.02	24505
828.159	24700
828.298	24665
828.437	24711
828.577	24684
828.716	24779
828.855	24620
828.994	24300
829.134	24456
829.273	24437
829.412	24429
829.551	24311
829.69	24350
829.829	24350
829.968	24494
830.107	24372
830.246	24410
830.385	24285
830.524	24144
830.663	24152
830.802	24064
830.941	24018
831.08	23950
831.219	23931
831.357	23992
831.496	24148
831.635	24034
831.774	23954
831.913	23828
832.051	23783
832.19	23752
832.329	23737
832.467	23661
832.606	23657
832.744	23691
832.883	23729
833.022	23699
833.16	23600
833.299	23676
833.437	23764
833.576	23798
833.714	23775
833.852	23707
833.991	23802
834.129	23802
834.267	23676
834.406	23752
834.544	23596
834.682	23718
834.821	23646
834.959	23832
835.097	23661
835.235	23802
835.373	23737
835.511	23741
835.65	23646
835.788	23478
835.926	23444
836.064	23433
836.202	23398
836.34	23554
836.478	23535
836.615	23509
836.753	23505
836.891	23661
837.029	23478
837.167	23619
837.305	23471
837.443	23395
837.58	23486
837.718	23547
837.856	23589
837.993	23387
838.131	23524
838.269	23204
838.406	23326
838.544	23322
838.681	23117
838.819	23083
838.956	22923
839.094	22850
839.231	22919
839.369	23006
839.506	23345
839.643	23022
839.781	23037
839.918	22904
840.055	22824
840.193	22843
840.33	22771
840.467	22873
840.604	22801
840.742	23109
840.879	22687
841.016	22748
841.153	22698
841.29	22873
841.427	22923
841.564	22812
841.701	22866
841.838	22710
841.975	22668
842.112	22786
842.249	22565
842.385	22546
842.522	22771
842.659	22641
842.796	22580
842.933	22554
843.069	22611
843.206	22557
843.343	22641
843.479	22493
843.616	22519
843.752	22390
843.889	22360
844.025	22440
844.162	22276
844.298	22538
844.435	22348
844.571	22405
844.708	22348
844.844	22489
844.98	22470
845.117	22405
845.253	22219
845.389	22207
845.525	22314
845.661	22344
845.798	22162
845.934	22257
846.07	22112
846.206	22207
846.342	22097
846.478	22040
846.614	21846
846.75	21663
846.886	21854
847.022	21827
847.158	21743
847.294	21785
847.429	21857
847.565	21774
847.701	21979
847.837	21553
847.972	21709
848.108	21675
848.244	21686
848.379	21496
848.515	21473
848.65	21481
848.786	21336
848.921	21557
849.057	21466
849.192	21473
849.328	21534
849.463	21401
849.598	21272
849.734	21264
849.869	21203
850.004	21272
850.14	21184
850.275	21218
850.41	21184
850.545	21192
850.68	21146
850.815	21226
850.95	21123
851.085	21302
851.22	21325
851.355	21089
851.49	21249
851.625	21055
851.76	21096
851.895	21154
852.03	21089
852.165	21184
852.299	21096
852.434	21313
852.569	21218
852.703	21119
852.838	21146
852.973	21424
853.107	21321
853.242	21169
853.376	21013
853.511	20887
853.645	20853
853.78	21096
853.914	21127
854.048	20883
854.183	21055
854.317	21043
854.451	21184
854.585	20990
854.72	21043
854.854	21081
854.988	20902
855.122	20933
855.256	20910
855.39	21024
855.524	21036
855.658	21256
855.792	21001
855.926	20891
856.06	21028
856.194	21081
856.327	21024
856.461	20880
856.595	21043
856.729	20963
856.862	20963
856.996	21024
857.13	21051
857.263	21188
857.397	21123
857.53	21005
857.664	21096
857.797	21131
857.931	21077
858.064	21028
858.197	21081
858.331	20941
858.464	20948
858.597	20937
858.731	20933
858.864	21093
858.997	20963
859.13	21005
859.263	20914
859.396	21112
859.529	20883
859.662	20971
859.795	20857
859.928	21051
860.061	21077
860.194	21127
860.327	21157
860.46	20982
860.592	21093
860.725	21089
860.858	21077
860.99	20967
861.123	20963
861.256	20838
861.388	20937
861.521	21789
861.653	20735
861.786	20830
861.918	20838
862.05	20895
862.183	20899
862.315	20944
862.447	21039
862.58	20800
862.712	20727
862.844	20800
862.976	20796
863.108	20720
863.24	21184
863.372	20617
863.504	20807
863.636	20724
863.768	20781
863.9	20609
864.032	20594
864.164	20686
864.296	20716
864.428	20902
864.559	20792
864.691	20785
864.823	20739
864.954	20670
865.086	20640
865.217	20712
865.349	20488
865.48	20712
865.612	20667
865.743	20655
865.875	20701
866.006	20609
866.137	20670
866.269	20606
866.4	20552
866.531	20663
866.662	20602
866.793	20541
866.924	20533
867.055	20640
867.186	20602
867.317	20473
867.448	20568
867.579	20549
867.71	20423
867.841	20514
867.972	20606
868.103	20522
868.233	20545
868.364	20568
868.495	20564
868.625	20746
868.756	20758
868.886	20708
869.017	20800
869.147	20994
869.278	20872
869.408	20743
869.539	20811
869.669	20933
869.799	20853
869.929	20963
870.06	20845
870.19	21116
870.32	21070
870.45	21062
870.58	21249
870.71	21397
870.84	21237
870.97	21272
871.1	21154
871.23	21310
871.36	21321
871.489	21268
871.619	21382
871.749	21363
871.879	21401
872.008	21447
872.138	21488
872.267	21507
872.397	21336
872.526	21165
872.656	21226
872.785	21131
872.915	21378
873.044	21431
873.173	21595
873.303	21458
873.432	21401
873.561	21454
873.69	21462
873.819	21408
873.948	21485
874.077	21378
874.206	21382
874.335	21481
874.464	21428
874.593	21698
874.722	21652
874.851	21751
874.979	21667
875.108	21785
875.237	21519
875.365	21557
875.494	21492
875.623	21724
875.751	21561
875.88	21667
876.008	21800
876.136	21861
876.265	22082
876.393	22120
876.521	22078
876.65	22006
876.778	22070
876.906	21934
877.034	21945
877.162	21975
877.29	21945
877.418	21975
877.546	22070
877.674	22021
877.802	22048
877.93	22051
878.058	21850
878.185	21797
878.313	21945
878.441	22070
878.568	21812
878.696	21945
878.824	22006
878.951	22017
879.079	22185
879.206	22253
879.333	22177
879.461	22074
879.588	22135
879.715	22207
879.842	22428
879.97	22181
880.097	21861
880.224	21694
880.351	21861
880.478	21857
880.605	21667
880.732	21907
880.859	21987
880.986	21781
881.112	21778
881.239	21667
881.366	21576
881.493	21374
881.619	21348
881.746	21386
881.872	21393
881.999	21340
882.125	21344
882.252	21317
882.378	21226
882.505	21549
882.631	21207
882.757	21165
882.883	21252
883.01	21089
883.136	20948
883.262	20937
883.388	20762
883.514	21089
883.64	21066
883.766	21131
883.892	20826
884.018	20956
884.143	21001
884.269	21070
884.395	20830
884.52	20807
884.646	20796
884.772	20659
884.897	20560
885.023	20769
885.148	20834
885.274	20826
885.399	20811
885.524	20682
885.65	20781
885.775	20739
885.9	20720
886.025	20853
886.15	20891
886.275	20579
886.4	20609
886.525	20693
886.65	20765
886.775	20686
886.9	20785
887.025	20834
887.149	20777
887.274	20495
887.399	20560
887.523	20503
887.648	20419
887.773	20339
887.897	20587
888.021	20552
888.146	20446
888.27	20533
888.395	20556
888.519	20564
888.643	20507
888.767	20503
888.891	20427
889.015	20221
889.139	20408
889.263	20336
889.387	20347
889.511	20492
889.635	20404
889.759	20199
889.883	20240
890.006	20347
890.13	20370
890.254	20199
890.377	20172
890.501	20065
890.624	20100
890.748	20058
890.871	19986
890.995	19932
891.118	19841
891.241	20008
891.364	19921
891.488	19951
891.611	19936
891.734	19902
891.857	19963
891.98	19997
892.103	19947
892.226	19883
892.349	19837
892.471	19674
892.594	19674
892.717	19947
892.839	19761
892.962	19970
893.085	19833
893.207	19750
893.33	19639
893.452	19632
893.575	19894
893.697	19734
893.819	19959
893.941	19860
894.064	19951
894.186	19780
894.308	19670
894.43	19715
894.552	19902
894.674	19788
894.796	19696
894.918	19776
895.04	19662
895.161	19849
895.283	19909
895.405	19723
895.526	19818
895.648	19795
895.769	19883
895.891	19776
896.012	19852
896.134	19875
896.255	19902
896.376	19807
896.498	19795
896.619	19830
896.74	19856
896.861	19887
896.982	20206
897.103	20294
897.224	20027
897.345	20077
897.466	20005
897.587	19986
897.708	20271
897.828	20103
897.949	19940
898.07	19776
898.19	19909
898.311	20012
898.431	19940
898.552	20073
898.672	20096
898.792	20001
898.913	20001
899.033	19917
899.153	19811
899.273	19708
899.393	19788
899.513	19750
899.633	19761
899.753	19799
899.873	19696
899.993	19689
900.113	19719
900.232	19803
900.352	19723
900.472	19544
900.591	19460
900.711	19559
900.83	19552
900.95	19571
901.069	19647
901.189	19464
901.308	19293
901.427	19114
901.546	19091
901.665	19175
901.784	19129
901.904	19038
902.023	18859
902.141	18627
902.26	18646
902.379	18768
902.498	18677
902.617	18582
902.735	18646
902.854	18673
902.973	18601
903.091	18327
903.21	18281
903.328	18361
903.446	18277
903.565	18129
903.683	18289
903.801	18083
903.919	18091
904.038	18041
904.156	17939
904.274	17950
904.392	17813
904.51	17866
904.627	17980
904.745	17969
904.863	17958
904.981	17653
905.098	17615
905.216	17608
905.334	17558
905.451	17668
905.569	17642
905.686	17611
905.803	17634
905.921	17334
906.038	17452
906.155	17429
906.272	17315
906.389	17288
906.506	17136
906.623	17223
906.74	17155
906.857	17067
906.974	16953
907.091	17102
907.208	17208
907.324	17166
907.441	17029
907.557	16949
907.674	16793
907.79	16744
907.907	16892
908.023	16824
908.139	16869
908.256	16748
908.372	16675
908.488	16710
908.604	16664
908.72	16542
908.836	16577
908.952	16489
909.068	16577
909.184	16691
909.3	16508
909.415	16550
909.531	16561
909.647	16371
909.762	16329
909.878	16280
909.993	16272
910.108	16200
910.224	16226
910.339	16314
910.454	16139
910.57	16086
910.685	16021
910.8	16303
910.915	16173
911.03	16116
911.145	16029
911.259	15937
911.374	15876
911.489	15793
911.604	15770
911.718	15447
911.833	15713
911.947	15549
912.062	15469
912.176	15568
912.291	15595
912.405	15610
912.519	15713
912.633	15857
912.748	15705
912.862	15690
912.976	15450
913.09	15367
913.204	15355
913.318	15507
913.431	15568
913.545	15477
913.659	15473
913.772	15317
913.886	15321
914	15321
914.113	15363
914.226	15329
914.34	15340
914.453	15176
914.566	15291
914.68	15104
914.793	15150
914.906	14986
915.019	14941
915.132	14781
915.245	14849
915.358	14899
915.47	14941
915.583	14845
915.696	14948
915.809	14967
915.921	15020
916.034	14906
916.146	14754
916.259	14807
916.371	14853
916.483	14883
916.595	14735
916.708	14670
916.82	14587
916.932	14674
917.044	14724
917.156	14602
917.268	14442
917.38	14598
917.491	14461
917.603	14465
917.715	14598
917.826	14651
917.938	14396
918.049	14309
918.161	14473
918.272	14659
918.384	14613
918.495	14431
918.606	14214
918.717	14221
918.828	14339
918.939	14336
919.05	14244
919.161	14351
919.272	14054
919.383	14157
919.494	14309
919.604	14571
919.715	14263
919.826	14123
919.936	14233
920.047	14442
920.157	14218
920.267	14393
920.378	14298
920.488	14202
920.598	14434
920.708	14537
920.818	14336
920.928	14328
921.038	14545
921.148	14636
921.258	14206
921.368	14088
921.477	13970
921.587	13997
921.697	13902
921.806	13940
921.916	13814
922.025	13719
922.134	13696
922.244	13548
922.353	13624
922.462	13468
922.571	13480
922.68	13434
922.789	13190
922.898	13255
923.007	13331
923.116	13282
923.224	13274
923.333	13236
923.442	13236
923.55	13137
923.659	13194
923.767	13114
923.876	13080
923.984	13171
924.092	13004
924.201	13004
924.309	13031
924.417	13000
924.525	12920
924.633	13038
924.741	13909
924.849	12764
924.956	12817
925.064	12738
925.172	12639
925.279	12642
925.387	12715
925.494	12677
925.602	12863
925.709	12757
925.816	12665
925.924	12707
926.031	12791
926.138	12734
926.245	12711
926.352	12589
926.459	12722
926.566	12772
926.673	12623
926.779	12445
926.886	12456
926.993	12414
927.099	12266
927.206	12262
927.312	12224
927.419	12422
927.525	12224
927.631	12262
927.737	12186
927.843	12140
927.95	12064
928.056	12098
928.162	12163
928.267	12182
928.373	12555
928.479	12262
928.585	11996
928.69	12072
928.796	12106
928.901	11946
929.007	11889
929.112	12030
929.218	11870
929.323	11870
929.428	11859
929.533	12064
929.638	11809
929.743	11817
929.848	11866
929.953	11752
930.058	11634
930.163	11497
930.267	11566
930.372	11729
930.477	11474
930.581	11779
930.685	11520
930.79	11463
930.894	11493
930.998	11372
931.103	11501
931.207	11208
931.311	11155
931.415	11033
931.519	10828
931.623	10771
