Data from test_V78500241_6.txt Node
Date: Fri Mar 25 15:09:54 CST 2022
User: usil
Spectrometer: V785-0024
Trigger mode: 0
Integration Time (sec): 4.000000E-1
Scans to average: 1
Nonlinearity correction enabled: false
Boxcar width: 0
Storing dark spectrum: false
XAxis mode: Wavelengths
Number of Pixels in Spectrum: 1024
>>>>>Begin Spectral Data<<<<<
801.071	27595
801.214	27386
801.356	27237
801.499	27203
801.641	27062
801.783	26906
801.926	26933
802.068	26785
802.211	26868
802.353	26902
802.496	26530
802.638	26621
802.78	26480
802.923	26400
803.065	26552
803.208	26408
803.35	26594
803.492	26682
803.635	26590
803.777	26537
803.919	26659
804.061	26887
804.204	26659
804.346	26530
804.488	26495
804.63	26473
804.773	26286
804.915	26442
805.057	26636
805.199	26564
805.341	26511
805.483	26655
805.626	26556
805.768	26530
805.91	26644
806.052	26659
806.194	26530
806.336	26648
806.478	26636
806.62	26583
806.762	26659
806.904	26712
807.046	27047
807.188	26807
807.33	26918
807.472	26906
807.614	26838
807.756	26773
807.898	26655
808.04	26743
808.182	26731
808.324	26651
808.465	26583
808.607	26773
808.749	26914
808.891	27074
809.033	27203
809.174	26986
809.316	26918
809.458	26937
809.6	26845
809.741	26979
809.883	27020
810.025	27298
810.166	27207
810.308	27161
810.45	27211
810.591	27009
810.733	26899
810.875	26948
811.016	26853
811.158	26716
811.299	26937
811.441	26967
811.582	27043
811.724	26773
811.865	26762
812.007	26921
812.148	26819
812.29	26739
812.431	26902
812.573	27119
812.714	27264
812.855	27378
812.997	27435
813.138	27557
813.279	27450
813.421	27393
813.562	27287
813.703	27150
813.845	27081
813.986	26655
814.127	26571
814.268	26469
814.41	26469
814.551	26408
814.692	26476
814.833	26259
814.974	26298
815.115	26461
815.256	26240
815.397	26267
815.539	26301
815.68	26145
815.821	26065
815.962	26267
816.103	26001
816.244	26020
816.385	25966
816.526	25833
816.666	25696
816.807	25464
816.948	25677
817.089	25609
817.23	25575
817.371	25563
817.512	25594
817.653	25457
817.793	25400
817.934	25449
818.075	25464
818.216	25460
818.356	25521
818.497	25247
818.638	25187
818.778	25145
818.919	25209
819.06	25232
819.2	25247
819.341	25392
819.481	25510
819.622	25567
819.762	25879
819.903	25616
820.043	25506
820.184	25460
820.324	25460
820.465	25597
820.605	25472
820.746	25453
820.886	25335
821.026	25415
821.167	25521
821.307	25464
821.447	25236
821.588	25308
821.728	25126
821.868	24913
822.008	24829
822.149	24795
822.289	24696
822.429	24642
822.569	24540
822.709	24604
822.849	24254
822.99	24445
823.13	24289
823.27	24178
823.41	24007
823.55	24114
823.69	24076
823.83	24201
823.97	24057
824.11	23923
824.25	23745
824.389	23809
824.529	23923
824.669	23824
824.809	23999
824.949	23855
825.089	23942
825.228	23821
825.368	23577
825.508	23630
825.648	23596
825.787	23630
825.927	23737
826.067	23512
826.206	23482
826.346	23649
826.485	23665
826.625	23573
826.765	23585
826.904	23745
827.044	23334
827.183	23372
827.323	23223
827.462	23337
827.601	23193
827.741	23239
827.88	23356
828.02	23102
828.159	23166
828.298	23254
828.437	23387
828.577	23265
828.716	23246
828.855	23299
828.994	22949
829.134	22961
829.273	22919
829.412	22835
829.551	22946
829.69	22980
829.829	22976
829.968	22820
830.107	22934
830.246	22991
830.385	22740
830.524	22843
830.663	22717
830.802	22603
830.941	22523
831.08	22504
831.219	22546
831.357	22554
831.496	22664
831.635	22512
831.774	22356
831.913	22306
832.051	22356
832.19	22303
832.329	22249
832.467	22116
832.606	22074
832.744	21998
832.883	22276
833.022	22013
833.16	22124
833.299	22082
833.437	22070
833.576	22158
833.714	22188
833.852	22124
833.991	22192
834.129	22287
834.267	22120
834.406	22188
834.544	22147
834.682	21987
834.821	22139
834.959	22291
835.097	22021
835.235	22219
835.373	22067
835.511	22074
835.65	22063
835.788	22017
835.926	21918
836.064	21854
836.202	21835
836.34	21998
836.478	21994
836.615	21960
836.753	21941
836.891	22059
837.029	21953
837.167	21846
837.305	21819
837.443	21869
837.58	21797
837.718	21994
837.856	21823
837.993	21835
838.131	21793
838.269	21736
838.406	21720
838.544	21572
838.681	21348
838.819	21367
838.956	21176
839.094	21348
839.231	21439
839.369	21431
839.506	21648
839.643	21526
839.781	21203
839.918	21173
840.055	21096
840.193	21127
840.33	21100
840.467	21081
840.604	21214
840.742	21378
840.879	20952
841.016	21062
841.153	20910
841.29	21222
841.427	21093
841.564	21146
841.701	21188
841.838	21020
841.975	20982
842.112	20937
842.249	20853
842.385	20819
842.522	21047
842.659	20864
842.796	20777
842.933	20944
843.069	20731
843.206	20842
843.343	20868
843.479	20811
843.616	20811
843.752	20381
843.889	20503
844.025	20629
844.162	20404
844.298	20697
844.435	20393
844.571	20522
844.708	20617
844.844	20731
844.98	20796
845.117	20587
845.253	20434
845.389	20438
845.525	20419
845.661	20469
845.798	20282
845.934	20370
846.07	20172
846.206	20202
846.342	20290
846.478	20366
846.614	20069
846.75	19955
846.886	19944
847.022	20126
847.158	20096
847.294	19993
847.429	20081
847.565	19974
847.701	20233
847.837	19708
847.972	19632
848.108	19871
848.244	19833
848.379	19662
848.515	19601
848.65	19537
848.786	19548
848.921	19575
849.057	19582
849.192	19567
849.328	19578
849.463	19548
849.598	19502
849.734	19449
849.869	19464
850.004	19343
850.14	19381
850.275	19274
850.41	19240
850.545	19247
850.68	19232
850.815	19362
850.95	19228
851.085	19499
851.22	19419
851.355	19266
851.49	19324
851.625	19282
851.76	19289
851.895	19088
852.03	19247
852.165	19141
852.299	19316
852.434	19266
852.569	19282
852.703	19198
852.838	19324
852.973	19476
853.107	19225
853.242	19194
853.376	19164
853.511	18909
853.645	19076
853.78	19171
853.914	19133
854.048	18958
854.183	19046
854.317	19072
854.451	19327
854.585	19042
854.72	19023
854.854	19107
854.988	18932
855.122	19118
855.256	18920
855.39	19156
855.524	19129
855.658	19122
855.792	19148
855.926	19099
856.06	19061
856.194	19137
856.327	19034
856.461	19114
856.595	19004
856.729	18951
856.862	19004
856.996	19126
857.13	19027
857.263	19126
857.397	19091
857.53	19023
857.664	19091
857.797	19031
857.931	19209
858.064	19050
858.197	19206
858.331	19050
858.464	18875
858.597	18928
858.731	18947
858.864	18932
858.997	18958
859.13	18981
859.263	18989
859.396	19053
859.529	18981
859.662	18920
859.795	18993
859.928	18935
860.061	19194
860.194	19137
860.327	18989
860.46	19019
860.592	19152
860.725	19110
860.858	18962
860.99	18901
861.123	18924
861.256	18897
861.388	19034
861.521	19586
861.653	18901
861.786	18776
861.918	18856
862.05	19050
862.183	19015
862.315	19012
862.447	19126
862.58	19091
862.712	18604
862.844	18734
862.976	18875
863.108	18875
863.24	19236
863.372	18681
863.504	18757
863.636	18646
863.768	18726
863.9	18707
864.032	18620
864.164	18631
864.296	18661
864.428	18783
864.559	18722
864.691	18791
864.823	18810
864.954	18684
865.086	18665
865.217	18658
865.349	18585
865.48	18597
865.612	18642
865.743	18684
865.875	18669
866.006	18601
866.137	18681
866.269	18536
866.4	18532
866.531	18612
866.662	18532
866.793	18585
866.924	18593
867.055	18544
867.186	18547
867.317	18559
867.448	18376
867.579	18471
867.71	18490
867.841	18566
867.972	18608
868.103	18513
868.233	18521
868.364	18578
868.495	18604
868.625	18764
868.756	18871
868.886	18688
869.017	18840
869.147	18920
869.278	18951
869.408	18802
869.539	18829
869.669	18749
869.799	18753
869.929	18913
870.06	18852
870.19	19042
870.32	19088
870.45	19053
870.58	19190
870.71	19320
870.84	19301
870.97	19171
871.1	19179
871.23	19293
871.36	19316
871.489	19369
871.619	19308
871.749	19430
871.879	19396
872.008	19499
872.138	19476
872.267	19335
872.397	19171
872.526	19141
872.656	19175
872.785	19236
872.915	19403
873.044	19407
873.173	19419
873.303	19415
873.432	19495
873.561	19449
873.69	19392
873.819	19381
873.948	19559
874.077	19483
874.206	19365
874.335	19346
874.464	19597
874.593	19571
874.722	19597
874.851	19681
874.979	19750
875.108	19731
875.237	19643
875.365	19460
875.494	19681
875.623	19845
875.751	19651
875.88	19681
876.008	19769
876.136	19837
876.265	20157
876.393	20138
876.521	20278
876.65	20088
876.778	19978
876.906	20031
877.034	20012
877.162	20130
877.29	19925
877.418	20100
877.546	19906
877.674	20100
877.802	20096
877.93	20058
878.058	20081
878.185	20027
878.313	20168
878.441	20168
878.568	19963
878.696	19898
878.824	20172
878.951	20096
879.079	20278
879.206	20317
879.333	20259
879.461	20134
879.588	20161
879.715	20237
879.842	20332
879.97	20183
880.097	19833
880.224	19822
880.351	19921
880.478	19944
880.605	19791
880.732	19932
880.859	20199
880.986	19894
881.112	19913
881.239	19871
881.366	19780
881.493	19723
881.619	19605
881.746	19533
881.872	19499
881.999	19601
882.125	19422
882.252	19537
882.378	19635
882.505	19681
882.631	19457
882.757	19415
882.883	19282
883.01	19377
883.136	19381
883.262	19114
883.388	19190
883.514	19297
883.64	19354
883.766	19369
883.892	19031
884.018	19042
884.143	19244
884.269	19381
884.395	19084
884.52	19053
884.646	18985
884.772	18920
884.897	18859
885.023	18954
885.148	19141
885.274	19015
885.399	18951
885.524	19031
885.65	18935
885.775	18890
885.9	18882
886.025	19088
886.15	19057
886.275	18848
886.4	18970
886.525	18833
886.65	18875
886.775	18886
886.9	19004
887.025	19221
887.149	18863
887.274	18745
887.399	18627
887.523	18753
887.648	18635
887.773	18688
887.897	18700
888.021	18707
888.146	18684
888.27	18722
888.395	18867
888.519	18795
888.643	18810
888.767	18791
888.891	18551
889.015	18525
889.139	18631
889.263	18441
889.387	18593
889.511	18665
889.635	18779
889.759	18525
889.883	18464
890.006	18559
890.13	18631
890.254	18407
890.377	18483
890.501	18342
890.624	18247
890.748	18346
890.871	18190
890.995	18102
891.118	18095
891.241	18133
891.364	18155
891.488	18197
891.611	18254
891.734	18228
891.857	18194
891.98	18136
892.103	18174
892.226	18220
892.349	18167
892.471	17969
892.594	18068
892.717	18129
892.839	18106
892.962	18121
893.085	18087
893.207	18098
893.33	17969
893.452	18030
893.575	18133
893.697	17916
893.819	18201
893.941	18281
894.064	18178
894.186	17980
894.308	18034
894.43	18201
894.552	18144
894.674	18178
894.796	18098
894.918	18007
895.04	18053
895.161	18125
895.283	18209
895.405	18015
895.526	18136
895.648	18140
895.769	18117
895.891	18076
896.012	18254
896.134	18220
896.255	18247
896.376	18072
896.498	18155
896.619	18155
896.74	18209
896.861	18205
896.982	18658
897.103	18601
897.224	18547
897.345	18266
897.466	18376
897.587	18441
897.708	18544
897.828	18464
897.949	18296
898.07	18262
898.19	18289
898.311	18357
898.431	18311
898.552	18342
898.672	18544
898.792	18433
898.913	18365
899.033	18247
899.153	18034
899.273	18007
899.393	18060
899.513	18091
899.633	18064
899.753	18125
899.873	18083
899.993	18117
900.113	18034
900.232	18057
900.352	18057
900.472	17969
900.591	17859
900.711	17992
900.83	17847
900.95	18076
901.069	18064
901.189	17882
901.308	17642
901.427	17604
901.546	17501
901.665	17665
901.784	17543
901.904	17421
902.023	17337
902.141	17181
902.26	16953
902.379	17124
902.498	17143
902.617	17067
902.735	17132
902.854	17056
902.973	16965
903.091	16710
903.21	16820
903.328	16828
903.446	16797
903.565	16653
903.683	16504
903.801	16466
903.919	16474
904.038	16554
904.156	16363
904.274	16417
904.392	16371
904.51	16310
904.627	16375
904.745	16413
904.863	16390
904.981	16147
905.098	16097
905.216	16154
905.334	16116
905.451	16010
905.569	15873
905.686	16131
905.803	16013
905.921	15895
906.038	15911
906.155	15846
906.272	15755
906.389	15739
906.506	15572
906.623	15595
906.74	15580
906.857	15519
906.974	15473
907.091	15690
907.208	15751
907.324	15595
907.441	15488
907.557	15306
907.674	15310
907.79	15165
907.907	15184
908.023	15230
908.139	15272
908.256	15150
908.372	15135
908.488	15161
908.604	14975
908.72	14941
908.836	15017
908.952	14910
909.068	15020
909.184	15100
909.3	15020
909.415	15001
909.531	14982
909.647	14754
909.762	14602
909.878	14712
909.993	14739
910.108	14644
910.224	14670
910.339	14724
910.454	14606
910.57	14571
910.685	14438
910.8	14705
910.915	14765
911.03	14469
911.145	14317
911.259	14263
911.374	14298
911.489	14256
911.604	14252
911.718	14016
911.833	14024
911.947	13879
912.062	13902
912.176	13906
912.291	14058
912.405	13947
912.519	14225
912.633	14172
912.748	14119
912.862	13955
912.976	13875
913.09	13788
913.204	13875
913.318	13837
913.431	13970
913.545	13967
913.659	13913
913.772	13845
913.886	13807
914	13696
914.113	13871
914.226	13837
914.34	13856
914.453	13643
914.566	13814
914.68	13658
914.793	13609
914.906	13468
915.019	13282
915.132	13293
915.245	13373
915.358	13384
915.47	13426
915.583	13422
915.696	13464
915.809	13460
915.921	13472
916.034	13373
916.146	13247
916.259	13228
916.371	13407
916.483	13365
916.595	13339
916.708	13312
916.82	13270
916.932	13236
917.044	13198
917.156	13240
917.268	13031
917.38	13076
917.491	12977
917.603	13171
917.715	13091
917.826	13206
917.938	13114
918.049	12913
918.161	13023
918.272	13152
918.384	13152
918.495	12989
918.606	12894
918.717	12878
918.828	12939
918.939	12962
919.05	12867
919.161	12798
919.272	12692
919.383	12692
919.494	12928
919.604	13050
919.715	12871
919.826	12772
919.936	12810
920.047	12916
920.157	12825
920.267	13168
920.378	12798
920.488	12833
920.598	13027
920.708	13225
920.818	13012
920.928	12947
921.038	13110
921.148	13012
921.258	12833
921.368	12741
921.477	12597
921.587	12544
921.697	12486
921.806	12597
921.916	12456
922.025	12262
922.134	12350
922.244	12213
922.353	12289
922.462	12220
922.571	12087
922.68	11977
922.789	11859
922.898	11916
923.007	11786
923.116	11942
923.224	11847
923.333	11874
923.442	11786
923.55	11691
923.659	11752
923.767	11752
923.876	11707
923.984	11821
924.092	11577
924.201	11707
924.309	11703
924.417	11676
924.525	11577
924.633	11688
924.741	12601
924.849	11452
924.956	11608
925.064	11391
925.172	11273
925.279	11406
925.387	11414
925.494	11436
925.602	11532
925.709	11433
925.816	11353
925.924	11406
926.031	11444
926.138	11387
926.245	11421
926.352	11273
926.459	11497
926.566	11433
926.673	11341
926.779	11193
926.886	11185
926.993	11090
927.099	11056
927.206	10976
927.312	10953
927.419	11041
927.525	11045
927.631	11056
927.737	10942
927.843	10900
927.95	10820
928.056	10934
928.162	10942
928.267	10942
928.373	11554
928.479	11006
928.585	10736
928.69	10908
928.796	10877
928.901	10774
929.007	10603
929.112	10767
929.218	10755
929.323	10649
929.428	10668
929.533	10748
929.638	10596
929.743	10664
929.848	10630
929.953	10546
930.058	10485
930.163	10344
930.267	10409
930.372	10436
930.477	10344
930.581	10558
930.685	10436
930.79	10284
930.894	10280
930.998	10223
931.103	10344
931.207	9998
931.311	9937
931.415	9835
931.519	9629
931.623	9705
