Data from test_V78500241_2182.txt Node
Date: Fri Mar 25 15:25:03 CST 2022
User: usil
Spectrometer: V785-0024
Trigger mode: 0
Integration Time (sec): 4.000000E-1
Scans to average: 1
Nonlinearity correction enabled: false
Boxcar width: 0
Storing dark spectrum: false
XAxis mode: Wavelengths
Number of Pixels in Spectrum: 1024
>>>>>Begin Spectral Data<<<<<
801.071	27800
801.214	27583
801.356	27523
801.499	27420
801.641	27431
801.783	27249
801.926	27389
802.068	27291
802.211	27161
802.353	27100
802.496	27039
802.638	27009
802.78	26883
802.923	26834
803.065	26823
803.208	26807
803.35	26960
803.492	27085
803.635	27142
803.777	27020
803.919	27055
804.061	27530
804.204	27020
804.346	27036
804.488	27093
804.63	27001
804.773	27142
804.915	27249
805.057	27188
805.199	27135
805.341	27287
805.483	27287
805.626	27188
805.768	27218
805.91	27310
806.052	27329
806.194	27264
806.336	27355
806.478	27195
806.62	27161
806.762	27302
806.904	27477
807.046	27857
807.188	27709
807.33	27629
807.472	27759
807.614	27568
807.756	27511
807.898	27420
808.04	27450
808.182	27477
808.324	27652
808.465	27568
808.607	27846
808.749	27884
808.891	27937
809.033	27975
809.174	27922
809.316	27918
809.458	27842
809.6	27892
809.741	28006
809.883	28017
810.025	28078
810.166	28139
810.308	28154
810.45	28109
810.591	28051
810.733	27804
810.875	27873
811.016	27633
811.158	27701
811.299	27861
811.441	28040
811.582	27926
811.724	27876
811.865	27918
812.007	27835
812.148	27869
812.29	27930
812.431	28059
812.573	28135
812.714	28306
812.855	28261
812.997	28497
813.138	28713
813.279	28565
813.421	28344
813.562	28341
813.703	28135
813.845	28059
813.986	27895
814.127	27842
814.268	27603
814.41	27603
814.551	27469
814.692	27561
814.833	27412
814.974	27542
815.115	27545
815.256	27462
815.397	27435
815.539	27500
815.68	27291
815.821	27393
815.962	27344
816.103	27298
816.244	27199
816.385	27188
816.526	27028
816.666	26944
816.807	26868
816.948	26811
817.089	26914
817.23	26849
817.371	26807
817.512	26602
817.653	26834
817.793	26758
817.934	26872
818.075	26838
818.216	26731
818.356	26758
818.497	26705
818.638	26598
818.778	26552
818.919	26537
819.06	26686
819.2	26663
819.341	26876
819.481	26872
819.622	26921
819.762	27096
819.903	27036
820.043	27077
820.184	26971
820.324	26861
820.465	26994
820.605	27001
820.746	26807
820.886	26807
821.026	26967
821.167	26910
821.307	26826
821.447	26754
821.588	26651
821.728	26537
821.868	26499
822.008	26343
822.149	26240
822.289	26324
822.429	26073
822.569	25951
822.709	25982
822.849	25780
822.99	25826
823.13	25738
823.27	25818
823.41	25632
823.55	25571
823.69	25590
823.83	25632
823.97	25483
824.11	25407
824.25	25327
824.389	25331
824.529	25422
824.669	25354
824.809	25548
824.949	25400
825.089	25407
825.228	25377
825.368	25247
825.508	25335
825.648	25377
825.787	25384
825.927	25354
826.067	25358
826.206	25274
826.346	25327
826.485	25266
826.625	25384
826.765	25453
826.904	25445
827.044	25194
827.183	24992
827.323	25008
827.462	24996
827.601	25061
827.741	25012
827.88	25072
828.02	24840
828.159	25019
828.298	24989
828.437	25042
828.577	24924
828.716	25126
828.855	24810
828.994	24776
829.134	24741
829.273	24688
829.412	24798
829.551	24616
829.69	24620
829.829	24783
829.968	24760
830.107	24837
830.246	24734
830.385	24597
830.524	24703
830.663	24486
830.802	24422
830.941	24330
831.08	24380
831.219	24418
831.357	24311
831.496	24464
831.635	24296
831.774	24258
831.913	24167
832.051	24022
832.19	24140
832.329	24125
832.467	23973
832.606	23828
832.744	23912
832.883	23878
833.022	23980
833.16	23996
833.299	24018
833.437	23992
833.576	23988
833.714	24091
833.852	23927
833.991	24022
834.129	24018
834.267	23977
834.406	23973
834.544	24018
834.682	24068
834.821	23961
834.959	24049
835.097	24022
835.235	24015
835.373	24114
835.511	23901
835.65	23847
835.788	23771
835.926	23824
836.064	23691
836.202	23649
836.34	23855
836.478	23992
836.615	23691
836.753	23832
836.891	23923
837.029	23737
837.167	23756
837.305	23714
837.443	23718
837.58	23592
837.718	23760
837.856	23771
837.993	23646
838.131	23729
838.269	23551
838.406	23646
838.544	23486
838.681	23284
838.819	23379
838.956	23212
839.094	23170
839.231	23280
839.369	23307
839.506	23497
839.643	23406
839.781	23147
839.918	23277
840.055	23216
840.193	23155
840.33	23109
840.467	23250
840.604	23147
840.742	23379
840.879	23041
841.016	22930
841.153	22911
841.29	23170
841.427	23041
841.564	23033
841.701	23044
841.838	23029
841.975	23025
842.112	22896
842.249	22896
842.385	22797
842.522	23121
842.659	22911
842.796	22862
842.933	22877
843.069	22679
843.206	22889
843.343	22877
843.479	22774
843.616	22896
843.752	22565
843.889	22565
844.025	22771
844.162	22542
844.298	22653
844.435	22516
844.571	22565
844.708	22752
844.844	22706
844.98	22763
845.117	22763
845.253	22535
845.389	22379
845.525	22546
845.661	22462
845.798	22344
845.934	22402
846.07	22223
846.206	22360
846.342	22474
846.478	22474
846.614	22219
846.75	22082
846.886	22131
847.022	22135
847.158	22074
847.294	22086
847.429	22109
847.565	22109
847.701	22291
847.837	21774
847.972	21800
848.108	21835
848.244	21739
848.379	21660
848.515	21679
848.65	21766
848.786	21724
848.921	21656
849.057	21762
849.192	21724
849.328	21785
849.463	21603
849.598	21572
849.734	21526
849.869	21564
850.004	21389
850.14	21492
850.275	21370
850.41	21291
850.545	21363
850.68	21374
850.815	21447
850.95	21359
851.085	21549
851.22	21405
851.355	21542
851.49	21378
851.625	21450
851.76	21435
851.895	21408
852.03	21298
852.165	21378
852.299	21504
852.434	21450
852.569	21462
852.703	21367
852.838	21466
852.973	21504
853.107	21408
853.242	21408
853.376	21294
853.511	21119
853.645	21214
853.78	21374
853.914	21367
854.048	21142
854.183	21237
854.317	21226
854.451	21378
854.585	21157
854.72	21351
854.854	21367
854.988	21207
855.122	21302
855.256	21009
855.39	21173
855.524	21302
855.658	21203
855.792	21211
855.926	21306
856.06	21302
856.194	21260
856.327	21207
856.461	21218
856.595	21226
856.729	21226
856.862	21298
856.996	21370
857.13	21310
857.263	21393
857.397	21279
857.53	21260
857.664	21188
857.797	21264
857.931	21233
858.064	21241
858.197	21351
858.331	21226
858.464	21157
858.597	21055
858.731	21104
858.864	21214
858.997	21203
859.13	21176
859.263	21367
859.396	21420
859.529	21195
859.662	21169
859.795	21104
859.928	21203
860.061	21355
860.194	21367
860.327	21233
860.46	21287
860.592	21150
860.725	21336
860.858	21420
860.99	21173
861.123	21020
861.256	21188
861.388	21089
861.521	21956
861.653	21043
861.786	21017
861.918	21058
862.05	21070
862.183	21017
862.315	21070
862.447	21222
862.58	21138
862.712	20872
862.844	20956
862.976	20960
863.108	20944
863.24	21507
863.372	20895
863.504	20952
863.636	21001
863.768	20899
863.9	20933
864.032	20785
864.164	20857
864.296	20929
864.428	20956
864.559	21070
864.691	20971
864.823	20899
864.954	20921
865.086	20979
865.217	20872
865.349	20807
865.48	20925
865.612	20906
865.743	20941
865.875	20982
866.006	20765
866.137	20834
866.269	20883
866.4	20819
866.531	20861
866.662	20800
866.793	20727
866.924	20842
867.055	20731
867.186	20804
867.317	20655
867.448	20815
867.579	20712
867.71	20640
867.841	20720
867.972	20716
868.103	20800
868.233	20705
868.364	20769
868.495	20762
868.625	20944
868.756	21123
868.886	20887
869.017	21001
869.147	21161
869.278	21142
869.408	21032
869.539	20994
869.669	21009
869.799	21017
869.929	21138
870.06	21176
870.19	21355
870.32	21180
870.45	21332
870.58	21329
870.71	21519
870.84	21515
870.97	21447
871.1	21473
871.23	21671
871.36	21530
871.489	21454
871.619	21545
871.749	21587
871.879	21667
872.008	21648
872.138	21644
872.267	21538
872.397	21397
872.526	21439
872.656	21523
872.785	21340
872.915	21583
873.044	21641
873.173	21671
873.303	21732
873.432	21694
873.561	21751
873.69	21709
873.819	21591
873.948	21736
874.077	21671
874.206	21622
874.335	21504
874.464	21842
874.593	21747
874.722	21804
874.851	21899
874.979	21838
875.108	21869
875.237	21770
875.365	21724
875.494	21888
875.623	21979
875.751	21888
875.88	21732
876.008	21915
876.136	22078
876.265	22318
876.393	22459
876.521	22394
876.65	22344
876.778	22223
876.906	22196
877.034	22272
877.162	22344
877.29	22150
877.418	22242
877.546	22158
877.674	22249
877.802	22143
877.93	22158
878.058	22143
878.185	22150
878.313	22158
878.441	22261
878.568	22188
878.696	22166
878.824	22284
878.951	22253
879.079	22204
879.206	22523
879.333	22188
879.461	22276
879.588	22200
879.715	22348
879.842	22474
879.97	22211
880.097	22051
880.224	22097
880.351	22029
880.478	21983
880.605	21880
880.732	21983
880.859	22246
880.986	22086
881.112	22040
881.239	21922
881.366	21827
881.493	21648
881.619	21545
881.746	21606
881.872	21622
881.999	21580
882.125	21580
882.252	21633
882.378	21477
882.505	21698
882.631	21477
882.757	21169
882.883	21359
883.01	21340
883.136	21241
883.262	21184
883.388	21066
883.514	21241
883.64	21359
883.766	21165
883.892	21070
884.018	21077
884.143	21298
884.269	21298
884.395	21062
884.52	20864
884.646	21032
884.772	20994
884.897	20682
885.023	21013
885.148	21024
885.274	21093
885.399	21028
885.524	20941
885.65	20956
885.775	20960
885.9	21039
886.025	21093
886.15	20883
886.275	20883
886.4	20826
886.525	20910
886.65	20834
886.775	20834
886.9	21043
887.025	21138
887.149	20925
887.274	20788
887.399	20705
887.523	20746
887.648	20606
887.773	20587
887.897	20754
888.021	20651
888.146	20796
888.27	20811
888.395	20830
888.519	20739
888.643	20686
888.767	20758
888.891	20526
889.015	20571
889.139	20598
889.263	20404
889.387	20457
889.511	20739
889.635	20636
889.759	20571
889.883	20412
890.006	20476
890.13	20659
890.254	20366
890.377	20381
890.501	20237
890.624	20221
890.748	20278
890.871	20126
890.995	20024
891.118	20046
891.241	20043
891.364	20161
891.488	20229
891.611	20111
891.734	20084
891.857	20199
891.98	20069
892.103	20046
892.226	20043
892.349	19951
892.471	19906
892.594	19978
892.717	20031
892.839	20069
892.962	19963
893.085	19982
893.207	19936
893.33	19818
893.452	19909
893.575	19986
893.697	19868
893.819	20077
893.941	20130
894.064	20157
894.186	19955
894.308	19890
894.43	20168
894.552	20164
894.674	20096
894.796	19894
894.918	19974
895.04	20008
895.161	20115
895.283	19947
895.405	19932
895.526	19868
895.648	19936
895.769	19997
895.891	20039
896.012	20024
896.134	20001
896.255	19947
896.376	19970
896.498	19917
896.619	19940
896.74	20039
896.861	20062
896.982	20309
897.103	20454
897.224	20282
897.345	20214
897.466	20092
897.587	20145
897.708	20396
897.828	20267
897.949	20092
898.07	20138
898.19	20168
898.311	20385
898.431	20221
898.552	20229
898.672	20206
898.792	20343
898.913	20168
899.033	20039
899.153	19868
899.273	19970
899.393	19970
899.513	19967
899.633	20043
899.753	20065
899.873	19989
899.993	20054
900.113	20016
900.232	19970
900.352	19951
900.472	19856
900.591	19795
900.711	19761
900.83	19761
900.95	19791
901.069	19780
901.189	19616
901.308	19324
901.427	19308
901.546	19499
901.665	19377
901.784	19419
901.904	19168
902.023	19095
902.141	19000
902.26	18909
902.379	18890
902.498	18886
902.617	18829
902.735	18833
902.854	18825
902.973	18837
903.091	18570
903.21	18559
903.328	18555
903.446	18475
903.565	18357
903.683	18372
903.801	18266
903.919	18319
904.038	18232
904.156	18064
904.274	18148
904.392	18136
904.51	18030
904.627	18125
904.745	18136
904.863	18129
904.981	17855
905.098	17855
905.216	17798
905.334	17802
905.451	17859
905.569	17745
905.686	17748
905.803	17684
905.921	17623
906.038	17577
906.155	17509
906.272	17425
906.389	17433
906.506	17326
906.623	17315
906.74	17216
906.857	17166
906.974	17280
907.091	17376
907.208	17455
907.324	17326
907.441	17193
907.557	17045
907.674	17029
907.79	16911
907.907	16972
908.023	17079
908.139	17014
908.256	16999
908.372	16946
908.488	16866
908.604	16839
908.72	16740
908.836	16645
908.952	16733
909.068	16702
909.184	16820
909.3	16736
909.415	16733
909.531	16679
909.647	16440
909.762	16478
909.878	16318
909.993	16504
910.108	16402
910.224	16398
910.339	16455
910.454	16329
910.57	16284
910.685	16181
910.8	16417
910.915	16344
911.03	16280
911.145	16086
911.259	15918
911.374	16029
911.489	16021
911.604	15869
911.718	15743
911.833	15846
911.947	15671
912.062	15561
912.176	15781
912.291	15694
912.405	15732
912.519	15838
912.633	15987
912.748	15823
912.862	15770
912.976	15656
913.09	15450
913.204	15553
913.318	15644
913.431	15648
913.545	15671
913.659	15728
913.772	15545
913.886	15477
914	15431
914.113	15515
914.226	15652
914.34	15557
914.453	15233
914.566	15431
914.68	15291
914.793	15279
914.906	15142
915.019	15081
915.132	14979
915.245	14994
915.358	14944
915.47	15005
915.583	14967
915.696	15104
915.809	15112
915.921	15108
916.034	14956
916.146	14826
916.259	14918
916.371	14902
916.483	14937
916.595	14921
916.708	14773
916.82	14906
916.932	14864
917.044	14796
917.156	14785
917.268	14625
917.38	14727
917.491	14716
917.603	14670
917.715	14819
917.826	14765
917.938	14701
918.049	14495
918.161	14663
918.272	14724
918.384	14765
918.495	14480
918.606	14480
918.717	14412
918.828	14419
918.939	14415
919.05	14408
919.161	14355
919.272	14271
919.383	14229
919.494	14457
919.604	14610
919.715	14366
919.826	14317
919.936	14351
920.047	14454
920.157	14404
920.267	14590
920.378	14358
920.488	14396
920.598	14587
920.708	14678
920.818	14412
920.928	14526
921.038	14716
921.148	14678
921.258	14324
921.368	14324
921.477	14164
921.587	14157
921.697	14020
921.806	14081
921.916	13925
922.025	13795
922.134	13765
922.244	13708
922.353	13879
922.462	13712
922.571	13552
922.68	13460
922.789	13430
922.898	13392
923.007	13362
923.116	13476
923.224	13308
923.333	13377
923.442	13259
923.55	13282
923.659	13266
923.767	13354
923.876	13160
923.984	13251
924.092	13069
924.201	13183
924.309	13183
924.417	13095
924.525	13084
924.633	13019
924.741	13769
924.849	12909
924.956	13012
925.064	12886
925.172	12890
925.279	12798
925.387	12859
925.494	12764
925.602	12981
925.709	12894
925.816	12795
925.924	12817
926.031	12894
926.138	12825
926.245	12757
926.352	12715
926.459	12867
926.566	12875
926.673	12749
926.779	12604
926.886	12559
926.993	12498
927.099	12437
927.206	12414
927.312	12384
927.419	12475
927.525	12391
927.631	12445
927.737	12247
927.843	12270
927.95	12190
928.056	12277
928.162	12251
928.267	12285
928.373	12920
928.479	12346
928.585	12087
928.69	12159
928.796	12201
928.901	12087
929.007	12034
929.112	12155
929.218	12091
929.323	11954
929.428	12026
929.533	12026
929.638	11969
929.743	11885
929.848	11946
929.953	11916
930.058	11901
930.163	11592
930.267	11653
930.372	11745
930.477	11608
930.581	11798
930.685	11653
930.79	11566
930.894	11573
930.998	11623
931.103	11653
931.207	11303
931.311	11284
931.415	11056
931.519	10919
931.623	10915
