Data from test_V78500241_1149.txt Node
Date: Fri Mar 25 15:17:51 CST 2022
User: usil
Spectrometer: V785-0024
Trigger mode: 0
Integration Time (sec): 4.000000E-1
Scans to average: 1
Nonlinearity correction enabled: false
Boxcar width: 0
Storing dark spectrum: false
XAxis mode: Wavelengths
Number of Pixels in Spectrum: 1024
>>>>>Begin Spectral Data<<<<<
801.071	28451
801.214	28143
801.356	27857
801.499	27873
801.641	27918
801.783	27724
801.926	27968
802.068	27720
802.211	27762
802.353	27614
802.496	27462
802.638	27477
802.78	27427
802.923	27523
803.065	27344
803.208	27564
803.35	27424
803.492	27538
803.635	27671
803.777	27534
803.919	27739
804.061	28128
804.204	27736
804.346	27572
804.488	27644
804.63	27572
804.773	27542
804.915	27762
805.057	27888
805.199	27797
805.341	27774
805.483	27945
805.626	27842
805.768	27717
805.91	27827
806.052	27686
806.194	27823
806.336	27987
806.478	27816
806.62	27972
806.762	28078
806.904	28109
807.046	28257
807.188	28333
807.33	28196
807.472	28367
807.614	28249
807.756	28257
807.898	28192
808.04	28158
808.182	28078
808.324	28131
808.465	28147
808.607	28493
808.749	28637
808.891	28706
809.033	28596
809.174	28622
809.316	28561
809.458	28603
809.6	28519
809.741	28622
809.883	28687
810.025	28965
810.166	28774
810.308	28759
810.45	28900
810.591	28668
810.733	28596
810.875	28554
811.016	28352
811.158	28474
811.299	28592
811.441	28733
811.582	28577
811.724	28580
811.865	28611
812.007	28489
812.148	28565
812.29	28428
812.431	28580
812.573	28801
812.714	28919
812.855	29044
812.997	29147
813.138	29200
813.279	29242
813.421	29136
813.562	29025
813.703	28885
813.845	28790
813.986	28577
814.127	28360
814.268	28257
814.41	28371
814.551	28101
814.692	28230
814.833	28200
814.974	28135
815.115	28280
815.256	28143
815.397	28002
815.539	28025
815.68	28059
815.821	28067
815.962	28109
816.103	28010
816.244	27895
816.385	27797
816.526	27793
816.666	27572
816.807	27660
816.948	27629
817.089	27690
817.23	27576
817.371	27481
817.512	27492
817.653	27743
817.793	27504
817.934	27477
818.075	27622
818.216	27515
818.356	27591
818.497	27367
818.638	27317
818.778	27321
818.919	27427
819.06	27416
819.2	27447
819.341	27523
819.481	27717
819.622	27690
819.762	27880
819.903	27827
820.043	27747
820.184	27705
820.324	27698
820.465	27781
820.605	27481
820.746	27523
820.886	27622
821.026	27622
821.167	27507
821.307	27701
821.447	27568
821.588	27351
821.728	27321
821.868	27256
822.008	26994
822.149	26990
822.289	26948
822.429	26720
822.569	26678
822.709	26762
822.849	26613
822.99	26644
823.13	26412
823.27	26476
823.41	26381
823.55	26214
823.69	26389
823.83	26377
823.97	26377
824.11	26145
824.25	26244
824.389	26263
824.529	26214
824.669	26126
824.809	26263
824.949	26218
825.089	26252
825.228	26271
825.368	25917
825.508	26058
825.648	26183
825.787	26180
825.927	26119
826.067	25902
826.206	26176
826.346	26073
826.485	26180
826.625	26058
826.765	26046
826.904	26046
827.044	25856
827.183	25879
827.323	25811
827.462	25871
827.601	25708
827.741	25826
827.88	25841
828.02	25723
828.159	25871
828.298	25803
828.437	25928
828.577	25708
828.716	25814
828.855	25750
828.994	25426
829.134	25457
829.273	25620
829.412	25483
829.551	25548
829.69	25495
829.829	25548
829.968	25556
830.107	25605
830.246	25388
830.385	25453
830.524	25240
830.663	25274
830.802	25274
830.941	25076
831.08	25046
831.219	25240
831.357	25190
831.496	25285
831.635	25065
831.774	25061
831.913	25015
832.051	25038
832.19	24875
832.329	24951
832.467	24802
832.606	24738
832.744	24681
832.883	24821
833.022	24787
833.16	24749
833.299	24844
833.437	24802
833.576	24867
833.714	24875
833.852	24905
833.991	24894
834.129	24875
834.267	25000
834.406	24928
834.544	24897
834.682	24905
834.821	24837
834.959	24981
835.097	24943
835.235	24932
835.373	24772
835.511	24825
835.65	24654
835.788	24707
835.926	24528
836.064	24460
836.202	24566
836.34	24753
836.478	24658
836.615	24681
836.753	24783
836.891	24787
837.029	24753
837.167	24585
837.305	24612
837.443	24551
837.58	24608
837.718	24570
837.856	24650
837.993	24509
838.131	24502
838.269	24365
838.406	24517
838.544	24388
838.681	24106
838.819	24102
838.956	24098
839.094	24163
839.231	24098
839.369	24235
839.506	24353
839.643	24216
839.781	24003
839.918	23863
840.055	24057
840.193	24079
840.33	23999
840.467	24018
840.604	23874
840.742	24289
840.879	23821
841.016	23832
841.153	23840
841.29	24060
841.427	23885
841.564	23973
841.701	23824
841.838	23920
841.975	23821
842.112	23821
842.249	23794
842.385	23680
842.522	23901
842.659	23627
842.796	23714
842.933	23733
843.069	23619
843.206	23581
843.343	23802
843.479	23703
843.616	23764
843.752	23547
843.889	23391
844.025	23551
844.162	23497
844.298	23436
844.435	23524
844.571	23478
844.708	23611
844.844	23581
844.98	23562
845.117	23486
845.253	23387
845.389	23239
845.525	23330
845.661	23345
845.798	23204
845.934	23269
846.07	23159
846.206	23292
846.342	23330
846.478	23212
846.614	23037
846.75	22771
846.886	22850
847.022	23086
847.158	23010
847.294	22953
847.429	22991
847.565	22835
847.701	23193
847.837	22550
847.972	22668
848.108	22774
848.244	22740
848.379	22535
848.515	22428
848.65	22413
848.786	22550
848.921	22546
849.057	22691
849.192	22645
849.328	22618
849.463	22584
849.598	22474
849.734	22337
849.869	22398
850.004	22341
850.14	22303
850.275	22253
850.41	22265
850.545	22280
850.68	22120
850.815	22261
850.95	22181
851.085	22314
851.22	22363
851.355	22246
851.49	22158
851.625	22234
851.76	22287
851.895	22112
852.03	22154
852.165	22154
852.299	22356
852.434	22265
852.569	22173
852.703	22318
852.838	22230
852.973	22402
853.107	22417
853.242	22150
853.376	22169
853.511	21968
853.645	22036
853.78	22162
853.914	21987
854.048	22128
854.183	21983
854.317	22154
854.451	22299
854.585	22120
854.72	22082
854.854	22143
854.988	21945
855.122	22177
855.256	21953
855.39	22036
855.524	22196
855.658	22032
855.792	22188
855.926	22078
856.06	22109
856.194	22150
856.327	22048
856.461	22067
856.595	22036
856.729	22051
856.862	22147
856.996	22253
857.13	22246
857.263	22158
857.397	22139
857.53	22017
857.664	22006
857.797	22143
857.931	22230
858.064	22067
858.197	22253
858.331	22067
858.464	22139
858.597	21987
858.731	22021
858.864	22048
858.997	22051
859.13	22097
859.263	22032
859.396	22223
859.529	22074
859.662	22074
859.795	22051
859.928	22067
860.061	22219
860.194	22257
860.327	22010
860.46	22196
860.592	22017
860.725	22192
860.858	22280
860.99	22074
861.123	21968
861.256	22090
861.388	22093
861.521	22873
861.653	21926
861.786	21827
861.918	21945
862.05	21994
862.183	22002
862.315	21960
862.447	22029
862.58	21945
862.712	21808
862.844	21739
862.976	21850
863.108	21751
863.24	22253
863.372	21648
863.504	21838
863.636	21694
863.768	21812
863.9	21759
864.032	21728
864.164	21739
864.296	21743
864.428	21888
864.559	21869
864.691	21732
864.823	21793
864.954	21720
865.086	21747
865.217	21759
865.349	21545
865.48	21595
865.612	21618
865.743	21835
865.875	21629
866.006	21705
866.137	21713
866.269	21580
866.4	21583
866.531	21564
866.662	21568
866.793	21686
866.924	21557
867.055	21663
867.186	21641
867.317	21553
867.448	21481
867.579	21675
867.71	21515
867.841	21545
867.972	21447
868.103	21496
868.233	21591
868.364	21568
868.495	21622
868.625	21827
868.756	22017
868.886	21865
869.017	21880
869.147	21800
869.278	21873
869.408	21876
869.539	21701
869.669	21937
869.799	21903
869.929	21968
870.06	22002
870.19	22109
870.32	21964
870.45	22177
870.58	22253
870.71	22329
870.84	22226
870.97	22265
871.1	22204
871.23	22409
871.36	22371
871.489	22363
871.619	22398
871.749	22280
871.879	22527
872.008	22573
872.138	22504
872.267	22421
872.397	22303
872.526	22303
872.656	22272
872.785	22344
872.915	22508
873.044	22550
873.173	22455
873.303	22637
873.432	22325
873.561	22687
873.69	22519
873.819	22363
873.948	22626
874.077	22455
874.206	22489
874.335	22367
874.464	22459
874.593	22557
874.722	22687
874.851	22672
874.979	22577
875.108	22687
875.237	22786
875.365	22592
875.494	22584
875.623	22740
875.751	22527
875.88	22660
876.008	22782
876.136	22850
876.265	23052
876.393	23208
876.521	23060
876.65	23143
876.778	23170
876.906	23003
877.034	23037
877.162	23033
877.29	22889
877.418	23041
877.546	22987
877.674	23006
877.802	22930
877.93	22987
878.058	23041
878.185	22850
878.313	22972
878.441	23029
878.568	22881
878.696	22892
878.824	23212
878.951	23113
879.079	23098
879.206	23246
879.333	23208
879.461	22919
879.588	23193
879.715	23178
879.842	23197
879.97	23086
880.097	22850
880.224	22729
880.351	22839
880.478	22831
880.605	22698
880.732	22797
880.859	23010
880.986	22786
881.112	22812
881.239	22763
881.366	22535
881.493	22466
881.619	22310
881.746	22493
881.872	22329
881.999	22459
882.125	22257
882.252	22432
882.378	22242
882.505	22390
882.631	22314
882.757	22166
882.883	22181
883.01	22051
883.136	21968
883.262	21945
883.388	22029
883.514	22109
883.64	22048
883.766	21960
883.892	21846
884.018	21880
884.143	21991
884.269	21964
884.395	21823
884.52	21652
884.646	21694
884.772	21663
884.897	21538
885.023	21720
885.148	21781
885.274	21865
885.399	21789
885.524	21637
885.65	21663
885.775	21614
885.9	21701
886.025	21736
886.15	21842
886.275	21637
886.4	21530
886.525	21648
886.65	21671
886.775	21652
886.9	21778
887.025	21797
887.149	21732
887.274	21530
887.399	21488
887.523	21367
887.648	21279
887.773	21397
887.897	21367
888.021	21515
888.146	21359
888.27	21538
888.395	21416
888.519	21469
888.643	21450
888.767	21515
888.891	21336
889.015	21310
889.139	21306
889.263	21222
889.387	21348
889.511	21477
889.635	21363
889.759	21161
889.883	21298
890.006	21317
890.13	21275
890.254	21077
890.377	21180
890.501	20956
890.624	20941
890.748	20994
890.871	20864
890.995	20754
891.118	20758
891.241	20842
891.364	20826
891.488	20914
891.611	20838
891.734	20807
891.857	20868
891.98	20754
892.103	20777
892.226	20773
892.349	20735
892.471	20701
892.594	20583
892.717	20735
892.839	20731
892.962	20746
893.085	20788
893.207	20629
893.33	20606
893.452	20636
893.575	20750
893.697	20689
893.819	20785
893.941	20853
894.064	20785
894.186	20716
894.308	20705
894.43	20754
894.552	20785
894.674	20762
894.796	20617
894.918	20708
895.04	20598
895.161	20735
895.283	20689
895.405	20682
895.526	20682
895.648	20697
895.769	20667
895.891	20743
896.012	20712
896.134	20663
896.255	20606
896.376	20727
896.498	20705
896.619	20689
896.74	20682
896.861	20765
896.982	21017
897.103	21036
897.224	21013
897.345	20838
897.466	20796
897.587	21017
897.708	20967
897.828	20948
897.949	20819
898.07	20781
898.19	20762
898.311	20933
898.431	20861
898.552	20906
898.672	20971
898.792	20868
898.913	20857
899.033	20720
899.153	20674
899.273	20575
899.393	20758
899.513	20655
899.633	20670
899.753	20545
899.873	20537
899.993	20670
900.113	20438
900.232	20560
900.352	20419
900.472	20404
900.591	20457
900.711	20473
900.83	20290
900.95	20446
901.069	20431
901.189	20252
901.308	19982
901.427	19986
901.546	19970
901.665	19993
901.784	19989
901.904	19875
902.023	19651
902.141	19605
902.26	19525
902.379	19457
902.498	19487
902.617	19415
902.735	19548
902.854	19453
902.973	19365
903.091	19088
903.21	19080
903.328	19148
903.446	19080
903.565	18939
903.683	18981
903.801	18916
903.919	18939
904.038	18749
904.156	18703
904.274	18715
904.392	18551
904.51	18620
904.627	18749
904.745	18871
904.863	18791
904.981	18517
905.098	18281
905.216	18414
905.334	18433
905.451	18513
905.569	18346
905.686	18456
905.803	18346
905.921	18152
906.038	18235
906.155	18243
906.272	17988
906.389	18083
906.506	17942
906.623	17977
906.74	17817
906.857	17767
906.974	17809
907.091	17931
907.208	18026
907.324	17870
907.441	17798
907.557	17687
907.674	17630
907.79	17604
907.907	17589
908.023	17581
908.139	17646
908.256	17585
908.372	17490
908.488	17486
908.604	17402
908.72	17280
908.836	17436
908.952	17261
909.068	17402
909.184	17463
909.3	17379
909.415	17330
909.531	17356
909.647	17064
909.762	17048
909.878	16927
909.993	17140
910.108	17033
910.224	17018
910.339	17079
910.454	16862
910.57	16828
910.685	16771
910.8	17105
910.915	16976
911.03	16801
911.145	16653
911.259	16664
911.374	16694
911.489	16592
911.604	16470
911.718	16432
911.833	16363
911.947	16223
912.062	16101
912.176	16402
912.291	16310
912.405	16280
912.519	16516
912.633	16542
912.748	16341
912.862	16261
912.976	16173
913.09	16109
913.204	16238
913.318	16143
913.431	16200
913.545	16204
913.659	16249
913.772	16143
913.886	16093
914	16036
914.113	16002
914.226	16055
914.34	15972
914.453	15918
914.566	15998
914.68	15793
914.793	15835
914.906	15686
915.019	15576
915.132	15485
915.245	15637
915.358	15515
915.47	15511
915.583	15534
915.696	15576
915.809	15671
915.921	15671
916.034	15564
916.146	15504
916.259	15549
916.371	15660
916.483	15469
916.595	15302
916.708	15401
916.82	15378
916.932	15268
917.044	15363
917.156	15317
917.268	15241
917.38	15203
917.491	15154
917.603	15218
917.715	15310
917.826	15287
917.938	15123
918.049	15028
918.161	15104
918.272	15222
918.384	15249
918.495	15097
918.606	14952
918.717	14906
918.828	14941
918.939	15017
919.05	14895
919.161	14857
919.272	14693
919.383	14804
919.494	14944
919.604	15214
919.715	14979
919.826	14815
919.936	14910
920.047	14952
920.157	14902
920.267	15135
920.378	14990
920.488	14979
920.598	15100
920.708	15077
920.818	15020
920.928	15024
921.038	15123
921.148	15230
921.258	14868
921.368	14682
921.477	14549
921.587	14549
921.697	14537
921.806	14629
921.916	14484
922.025	14317
922.134	14267
922.244	14259
922.353	14301
922.462	14050
922.571	14161
922.68	13856
922.789	13928
922.898	13944
923.007	13871
923.116	13883
923.224	13902
923.333	13959
923.442	13738
923.55	13689
923.659	13845
923.767	13803
923.876	13662
923.984	13750
924.092	13597
924.201	13601
924.309	13499
924.417	13605
924.525	13518
924.633	13441
924.741	14560
924.849	13392
924.956	13518
925.064	13324
925.172	13297
925.279	13362
925.387	13282
925.494	13354
925.602	13438
925.709	13327
925.816	13221
925.924	13289
926.031	13289
926.138	13183
926.245	13278
926.352	13179
926.459	13266
926.566	13320
926.673	13194
926.779	12973
926.886	13008
926.993	12909
927.099	12878
927.206	12749
927.312	12764
927.419	12825
927.525	12825
927.631	12890
927.737	12646
927.843	12772
927.95	12551
928.056	12673
928.162	12730
928.267	12681
928.373	13362
928.479	12711
928.585	12551
928.69	12730
928.796	12616
928.901	12521
929.007	12365
929.112	12486
929.218	12506
929.323	12479
929.428	12407
929.533	12460
929.638	12418
929.743	12254
929.848	12300
929.953	12330
930.058	12178
930.163	12053
930.267	12152
930.372	12197
930.477	11984
930.581	12270
930.685	12072
930.79	11931
930.894	11923
930.998	11882
931.103	12019
931.207	11657
931.311	11668
931.415	11486
931.519	11318
931.623	11227
