Data from test_V78500241_3453.txt Node
Date: Fri Mar 25 15:33:54 CST 2022
User: usil
Spectrometer: V785-0024
Trigger mode: 0
Integration Time (sec): 4.000000E-1
Scans to average: 1
Nonlinearity correction enabled: false
Boxcar width: 0
Storing dark spectrum: false
XAxis mode: Wavelengths
Number of Pixels in Spectrum: 1024
>>>>>Begin Spectral Data<<<<<
801.071	27321
801.214	27260
801.356	26944
801.499	27070
801.641	26845
801.783	26956
801.926	26773
802.068	26678
802.211	26762
802.353	26674
802.496	26689
802.638	26465
802.78	26511
802.923	26492
803.065	26343
803.208	26423
803.35	26423
803.492	26560
803.635	26629
803.777	26545
803.919	26708
804.061	26921
804.204	26781
804.346	26590
804.488	26434
804.63	26560
804.773	26613
804.915	26617
805.057	26686
805.199	26575
805.341	26609
805.483	26651
805.626	26708
805.768	26663
805.91	26720
806.052	26712
806.194	26644
806.336	26842
806.478	26701
806.62	26701
806.762	26895
806.904	26902
807.046	27287
807.188	27104
807.33	27074
807.472	27287
807.614	27081
807.756	27214
807.898	27005
808.04	26883
808.182	26918
808.324	27074
808.465	26948
808.607	27317
808.749	27222
808.891	27439
809.033	27359
809.174	27542
809.316	27283
809.458	27214
809.6	27359
809.741	27408
809.883	27523
810.025	27618
810.166	27599
810.308	27523
810.45	27542
810.591	27583
810.733	27325
810.875	27397
811.016	27192
811.158	27264
811.299	27530
811.441	27492
811.582	27473
811.724	27291
811.865	27169
812.007	27222
812.148	27359
812.29	27424
812.431	27595
812.573	27705
812.714	27618
812.855	27895
812.997	28048
813.138	28002
813.279	27949
813.421	27892
813.562	27793
813.703	27644
813.845	27488
813.986	27359
814.127	27222
814.268	27077
814.41	26948
814.551	27020
814.692	27005
814.833	26883
814.974	26902
815.115	27001
815.256	26811
815.397	26807
815.539	26887
815.68	26777
815.821	26670
815.962	26800
816.103	26857
816.244	26625
816.385	26552
816.526	26446
816.666	26278
816.807	26244
816.948	26229
817.089	26332
817.23	26191
817.371	26278
817.512	26218
817.653	26176
817.793	26233
817.934	26134
818.075	26164
818.216	26278
818.356	26240
818.497	26187
818.638	26043
818.778	26065
818.919	26111
819.06	25947
819.2	26206
819.341	26267
819.481	26107
819.622	26465
819.762	26571
819.903	26476
820.043	26453
820.184	26244
820.324	26347
820.465	26336
820.605	26294
820.746	26320
820.886	26218
821.026	26328
821.167	26221
821.307	26332
821.447	26164
821.588	26183
821.728	25928
821.868	25795
822.008	25791
822.149	25696
822.289	25594
822.429	25449
822.569	25392
822.709	25365
822.849	25217
822.99	25301
823.13	25175
823.27	25152
823.41	25088
823.55	24958
823.69	25069
823.83	25015
823.97	24905
824.11	24795
824.25	24829
824.389	24966
824.529	24954
824.669	24890
824.809	24947
824.949	24901
825.089	24905
825.228	24856
825.368	24623
825.508	24627
825.648	24646
825.787	24817
825.927	24749
826.067	24791
826.206	24768
826.346	24814
826.485	24688
826.625	24764
826.765	24730
826.904	24753
827.044	24399
827.183	24483
827.323	24540
827.462	24483
827.601	24441
827.741	24388
827.88	24559
828.02	24300
828.159	24441
828.298	24426
828.437	24551
828.577	24456
828.716	24376
828.855	24365
828.994	24136
829.134	24216
829.273	24159
829.412	24049
829.551	24121
829.69	24205
829.829	24133
829.968	24315
830.107	24270
830.246	24140
830.385	24136
830.524	24079
830.663	24068
830.802	23950
830.941	23794
831.08	23722
831.219	23828
831.357	23737
831.496	24011
831.635	23798
831.774	23802
831.913	23726
832.051	23604
832.19	23444
832.329	23410
832.467	23478
832.606	23395
832.744	23364
832.883	23490
833.022	23372
833.16	23440
833.299	23471
833.437	23471
833.576	23444
833.714	23486
833.852	23585
833.991	23543
834.129	23615
834.267	23558
834.406	23452
834.544	23589
834.682	23619
834.821	23611
834.959	23665
835.097	23501
835.235	23406
835.373	23627
835.511	23608
835.65	23372
835.788	23334
835.926	23117
836.064	23193
836.202	23265
836.34	23490
836.478	23497
836.615	23337
836.753	23433
836.891	23410
837.029	23318
837.167	23265
837.305	23368
837.443	23242
837.58	23174
837.718	23288
837.856	23200
837.993	23216
838.131	23292
838.269	23048
838.406	23052
838.544	22987
838.681	23006
838.819	22873
838.956	22706
839.094	22748
839.231	22725
839.369	22820
839.506	23071
839.643	22881
839.781	22736
839.918	22626
840.055	22721
840.193	22668
840.33	22535
840.467	22668
840.604	22725
840.742	22774
840.879	22478
841.016	22519
841.153	22310
841.29	22820
841.427	22588
841.564	22752
841.701	22645
841.838	22702
841.975	22512
842.112	22455
842.249	22550
842.385	22447
842.522	22599
842.659	22424
842.796	22314
842.933	22481
843.069	22390
843.206	22257
843.343	22371
843.479	22329
843.616	22310
843.752	22265
843.889	22090
844.025	22268
844.162	22169
844.298	22238
844.435	22150
844.571	22192
844.708	22257
844.844	22352
844.98	22234
845.117	22280
845.253	22173
845.389	21937
845.525	22139
845.661	22070
845.798	21903
845.934	22029
846.07	21812
846.206	21953
846.342	21983
846.478	21804
846.614	21739
846.75	21698
846.886	21686
847.022	21679
847.158	21876
847.294	21694
847.429	21800
847.565	21622
847.701	21907
847.837	21473
847.972	21370
848.108	21500
848.244	21500
848.379	21230
848.515	21359
848.65	21275
848.786	21245
848.921	21131
849.057	21344
849.192	21192
849.328	21389
849.463	21272
849.598	21161
849.734	21157
849.869	21119
850.004	21005
850.14	21108
850.275	20956
850.41	20979
850.545	21051
850.68	20823
850.815	21093
850.95	20834
851.085	21268
851.22	21017
851.355	21108
851.49	21081
851.625	20941
851.76	20933
851.895	20883
852.03	20880
852.165	20990
852.299	20990
852.434	21093
852.569	20982
852.703	20948
852.838	21062
852.973	21161
853.107	21074
853.242	20914
853.376	20861
853.511	20697
853.645	20823
853.78	20895
853.914	20804
854.048	20838
854.183	20838
854.317	20823
854.451	20914
854.585	20815
854.72	20788
854.854	20990
854.988	20838
855.122	20800
855.256	20705
855.39	20807
855.524	20918
855.658	20963
855.792	20902
855.926	20925
856.06	20918
856.194	20937
856.327	20826
856.461	20735
856.595	20720
856.729	20826
856.862	20967
856.996	20804
857.13	20735
857.263	20998
857.397	20918
857.53	20864
857.664	20853
857.797	20826
857.931	20887
858.064	20861
858.197	20811
858.331	20876
858.464	20727
858.597	20659
858.731	20880
858.864	20781
858.997	20811
859.13	20762
859.263	20887
859.396	20853
859.529	20750
859.662	20861
859.795	20785
859.928	20872
860.061	20948
860.194	21032
860.327	20914
860.46	20785
860.592	20933
860.725	20895
860.858	20872
860.99	20895
861.123	20701
861.256	20735
861.388	20834
861.521	21568
861.653	20609
861.786	20659
861.918	20632
862.05	20678
862.183	20819
862.315	20667
862.447	20815
862.58	20762
862.712	20537
862.844	20499
862.976	20655
863.108	20644
863.24	21036
863.372	20415
863.504	20602
863.636	20655
863.768	20495
863.9	20674
864.032	20423
864.164	20575
864.296	20396
864.428	20594
864.559	20678
864.691	20549
864.823	20598
864.954	20530
865.086	20469
865.217	20442
865.349	20469
865.48	20473
865.612	20473
865.743	20571
865.875	20530
866.006	20374
866.137	20442
866.269	20461
866.4	20377
866.531	20313
866.662	20355
866.793	20423
866.924	20240
867.055	20442
867.186	20366
867.317	20336
867.448	20328
867.579	20396
867.71	20263
867.841	20377
867.972	20396
868.103	20374
868.233	20328
868.364	20450
868.495	20469
868.625	20640
868.756	20621
868.886	20503
869.017	20705
869.147	20735
869.278	20800
869.408	20659
869.539	20556
869.669	20613
869.799	20682
869.929	20705
870.06	20644
870.19	20883
870.32	20857
870.45	21001
870.58	20899
870.71	21192
870.84	21051
870.97	20944
871.1	20906
871.23	21173
871.36	21329
871.489	21127
871.619	21241
871.749	21329
871.879	21317
872.008	21279
872.138	21207
872.267	21180
872.397	21062
872.526	21077
872.656	21127
872.785	21074
872.915	21203
873.044	21294
873.173	21302
873.303	21287
873.432	21340
873.561	21378
873.69	21287
873.819	21188
873.948	21363
874.077	21180
874.206	21283
874.335	21230
874.464	21481
874.593	21500
874.722	21408
874.851	21610
874.979	21481
875.108	21580
875.237	21466
875.365	21424
875.494	21424
875.623	21595
875.751	21599
875.88	21599
876.008	21675
876.136	21679
876.265	21846
876.393	22040
876.521	21964
876.65	22040
876.778	21838
876.906	21827
877.034	21835
877.162	21930
877.29	21663
877.418	21869
877.546	21915
877.674	21937
877.802	21831
877.93	21831
878.058	21808
878.185	21652
878.313	21800
878.441	21728
878.568	21610
878.696	21838
878.824	21774
878.951	22010
879.079	21949
879.206	22181
879.333	22029
879.461	21899
879.588	21880
879.715	22010
879.842	22242
879.97	21876
880.097	21705
880.224	21766
880.351	21751
880.478	21759
880.605	21686
880.732	21667
880.859	21956
880.986	21515
881.112	21667
881.239	21701
881.366	21416
881.493	21340
881.619	21317
881.746	21287
881.872	21176
881.999	21249
882.125	21264
882.252	21272
882.378	21272
882.505	21355
882.631	21017
882.757	21055
882.883	20948
883.01	21024
883.136	20899
883.262	20746
883.388	20857
883.514	20925
883.64	20963
883.766	20967
883.892	20708
884.018	20648
884.143	20906
884.269	21009
884.395	20678
884.52	20629
884.646	20575
884.772	20518
884.897	20488
885.023	20731
885.148	20743
885.274	20792
885.399	20849
885.524	20541
885.65	20621
885.775	20545
885.9	20583
886.025	20773
886.15	20678
886.275	20457
886.4	20602
886.525	20549
886.65	20507
886.775	20507
886.9	20777
887.025	20777
887.149	20758
887.274	20412
887.399	20374
887.523	20400
887.648	20313
887.773	20199
887.897	20469
888.021	20473
888.146	20438
888.27	20492
888.395	20560
888.519	20488
888.643	20438
888.767	20400
888.891	20317
889.015	20214
889.139	20195
889.263	20199
889.387	20347
889.511	20317
889.635	20298
889.759	20248
889.883	20191
890.006	20324
890.13	20210
890.254	20081
890.377	20122
890.501	19833
890.624	19887
890.748	19928
890.871	19868
890.995	19746
891.118	19639
891.241	19780
891.364	19715
891.488	19845
891.611	19757
891.734	19795
891.857	19807
891.98	19772
892.103	19883
892.226	19784
892.349	19761
892.471	19658
892.594	19681
892.717	19753
892.839	19639
892.962	19571
893.085	19757
893.207	19609
893.33	19567
893.452	19620
893.575	19746
893.697	19769
893.819	19814
893.941	19788
894.064	19837
894.186	19601
894.308	19582
894.43	19700
894.552	19871
894.674	19769
894.796	19590
894.918	19639
895.04	19563
895.161	19772
895.283	19852
895.405	19658
895.526	19628
895.648	19632
895.769	19750
895.891	19750
896.012	19811
896.134	19784
896.255	19776
896.376	19601
896.498	19776
896.619	19666
896.74	19628
896.861	19723
896.982	20005
897.103	20244
897.224	20046
897.345	19898
897.466	19731
897.587	19967
897.708	20100
897.828	19890
897.949	19894
898.07	19715
898.19	19887
898.311	19868
898.431	19795
898.552	19811
898.672	19887
898.792	19993
898.913	19875
899.033	19811
899.153	19746
899.273	19487
899.393	19624
899.513	19742
899.633	19624
899.753	19681
899.873	19662
899.993	19708
900.113	19582
900.232	19540
900.352	19635
900.472	19453
900.591	19434
900.711	19365
900.83	19270
900.95	19506
901.069	19495
901.189	19354
901.308	19202
901.427	18977
901.546	19038
901.665	19091
901.784	18996
901.904	18886
902.023	18730
902.141	18639
902.26	18498
902.379	18669
902.498	18551
902.617	18467
902.735	18540
902.854	18479
902.973	18471
903.091	18289
903.21	18254
903.328	18277
903.446	18213
903.565	18060
903.683	18079
903.801	17958
903.919	17946
904.038	17942
904.156	17737
904.274	17901
904.392	17786
904.51	17790
904.627	17786
904.745	17760
904.863	17843
904.981	17672
905.098	17459
905.216	17501
905.334	17558
905.451	17452
905.569	17444
905.686	17486
905.803	17448
905.921	17288
906.038	17311
906.155	17296
906.272	17200
906.389	17189
906.506	17014
906.623	17052
906.74	17033
906.857	16850
906.974	16919
907.091	17041
907.208	17071
907.324	17025
907.441	16923
907.557	16839
907.674	16778
907.79	16702
907.907	16748
908.023	16801
908.139	16649
908.256	16683
908.372	16729
908.488	16706
908.604	16508
908.72	16466
908.836	16394
908.952	16493
909.068	16504
909.184	16573
909.3	16402
909.415	16440
909.531	16447
909.647	16166
909.762	16147
909.878	16082
909.993	16139
910.108	16093
910.224	16124
910.339	16124
910.454	16021
910.57	16032
910.685	15937
910.8	16177
910.915	16116
911.03	16006
911.145	15865
911.259	15781
911.374	15724
911.489	15686
911.604	15549
911.718	15568
911.833	15561
911.947	15485
912.062	15370
912.176	15561
912.291	15515
912.405	15428
912.519	15705
912.633	15648
912.748	15564
912.862	15431
912.976	15439
913.09	15340
913.204	15272
913.318	15389
913.431	15450
913.545	15389
913.659	15523
913.772	15298
913.886	15245
914	15214
914.113	15203
914.226	15199
914.34	15245
914.453	15039
914.566	15146
914.68	14990
914.793	15017
914.906	14838
915.019	14648
915.132	14651
915.245	14716
915.358	14826
915.47	14746
915.583	14788
915.696	14667
915.809	14864
915.921	14982
916.034	14735
916.146	14579
916.259	14651
916.371	14712
916.483	14743
916.595	14511
916.708	14682
916.82	14587
916.932	14533
917.044	14511
917.156	14552
917.268	14450
917.38	14469
917.491	14461
917.603	14400
917.715	14526
917.826	14495
917.938	14412
918.049	14339
918.161	14415
918.272	14549
918.384	14537
918.495	14404
918.606	14218
918.717	14142
918.828	14278
918.939	14248
919.05	13997
919.161	14214
919.272	13913
919.383	14024
919.494	14225
919.604	14404
919.715	14126
919.826	14149
919.936	14115
920.047	14191
920.157	14206
920.267	14461
920.378	14069
920.488	14275
920.598	14328
920.708	14469
920.818	14301
920.928	14176
921.038	14423
921.148	14400
921.258	14092
921.368	13978
921.477	13879
921.587	13940
921.697	13738
921.806	13936
921.916	13727
922.025	13552
922.134	13575
922.244	13567
922.353	13594
922.462	13460
922.571	13362
922.68	13263
922.789	13232
922.898	13187
923.007	13225
923.116	13266
923.224	13080
923.333	13126
923.442	13069
923.55	12932
923.659	13091
923.767	13084
923.876	13038
923.984	13076
924.092	13019
924.201	12993
924.309	12989
924.417	13000
924.525	12939
924.633	12928
924.741	13845
924.849	12707
924.956	12817
925.064	12612
925.172	12620
925.279	12646
925.387	12646
925.494	12722
925.602	12783
925.709	12688
925.816	12509
925.924	12578
926.031	12730
926.138	12559
926.245	12658
926.352	12441
926.459	12681
926.566	12616
926.673	12506
926.779	12426
926.886	12395
926.993	12323
927.099	12239
927.206	12114
927.312	12205
927.419	12254
927.525	12304
927.631	12277
927.737	12110
927.843	11980
927.95	12038
928.056	12098
928.162	12030
928.267	12038
928.373	12528
928.479	12140
928.585	11840
928.69	12030
928.796	12030
928.901	11927
929.007	11760
929.112	11965
929.218	11817
929.323	11760
929.428	11851
929.533	11923
929.638	11676
929.743	11741
929.848	11821
929.953	11764
930.058	11680
930.163	11383
930.267	11566
930.372	11570
930.477	11353
930.581	11642
930.685	11505
930.79	11402
930.894	11410
930.998	11353
931.103	11448
931.207	11136
931.311	11109
931.415	10919
931.519	10771
931.623	10755
