Data from test_V78500241_2401.txt Node
Date: Fri Mar 25 15:26:34 CST 2022
User: usil
Spectrometer: V785-0024
Trigger mode: 0
Integration Time (sec): 4.000000E-1
Scans to average: 1
Nonlinearity correction enabled: false
Boxcar width: 0
Storing dark spectrum: false
XAxis mode: Wavelengths
Number of Pixels in Spectrum: 1024
>>>>>Begin Spectral Data<<<<<
801.071	27176
801.214	27169
801.356	26925
801.499	26708
801.641	26632
801.783	26750
801.926	26834
802.068	26693
802.211	26735
802.353	26621
802.496	26571
802.638	26412
802.78	26347
802.923	26343
803.065	26298
803.208	26286
803.35	26419
803.492	26541
803.635	26564
803.777	26434
803.919	26571
804.061	26819
804.204	26682
804.346	26629
804.488	26560
804.63	26606
804.773	26362
804.915	26507
805.057	26530
805.199	26503
805.341	26701
805.483	26735
805.626	26785
805.768	26560
805.91	26552
806.052	26807
806.194	26598
806.336	26899
806.478	26663
806.62	26686
806.762	26689
806.904	26845
807.046	27233
807.188	27207
807.33	27005
807.472	27252
807.614	26990
807.756	27017
807.898	26895
808.04	26857
808.182	26811
808.324	26807
808.465	26990
808.607	27005
808.749	27252
808.891	27313
809.033	27340
809.174	27306
809.316	27142
809.458	27249
809.6	27256
809.741	27393
809.883	27332
810.025	27572
810.166	27542
810.308	27500
810.45	27416
810.591	27443
810.733	27329
810.875	27131
811.016	27184
811.158	27039
811.299	27340
811.441	27332
811.582	27260
811.724	27279
811.865	27207
812.007	27233
812.148	27340
812.29	27386
812.431	27424
812.573	27481
812.714	27652
812.855	27857
812.997	27736
813.138	27949
813.279	27838
813.421	27800
813.562	27701
813.703	27603
813.845	27485
813.986	27150
814.127	27161
814.268	26876
814.41	26982
814.551	26876
814.692	27058
814.833	26857
814.974	26857
815.115	26883
815.256	26613
815.397	26834
815.539	26807
815.68	26575
815.821	26564
815.962	26617
816.103	26484
816.244	26590
816.385	26484
816.526	26374
816.666	26355
816.807	26092
816.948	26142
817.089	26164
817.23	26343
817.371	26191
817.512	26229
817.653	26183
817.793	26031
817.934	26210
818.075	26221
818.216	26161
818.356	26142
818.497	26012
818.638	25845
818.778	25822
818.919	25959
819.06	25875
819.2	25974
819.341	26164
819.481	25989
819.622	26282
819.762	26495
819.903	26347
820.043	26282
820.184	26355
820.324	26225
820.465	26317
820.605	26145
820.746	26298
820.886	26122
821.026	26267
821.167	26176
821.307	26180
821.447	26134
821.588	26069
821.728	25852
821.868	25780
822.008	25746
822.149	25639
822.289	25616
822.429	25304
822.569	25335
822.709	25358
822.849	25141
822.99	25168
823.13	25164
823.27	24985
823.41	24981
823.55	24875
823.69	24935
823.83	24977
823.97	24863
824.11	24722
824.25	24779
824.389	24795
824.529	24791
824.669	24821
824.809	24814
824.949	24833
825.089	24878
825.228	24722
825.368	24555
825.508	24578
825.648	24566
825.787	24563
825.927	24738
826.067	24525
826.206	24574
826.346	24555
826.485	24734
826.625	24532
826.765	24741
826.904	24711
827.044	24498
827.183	24338
827.323	24391
827.462	24308
827.601	24311
827.741	24289
827.88	24372
828.02	24270
828.159	24357
828.298	24311
828.437	24338
828.577	24174
828.716	24418
828.855	24327
828.994	24129
829.134	23920
829.273	23984
829.412	23855
829.551	24114
829.69	23988
829.829	24057
829.968	24098
830.107	24144
830.246	24163
830.385	23836
830.524	23946
830.663	23851
830.802	23779
830.941	23653
831.08	23695
831.219	23684
831.357	23752
831.496	23851
831.635	23657
831.774	23623
831.913	23562
832.051	23463
832.19	23402
832.329	23440
832.467	23292
832.606	23303
832.744	23178
832.883	23364
833.022	23265
833.16	23261
833.299	23364
833.437	23383
833.576	23459
833.714	23269
833.852	23383
833.991	23493
834.129	23497
834.267	23512
834.406	23455
834.544	23528
834.682	23440
834.821	23440
834.959	23474
835.097	23334
835.235	23497
835.373	23345
835.511	23345
835.65	23181
835.788	23121
835.926	23208
836.064	22961
836.202	23132
836.34	23204
836.478	23307
836.615	23155
836.753	23159
836.891	23356
837.029	23296
837.167	23185
837.305	23124
837.443	23033
837.58	23064
837.718	23216
837.856	23060
837.993	23003
838.131	23060
838.269	23022
838.406	23033
838.544	22904
838.681	22755
838.819	22710
838.956	22641
839.094	22679
839.231	22729
839.369	22702
839.506	22957
839.643	22847
839.781	22660
839.918	22443
840.055	22481
840.193	22500
840.33	22440
840.467	22561
840.604	22500
840.742	22725
840.879	22287
841.016	22356
841.153	22314
841.29	22523
841.427	22382
841.564	22580
841.701	22417
841.838	22371
841.975	22462
842.112	22478
842.249	22333
842.385	22276
842.522	22375
842.659	22318
842.796	22150
842.933	22253
843.069	22181
843.206	22249
843.343	22204
843.479	22173
843.616	22360
843.752	22032
843.889	22086
844.025	22169
844.162	21930
844.298	22029
844.435	22116
844.571	22086
844.708	22074
844.844	22185
844.98	22051
845.117	22101
845.253	21998
845.389	22006
845.525	22010
845.661	21930
845.798	21816
845.934	21861
846.07	21732
846.206	21709
846.342	21953
846.478	21755
846.614	21572
846.75	21447
846.886	21511
847.022	21606
847.158	21485
847.294	21530
847.429	21466
847.565	21443
847.701	21755
847.837	21233
847.972	21313
848.108	21214
848.244	21287
848.379	21173
848.515	21036
848.65	21009
848.786	21157
848.921	21127
849.057	21184
849.192	21146
849.328	21119
849.463	21051
849.598	20971
849.734	20944
849.869	21032
850.004	20883
850.14	20872
850.275	20830
850.41	20769
850.545	20720
850.68	20819
850.815	20792
850.95	20796
851.085	20948
851.22	20899
851.355	20876
851.49	20876
851.625	20876
851.76	20720
851.895	20663
852.03	20590
852.165	20838
852.299	20861
852.434	20838
852.569	20785
852.703	20785
852.838	20963
852.973	20944
853.107	21005
853.242	20785
853.376	20731
853.511	20423
853.645	20648
853.78	20785
853.914	20644
854.048	20674
854.183	20678
854.317	20644
854.451	20834
854.585	20644
854.72	20625
854.854	20853
854.988	20640
855.122	20750
855.256	20590
855.39	20670
855.524	20739
855.658	20765
855.792	20769
855.926	20750
856.06	20705
856.194	20773
856.327	20686
856.461	20492
856.595	20617
856.729	20754
856.862	20697
856.996	20781
857.13	20682
857.263	20773
857.397	20705
857.53	20651
857.664	20716
857.797	20674
857.931	20811
858.064	20708
858.197	20807
858.331	20568
858.464	20590
858.597	20511
858.731	20678
858.864	20609
858.997	20659
859.13	20727
859.263	20785
859.396	20823
859.529	20674
859.662	20644
859.795	20663
859.928	20667
860.061	20697
860.194	20739
860.327	20754
860.46	20750
860.592	20697
860.725	20693
860.858	20792
860.99	20739
861.123	20587
861.256	20636
861.388	20735
861.521	21233
861.653	20465
861.786	20427
861.918	20518
862.05	20533
862.183	20629
862.315	20621
862.447	20697
862.58	20568
862.712	20473
862.844	20446
862.976	20484
863.108	20594
863.24	20861
863.372	20362
863.504	20370
863.636	20355
863.768	20507
863.9	20339
864.032	20237
864.164	20339
864.296	20313
864.428	20571
864.559	20545
864.691	20282
864.823	20396
864.954	20431
865.086	20457
865.217	20301
865.349	20206
865.48	20328
865.612	20244
865.743	20431
865.875	20358
866.006	20332
866.137	20282
866.269	20301
866.4	20282
866.531	20168
866.662	20225
866.793	20278
866.924	20294
867.055	20271
867.186	20267
867.317	20233
867.448	20267
867.579	20164
867.71	20214
867.841	20119
867.972	20248
868.103	20233
868.233	20183
868.364	20324
868.495	20294
868.625	20454
868.756	20648
868.886	20389
869.017	20522
869.147	20499
869.278	20488
869.408	20507
869.539	20473
869.669	20632
869.799	20575
869.929	20522
870.06	20670
870.19	20724
870.32	20670
870.45	20823
870.58	20906
870.71	20933
870.84	20948
870.97	20960
871.1	20925
871.23	20998
871.36	21108
871.489	21051
871.619	21036
871.749	21039
871.879	21047
872.008	21154
872.138	21001
872.267	21074
872.397	20990
872.526	20929
872.656	20872
872.785	20819
872.915	20956
873.044	21039
873.173	21214
873.303	21077
873.432	21214
873.561	21150
873.69	21157
873.819	21009
873.948	21066
874.077	21104
874.206	21077
874.335	21150
874.464	21275
874.593	21287
874.722	21279
874.851	21363
874.979	21408
875.108	21405
875.237	21283
875.365	21157
875.494	21321
875.623	21370
875.751	21302
875.88	21359
876.008	21408
876.136	21572
876.265	21698
876.393	21808
876.521	21816
876.65	21724
876.778	21755
876.906	21686
877.034	21679
877.162	21724
877.29	21652
877.418	21705
877.546	21686
877.674	21728
877.802	21690
877.93	21686
878.058	21629
878.185	21663
878.313	21694
878.441	21709
878.568	21580
878.696	21724
878.824	21614
878.951	21606
879.079	21926
879.206	21915
879.333	21751
879.461	21652
879.588	21736
879.715	21690
879.842	22029
879.97	21728
880.097	21526
880.224	21447
880.351	21492
880.478	21424
880.605	21507
880.732	21583
880.859	21789
880.986	21519
881.112	21469
881.239	21477
881.366	21313
881.493	21222
881.619	21058
881.746	21116
881.872	21112
881.999	21051
882.125	20994
882.252	21104
882.378	21024
882.505	21176
882.631	20769
882.757	20902
882.883	20853
883.01	20746
883.136	20765
883.262	20724
883.388	20765
883.514	20708
883.64	20800
883.766	20727
883.892	20522
884.018	20651
884.143	20762
884.269	20864
884.395	20511
884.52	20374
884.646	20503
884.772	20355
884.897	20252
885.023	20454
885.148	20621
885.274	20682
885.399	20552
885.524	20377
885.65	20522
885.775	20507
885.9	20469
886.025	20533
886.15	20575
886.275	20366
886.4	20400
886.525	20473
886.65	20423
886.775	20347
886.9	20564
887.025	20655
887.149	20400
887.274	20240
887.399	20168
887.523	20043
887.648	20180
887.773	20183
887.897	20290
888.021	20172
888.146	20229
888.27	20256
888.395	20294
888.519	20187
888.643	20187
888.767	20252
888.891	20149
889.015	20096
889.139	20031
889.263	20046
889.387	20126
889.511	20081
889.635	20161
889.759	19997
889.883	20012
890.006	19970
890.13	20081
890.254	19936
890.377	20001
890.501	19826
890.624	19788
890.748	19780
890.871	19753
890.995	19658
891.118	19609
891.241	19609
891.364	19563
891.488	19772
891.611	19620
891.734	19628
891.857	19704
891.98	19571
892.103	19681
892.226	19655
892.349	19540
892.471	19445
892.594	19575
892.717	19464
892.839	19487
892.962	19529
893.085	19540
893.207	19575
893.33	19430
893.452	19388
893.575	19540
893.697	19502
893.819	19624
893.941	19761
894.064	19696
894.186	19369
894.308	19411
894.43	19594
894.552	19613
894.674	19613
894.796	19381
894.918	19430
895.04	19419
895.161	19601
895.283	19552
895.405	19514
895.526	19510
895.648	19407
895.769	19556
895.891	19540
896.012	19556
896.134	19639
896.255	19556
896.376	19624
896.498	19502
896.619	19597
896.74	19506
896.861	19662
896.982	19837
897.103	20058
897.224	19883
897.345	19780
897.466	19681
897.587	19734
897.708	19894
897.828	19841
897.949	19712
898.07	19635
898.19	19723
898.311	19871
898.431	19742
898.552	19811
898.672	19845
898.792	19761
898.913	19860
899.033	19677
899.153	19518
899.273	19434
899.393	19533
899.513	19525
899.633	19559
899.753	19597
899.873	19502
899.993	19563
900.113	19377
900.232	19407
900.352	19537
900.472	19232
900.591	19228
900.711	19308
900.83	19274
900.95	19396
901.069	19480
901.189	19198
901.308	18977
901.427	18939
901.546	19038
901.665	19042
901.784	18996
901.904	18696
902.023	18711
902.141	18426
902.26	18464
902.379	18547
902.498	18369
902.617	18372
902.735	18414
902.854	18296
902.973	18266
903.091	18121
903.21	18121
903.328	18133
903.446	17980
903.565	17920
903.683	17965
903.801	17824
903.919	17832
904.038	17794
904.156	17687
904.274	17718
904.392	17634
904.51	17615
904.627	17649
904.745	17687
904.863	17786
904.981	17440
905.098	17330
905.216	17326
905.334	17368
905.451	17337
905.569	17455
905.686	17436
905.803	17326
905.921	17174
906.038	17273
906.155	17265
906.272	17128
906.389	17071
906.506	16991
906.623	16805
906.74	16896
906.857	16900
906.974	16824
907.091	17022
907.208	17079
907.324	16900
907.441	16774
907.557	16713
907.674	16698
907.79	16565
907.907	16660
908.023	16721
908.139	16634
908.256	16512
908.372	16519
908.488	16394
908.604	16447
908.72	16299
908.836	16386
908.952	16303
909.068	16455
909.184	16451
909.3	16375
909.415	16462
909.531	16284
909.647	16105
909.762	16071
909.878	16048
909.993	15994
910.108	15949
910.224	16006
910.339	16013
910.454	15934
910.57	15892
910.685	15705
910.8	15960
910.915	16040
911.03	15903
911.145	15713
911.259	15698
911.374	15690
911.489	15698
911.604	15538
911.718	15420
911.833	15378
911.947	15401
912.062	15195
912.176	15374
912.291	15325
912.405	15382
912.519	15507
912.633	15534
912.748	15454
912.862	15370
912.976	15279
913.09	15180
913.204	15233
913.318	15294
913.431	15321
913.545	15222
913.659	15272
913.772	15211
913.886	15032
914	14998
914.113	15173
914.226	15173
914.34	15032
914.453	14861
914.566	15024
914.68	14853
914.793	14807
914.906	14754
915.019	14682
915.132	14564
915.245	14640
915.358	14674
915.47	14575
915.583	14590
915.696	14659
915.809	14758
915.921	14849
916.034	14568
916.146	14526
916.259	14507
916.371	14606
916.483	14571
916.595	14492
916.708	14476
916.82	14476
916.932	14450
917.044	14469
917.156	14317
917.268	14358
917.38	14415
917.491	14305
917.603	14313
917.715	14381
917.826	14389
917.938	14221
918.049	14183
918.161	14271
918.272	14385
918.384	14415
918.495	14351
918.606	14199
918.717	14035
918.828	14100
918.939	14161
919.05	14001
919.161	14062
919.272	13856
919.383	14008
919.494	14111
919.604	14240
919.715	14123
919.826	13970
919.936	14043
920.047	14100
920.157	14005
920.267	14195
920.378	14149
920.488	13970
920.598	14157
920.708	14484
920.818	14195
920.928	14164
921.038	14290
921.148	14339
921.258	13875
921.368	14035
921.477	13868
921.587	13852
921.697	13677
921.806	13936
921.916	13818
922.025	13476
922.134	13525
922.244	13388
922.353	13419
922.462	13358
922.571	13278
922.68	13095
922.789	13133
922.898	13099
923.007	13000
923.116	13110
923.224	13091
923.333	13137
923.442	12958
923.55	12909
923.659	12890
923.767	12989
923.876	12863
923.984	12951
924.092	12878
924.201	12894
924.309	12882
924.417	12840
924.525	12852
924.633	12776
924.741	13750
924.849	12677
924.956	12646
925.064	12589
925.172	12506
925.279	12521
925.387	12608
925.494	12566
925.602	12597
925.709	12528
925.816	12464
925.924	12498
926.031	12639
926.138	12486
926.245	12509
926.352	12433
926.459	12547
926.566	12544
926.673	12422
926.779	12391
926.886	12251
926.993	12247
927.099	12110
927.206	12091
927.312	12030
927.419	12140
927.525	12148
927.631	12178
927.737	12068
927.843	12026
927.95	11866
928.056	11851
928.162	11954
928.267	11996
928.373	12578
928.479	12022
928.585	11718
928.69	11954
928.796	11965
928.901	11790
929.007	11726
929.112	11847
929.218	11745
929.323	11714
929.428	11668
929.533	11729
929.638	11642
929.743	11707
929.848	11676
929.953	11684
930.058	11600
930.163	11372
930.267	11387
930.372	11573
930.477	11337
930.581	11547
930.685	11452
930.79	11277
930.894	11311
930.998	11303
931.103	11315
931.207	10991
931.311	11014
931.415	10927
931.519	10748
931.623	10637
