Data from test_V78500241_1173.txt Node
Date: Fri Mar 25 15:18:01 CST 2022
User: usil
Spectrometer: V785-0024
Trigger mode: 0
Integration Time (sec): 4.000000E-1
Scans to average: 1
Nonlinearity correction enabled: false
Boxcar width: 0
Storing dark spectrum: false
XAxis mode: Wavelengths
Number of Pixels in Spectrum: 1024
>>>>>Begin Spectral Data<<<<<
801.071	28268
801.214	28162
801.356	27903
801.499	27728
801.641	27663
801.783	27614
801.926	27861
802.068	27720
802.211	27709
802.353	27622
802.496	27481
802.638	27412
802.78	27283
802.923	27260
803.065	27241
803.208	27420
803.35	27431
803.492	27523
803.635	27504
803.777	27454
803.919	27656
804.061	27762
804.204	27679
804.346	27576
804.488	27313
804.63	27530
804.773	27561
804.915	27622
805.057	27633
805.199	27572
805.341	27576
805.483	27800
805.626	27705
805.768	27660
805.91	27732
806.052	27759
806.194	27641
806.336	27953
806.478	27675
806.62	27854
806.762	27865
806.904	27953
807.046	28135
807.188	28093
807.33	28048
807.472	28223
807.614	28082
807.756	28078
807.898	28059
808.04	28101
808.182	27888
808.324	28147
808.465	27987
808.607	28219
808.749	28390
808.891	28314
809.033	28535
809.174	28455
809.316	28417
809.458	28386
809.6	28318
809.741	28546
809.883	28363
810.025	28698
810.166	28816
810.308	28561
810.45	28531
810.591	28660
810.733	28447
810.875	28386
811.016	28314
811.158	28196
811.299	28527
811.441	28535
811.582	28447
811.724	28405
811.865	28325
812.007	28329
812.148	28344
812.29	28455
812.431	28535
812.573	28630
812.714	28805
812.855	28839
812.997	29025
813.138	29121
813.279	29025
813.421	28949
813.562	28797
813.703	28645
813.845	28542
813.986	28382
814.127	28280
814.268	28101
814.41	28185
814.551	28032
814.692	28143
814.833	28010
814.974	28131
815.115	27998
815.256	27911
815.397	28006
815.539	28051
815.68	27857
815.821	27819
815.962	27945
816.103	27816
816.244	27869
816.385	27705
816.526	27682
816.666	27488
816.807	27386
816.948	27500
817.089	27523
817.23	27397
817.371	27416
817.512	27389
817.653	27272
817.793	27393
817.934	27298
818.075	27321
818.216	27389
818.356	27454
818.497	27264
818.638	27131
818.778	27074
818.919	27142
819.06	27222
819.2	27348
819.341	27386
819.481	27416
819.622	27610
819.762	27690
819.903	27720
820.043	27679
820.184	27633
820.324	27363
820.465	27622
820.605	27576
820.746	27542
820.886	27283
821.026	27450
821.167	27496
821.307	27595
821.447	27298
821.588	27291
821.728	27252
821.868	27096
822.008	26971
822.149	26800
822.289	26823
822.429	26670
822.569	26625
822.709	26712
822.849	26492
822.99	26465
823.13	26393
823.27	26385
823.41	26259
823.55	26050
823.69	26161
823.83	26294
823.97	26145
824.11	25989
824.25	26103
824.389	26115
824.529	26176
824.669	26084
824.809	26043
824.949	26214
825.089	26126
825.228	26107
825.368	25883
825.508	25875
825.648	25989
825.787	25955
825.927	26027
826.067	25909
826.206	25940
826.346	26020
826.485	26119
826.625	25856
826.765	26012
826.904	26149
827.044	25784
827.183	25594
827.323	25696
827.462	25803
827.601	25685
827.741	25609
827.88	25537
828.02	25715
828.159	25594
828.298	25594
828.437	25609
828.577	25521
828.716	25826
828.855	25643
828.994	25392
829.134	25388
829.273	25327
829.412	25369
829.551	25209
829.69	25285
829.829	25415
829.968	25426
830.107	25479
830.246	25331
830.385	25407
830.524	25206
830.663	25141
830.802	25091
830.941	24890
831.08	24992
831.219	25019
831.357	25095
831.496	25175
831.635	25069
831.774	24981
831.913	24989
832.051	24901
832.19	24817
832.329	24745
832.467	24684
832.606	24604
832.744	24604
832.883	24639
833.022	24639
833.16	24749
833.299	24779
833.437	24681
833.576	24757
833.714	24867
833.852	24795
833.991	24764
834.129	24825
834.267	24821
834.406	24711
834.544	24738
834.682	24776
834.821	24802
834.959	24829
835.097	24684
835.235	24779
835.373	24741
835.511	24696
835.65	24502
835.788	24677
835.926	24422
836.064	24350
836.202	24483
836.34	24620
836.478	24631
836.615	24445
836.753	24631
836.891	24711
837.029	24574
837.167	24384
837.305	24582
837.443	24505
837.58	24346
837.718	24536
837.856	24445
837.993	24471
838.131	24369
838.269	24205
838.406	24270
838.544	24376
838.681	24171
838.819	24060
838.956	23904
839.094	23847
839.231	23996
839.369	23927
839.506	24300
839.643	24098
839.781	23958
839.918	23893
840.055	23931
840.193	23817
840.33	23908
840.467	23870
840.604	23790
840.742	24064
840.879	23665
841.016	23817
841.153	23786
841.29	23840
841.427	23805
841.564	23824
841.701	23752
841.838	23760
841.975	23627
842.112	23642
842.249	23619
842.385	23543
842.522	23649
842.659	23505
842.796	23509
842.933	23524
843.069	23474
843.206	23474
843.343	23672
843.479	23638
843.616	23436
843.752	23261
843.889	23379
844.025	23562
844.162	23341
844.298	23391
844.435	23330
844.571	23200
844.708	23372
844.844	23520
844.98	23391
845.117	23482
845.253	23235
845.389	23208
845.525	23200
845.661	23254
845.798	23064
845.934	23075
846.07	23064
846.206	23105
846.342	23212
846.478	22942
846.614	22885
846.75	22740
846.886	22637
847.022	22877
847.158	22805
847.294	22892
847.429	22873
847.565	22725
847.701	22919
847.837	22527
847.972	22451
848.108	22569
848.244	22466
848.379	22451
848.515	22466
848.65	22409
848.786	22523
848.921	22424
849.057	22466
849.192	22592
849.328	22371
849.463	22440
849.598	22466
849.734	22188
849.869	22257
850.004	22116
850.14	22150
850.275	22185
850.41	22131
850.545	22074
850.68	22036
850.815	22299
850.95	22120
851.085	22268
851.22	22242
851.355	22181
851.49	22139
851.625	22010
851.76	22070
851.895	22078
852.03	22048
852.165	22124
852.299	22093
852.434	22238
852.569	22078
852.703	22048
852.838	22287
852.973	22299
853.107	22147
853.242	22147
853.376	22067
853.511	21846
853.645	21907
853.78	22120
853.914	22055
854.048	21850
854.183	21915
854.317	21922
854.451	22143
854.585	21876
854.72	22040
854.854	22051
854.988	21941
855.122	21953
855.256	21835
855.39	21861
855.524	21816
855.658	21972
855.792	21979
855.926	22010
856.06	21945
856.194	22131
856.327	21983
856.461	21854
856.595	21899
856.729	21979
856.862	21991
856.996	22025
857.13	22036
857.263	22105
857.397	22093
857.53	21873
857.664	21975
857.797	21987
857.931	22036
858.064	21956
858.197	22105
858.331	21998
858.464	21934
858.597	21701
858.731	21854
858.864	21941
858.997	21838
859.13	21838
859.263	21956
859.396	21998
859.529	21892
859.662	21854
859.795	21861
859.928	21907
860.061	22150
860.194	22177
860.327	22013
860.46	22002
860.592	21998
860.725	22124
860.858	22086
860.99	22010
861.123	21846
861.256	21816
861.388	21953
861.521	22687
861.653	21850
861.786	21675
861.918	21972
862.05	21842
862.183	21816
862.315	21956
862.447	21937
862.58	21842
862.712	21637
862.844	21701
862.976	21720
863.108	21682
863.24	22010
863.372	21583
863.504	21553
863.636	21739
863.768	21538
863.9	21694
864.032	21591
864.164	21568
864.296	21660
864.428	21728
864.559	21778
864.691	21694
864.823	21736
864.954	21580
865.086	21576
865.217	21530
865.349	21435
865.48	21561
865.612	21530
865.743	21629
865.875	21466
866.006	21610
866.137	21477
866.269	21435
866.4	21576
866.531	21420
866.662	21496
866.793	21450
866.924	21466
867.055	21351
867.186	21477
867.317	21279
867.448	21340
867.579	21466
867.71	21370
867.841	21260
867.972	21370
868.103	21443
868.233	21545
868.364	21462
868.495	21511
868.625	21709
868.756	21698
868.886	21572
869.017	21739
869.147	21762
869.278	21937
869.408	21720
869.539	21739
869.669	21606
869.799	21675
869.929	21774
870.06	21778
870.19	22021
870.32	22063
870.45	22044
870.58	22192
870.71	22105
870.84	22124
870.97	22200
871.1	22082
871.23	22299
871.36	22238
871.489	22272
871.619	22192
871.749	22295
871.879	22303
872.008	22493
872.138	22303
872.267	22265
872.397	22135
872.526	22112
872.656	22181
872.785	22196
872.915	22306
873.044	22360
873.173	22272
873.303	22462
873.432	22516
873.561	22398
873.69	22329
873.819	22557
873.948	22516
874.077	22405
874.206	22363
874.335	22352
874.464	22470
874.593	22554
874.722	22516
874.851	22481
874.979	22462
875.108	22592
875.237	22466
875.365	22459
875.494	22516
875.623	22519
875.751	22440
875.88	22588
876.008	22584
876.136	22626
876.265	22858
876.393	22930
876.521	23022
876.65	22987
876.778	22854
876.906	22961
877.034	22782
877.162	22927
877.29	22873
877.418	22843
877.546	22831
877.674	22881
877.802	22847
877.93	22850
878.058	22896
878.185	22862
878.313	22885
878.441	22809
878.568	22683
878.696	22862
878.824	22778
878.951	22908
879.079	23006
879.206	23079
879.333	23064
879.461	22858
879.588	22965
879.715	22858
879.842	23124
879.97	23037
880.097	22577
880.224	22691
880.351	22736
880.478	22767
880.605	22641
880.732	22698
880.859	22885
880.986	22557
881.112	22706
881.239	22577
881.366	22474
881.493	22379
881.619	22310
881.746	22253
881.872	22226
881.999	22333
882.125	22169
882.252	22238
882.378	22234
882.505	22322
882.631	22207
882.757	22006
882.883	22070
883.01	21994
883.136	21907
883.262	21869
883.388	21682
883.514	21964
883.64	21876
883.766	21774
883.892	21690
884.018	21709
884.143	21846
884.269	21968
884.395	21618
884.52	21606
884.646	21625
884.772	21720
884.897	21488
885.023	21542
885.148	21553
885.274	21755
885.399	21736
885.524	21500
885.65	21500
885.775	21568
885.9	21633
886.025	21564
886.15	21583
886.275	21466
886.4	21545
886.525	21576
886.65	21557
886.775	21549
886.9	21599
887.025	21717
887.149	21690
887.274	21405
887.399	21336
887.523	21298
887.648	21264
887.773	21275
887.897	21443
888.021	21397
888.146	21351
888.27	21507
888.395	21462
888.519	21405
888.643	21329
888.767	21424
888.891	21176
889.015	21096
889.139	21241
889.263	21108
889.387	21230
889.511	21218
889.635	21268
889.759	21142
889.883	21123
890.006	21287
890.13	21272
890.254	21131
890.377	21028
890.501	20975
890.624	20895
890.748	20899
890.871	20815
890.995	20712
891.118	20648
891.241	20621
891.364	20678
891.488	20830
891.611	20872
891.734	20613
891.857	20777
891.98	20785
892.103	20731
892.226	20674
892.349	20682
892.471	20427
892.594	20621
892.717	20629
892.839	20507
892.962	20659
893.085	20678
893.207	20579
893.33	20408
893.452	20632
893.575	20564
893.697	20689
893.819	20720
893.941	20788
894.064	20819
894.186	20514
894.308	20389
894.43	20670
894.552	20815
894.674	20701
894.796	20469
894.918	20579
895.04	20507
895.161	20674
895.283	20530
895.405	20594
895.526	20533
895.648	20617
895.769	20476
895.891	20564
896.012	20526
896.134	20560
896.255	20602
896.376	20587
896.498	20457
896.619	20579
896.74	20575
896.861	20693
896.982	20868
897.103	20971
897.224	20895
897.345	20811
897.466	20693
897.587	20762
897.708	20941
897.828	20731
897.949	20727
898.07	20644
898.19	20705
898.311	20876
898.431	20701
898.552	20819
898.672	20887
898.792	20800
898.913	20712
899.033	20651
899.153	20659
899.273	20446
899.393	20556
899.513	20640
899.633	20438
899.753	20469
899.873	20480
899.993	20465
900.113	20434
900.232	20450
900.352	20343
900.472	20240
900.591	20229
900.711	20374
900.83	20271
900.95	20351
901.069	20309
901.189	20183
901.308	19883
901.427	19822
901.546	19944
901.665	19947
901.784	19887
901.904	19727
902.023	19647
902.141	19426
902.26	19457
902.379	19392
902.498	19480
902.617	19350
902.735	19362
902.854	19343
902.973	19343
903.091	19012
903.21	19152
903.328	18897
903.446	19069
903.565	18859
903.683	18825
903.801	18681
903.919	18772
904.038	18821
904.156	18559
904.274	18658
904.392	18620
904.51	18597
904.627	18540
904.745	18578
904.863	18616
904.981	18536
905.098	18266
905.216	18277
905.334	18327
905.451	18369
905.569	18266
905.686	18232
905.803	18228
905.921	18049
906.038	18243
906.155	18049
906.272	17832
906.389	17878
906.506	17984
906.623	17798
906.74	17809
906.857	17764
906.974	17680
907.091	17859
907.208	17969
907.324	17786
907.441	17771
907.557	17615
907.674	17512
907.79	17493
907.907	17421
908.023	17497
908.139	17577
908.256	17547
908.372	17414
908.488	17330
908.604	17292
908.72	17220
908.836	17208
908.952	17307
909.068	17227
909.184	17383
909.3	17185
909.415	17318
909.531	17102
909.647	17022
909.762	16942
909.878	16942
909.993	17045
910.108	16919
910.224	16820
910.339	16881
910.454	16839
910.57	16881
910.685	16603
910.8	16835
910.915	17003
911.03	16736
911.145	16577
911.259	16504
911.374	16531
911.489	16436
911.604	16322
911.718	16261
911.833	16230
911.947	16177
912.062	16112
912.176	16280
912.291	16215
912.405	16109
912.519	16462
912.633	16512
912.748	16337
912.862	16219
912.976	16063
913.09	16010
913.204	16055
913.318	16120
913.431	16124
913.545	16143
913.659	16063
913.772	16032
913.886	15915
914	15854
914.113	15934
914.226	16006
914.34	15934
914.453	15793
914.566	15846
914.68	15762
914.793	15736
914.906	15538
915.019	15431
915.132	15401
915.245	15378
915.358	15462
915.47	15523
915.583	15431
915.696	15439
915.809	15682
915.921	15648
916.034	15382
916.146	15431
916.259	15374
916.371	15542
916.483	15488
916.595	15355
916.708	15249
916.82	15336
916.932	15237
917.044	15169
917.156	15306
917.268	15127
917.38	15146
917.491	15127
917.603	15097
917.715	15138
917.826	15116
917.938	14948
918.049	14960
918.161	15070
918.272	15218
918.384	15218
918.495	14998
918.606	14944
918.717	14891
918.828	14921
918.939	14868
919.05	14758
919.161	14838
919.272	14594
919.383	14708
919.494	14910
919.604	15039
919.715	14823
919.826	14750
919.936	14731
920.047	14944
920.157	14811
920.267	14941
920.378	14883
920.488	14781
920.598	15119
920.708	15173
920.818	14925
920.928	14960
921.038	15032
921.148	15104
921.258	14689
921.368	14594
921.477	14530
921.587	14571
921.697	14400
921.806	14571
921.916	14434
922.025	14290
922.134	14176
922.244	14100
922.353	14256
922.462	14020
922.571	14016
922.68	13871
922.789	13776
922.898	13803
923.007	13712
923.116	13818
923.224	13811
923.333	13784
923.442	13712
923.55	13655
923.659	13597
923.767	13731
923.876	13556
923.984	13704
924.092	13590
924.201	13514
924.309	13575
924.417	13586
924.525	13529
924.633	13438
924.741	14370
924.849	13247
924.956	13388
925.064	13202
925.172	13114
925.279	13240
925.387	13236
925.494	13202
925.602	13324
925.709	13285
925.816	13091
925.924	13114
926.031	13194
926.138	13114
926.245	13221
926.352	12989
926.459	13217
926.566	13259
926.673	13072
926.779	13008
926.886	12981
926.993	12829
927.099	12764
927.206	12738
927.312	12703
927.419	12787
927.525	12734
927.631	12768
927.737	12658
927.843	12623
927.95	12532
928.056	12536
928.162	12673
928.267	12623
928.373	13122
928.479	12589
928.585	12407
928.69	12540
928.796	12582
928.901	12448
929.007	12342
929.112	12441
929.218	12399
929.323	12376
929.428	12292
929.533	12467
929.638	12300
929.743	12262
929.848	12369
929.953	12209
930.058	12163
930.163	12007
930.267	11988
930.372	12110
930.477	11999
930.581	12171
930.685	11992
930.79	11889
930.894	11836
930.998	11824
931.103	11980
931.207	11589
931.311	11577
931.415	11414
931.519	11261
931.623	11197
