Data from test_V78500241_3298.txt Node
Date: Fri Mar 25 15:32:49 CST 2022
User: usil
Spectrometer: V785-0024
Trigger mode: 0
Integration Time (sec): 4.000000E-1
Scans to average: 1
Nonlinearity correction enabled: false
Boxcar width: 0
Storing dark spectrum: false
XAxis mode: Wavelengths
Number of Pixels in Spectrum: 1024
>>>>>Begin Spectral Data<<<<<
801.071	27252
801.214	27405
801.356	27017
801.499	27070
801.641	26982
801.783	26830
801.926	26891
802.068	26910
802.211	26705
802.353	26804
802.496	26781
802.638	26587
802.78	26602
802.923	26431
803.065	26419
803.208	26484
803.35	26545
803.492	26731
803.635	26853
803.777	26568
803.919	26765
804.061	26868
804.204	26678
804.346	26564
804.488	26522
804.63	26663
804.773	26682
804.915	26773
805.057	26842
805.199	26670
805.341	26720
805.483	26823
805.626	26765
805.768	26743
805.91	26830
806.052	26826
806.194	26625
806.336	26895
806.478	26758
806.62	26842
806.762	26876
806.904	26876
807.046	27184
807.188	27199
807.33	27329
807.472	27363
807.614	27135
807.756	27062
807.898	27009
808.04	27020
808.182	27020
808.324	27017
808.465	27077
808.607	27233
808.749	27507
808.891	27496
809.033	27557
809.174	27401
809.316	27348
809.458	27325
809.6	27454
809.741	27405
809.883	27610
810.025	27656
810.166	27724
810.308	27614
810.45	27625
810.591	27751
810.733	27496
810.875	27260
811.016	27325
811.158	27424
811.299	27580
811.441	27648
811.582	27660
811.724	27481
811.865	27310
812.007	27374
812.148	27450
812.29	27599
812.431	27488
812.573	27557
812.714	27778
812.855	27819
812.997	27949
813.138	28181
813.279	28029
813.421	28013
813.562	27823
813.703	27686
813.845	27591
813.986	27329
814.127	27070
814.268	26971
814.41	27043
814.551	26982
814.692	27043
814.833	26895
814.974	26895
815.115	27055
815.256	26944
815.397	27036
815.539	26853
815.68	26788
815.821	26682
815.962	26800
816.103	26800
816.244	26632
816.385	26758
816.526	26446
816.666	26370
816.807	26237
816.948	26450
817.089	26579
817.23	26381
817.371	26423
817.512	26362
817.653	26237
817.793	26278
817.934	26339
818.075	26362
818.216	26256
818.356	26317
818.497	26225
818.638	25959
818.778	26077
818.919	26084
819.06	26237
819.2	26210
819.341	26324
819.481	26229
819.622	26450
819.762	26625
819.903	26568
820.043	26625
820.184	26362
820.324	26450
820.465	26507
820.605	26568
820.746	26446
820.886	26191
821.026	26427
821.167	26336
821.307	26518
821.447	26256
821.588	26202
821.728	25989
821.868	26043
822.008	25959
822.149	25826
822.289	25666
822.429	25358
822.569	25674
822.709	25472
822.849	25301
822.99	25232
823.13	25266
823.27	25308
823.41	25148
823.55	25015
823.69	25137
823.83	25175
823.97	25008
824.11	24943
824.25	24844
824.389	25034
824.529	24989
824.669	24848
824.809	24970
824.949	24932
825.089	25069
825.228	24951
825.368	24715
825.508	24669
825.648	24753
825.787	24757
825.927	24901
826.067	24764
826.206	24791
826.346	24798
826.485	24970
826.625	24837
826.765	24992
826.904	24798
827.044	24604
827.183	24711
827.323	24563
827.462	24574
827.601	24593
827.741	24513
827.88	24464
828.02	24460
828.159	24521
828.298	24536
828.437	24608
828.577	24410
828.716	24570
828.855	24418
828.994	24292
829.134	24106
829.273	24235
829.412	24232
829.551	24209
829.69	24224
829.829	24338
829.968	24357
830.107	24327
830.246	24178
830.385	24258
830.524	24117
830.663	24011
830.802	24087
830.941	23897
831.08	23817
831.219	23942
831.357	23916
831.496	23996
831.635	23912
831.774	23752
831.913	23668
832.051	23718
832.19	23592
832.329	23672
832.467	23680
832.606	23478
832.744	23387
832.883	23543
833.022	23459
833.16	23528
833.299	23585
833.437	23687
833.576	23509
833.714	23630
833.852	23661
833.991	23577
834.129	23608
834.267	23707
834.406	23581
834.544	23547
834.682	23600
834.821	23501
834.959	23733
835.097	23471
835.235	23653
835.373	23592
835.511	23505
835.65	23391
835.788	23406
835.926	23303
836.064	23258
836.202	23372
836.34	23391
836.478	23383
836.615	23429
836.753	23391
836.891	23577
837.029	23516
837.167	23353
837.305	23353
837.443	23315
837.58	23364
837.718	23395
837.856	23425
837.993	23315
838.131	23368
838.269	23204
838.406	23174
838.544	23220
838.681	22908
838.819	22980
838.956	22687
839.094	22771
839.231	22774
839.369	22911
839.506	23208
839.643	23052
839.781	22733
839.918	22831
840.055	22618
840.193	22774
840.33	22664
840.467	22672
840.604	22816
840.742	23037
840.879	22679
841.016	22653
841.153	22603
841.29	22847
841.427	22736
841.564	22713
841.701	22656
841.838	22599
841.975	22694
842.112	22603
842.249	22527
842.385	22459
842.522	22679
842.659	22504
842.796	22485
842.933	22493
843.069	22402
843.206	22375
843.343	22523
843.479	22561
843.616	22436
843.752	22287
843.889	22265
844.025	22447
844.162	22230
844.298	22280
844.435	22109
844.571	22226
844.708	22253
844.844	22356
844.98	22329
845.117	22299
845.253	22249
845.389	22124
845.525	22147
845.661	21998
845.798	21975
845.934	22051
846.07	22086
846.206	22082
846.342	21991
846.478	21918
846.614	21823
846.75	21667
846.886	21637
847.022	21781
847.158	21835
847.294	21743
847.429	21808
847.565	21713
847.701	21899
847.837	21428
847.972	21389
848.108	21496
848.244	21576
848.379	21473
848.515	21256
848.65	21351
848.786	21302
848.921	21310
849.057	21424
849.192	21545
849.328	21340
849.463	21287
849.598	21180
849.734	21260
849.869	21119
850.004	21051
850.14	21058
850.275	21195
850.41	21055
850.545	21096
850.68	20910
850.815	21055
850.95	21104
851.085	21252
851.22	21237
851.355	21195
851.49	20979
851.625	21051
851.76	21123
851.895	21024
852.03	21039
852.165	21070
852.299	21233
852.434	21218
852.569	21199
852.703	21127
852.838	21138
852.973	21161
853.107	21207
853.242	21047
853.376	20887
853.511	20727
853.645	20891
853.78	21074
853.914	20948
854.048	20823
854.183	21051
854.317	20838
854.451	21077
854.585	20842
854.72	20876
854.854	20925
854.988	20811
855.122	20826
855.256	20807
855.39	20781
855.524	20952
855.658	20929
855.792	20956
855.926	20963
856.06	20948
856.194	20921
856.327	20864
856.461	20811
856.595	20819
856.729	21001
856.862	21051
856.996	20902
857.13	21009
857.263	20979
857.397	20971
857.53	20899
857.664	21043
857.797	21017
857.931	20941
858.064	20941
858.197	21032
858.331	20891
858.464	20868
858.597	20762
858.731	20944
858.864	20826
858.997	20868
859.13	20941
859.263	20994
859.396	21005
859.529	20933
859.662	20773
859.795	20788
859.928	20948
860.061	21085
860.194	20918
860.327	20941
860.46	20963
860.592	21161
860.725	20963
860.858	21043
860.99	20902
861.123	20754
861.256	20838
861.388	20937
861.521	21515
861.653	20788
861.786	20632
861.918	20731
862.05	20815
862.183	20769
862.315	20834
862.447	20842
862.58	20686
862.712	20575
862.844	20575
862.976	20667
863.108	20678
863.24	21096
863.372	20594
863.504	20644
863.636	20720
863.768	20670
863.9	20640
864.032	20564
864.164	20556
864.296	20648
864.428	20765
864.559	20708
864.691	20541
864.823	20625
864.954	20606
865.086	20503
865.217	20564
865.349	20537
865.48	20575
865.612	20689
865.743	20651
865.875	20533
866.006	20396
866.137	20431
866.269	20552
866.4	20518
866.531	20415
866.662	20560
866.793	20377
866.924	20328
867.055	20393
867.186	20541
867.317	20434
867.448	20336
867.579	20461
867.71	20374
867.841	20526
867.972	20564
868.103	20427
868.233	20454
868.364	20457
868.495	20537
868.625	20674
868.756	20746
868.886	20636
869.017	20701
869.147	20815
869.278	20823
869.408	20773
869.539	20857
869.669	20598
869.799	20792
869.929	20807
870.06	20807
870.19	20998
870.32	20986
870.45	21039
870.58	21176
870.71	21173
870.84	21051
870.97	21047
871.1	21032
871.23	21294
871.36	21291
871.489	21192
871.619	21214
871.749	21275
871.879	21420
872.008	21424
872.138	21230
872.267	21340
872.397	21249
872.526	21074
872.656	21188
872.785	21146
872.915	21370
873.044	21313
873.173	21241
873.303	21283
873.432	21389
873.561	21458
873.69	21389
873.819	21332
873.948	21408
874.077	21382
874.206	21245
874.335	21397
874.464	21439
874.593	21568
874.722	21485
874.851	21542
874.979	21625
875.108	21618
875.237	21416
875.365	21435
875.494	21469
875.623	21644
875.751	21599
875.88	21675
876.008	21759
876.136	21762
876.265	21892
876.393	22143
876.521	21945
876.65	22078
876.778	22109
876.906	21857
877.034	21876
877.162	21861
877.29	21983
877.418	21869
877.546	21884
877.674	21987
877.802	21922
877.93	21968
878.058	21884
878.185	21774
878.313	21850
878.441	21956
878.568	21739
878.696	21960
878.824	21903
878.951	21956
879.079	22021
879.206	22188
879.333	22101
879.461	21907
879.588	21934
879.715	22169
879.842	22017
879.97	22139
880.097	21736
880.224	21797
880.351	21812
880.478	21739
880.605	21686
880.732	21880
880.859	22040
880.986	21770
881.112	21823
881.239	21625
881.366	21450
881.493	21332
881.619	21252
881.746	21340
881.872	21382
881.999	21313
882.125	21321
882.252	21351
882.378	21294
882.505	21466
882.631	21256
882.757	21135
882.883	21104
883.01	21055
883.136	21032
883.262	21013
883.388	20807
883.514	21096
883.64	21062
883.766	20998
883.892	20815
884.018	20895
884.143	20906
884.269	21096
884.395	20735
884.52	20781
884.646	20773
884.772	20629
884.897	20617
885.023	20746
885.148	20792
885.274	20960
885.399	20800
885.524	20682
885.65	20724
885.775	20712
885.9	20659
886.025	20937
886.15	20887
886.275	20674
886.4	20621
886.525	20689
886.65	20708
886.775	20583
886.9	20864
887.025	20872
887.149	20655
887.274	20480
887.399	20404
887.523	20412
887.648	20408
887.773	20320
887.897	20629
888.021	20431
888.146	20400
888.27	20530
888.395	20442
888.519	20533
888.643	20568
888.767	20549
888.891	20454
889.015	20408
889.139	20408
889.263	20199
889.387	20347
889.511	20518
889.635	20423
889.759	20180
889.883	20313
890.006	20263
890.13	20336
890.254	20298
890.377	20191
890.501	20119
890.624	19944
890.748	19921
890.871	19932
890.995	19849
891.118	19700
891.241	19890
891.364	19932
891.488	19928
891.611	19845
891.734	19833
891.857	19951
891.98	20054
892.103	19803
892.226	19860
892.349	19799
892.471	19696
892.594	19750
892.717	19849
892.839	19822
892.962	19761
893.085	19803
893.207	19769
893.33	19700
893.452	19616
893.575	19822
893.697	19772
893.819	19894
893.941	19890
894.064	19860
894.186	19742
894.308	19620
894.43	19860
894.552	19902
894.674	19845
894.796	19647
894.918	19788
895.04	19651
895.161	19826
895.283	19761
895.405	19753
895.526	19753
895.648	19765
895.769	19727
895.891	19925
896.012	19879
896.134	19788
896.255	19750
896.376	19655
896.498	19841
896.619	19776
896.74	19727
896.861	19746
896.982	20046
897.103	20275
897.224	19963
897.345	19986
897.466	20005
897.587	19993
897.708	20183
897.828	20065
897.949	19970
898.07	19841
898.19	19875
898.311	20027
898.431	19887
898.552	20043
898.672	20088
898.792	19974
898.913	19963
899.033	19822
899.153	19795
899.273	19651
899.393	19776
899.513	19788
899.633	19784
899.753	19765
899.873	19734
899.993	19712
900.113	19643
900.232	19609
900.352	19582
900.472	19556
900.591	19457
900.711	19556
900.83	19445
900.95	19586
901.069	19552
901.189	19499
901.308	19118
901.427	19084
901.546	19187
901.665	19122
901.784	19084
901.904	18977
902.023	18958
902.141	18711
902.26	18658
902.379	18642
902.498	18604
902.617	18585
902.735	18696
902.854	18544
902.973	18547
903.091	18334
903.21	18228
903.328	18281
903.446	18209
903.565	18121
903.683	18057
903.801	17961
903.919	18114
904.038	18034
904.156	17931
904.274	17984
904.392	17977
904.51	17821
904.627	17878
904.745	17931
904.863	18019
904.981	17748
905.098	17600
905.216	17577
905.334	17600
905.451	17638
905.569	17547
905.686	17600
905.803	17425
905.921	17376
906.038	17429
906.155	17379
906.272	17246
906.389	17277
906.506	17109
906.623	17083
906.74	17227
906.857	16923
906.974	17060
907.091	17090
907.208	17162
907.324	17147
907.441	17010
907.557	16858
907.674	16824
907.79	16763
907.907	16816
908.023	16881
908.139	16942
908.256	16850
908.372	16733
908.488	16698
908.604	16554
908.72	16546
908.836	16558
908.952	16466
909.068	16531
909.184	16653
909.3	16470
909.415	16558
909.531	16500
909.647	16238
909.762	16242
909.878	16310
909.993	16276
910.108	16348
910.224	16188
910.339	16192
910.454	16147
910.57	16059
910.685	15991
910.8	16295
910.915	16291
911.03	16055
911.145	15800
911.259	15808
911.374	15819
911.489	15770
911.604	15800
911.718	15618
911.833	15568
911.947	15466
912.062	15481
912.176	15625
912.291	15610
912.405	15652
912.519	15873
912.633	15732
912.748	15720
912.862	15610
912.976	15435
913.09	15336
913.204	15363
913.318	15359
913.431	15610
913.545	15545
913.659	15454
913.772	15378
913.886	15226
914	15188
914.113	15260
914.226	15340
914.34	15302
914.453	15104
914.566	15283
914.68	15066
914.793	15047
914.906	14933
915.019	14857
915.132	14826
915.245	14788
915.358	14823
915.47	14739
915.583	14800
915.696	14902
915.809	14899
915.921	14906
916.034	14834
916.146	14743
916.259	14686
916.371	14765
916.483	14712
916.595	14727
916.708	14785
916.82	14716
916.932	14632
917.044	14625
917.156	14594
917.268	14488
917.38	14507
917.491	14507
917.603	14415
917.715	14571
917.826	14598
917.938	14473
918.049	14347
918.161	14511
918.272	14556
918.384	14564
918.495	14473
918.606	14305
918.717	14202
918.828	14282
918.939	14263
919.05	14271
919.161	14206
919.272	14062
919.383	14100
919.494	14271
919.604	14408
919.715	14259
919.826	14157
919.936	14172
920.047	14336
920.157	14313
920.267	14473
920.378	14225
920.488	14142
920.598	14419
920.708	14518
920.818	14412
920.928	14290
921.038	14480
921.148	14446
921.258	14252
921.368	14062
921.477	13989
921.587	13906
921.697	13845
921.806	13887
921.916	13818
922.025	13719
922.134	13670
922.244	13567
922.353	13685
922.462	13430
922.571	13381
922.68	13358
922.789	13225
922.898	13377
923.007	13263
923.116	13244
923.224	13282
923.333	13213
923.442	13149
923.55	13126
923.659	13107
923.767	13152
923.876	13129
923.984	13107
924.092	13023
924.201	12989
924.309	12951
924.417	13004
924.525	12935
924.633	12951
924.741	13849
924.849	12738
924.956	12901
925.064	12753
925.172	12635
925.279	12700
925.387	12757
925.494	12658
925.602	12806
925.709	12741
925.816	12658
925.924	12616
926.031	12707
926.138	12608
926.245	12726
926.352	12547
926.459	12681
926.566	12745
926.673	12616
926.779	12429
926.886	12464
926.993	12334
927.099	12315
927.206	12235
927.312	12171
927.419	12334
927.525	12270
927.631	12372
927.737	12182
927.843	12041
927.95	12026
928.056	12057
928.162	12140
928.267	12194
928.373	12734
928.479	12114
928.585	11950
928.69	12022
928.796	12091
928.901	11954
929.007	11878
929.112	11939
929.218	11939
929.323	11859
929.428	11851
929.533	11923
929.638	11809
929.743	11707
929.848	11752
929.953	11794
930.058	11764
930.163	11562
930.267	11547
930.372	11672
930.477	11497
930.581	11642
930.685	11634
930.79	11391
930.894	11493
930.998	11341
931.103	11463
931.207	11140
931.311	11109
931.415	10991
931.519	10805
931.623	10831
