Data from test_V78500241_2542.txt Node
Date: Fri Mar 25 15:27:33 CST 2022
User: usil
Spectrometer: V785-0024
Trigger mode: 0
Integration Time (sec): 4.000000E-1
Scans to average: 1
Nonlinearity correction enabled: false
Boxcar width: 0
Storing dark spectrum: false
XAxis mode: Wavelengths
Number of Pixels in Spectrum: 1024
>>>>>Begin Spectral Data<<<<<
801.071	27226
801.214	27157
801.356	26956
801.499	26861
801.641	26705
801.783	26807
801.926	26880
802.068	26636
802.211	26663
802.353	26495
802.496	26408
802.638	26358
802.78	26339
802.923	26419
803.065	26233
803.208	26400
803.35	26347
803.492	26625
803.635	26674
803.777	26507
803.919	26606
804.061	26864
804.204	26678
804.346	26556
804.488	26404
804.63	26556
804.773	26381
804.915	26556
805.057	26758
805.199	26488
805.341	26613
805.483	26640
805.626	26762
805.768	26503
805.91	26701
806.052	26625
806.194	26560
806.336	26807
806.478	26602
806.62	26697
806.762	26765
806.904	27047
807.046	27112
807.188	27104
807.33	27085
807.472	27039
807.614	26868
807.756	27039
807.898	26906
808.04	26792
808.182	26918
808.324	26868
808.465	26971
808.607	27199
808.749	27237
808.891	27416
809.033	27435
809.174	27310
809.316	27100
809.458	27150
809.6	27135
809.741	27363
809.883	27439
810.025	27629
810.166	27450
810.308	27473
810.45	27454
810.591	27500
810.733	27157
810.875	27096
811.016	27135
811.158	27161
811.299	27325
811.441	27523
811.582	27447
811.724	27344
811.865	27207
812.007	27230
812.148	27222
812.29	27332
812.431	27412
812.573	27545
812.714	27694
812.855	27835
812.997	27846
813.138	27945
813.279	27781
813.421	27701
813.562	27751
813.703	27534
813.845	27408
813.986	27192
814.127	26956
814.268	26998
814.41	26857
814.551	26944
814.692	26899
814.833	26929
814.974	26921
815.115	26826
815.256	26739
815.397	26731
815.539	26826
815.68	26720
815.821	26533
815.962	26575
816.103	26613
816.244	26514
816.385	26434
816.526	26412
816.666	26298
816.807	26069
816.948	26320
817.089	26206
817.23	26221
817.371	26172
817.512	26180
817.653	26187
817.793	26062
817.934	26126
818.075	26168
818.216	26210
818.356	26111
818.497	26138
818.638	25871
818.778	25993
818.919	25970
819.06	25986
819.2	26031
819.341	26153
819.481	26088
819.622	26332
819.762	26461
819.903	26442
820.043	26370
820.184	26309
820.324	26164
820.465	26351
820.605	26347
820.746	26103
820.886	26115
821.026	26172
821.167	26164
821.307	26237
821.447	26168
821.588	25932
821.728	25841
821.868	25757
822.008	25795
822.149	25723
822.289	25681
822.429	25209
822.569	25369
822.709	25407
822.849	25137
822.99	25168
823.13	25278
823.27	25137
823.41	25034
823.55	24992
823.69	25008
823.83	25019
823.97	24871
824.11	24947
824.25	24711
824.389	24840
824.529	24878
824.669	24730
824.809	24814
824.949	24897
825.089	24749
825.228	24867
825.368	24604
825.508	24650
825.648	24715
825.787	24730
825.927	24806
826.067	24604
826.206	24673
826.346	24711
826.485	24798
826.625	24582
826.765	24779
826.904	24673
827.044	24384
827.183	24460
827.323	24384
827.462	24471
827.601	24429
827.741	24319
827.88	24342
828.02	24232
828.159	24285
828.298	24467
828.437	24426
828.577	24395
828.716	24353
828.855	24251
828.994	24079
829.134	24091
829.273	24140
829.412	24102
829.551	24026
829.69	24167
829.829	24045
829.968	24140
830.107	24095
830.246	24060
830.385	24030
830.524	24068
830.663	23973
830.802	23897
830.941	23558
831.08	23657
831.219	23889
831.357	23745
831.496	23901
831.635	23627
831.774	23630
831.913	23512
832.051	23543
832.19	23455
832.329	23490
832.467	23478
832.606	23406
832.744	23303
832.883	23398
833.022	23398
833.16	23421
833.299	23402
833.437	23433
833.576	23455
833.714	23406
833.852	23646
833.991	23459
834.129	23657
834.267	23604
834.406	23455
834.544	23482
834.682	23417
834.821	23406
834.959	23619
835.097	23566
835.235	23512
835.373	23455
835.511	23425
835.65	23197
835.788	23204
835.926	23151
836.064	23220
836.202	23166
836.34	23448
836.478	23425
836.615	23292
836.753	23296
836.891	23280
837.029	23436
837.167	23200
837.305	23090
837.443	23193
837.58	23250
837.718	23288
837.856	23208
837.993	23075
838.131	23318
838.269	22949
838.406	23037
838.544	22938
838.681	22828
838.819	22774
838.956	22519
839.094	22687
839.231	22706
839.369	22790
839.506	22946
839.643	22889
839.781	22672
839.918	22432
840.055	22740
840.193	22672
840.33	22535
840.467	22713
840.604	22637
840.742	22755
840.879	22436
841.016	22554
841.153	22398
841.29	22713
841.427	22660
841.564	22603
841.701	22725
841.838	22519
841.975	22577
842.112	22615
842.249	22409
842.385	22303
842.522	22611
842.659	22485
842.796	22341
842.933	22341
843.069	22310
843.206	22280
843.343	22390
843.479	22394
843.616	22348
843.752	22120
843.889	22139
844.025	22303
844.162	22090
844.298	22284
844.435	22086
844.571	22105
844.708	22211
844.844	22215
844.98	22211
845.117	22226
845.253	22059
845.389	22006
845.525	21930
845.661	21945
845.798	21941
845.934	21850
846.07	21736
846.206	21812
846.342	21979
846.478	21797
846.614	21591
846.75	21485
846.886	21564
847.022	21686
847.158	21587
847.294	21629
847.429	21686
847.565	21603
847.701	21770
847.837	21378
847.972	21222
848.108	21428
848.244	21329
848.379	21256
848.515	21135
848.65	21135
848.786	21104
848.921	21192
849.057	21272
849.192	21195
849.328	21230
849.463	21096
849.598	21192
849.734	21123
849.869	20994
850.004	21013
850.14	20899
850.275	20979
850.41	20902
850.545	20902
850.68	20876
850.815	20986
850.95	20849
851.085	21112
851.22	21074
851.355	20921
851.49	20842
851.625	20819
851.76	20906
851.895	20830
852.03	20902
852.165	20986
852.299	20933
852.434	21104
852.569	20990
852.703	20941
852.838	20998
852.973	21180
853.107	21009
853.242	20876
853.376	20724
853.511	20655
853.645	20613
853.78	20788
853.914	20883
854.048	20792
854.183	20788
854.317	20750
854.451	20979
854.585	20659
854.72	20830
854.854	20895
854.988	20636
855.122	20819
855.256	20640
855.39	20746
855.524	20899
855.658	20785
855.792	20792
855.926	20853
856.06	20773
856.194	20857
856.327	20735
856.461	20689
856.595	20693
856.729	20754
856.862	20925
856.996	20857
857.13	20815
857.263	20838
857.397	20849
857.53	20632
857.664	20815
857.797	20785
857.931	20773
858.064	20762
858.197	20880
858.331	20693
858.464	20765
858.597	20670
858.731	20693
858.864	20773
858.997	20708
859.13	20788
859.263	20731
859.396	20899
859.529	20670
859.662	20731
859.795	20689
859.928	20826
860.061	20811
860.194	21013
860.327	20864
860.46	20834
860.592	20910
860.725	20975
860.858	20838
860.99	20739
861.123	20689
861.256	20727
861.388	20682
861.521	21378
861.653	20575
861.786	20568
861.918	20560
862.05	20625
862.183	20800
862.315	20686
862.447	20739
862.58	20830
862.712	20469
862.844	20415
862.976	20518
863.108	20579
863.24	20960
863.372	20347
863.504	20495
863.636	20476
863.768	20606
863.9	20473
864.032	20434
864.164	20301
864.296	20556
864.428	20488
864.559	20511
864.691	20484
864.823	20412
864.954	20423
865.086	20461
865.217	20396
865.349	20172
865.48	20476
865.612	20343
865.743	20530
865.875	20374
866.006	20339
866.137	20393
866.269	20339
866.4	20320
866.531	20317
866.662	20328
866.793	20313
866.924	20332
867.055	20389
867.186	20393
867.317	20309
867.448	20240
867.579	20278
867.71	20218
867.841	20199
867.972	20313
868.103	20370
868.233	20362
868.364	20336
868.495	20511
868.625	20537
868.756	20693
868.886	20514
869.017	20511
869.147	20644
869.278	20686
869.408	20545
869.539	20724
869.669	20621
869.799	20545
869.929	20765
870.06	20727
870.19	20887
870.32	20830
870.45	20876
870.58	20929
870.71	21013
870.84	21051
870.97	20956
871.1	20868
871.23	21104
871.36	21195
871.489	21047
871.619	21043
871.749	21085
871.879	21142
872.008	21272
872.138	21275
872.267	21211
872.397	21093
872.526	20975
872.656	21020
872.785	21036
872.915	21279
873.044	21245
873.173	21150
873.303	21321
873.432	21268
873.561	21249
873.69	21329
873.819	21313
873.948	21321
874.077	21222
874.206	21203
874.335	21039
874.464	21302
874.593	21355
874.722	21310
874.851	21355
874.979	21416
875.108	21504
875.237	21378
875.365	21233
875.494	21291
875.623	21458
875.751	21443
875.88	21462
876.008	21481
876.136	21724
876.265	21850
876.393	22021
876.521	21911
876.65	21827
876.778	21778
876.906	21808
877.034	21770
877.162	21720
877.29	21728
877.418	21819
877.546	21827
877.674	21755
877.802	21850
877.93	21831
878.058	21717
878.185	21561
878.313	21747
878.441	21739
878.568	21625
878.696	21694
878.824	21736
878.951	21838
879.079	21800
879.206	22090
879.333	21930
879.461	21854
879.588	21884
879.715	22036
879.842	22055
879.97	21827
880.097	21496
880.224	21568
880.351	21633
880.478	21587
880.605	21595
880.732	21633
880.859	21831
880.986	21568
881.112	21831
881.239	21454
881.366	21424
881.493	21310
881.619	21230
881.746	21264
881.872	21161
881.999	21135
882.125	21119
882.252	21203
882.378	21142
882.505	21279
882.631	21169
882.757	20902
882.883	20963
883.01	21009
883.136	20933
883.262	20792
883.388	20769
883.514	20811
883.64	20895
883.766	20815
883.892	20785
884.018	20746
884.143	20921
884.269	20842
884.395	20644
884.52	20408
884.646	20423
884.772	20568
884.897	20415
885.023	20651
885.148	20514
885.274	20651
885.399	20621
885.524	20682
885.65	20457
885.775	20583
885.9	20442
886.025	20686
886.15	20701
886.275	20556
886.4	20465
886.525	20488
886.65	20552
886.775	20484
886.9	20712
887.025	20762
887.149	20530
887.274	20355
887.399	20396
887.523	20256
887.648	20187
887.773	20172
887.897	20396
888.021	20343
888.146	20301
888.27	20408
888.395	20355
888.519	20358
888.643	20415
888.767	20370
888.891	20191
889.015	20065
889.139	20229
889.263	20161
889.387	20176
889.511	20313
889.635	20305
889.759	20202
889.883	20221
890.006	20100
890.13	20142
890.254	20107
890.377	19959
890.501	19951
890.624	19883
890.748	19936
890.871	19845
890.995	19704
891.118	19609
891.241	19788
891.364	19776
891.488	19750
891.611	19578
891.734	19742
891.857	19776
891.98	19715
892.103	19757
892.226	19719
892.349	19525
892.471	19483
892.594	19708
892.717	19738
892.839	19590
892.962	19693
893.085	19563
893.207	19613
893.33	19582
893.452	19514
893.575	19670
893.697	19548
893.819	19864
893.941	19849
894.064	19761
894.186	19674
894.308	19476
894.43	19662
894.552	19799
894.674	19811
894.796	19502
894.918	19502
895.04	19632
895.161	19613
895.283	19791
895.405	19449
895.526	19647
895.648	19529
895.769	19620
895.891	19635
896.012	19647
896.134	19597
896.255	19658
896.376	19506
896.498	19601
896.619	19674
896.74	19712
896.861	19674
896.982	19868
897.103	20020
897.224	19894
897.345	19818
897.466	19742
897.587	19871
897.708	19864
897.828	19883
897.949	19822
898.07	19708
898.19	19704
898.311	19951
898.431	19868
898.552	19871
898.672	19887
898.792	19997
898.913	19913
899.033	19727
899.153	19624
899.273	19559
899.393	19750
899.513	19731
899.633	19693
899.753	19613
899.873	19601
899.993	19750
900.113	19586
900.232	19578
900.352	19548
900.472	19396
900.591	19297
900.711	19384
900.83	19400
900.95	19540
901.069	19445
901.189	19251
901.308	19080
901.427	19065
901.546	18943
901.665	19015
901.784	19072
901.904	18890
902.023	18745
902.141	18601
902.26	18669
902.379	18688
902.498	18521
902.617	18464
902.735	18559
902.854	18551
902.973	18506
903.091	18213
903.21	18224
903.328	18174
903.446	18220
903.565	17931
903.683	17923
903.801	17908
903.919	18003
904.038	18041
904.156	17802
904.274	17878
904.392	17752
904.51	17863
904.627	17802
904.745	17828
904.863	17798
904.981	17577
905.098	17528
905.216	17482
905.334	17467
905.451	17440
905.569	17364
905.686	17528
905.803	17452
905.921	17155
906.038	17296
906.155	17284
906.272	17189
906.389	17197
906.506	17094
906.623	16995
906.74	16972
906.857	16812
906.974	16866
907.091	17067
907.208	17083
907.324	16995
907.441	16828
907.557	16809
907.674	16831
907.79	16634
907.907	16763
908.023	16706
908.139	16740
908.256	16637
908.372	16618
908.488	16554
908.604	16443
908.72	16527
908.836	16489
908.952	16470
909.068	16504
909.184	16523
909.3	16432
909.415	16451
909.531	16386
909.647	16147
909.762	16219
909.878	16124
909.993	16166
910.108	16112
910.224	16128
910.339	16082
910.454	16067
910.57	15934
910.685	15911
910.8	16109
910.915	16063
911.03	15937
911.145	15720
911.259	15747
911.374	15781
911.489	15671
911.604	15572
911.718	15519
911.833	15564
911.947	15481
912.062	15401
912.176	15614
912.291	15584
912.405	15686
912.519	15732
912.633	15724
912.748	15557
912.862	15504
912.976	15367
913.09	15325
913.204	15188
913.318	15374
913.431	15351
913.545	15329
913.659	15370
913.772	15283
913.886	15100
914	15154
914.113	15279
914.226	15222
914.34	15264
914.453	15097
914.566	15013
914.68	15039
914.793	15039
914.906	14769
915.019	14773
915.132	14739
915.245	14765
915.358	14785
915.47	14823
915.583	14762
915.696	14769
915.809	14868
915.921	14819
916.034	14674
916.146	14571
916.259	14625
916.371	14598
916.483	14651
916.595	14606
916.708	14575
916.82	14560
916.932	14511
917.044	14568
917.156	14480
917.268	14454
917.38	14469
917.491	14419
917.603	14358
917.715	14549
917.826	14461
917.938	14301
918.049	14244
918.161	14347
918.272	14442
918.384	14541
918.495	14339
918.606	14233
918.717	14088
918.828	14202
918.939	14355
919.05	14168
919.161	14062
919.272	13928
919.383	14138
919.494	14286
919.604	14396
919.715	14210
919.826	14107
919.936	14103
920.047	14172
920.157	14069
920.267	14278
920.378	14145
920.488	14142
920.598	14385
920.708	14568
920.818	14305
920.928	14332
921.038	14476
921.148	14374
921.258	14157
921.368	14062
921.477	13909
921.587	13890
921.697	13715
921.806	13974
921.916	13814
922.025	13594
922.134	13533
922.244	13575
922.353	13575
922.462	13514
922.571	13324
922.68	13308
922.789	13278
922.898	13217
923.007	13198
923.116	13244
923.224	13190
923.333	13156
923.442	13110
923.55	13034
923.659	12996
923.767	13042
923.876	12985
923.984	13114
924.092	12890
924.201	12977
924.309	12909
924.417	13046
924.525	12821
924.633	12913
924.741	13799
924.849	12684
924.956	12798
925.064	12734
925.172	12540
925.279	12559
925.387	12604
925.494	12646
925.602	12681
925.709	12639
925.816	12536
925.924	12536
926.031	12688
926.138	12601
926.245	12692
926.352	12460
926.459	12544
926.566	12665
926.673	12490
926.779	12384
926.886	12376
926.993	12251
927.099	12182
927.206	12190
927.312	12216
927.419	12228
927.525	12148
927.631	12262
927.737	12079
927.843	12125
927.95	11984
928.056	12038
928.162	12098
928.267	12068
928.373	12681
928.479	12057
928.585	11824
928.69	11984
928.796	12007
928.901	11908
929.007	11756
929.112	11908
929.218	11882
929.323	11847
929.428	11707
929.533	11916
929.638	11665
929.743	11688
929.848	11809
929.953	11771
930.058	11676
930.163	11387
930.267	11539
930.372	11638
930.477	11387
930.581	11623
930.685	11581
930.79	11368
930.894	11334
930.998	11356
931.103	11452
931.207	11136
931.311	11022
931.415	10942
931.519	10782
931.623	10725
