Data from test_V78500241_1132.txt Node
Date: Fri Mar 25 15:17:44 CST 2022
User: usil
Spectrometer: V785-0024
Trigger mode: 0
Integration Time (sec): 4.000000E-1
Scans to average: 1
Nonlinearity correction enabled: false
Boxcar width: 0
Storing dark spectrum: false
XAxis mode: Wavelengths
Number of Pixels in Spectrum: 1024
>>>>>Begin Spectral Data<<<<<
801.071	28352
801.214	28375
801.356	28086
801.499	27895
801.641	27793
801.783	27861
801.926	27949
802.068	27953
802.211	27827
802.353	27888
802.496	27561
802.638	27599
802.78	27504
802.923	27458
803.065	27496
803.208	27572
803.35	27526
803.492	27709
803.635	27713
803.777	27644
803.919	27838
804.061	28070
804.204	27857
804.346	27701
804.488	27633
804.63	27713
804.773	27694
804.915	27922
805.057	27968
805.199	27956
805.341	27838
805.483	27907
805.626	27876
805.768	27793
805.91	27873
806.052	28063
806.194	27861
806.336	28162
806.478	27945
806.62	27926
806.762	28002
806.904	28261
807.046	28341
807.188	28306
807.33	28379
807.472	28409
807.614	28443
807.756	28287
807.898	28272
808.04	28154
808.182	28226
808.324	28215
808.465	28226
808.607	28421
808.749	28592
808.891	28687
809.033	28809
809.174	28611
809.316	28584
809.458	28573
809.6	28584
809.741	28660
809.883	28721
810.025	28847
810.166	28790
810.308	28919
810.45	28850
810.591	28828
810.733	28691
810.875	28649
811.016	28531
811.158	28459
811.299	28744
811.441	28957
811.582	28702
811.724	28626
811.865	28584
812.007	28500
812.148	28603
812.29	28500
812.431	28923
812.573	28991
812.714	28953
812.855	29178
812.997	29250
813.138	29254
813.279	29303
813.421	29231
813.562	29250
813.703	29033
813.845	28904
813.986	28622
814.127	28421
814.268	28329
814.41	28527
814.551	28253
814.692	28337
814.833	28181
814.974	28367
815.115	28360
815.256	28166
815.397	28093
815.539	28207
815.68	28055
815.821	27994
815.962	28097
816.103	28196
816.244	28131
816.385	27922
816.526	27914
816.666	27831
816.807	27755
816.948	27724
817.089	27766
817.23	27622
817.371	27766
817.512	27629
817.653	27705
817.793	27705
817.934	27652
818.075	27808
818.216	27743
818.356	27576
818.497	27538
818.638	27397
818.778	27302
818.919	27382
819.06	27447
819.2	27519
819.341	27652
819.481	27762
819.622	27827
819.762	28006
819.903	27846
820.043	27755
820.184	27816
820.324	27682
820.465	27861
820.605	27762
820.746	27804
820.886	27595
821.026	27793
821.167	27793
821.307	27713
821.447	27648
821.588	27538
821.728	27454
821.868	27298
822.008	27161
822.149	27043
822.289	27127
822.429	27112
822.569	26815
822.709	26914
822.849	26629
822.99	26602
823.13	26712
823.27	26579
823.41	26450
823.55	26336
823.69	26446
823.83	26427
823.97	26469
824.11	26389
824.25	26206
824.389	26199
824.529	26393
824.669	26332
824.809	26400
824.949	26313
825.089	26499
825.228	26396
825.368	26221
825.508	26267
825.648	26134
825.787	26206
825.927	26218
826.067	26115
826.206	26161
826.346	26290
826.485	26343
826.625	26039
826.765	26290
826.904	26358
827.044	25871
827.183	26005
827.323	25868
827.462	26031
827.601	25940
827.741	25978
827.88	25966
828.02	25799
828.159	25731
828.298	25955
828.437	25890
828.577	25856
828.716	25955
828.855	25822
828.994	25696
829.134	25791
829.273	25670
829.412	25628
829.551	25525
829.69	25575
829.829	25685
829.968	25677
830.107	25693
830.246	25624
830.385	25537
830.524	25628
830.663	25365
830.802	25285
830.941	25194
831.08	25194
831.219	25289
831.357	25301
831.496	25487
831.635	25129
831.774	25198
831.913	25232
832.051	25004
832.19	24939
832.329	25187
832.467	24989
832.606	24875
832.744	24817
832.883	24905
833.022	24901
833.16	25034
833.299	25004
833.437	24970
833.576	25148
833.714	25015
833.852	25198
833.991	25088
834.129	25091
834.267	25103
834.406	25012
834.544	25148
834.682	24985
834.821	25065
834.959	25168
835.097	24916
835.235	25027
835.373	25057
835.511	24973
835.65	24939
835.788	24875
835.926	24715
836.064	24669
836.202	24726
836.34	24814
836.478	24894
836.615	24825
836.753	24867
836.891	24966
837.029	24810
837.167	24726
837.305	24856
837.443	24825
837.58	24673
837.718	24741
837.856	24593
837.993	24677
838.131	24540
838.269	24608
838.406	24483
838.544	24494
838.681	24460
838.819	24388
838.956	24129
839.094	24167
839.231	24319
839.369	24292
839.506	24513
839.643	24471
839.781	24224
839.918	24251
840.055	24163
840.193	24041
840.33	24049
840.467	23992
840.604	24083
840.742	24353
840.879	23882
841.016	23973
841.153	23939
841.29	24136
841.427	24060
841.564	24038
841.701	24072
841.838	24057
841.975	23980
842.112	23961
842.249	23882
842.385	23855
842.522	24018
842.659	23760
842.796	23767
842.933	23699
843.069	23802
843.206	23771
843.343	24026
843.479	23843
843.616	23923
843.752	23539
843.889	23592
844.025	23851
844.162	23585
844.298	23627
844.435	23554
844.571	23478
844.708	23741
844.844	23748
844.98	23714
845.117	23691
845.253	23638
845.389	23402
845.525	23497
845.661	23383
845.798	23376
845.934	23448
846.07	23315
846.206	23315
846.342	23364
846.478	23318
846.614	23143
846.75	23029
846.886	22930
847.022	23098
847.158	23067
847.294	23052
847.429	23060
847.565	22885
847.701	23250
847.837	22778
847.972	22702
848.108	22873
848.244	22854
848.379	22717
848.515	22653
848.65	22717
848.786	22717
848.921	22630
849.057	22721
849.192	22786
849.328	22752
849.463	22637
849.598	22687
849.734	22424
849.869	22504
850.004	22413
850.14	22447
850.275	22443
850.41	22371
850.545	22409
850.68	22432
850.815	22352
850.95	22268
851.085	22550
851.22	22440
851.355	22371
851.49	22489
851.625	22455
851.76	22363
851.895	22291
852.03	22314
852.165	22440
852.299	22428
852.434	22421
852.569	22451
852.703	22451
852.838	22478
852.973	22557
853.107	22512
853.242	22409
853.376	22280
853.511	22158
853.645	22128
853.78	22417
853.914	22226
854.048	22261
854.183	22223
854.317	22261
854.451	22310
854.585	22272
854.72	22253
854.854	22375
854.988	22196
855.122	22177
855.256	22131
855.39	22211
855.524	22143
855.658	22287
855.792	22234
855.926	22291
856.06	22337
856.194	22253
856.327	22143
856.461	22139
856.595	22093
856.729	22188
856.862	22375
856.996	22230
857.13	22226
857.263	22348
857.397	22371
857.53	22291
857.664	22287
857.797	22284
857.931	22280
858.064	22295
858.197	22314
858.331	22207
858.464	22265
858.597	22135
858.731	22257
858.864	22105
858.997	22112
859.13	22185
859.263	22284
859.396	22356
859.529	22223
859.662	22063
859.795	22131
859.928	22242
860.061	22375
860.194	22455
860.327	22185
860.46	22280
860.592	22341
860.725	22318
860.858	22329
860.99	22185
861.123	22226
861.256	22177
861.388	22219
861.521	22900
861.653	22105
861.786	22074
861.918	21987
862.05	22032
862.183	22128
862.315	22177
862.447	22192
862.58	22158
862.712	21918
862.844	21907
862.976	22017
863.108	22044
863.24	22451
863.372	21876
863.504	21892
863.636	21994
863.768	21983
863.9	21922
864.032	21808
864.164	21724
864.296	21968
864.428	21937
864.559	22032
864.691	22002
864.823	21930
864.954	21880
865.086	21956
865.217	21812
865.349	21713
865.48	21812
865.612	21739
865.743	21975
865.875	21892
866.006	21682
866.137	21857
866.269	21816
866.4	21926
866.531	21633
866.662	21739
866.793	21679
866.924	21724
867.055	21797
867.186	21709
867.317	21557
867.448	21671
867.579	21724
867.71	21641
867.841	21751
867.972	21720
868.103	21762
868.233	21747
868.364	21717
868.495	21774
868.625	21941
868.756	21983
868.886	21880
869.017	21953
869.147	22158
869.278	22055
869.408	21983
869.539	22013
869.669	21983
869.799	22006
869.929	22078
870.06	22055
870.19	22341
870.32	22325
870.45	22325
870.58	22246
870.71	22557
870.84	22459
870.97	22516
871.1	22333
871.23	22550
871.36	22516
871.489	22554
871.619	22504
871.749	22554
871.879	22535
872.008	22596
872.138	22618
872.267	22497
872.397	22398
872.526	22394
872.656	22379
872.785	22398
872.915	22485
873.044	22634
873.173	22542
873.303	22645
873.432	22554
873.561	22748
873.69	22618
873.819	22607
873.948	22683
874.077	22573
874.206	22546
874.335	22554
874.464	22641
874.593	22805
874.722	22736
874.851	22850
874.979	22831
875.108	22949
875.237	22774
875.365	22729
875.494	22896
875.623	22850
875.751	22771
875.88	22782
876.008	22911
876.136	22953
876.265	23170
876.393	23239
876.521	23231
876.65	23265
876.778	23109
876.906	23113
877.034	23162
877.162	23155
877.29	23113
877.418	23147
877.546	23086
877.674	23212
877.802	23075
877.93	23193
878.058	23113
878.185	22999
878.313	23151
878.441	23090
878.568	22995
878.696	22961
878.824	23143
878.951	23098
879.079	23299
879.206	23387
879.333	23292
879.461	23140
879.588	23239
879.715	23208
879.842	23322
879.97	23280
880.097	22961
880.224	22854
880.351	23025
880.478	22866
880.605	22900
880.732	23025
880.859	23109
880.986	22847
881.112	23029
881.239	22816
881.366	22755
881.493	22611
881.619	22626
881.746	22489
881.872	22546
881.999	22489
882.125	22318
882.252	22603
882.378	22459
882.505	22459
882.631	22402
882.757	22204
882.883	22314
883.01	22242
883.136	22128
883.262	22074
883.388	21930
883.514	22207
883.64	22284
883.766	22067
883.892	22055
884.018	22010
884.143	22036
884.269	22276
884.395	21983
884.52	21747
884.646	21797
884.772	21732
884.897	21732
885.023	21823
885.148	21934
885.274	21918
885.399	21838
885.524	21956
885.65	21766
885.775	21827
885.9	21854
886.025	21926
886.15	21850
886.275	21781
886.4	21709
886.525	21793
886.65	21797
886.775	21778
886.9	21850
887.025	21945
887.149	21747
887.274	21614
887.399	21504
887.523	21538
887.648	21660
887.773	21488
887.897	21603
888.021	21580
888.146	21545
888.27	21500
888.395	21667
888.519	21526
888.643	21724
888.767	21549
888.891	21412
889.015	21469
889.139	21397
889.263	21336
889.387	21504
889.511	21629
889.635	21496
889.759	21420
889.883	21401
890.006	21344
890.13	21351
890.254	21389
890.377	21268
890.501	21195
890.624	21138
890.748	21116
890.871	20941
890.995	20925
891.118	20842
891.241	20902
891.364	20906
891.488	21028
891.611	20918
891.734	20994
891.857	20990
891.98	20979
892.103	20994
892.226	21009
892.349	20857
892.471	20739
892.594	20785
892.717	20876
892.839	20777
892.962	20883
893.085	20925
893.207	20899
893.33	20651
893.452	20750
893.575	20857
893.697	20838
893.819	20925
893.941	20891
894.064	21020
894.186	20807
894.308	20659
894.43	20876
894.552	20994
894.674	20899
894.796	20735
894.918	20693
895.04	20792
895.161	20743
895.283	20857
895.405	20632
895.526	20868
895.648	20781
895.769	20838
895.891	20830
896.012	20910
896.134	20921
896.255	20708
896.376	20663
896.498	20861
896.619	20891
896.74	20830
896.861	20796
896.982	21157
897.103	21275
897.224	21074
897.345	20986
897.466	21028
897.587	20956
897.708	21249
897.828	21039
897.949	20990
898.07	20773
898.19	21020
898.311	21161
898.431	20880
898.552	20956
898.672	21024
898.792	21081
898.913	20975
899.033	20796
899.153	20883
899.273	20716
899.393	20777
899.513	20697
899.633	20891
899.753	20769
899.873	20667
899.993	20777
900.113	20640
900.232	20777
900.352	20587
900.472	20454
900.591	20389
900.711	20503
900.83	20450
900.95	20746
901.069	20530
901.189	20332
901.308	20180
901.427	20096
901.546	20043
901.665	20138
901.784	20001
901.904	19940
902.023	19738
902.141	19582
902.26	19624
902.379	19807
902.498	19499
902.617	19571
902.735	19635
902.854	19556
902.973	19460
903.091	19369
903.21	19339
903.328	19194
903.446	19099
903.565	19061
903.683	19012
903.801	18954
903.919	19019
904.038	18954
904.156	18821
904.274	18901
904.392	18852
904.51	18817
904.627	18779
904.745	18757
904.863	18848
904.981	18684
905.098	18528
905.216	18452
905.334	18623
905.451	18399
905.569	18391
905.686	18471
905.803	18509
905.921	18388
906.038	18445
906.155	18311
906.272	18201
906.389	18247
906.506	18110
906.623	18049
906.74	17935
906.857	17874
906.974	17931
907.091	18121
907.208	18057
907.324	18091
907.441	17988
907.557	17745
907.674	17843
907.79	17699
907.907	17798
908.023	17748
908.139	17745
908.256	17729
908.372	17642
908.488	17524
908.604	17391
908.72	17410
908.836	17311
908.952	17433
909.068	17577
909.184	17543
909.3	17387
909.415	17417
909.531	17493
909.647	17231
909.762	17151
909.878	17162
909.993	17094
910.108	17079
910.224	17109
910.339	17048
910.454	17064
910.57	16904
910.685	16991
910.8	17208
910.915	17102
911.03	16968
911.145	16904
911.259	16694
911.374	16831
911.489	16607
911.604	16637
911.718	16596
911.833	16466
911.947	16436
912.062	16268
912.176	16443
912.291	16421
912.405	16352
912.519	16660
912.633	16653
912.748	16527
912.862	16512
912.976	16337
913.09	16196
913.204	16253
913.318	16261
913.431	16413
913.545	16459
913.659	16394
913.772	16204
913.886	16177
914	16131
914.113	16131
914.226	16204
914.34	16200
914.453	15949
914.566	16040
914.68	15918
914.793	15918
914.906	15682
915.019	15732
915.132	15724
915.245	15690
915.358	15698
915.47	15614
915.583	15762
915.696	15861
915.809	15797
915.921	15884
916.034	15538
916.146	15542
916.259	15603
916.371	15633
916.483	15633
916.595	15496
916.708	15488
916.82	15515
916.932	15530
917.044	15428
917.156	15523
917.268	15298
917.38	15355
917.491	15222
917.603	15332
917.715	15393
917.826	15424
917.938	15199
918.049	15146
918.161	15222
918.272	15264
918.384	15325
918.495	15264
918.606	15062
918.717	15013
918.828	15188
918.939	15055
919.05	14925
919.161	14982
919.272	14929
919.383	14876
919.494	15074
919.604	15260
919.715	15017
919.826	14861
919.936	14971
920.047	15119
920.157	14967
920.267	15055
920.378	15062
920.488	14902
920.598	15142
920.708	15306
920.818	15180
920.928	15146
921.038	15306
921.148	15195
921.258	14887
921.368	14834
921.477	14674
921.587	14575
921.697	14697
921.806	14750
921.916	14564
922.025	14541
922.134	14484
922.244	14324
922.353	14389
922.462	14206
922.571	14100
922.68	14031
922.789	14012
922.898	14012
923.007	14035
923.116	13913
923.224	13963
923.333	13940
923.442	13902
923.55	13715
923.659	13811
923.767	13879
923.876	13776
923.984	13864
924.092	13719
924.201	13746
924.309	13776
924.417	13761
924.525	13605
924.633	13609
924.741	14556
924.849	13567
924.956	13575
925.064	13453
925.172	13350
925.279	13396
925.387	13400
925.494	13312
925.602	13521
925.709	13324
925.816	13343
925.924	13274
926.031	13419
926.138	13304
926.245	13403
926.352	13209
926.459	13392
926.566	13510
926.673	13301
926.779	13118
926.886	13084
926.993	13061
927.099	13015
927.206	12909
927.312	12977
927.419	12947
927.525	12909
927.631	12947
927.737	12821
927.843	12814
927.95	12631
928.056	12814
928.162	12795
928.267	12802
928.373	13316
928.479	12852
928.585	12589
928.69	12734
928.796	12635
928.901	12658
929.007	12445
929.112	12578
929.218	12642
929.323	12498
929.428	12452
929.533	12585
929.638	12410
929.743	12471
929.848	12555
929.953	12452
930.058	12353
930.163	12182
930.267	12148
930.372	12239
930.477	12102
930.581	12315
930.685	12178
930.79	11992
930.894	12041
930.998	12015
931.103	12140
931.207	11710
931.311	11733
931.415	11668
931.519	11440
931.623	11406
