Data from test_V78500241_277.txt Node
Date: Fri Mar 25 15:11:47 CST 2022
User: usil
Spectrometer: V785-0024
Trigger mode: 0
Integration Time (sec): 4.000000E-1
Scans to average: 1
Nonlinearity correction enabled: false
Boxcar width: 0
Storing dark spectrum: false
XAxis mode: Wavelengths
Number of Pixels in Spectrum: 1024
>>>>>Begin Spectral Data<<<<<
801.071	27545
801.214	27660
801.356	27268
801.499	27226
801.641	27138
801.783	27161
801.926	27199
802.068	27108
802.211	27150
802.353	27013
802.496	26967
802.638	26914
802.78	26853
802.923	26644
803.065	26587
803.208	26823
803.35	26758
803.492	26861
803.635	26940
803.777	26804
803.919	26990
804.061	27211
804.204	26933
804.346	26746
804.488	26823
804.63	26815
804.773	26777
804.915	26986
805.057	26929
805.199	26773
805.341	26979
805.483	27146
805.626	26994
805.768	26899
805.91	26960
806.052	26982
806.194	26902
806.336	27154
806.478	26990
806.62	27077
806.762	27165
806.904	27203
807.046	27382
807.188	27378
807.33	27351
807.472	27310
807.614	27336
807.756	27310
807.898	27165
808.04	27203
808.182	27104
808.324	27268
808.465	27211
808.607	27462
808.749	27519
808.891	27816
809.033	27861
809.174	27728
809.316	27671
809.458	27435
809.6	27538
809.741	27614
809.883	27762
810.025	27953
810.166	27759
810.308	27823
810.45	27774
810.591	27759
810.733	27500
810.875	27504
811.016	27287
811.158	27264
811.299	27545
811.441	27644
811.582	27797
811.724	27542
811.865	27473
812.007	27386
812.148	27393
812.29	27606
812.431	27724
812.573	27888
812.714	27968
812.855	28078
812.997	28139
813.138	28173
813.279	28128
813.421	28116
813.562	27914
813.703	27766
813.845	27835
813.986	27504
814.127	27214
814.268	27058
814.41	27180
814.551	27199
814.692	27237
814.833	27157
814.974	27032
815.115	27032
815.256	26994
815.397	27017
815.539	26994
815.68	26960
815.821	26838
815.962	26830
816.103	26899
816.244	26697
816.385	26663
816.526	26777
816.666	26465
816.807	26355
816.948	26461
817.089	26465
817.23	26412
817.371	26240
817.512	26347
817.653	26438
817.793	26336
817.934	26313
818.075	26324
818.216	26271
818.356	26252
818.497	26195
818.638	25974
818.778	25986
818.919	26069
819.06	26271
819.2	26301
819.341	26069
819.481	26233
819.622	26476
819.762	26674
819.903	26560
820.043	26522
820.184	26484
820.324	26503
820.465	26579
820.605	26385
820.746	26492
820.886	26252
821.026	26202
821.167	26396
821.307	26419
821.447	26233
821.588	26218
821.728	26031
821.868	25837
822.008	25822
822.149	25845
822.289	25833
822.429	25563
822.569	25563
822.709	25521
822.849	25225
822.99	25160
823.13	25194
823.27	25362
823.41	25027
823.55	25015
823.69	25152
823.83	25107
823.97	24916
824.11	24939
824.25	24798
824.389	24943
824.529	24985
824.669	24958
824.809	24932
824.949	24962
825.089	25008
825.228	24886
825.368	24810
825.508	24810
825.648	24623
825.787	24738
825.927	24764
826.067	24776
826.206	24772
826.346	24768
826.485	24757
826.625	24639
826.765	24749
826.904	24764
827.044	24483
827.183	24585
827.323	24509
827.462	24551
827.601	24464
827.741	24494
827.88	24505
828.02	24369
828.159	24403
828.298	24380
828.437	24437
828.577	24418
828.716	24407
828.855	24403
828.994	24129
829.134	24125
829.273	24186
829.412	24129
829.551	24110
829.69	24079
829.829	24117
829.968	24159
830.107	24296
830.246	24144
830.385	23958
830.524	24003
830.663	23897
830.802	23786
830.941	23809
831.08	23661
831.219	23642
831.357	23748
831.496	23916
831.635	23733
831.774	23581
831.913	23452
832.051	23417
832.19	23387
832.329	23649
832.467	23440
832.606	23490
832.744	23379
832.883	23334
833.022	23376
833.16	23440
833.299	23471
833.437	23395
833.576	23490
833.714	23376
833.852	23589
833.991	23448
834.129	23436
834.267	23604
834.406	23436
834.544	23528
834.682	23452
834.821	23406
834.959	23524
835.097	23349
835.235	23433
835.373	23436
835.511	23505
835.65	23318
835.788	23284
835.926	23318
836.064	23121
836.202	23143
836.34	23284
836.478	23509
836.615	23277
836.753	23299
836.891	23330
837.029	23372
837.167	23189
837.305	23220
837.443	23124
837.58	23140
837.718	23277
837.856	23140
837.993	23037
838.131	23246
838.269	23102
838.406	23071
838.544	22957
838.681	22668
838.819	22763
838.956	22538
839.094	22660
839.231	22542
839.369	22733
839.506	22984
839.643	22805
839.781	22653
839.918	22478
840.055	22653
840.193	22497
840.33	22367
840.467	22542
840.604	22500
840.742	22664
840.879	22478
841.016	22398
841.153	22428
841.29	22615
841.427	22459
841.564	22569
841.701	22504
841.838	22352
841.975	22268
842.112	22367
842.249	22242
842.385	22135
842.522	22341
842.659	22306
842.796	22051
842.933	22204
843.069	22097
843.206	22223
843.343	22207
843.479	22204
843.616	22147
843.752	21903
843.889	22074
844.025	22040
844.162	21953
844.298	22013
844.435	21956
844.571	21892
844.708	22109
844.844	22090
844.98	22162
845.117	22166
845.253	22090
845.389	21865
845.525	21838
845.661	21831
845.798	21641
845.934	21762
846.07	21603
846.206	21694
846.342	21755
846.478	21724
846.614	21439
846.75	21549
846.886	21363
847.022	21572
847.158	21473
847.294	21511
847.429	21485
847.565	21348
847.701	21599
847.837	21211
847.972	21123
848.108	21313
848.244	21294
848.379	20979
848.515	20971
848.65	21081
848.786	21142
848.921	20998
849.057	21173
849.192	21146
849.328	21001
849.463	21005
849.598	20975
849.734	20891
849.869	20883
850.004	20868
850.14	20750
850.275	20712
850.41	20758
850.545	20712
850.68	20670
850.815	20785
850.95	20815
851.085	20925
851.22	20891
851.355	20777
851.49	20762
851.625	20807
851.76	20739
851.895	20598
852.03	20697
852.165	20819
852.299	20777
852.434	20720
852.569	20842
852.703	20697
852.838	20807
852.973	20914
853.107	20819
853.242	20549
853.376	20575
853.511	20412
853.645	20556
853.78	20667
853.914	20564
854.048	20499
854.183	20518
854.317	20640
854.451	20739
854.585	20492
854.72	20575
854.854	20625
854.988	20450
855.122	20476
855.256	20412
855.39	20571
855.524	20598
855.658	20568
855.792	20511
855.926	20640
856.06	20670
856.194	20697
856.327	20590
856.461	20552
856.595	20602
856.729	20431
856.862	20678
856.996	20594
857.13	20526
857.263	20743
857.397	20674
857.53	20484
857.664	20609
857.797	20583
857.931	20648
858.064	20636
858.197	20594
858.331	20503
858.464	20446
858.597	20465
858.731	20552
858.864	20526
858.997	20511
859.13	20522
859.263	20488
859.396	20659
859.529	20495
859.662	20484
859.795	20564
859.928	20587
860.061	20609
860.194	20670
860.327	20503
860.46	20530
860.592	20727
860.725	20769
860.858	20659
860.99	20575
861.123	20552
861.256	20484
861.388	20514
861.521	21074
861.653	20511
861.786	20377
861.918	20415
862.05	20579
862.183	20556
862.315	20556
862.447	20530
862.58	20434
862.712	20305
862.844	20225
862.976	20317
863.108	20370
863.24	20659
863.372	20225
863.504	20183
863.636	20324
863.768	20290
863.9	20233
864.032	20157
864.164	20180
864.296	20259
864.428	20324
864.559	20252
864.691	20259
864.823	20267
864.954	20320
865.086	20172
865.217	20153
865.349	20062
865.48	20180
865.612	20164
865.743	20252
865.875	20069
866.006	20103
866.137	20202
866.269	20240
866.4	20111
866.531	20001
866.662	20024
866.793	20046
866.924	20058
867.055	20073
867.186	20039
867.317	20069
867.448	20081
867.579	20088
867.71	19993
867.841	20027
867.972	20142
868.103	20134
868.233	19906
868.364	20062
868.495	20210
868.625	20385
868.756	20412
868.886	20176
869.017	20271
869.147	20461
869.278	20507
869.408	20381
869.539	20313
869.669	20427
869.799	20305
869.929	20434
870.06	20446
870.19	20670
870.32	20381
870.45	20640
870.58	20667
870.71	20830
870.84	20731
870.97	20724
871.1	20693
871.23	20773
871.36	20994
871.489	20826
871.619	20819
871.749	20941
871.879	20933
872.008	21017
872.138	20952
872.267	20914
872.397	20777
872.526	20819
872.656	20773
872.785	20769
872.915	20937
873.044	20990
873.173	20910
873.303	20937
873.432	21024
873.561	21013
873.69	21020
873.819	20819
873.948	21081
874.077	20838
874.206	20956
874.335	21024
874.464	21009
874.593	21256
874.722	21028
874.851	21112
874.979	21154
875.108	21096
875.237	21123
875.365	21245
875.494	21237
875.623	21199
875.751	21256
875.88	21169
876.008	21298
876.136	21408
876.265	21610
876.393	21641
876.521	21705
876.65	21622
876.778	21583
876.906	21469
877.034	21519
877.162	21488
877.29	21526
877.418	21583
877.546	21652
877.674	21549
877.802	21557
877.93	21526
878.058	21401
878.185	21370
878.313	21477
878.441	21545
878.568	21408
878.696	21443
878.824	21511
878.951	21625
879.079	21800
879.206	21743
879.333	21774
879.461	21561
879.588	21675
879.715	21766
879.842	21819
879.97	21580
880.097	21344
880.224	21367
880.351	21332
880.478	21428
880.605	21363
880.732	21386
880.859	21530
880.986	21336
881.112	21382
881.239	21336
881.366	21203
881.493	21024
881.619	20925
881.746	20887
881.872	20948
881.999	20982
882.125	20838
882.252	21028
882.378	20857
882.505	21051
882.631	21074
882.757	20705
882.883	20705
883.01	20701
883.136	20621
883.262	20545
883.388	20575
883.514	20632
883.64	20617
883.766	20644
883.892	20355
884.018	20533
884.143	20613
884.269	20609
884.395	20415
884.52	20290
884.646	20309
884.772	20366
884.897	20199
885.023	20275
885.148	20282
885.274	20495
885.399	20290
885.524	20313
885.65	20381
885.775	20339
885.9	20370
886.025	20362
886.15	20263
886.275	20233
886.4	20206
886.525	20244
886.65	20199
886.775	20103
886.9	20377
887.025	20530
887.149	20252
887.274	20145
887.399	20054
887.523	20111
887.648	20115
887.773	20062
887.897	20221
888.021	20096
888.146	20062
888.27	20168
888.395	20153
888.519	20138
888.643	20145
888.767	20065
888.891	20012
889.015	19887
889.139	19967
889.263	19841
889.387	20008
889.511	20016
889.635	20043
889.759	19906
889.883	19925
890.006	19925
890.13	19974
890.254	19769
890.377	19765
890.501	19590
890.624	19594
890.748	19670
890.871	19628
890.995	19350
891.118	19476
891.241	19518
891.364	19491
891.488	19514
891.611	19464
891.734	19563
891.857	19476
891.98	19499
892.103	19388
892.226	19434
892.349	19403
892.471	19350
892.594	19388
892.717	19381
892.839	19449
892.962	19430
893.085	19571
893.207	19343
893.33	19217
893.452	19297
893.575	19388
893.697	19308
893.819	19407
893.941	19506
894.064	19578
894.186	19407
894.308	19247
894.43	19396
894.552	19472
894.674	19468
894.796	19335
894.918	19240
895.04	19392
895.161	19457
895.283	19384
895.405	19270
895.526	19483
895.648	19430
895.769	19369
895.891	19453
896.012	19460
896.134	19449
896.255	19369
896.376	19327
896.498	19438
896.619	19480
896.74	19457
896.861	19369
896.982	19738
897.103	19959
897.224	19715
897.345	19586
897.466	19571
897.587	19655
897.708	19795
897.828	19655
897.949	19563
898.07	19434
898.19	19514
898.311	19590
898.431	19628
898.552	19700
898.672	19620
898.792	19734
898.913	19571
899.033	19537
899.153	19403
899.273	19263
899.393	19270
899.513	19365
899.633	19324
899.753	19483
899.873	19358
899.993	19438
900.113	19312
900.232	19270
900.352	19331
900.472	19171
900.591	19091
900.711	19145
900.83	19057
900.95	19179
901.069	19213
901.189	19034
901.308	18871
901.427	18821
901.546	18741
901.665	18863
901.784	18726
901.904	18570
902.023	18509
902.141	18452
902.26	18281
902.379	18460
902.498	18346
902.617	18251
902.735	18296
902.854	18232
902.973	18125
903.091	18015
903.21	17904
903.328	17920
903.446	17863
903.565	17832
903.683	17737
903.801	17581
903.919	17805
904.038	17630
904.156	17535
904.274	17524
904.392	17604
904.51	17638
904.627	17577
904.745	17471
904.863	17512
904.981	17341
905.098	17216
905.216	17185
905.334	17155
905.451	17280
905.569	17193
905.686	17250
905.803	17261
905.921	17022
906.038	17052
906.155	16987
906.272	16828
906.389	16930
906.506	16675
906.623	16778
906.74	16713
906.857	16679
906.974	16687
907.091	16717
907.208	16824
907.324	16816
907.441	16596
907.557	16470
907.674	16413
907.79	16405
907.907	16394
908.023	16535
908.139	16523
908.256	16337
908.372	16306
908.488	16356
908.604	16230
908.72	16150
908.836	16223
908.952	16093
909.068	16295
909.184	16226
909.3	16109
909.415	16143
909.531	16112
909.647	16021
909.762	15937
909.878	15850
909.993	15941
910.108	15793
910.224	15816
910.339	15968
910.454	15724
910.57	15682
910.685	15606
910.8	15888
910.915	15842
911.03	15720
911.145	15469
911.259	15428
911.374	15435
911.489	15393
911.604	15370
911.718	15207
911.833	15264
911.947	15089
912.062	15180
912.176	15108
912.291	15157
912.405	15142
912.519	15393
912.633	15363
912.748	15188
912.862	15093
912.976	15001
913.09	14891
913.204	14971
913.318	14944
913.431	15108
913.545	15055
913.659	15154
913.772	14963
913.886	14868
914	14796
914.113	14899
914.226	14960
914.34	14823
914.453	14735
914.566	14872
914.68	14678
914.793	14724
914.906	14499
915.019	14575
915.132	14404
915.245	14499
915.358	14389
915.47	14518
915.583	14484
915.696	14568
915.809	14621
915.921	14537
916.034	14450
916.146	14438
916.259	14305
916.371	14415
916.483	14400
916.595	14328
916.708	14259
916.82	14294
916.932	14248
917.044	14290
917.156	14298
917.268	14176
917.38	14161
917.491	14176
917.603	14176
917.715	14229
917.826	14282
917.938	14103
918.049	14020
918.161	14043
918.272	14191
918.384	14237
918.495	14088
918.606	13963
918.717	13887
918.828	13925
918.939	13947
919.05	13890
919.161	13974
919.272	13674
919.383	13799
919.494	13974
919.604	14142
919.715	13738
919.826	13814
919.936	13780
920.047	13860
920.157	13887
920.267	14024
920.378	13875
920.488	13780
920.598	14084
920.708	14153
920.818	13955
920.928	13967
921.038	14084
921.148	14130
921.258	13799
921.368	13681
921.477	13731
921.587	13624
921.697	13586
921.806	13662
921.916	13419
922.025	13411
922.134	13194
922.244	13324
922.353	13308
922.462	13084
922.571	13110
922.68	13004
922.789	12882
922.898	12973
923.007	12768
923.116	12913
923.224	12897
923.333	12856
923.442	12817
923.55	12738
923.659	12745
923.767	12886
923.876	12817
923.984	12741
924.092	12741
924.201	12665
924.309	12677
924.417	12639
924.525	12540
924.633	12612
924.741	13331
924.849	12380
924.956	12551
925.064	12380
925.172	12266
925.279	12342
925.387	12319
925.494	12334
925.602	12479
925.709	12388
925.816	12243
925.924	12323
926.031	12414
926.138	12277
926.245	12365
926.352	12285
926.459	12357
926.566	12391
926.673	12190
926.779	12083
926.886	12068
926.993	12015
927.099	11965
927.206	11927
927.312	11954
927.419	11984
927.525	11893
927.631	11908
927.737	11851
927.843	11866
927.95	11748
928.056	11752
928.162	11775
928.267	11786
928.373	12361
928.479	11817
928.585	11661
928.69	11714
928.796	11786
928.901	11608
929.007	11490
929.112	11737
929.218	11592
929.323	11539
929.428	11474
929.533	11718
929.638	11360
929.743	11455
929.848	11535
929.953	11467
930.058	11376
930.163	11121
930.267	11181
930.372	11440
930.477	11166
930.581	11391
930.685	11288
930.79	11124
930.894	11094
930.998	11010
931.103	11254
931.207	10896
931.311	10755
931.415	10725
931.519	10478
931.623	10466
