Data from test_V78500241_669.txt Node
Date: Fri Mar 25 15:14:31 CST 2022
User: usil
Spectrometer: V785-0024
Trigger mode: 0
Integration Time (sec): 4.000000E-1
Scans to average: 1
Nonlinearity correction enabled: false
Boxcar width: 0
Storing dark spectrum: false
XAxis mode: Wavelengths
Number of Pixels in Spectrum: 1024
>>>>>Begin Spectral Data<<<<<
801.071	27956
801.214	27781
801.356	27637
801.499	27610
801.641	27507
801.783	27538
801.926	27587
802.068	27439
802.211	27466
802.353	27329
802.496	27161
802.638	27108
802.78	27203
802.923	27176
803.065	27207
803.208	27199
803.35	27165
803.492	27302
803.635	27325
803.777	27233
803.919	27367
804.061	27610
804.204	27408
804.346	27268
804.488	27241
804.63	27313
804.773	27233
804.915	27545
805.057	27427
805.199	27359
805.341	27568
805.483	27553
805.626	27526
805.768	27393
805.91	27500
806.052	27564
806.194	27492
806.336	27751
806.478	27625
806.62	27603
806.762	27603
806.904	27717
807.046	28116
807.188	27865
807.33	27953
807.472	27964
807.614	27679
807.756	27857
807.898	27797
808.04	27694
808.182	27633
808.324	27998
808.465	27895
808.607	27930
808.749	28063
808.891	28356
809.033	28333
809.174	28310
809.316	28074
809.458	28215
809.6	28150
809.741	28470
809.883	28344
810.025	28481
810.166	28447
810.308	28436
810.45	28504
810.591	28504
810.733	28226
810.875	28101
811.016	27979
811.158	28097
811.299	28181
811.441	28596
811.582	28341
811.724	28032
811.865	28029
812.007	28070
812.148	28124
812.29	28268
812.431	28284
812.573	28394
812.714	28588
812.855	28786
812.997	28942
813.138	29041
813.279	28923
813.421	28786
813.562	28637
813.703	28664
813.845	28424
813.986	28063
814.127	27926
814.268	27842
814.41	27766
814.551	27819
814.692	28017
814.833	27956
814.974	27842
815.115	27979
815.256	27747
815.397	27743
815.539	27850
815.68	27823
815.821	27538
815.962	27751
816.103	27724
816.244	27568
816.385	27447
816.526	27393
816.666	27279
816.807	27169
816.948	27116
817.089	27214
817.23	27070
817.371	27211
817.512	27104
817.653	27138
817.793	27085
817.934	27138
818.075	27218
818.216	27192
818.356	27169
818.497	27036
818.638	27039
818.778	26830
818.919	26800
819.06	26864
819.2	27051
819.341	27173
819.481	27230
819.622	27252
819.762	27477
819.903	27485
820.043	27340
820.184	27298
820.324	27310
820.465	27211
820.605	27336
820.746	27192
820.886	27047
821.026	27226
821.167	27195
821.307	27313
821.447	27142
821.588	27009
821.728	26853
821.868	26667
822.008	26545
822.149	26644
822.289	26545
822.429	26415
822.569	26389
822.709	26351
822.849	26256
822.99	26271
823.13	26069
823.27	25989
823.41	25947
823.55	25944
823.69	26092
823.83	26001
823.97	25875
824.11	25791
824.25	25765
824.389	25731
824.529	25826
824.669	25837
824.809	25928
824.949	25928
825.089	25738
825.228	25746
825.368	25586
825.508	25750
825.648	25693
825.787	25776
825.927	25696
826.067	25540
826.206	25704
826.346	25761
826.485	25670
826.625	25609
826.765	25830
826.904	25674
827.044	25464
827.183	25457
827.323	25274
827.462	25567
827.601	25369
827.741	25320
827.88	25316
828.02	25221
828.159	25552
828.298	25483
828.437	25354
828.577	25152
828.716	25525
828.855	25407
828.994	25069
829.134	25015
829.273	25126
829.412	25061
829.551	24973
829.69	25076
829.829	25122
829.968	25194
830.107	25023
830.246	25110
830.385	25012
830.524	24962
830.663	24844
830.802	24776
830.941	24741
831.08	24631
831.219	24791
831.357	24814
831.496	24829
831.635	24757
831.774	24639
831.913	24551
832.051	24429
832.19	24570
832.329	24528
832.467	24399
832.606	24388
832.744	24277
832.883	24319
833.022	24315
833.16	24418
833.299	24308
833.437	24422
833.576	24395
833.714	24441
833.852	24475
833.991	24471
834.129	24479
834.267	24502
834.406	24353
834.544	24376
834.682	24437
834.821	24292
834.959	24570
835.097	24376
835.235	24369
835.373	24342
835.511	24410
835.65	24197
835.788	24330
835.926	24144
836.064	23992
836.202	24205
836.34	24224
836.478	24216
836.615	24277
836.753	24270
836.891	24357
837.029	24091
837.167	24167
837.305	24220
837.443	24133
837.58	24087
837.718	24144
837.856	24125
837.993	24098
838.131	24041
838.269	23847
838.406	23954
838.544	23920
838.681	23680
838.819	23589
838.956	23543
839.094	23459
839.231	23623
839.369	23767
839.506	23901
839.643	23824
839.781	23638
839.918	23566
840.055	23558
840.193	23570
840.33	23471
840.467	23410
840.604	23516
840.742	23729
840.879	23349
841.016	23360
841.153	23379
841.29	23509
841.427	23383
841.564	23512
841.701	23410
841.838	23421
841.975	23387
842.112	23417
842.249	23337
842.385	23315
842.522	23356
842.659	23318
842.796	23231
842.933	23197
843.069	23254
843.206	23170
843.343	23299
843.479	23216
843.616	23159
843.752	22927
843.889	23056
844.025	22976
844.162	23086
844.298	23181
844.435	22976
844.571	22930
844.708	22915
844.844	23121
844.98	23147
845.117	22984
845.253	22930
845.389	22816
845.525	22927
845.661	22873
845.798	22839
845.934	22801
846.07	22725
846.206	22755
846.342	22873
846.478	22698
846.614	22481
846.75	22447
846.886	22363
847.022	22440
847.158	22447
847.294	22504
847.429	22470
847.565	22382
847.701	22752
847.837	22131
847.972	22230
848.108	22238
848.244	22337
848.379	22013
848.515	22032
848.65	22040
848.786	22044
848.921	22177
849.057	22109
849.192	22135
849.328	22249
849.463	21983
849.598	21953
849.734	21994
849.869	21880
850.004	21892
850.14	21816
850.275	21819
850.41	21747
850.545	21682
850.68	21686
850.815	21819
850.95	21724
851.085	21956
851.22	21991
851.355	21888
851.49	21774
851.625	21755
851.76	21857
851.895	21667
852.03	21739
852.165	21675
852.299	21873
852.434	21865
852.569	21774
852.703	21800
852.838	21892
852.973	21953
853.107	21930
853.242	21835
853.376	21606
853.511	21545
853.645	21610
853.78	21720
853.914	21606
854.048	21564
854.183	21705
854.317	21694
854.451	21911
854.585	21603
854.72	21652
854.854	21644
854.988	21660
855.122	21652
855.256	21466
855.39	21667
855.524	21743
855.658	21766
855.792	21561
855.926	21618
856.06	21660
856.194	21644
856.327	21671
856.461	21561
856.595	21739
856.729	21580
856.862	21698
856.996	21667
857.13	21736
857.263	21698
857.397	21781
857.53	21648
857.664	21705
857.797	21728
857.931	21739
858.064	21728
858.197	21717
858.331	21587
858.464	21610
858.597	21542
858.731	21519
858.864	21671
858.997	21614
859.13	21614
859.263	21614
859.396	21759
859.529	21549
859.662	21534
859.795	21542
859.928	21610
860.061	21808
860.194	21854
860.327	21686
860.46	21648
860.592	21774
860.725	21762
860.858	21732
860.99	21686
861.123	21519
861.256	21576
861.388	21637
861.521	22276
861.653	21530
861.786	21332
861.918	21519
862.05	21450
862.183	21561
862.315	21549
862.447	21625
862.58	21424
862.712	21180
862.844	21344
862.976	21428
863.108	21523
863.24	21895
863.372	21378
863.504	21458
863.636	21283
863.768	21332
863.9	21252
864.032	21268
864.164	21405
864.296	21298
864.428	21374
864.559	21405
864.691	21416
864.823	21332
864.954	21435
865.086	21393
865.217	21321
865.349	21249
865.48	21142
865.612	21180
865.743	21298
865.875	21214
866.006	21173
866.137	21161
866.269	21298
866.4	21260
866.531	21211
866.662	21096
866.793	21176
866.924	21222
867.055	21287
867.186	21287
867.317	21112
867.448	21161
867.579	21089
867.71	21089
867.841	21039
867.972	21264
868.103	21230
868.233	21112
868.364	21260
868.495	21306
868.625	21359
868.756	21401
868.886	21355
869.017	21431
869.147	21431
869.278	21504
869.408	21454
869.539	21408
869.669	21428
869.799	21462
869.929	21450
870.06	21443
870.19	21709
870.32	21660
870.45	21660
870.58	21724
870.71	21835
870.84	21759
870.97	21816
871.1	21953
871.23	22067
871.36	22010
871.489	21907
871.619	21911
871.749	21991
871.879	22093
872.008	22036
872.138	22013
872.267	21953
872.397	21739
872.526	21812
872.656	21831
872.785	21899
872.915	22025
873.044	22116
873.173	22051
873.303	22002
873.432	22040
873.561	22044
873.69	22040
873.819	22025
873.948	22040
874.077	22128
874.206	21930
874.335	22067
874.464	22112
874.593	22162
874.722	22166
874.851	22291
874.979	22352
875.108	22120
875.237	22204
875.365	22234
875.494	22135
875.623	22299
875.751	22158
875.88	22242
876.008	22440
876.136	22386
876.265	22561
876.393	22752
876.521	22649
876.65	22725
876.778	22607
876.906	22573
877.034	22485
877.162	22538
877.29	22508
877.418	22550
877.546	22538
877.674	22664
877.802	22531
877.93	22653
878.058	22470
878.185	22500
878.313	22489
878.441	22561
878.568	22333
878.696	22599
878.824	22721
878.951	22797
879.079	22717
879.206	22854
879.333	22801
879.461	22721
879.588	22691
879.715	22744
879.842	22923
879.97	22702
880.097	22474
880.224	22375
880.351	22504
880.478	22394
880.605	22352
880.732	22497
880.859	22485
880.986	22436
881.112	22432
881.239	22196
881.366	22242
881.493	22063
881.619	21926
881.746	22139
881.872	21850
881.999	21991
882.125	21888
882.252	22017
882.378	22051
882.505	22013
882.631	21911
882.757	21778
882.883	21888
883.01	21732
883.136	21675
883.262	21538
883.388	21538
883.514	21614
883.64	21629
883.766	21572
883.892	21523
884.018	21382
884.143	21580
884.269	21644
884.395	21450
884.52	21302
884.646	21283
884.772	21226
884.897	21192
885.023	21211
885.148	21310
885.274	21321
885.399	21561
885.524	21226
885.65	21264
885.775	21214
885.9	21298
886.025	21321
886.15	21412
886.275	21203
886.4	21230
886.525	21233
886.65	21233
886.775	21302
886.9	21344
887.025	21462
887.149	21222
887.274	21108
887.399	21058
887.523	20982
887.648	21055
887.773	21036
887.897	21131
888.021	21077
888.146	21036
888.27	21173
888.395	21211
888.519	21203
888.643	21260
888.767	21104
888.891	20960
889.015	20861
889.139	20895
889.263	20845
889.387	20925
889.511	21188
889.635	21058
889.759	20705
889.883	20819
890.006	20819
890.13	20788
890.254	20876
890.377	20807
890.501	20667
890.624	20594
890.748	20708
890.871	20492
890.995	20431
891.118	20400
891.241	20442
891.364	20480
891.488	20537
891.611	20404
891.734	20438
891.857	20552
891.98	20446
892.103	20290
892.226	20533
892.349	20355
892.471	20278
892.594	20301
892.717	20278
892.839	20305
892.962	20275
893.085	20317
893.207	20415
893.33	20267
893.452	20294
893.575	20355
893.697	20153
893.819	20423
893.941	20636
894.064	20370
894.186	20309
894.308	20320
894.43	20278
894.552	20473
894.674	20503
894.796	20225
894.918	20320
895.04	20252
895.161	20377
895.283	20328
895.405	20233
895.526	20263
895.648	20290
895.769	20381
895.891	20377
896.012	20294
896.134	20324
896.255	20278
896.376	20351
896.498	20252
896.619	20229
896.74	20317
896.861	20358
896.982	20705
897.103	20712
897.224	20724
897.345	20507
897.466	20560
897.587	20549
897.708	20701
897.828	20583
897.949	20613
898.07	20423
898.19	20541
898.311	20590
898.431	20552
898.552	20476
898.672	20701
898.792	20617
898.913	20446
899.033	20442
899.153	20305
899.273	20214
899.393	20442
899.513	20328
899.633	20218
899.753	20313
899.873	20252
899.993	20244
900.113	20153
900.232	20225
900.352	20366
900.472	20077
900.591	19951
900.711	20176
900.83	19951
900.95	20020
901.069	20210
901.189	19879
901.308	19674
901.427	19658
901.546	19704
901.665	19609
901.784	19696
901.904	19487
902.023	19457
902.141	19175
902.26	19183
902.379	19183
902.498	19133
902.617	19137
902.735	19251
902.854	19042
902.973	19110
903.091	18833
903.21	18852
903.328	18916
903.446	18745
903.565	18719
903.683	18646
903.801	18464
903.919	18627
904.038	18639
904.156	18323
904.274	18448
904.392	18376
904.51	18353
904.627	18254
904.745	18357
904.863	18403
904.981	18319
905.098	18117
905.216	18026
905.334	18136
905.451	18057
905.569	18011
905.686	18015
905.803	18026
905.921	17821
906.038	17977
906.155	17908
906.272	17756
906.389	17904
906.506	17615
906.623	17786
906.74	17558
906.857	17501
906.974	17395
907.091	17566
907.208	17665
907.324	17611
907.441	17391
907.557	17269
907.674	17292
907.79	17288
907.907	17280
908.023	17356
908.139	17322
908.256	17322
908.372	17296
908.488	17105
908.604	17041
908.72	16923
908.836	17045
908.952	17018
909.068	17003
909.184	17102
909.3	17060
909.415	17052
909.531	17045
909.647	16869
909.762	16801
909.878	16729
909.993	16778
910.108	16767
910.224	16733
910.339	16801
910.454	16641
910.57	16569
910.685	16489
910.8	16778
910.915	16573
911.03	16542
911.145	16348
911.259	16310
911.374	16341
911.489	16173
911.604	16173
911.718	16135
911.833	16082
911.947	16067
912.062	15895
912.176	16101
912.291	16017
912.405	16124
912.519	16181
912.633	16173
912.748	16078
912.862	15983
912.976	15903
913.09	15732
913.204	15797
913.318	15880
913.431	16067
913.545	15941
913.659	15953
913.772	15884
913.886	15709
914	15633
914.113	15835
914.226	15831
914.34	15698
914.453	15584
914.566	15759
914.68	15580
914.793	15488
914.906	15272
915.019	15325
915.132	15127
915.245	15351
915.358	15348
915.47	15237
915.583	15294
915.696	15275
915.809	15443
915.921	15287
916.034	15142
916.146	15173
916.259	15028
916.371	15313
916.483	15233
916.595	15146
916.708	15146
916.82	15176
916.932	14952
917.044	15058
917.156	15047
917.268	14979
917.38	14845
917.491	14982
917.603	14918
917.715	14960
917.826	15013
917.938	14849
918.049	14769
918.161	14914
918.272	14872
918.384	15017
918.495	14823
918.606	14720
918.717	14712
918.828	14678
918.939	14781
919.05	14484
919.161	14655
919.272	14465
919.383	14564
919.494	14746
919.604	14785
919.715	14705
919.826	14564
919.936	14625
920.047	14724
920.157	14640
920.267	14731
920.378	14724
920.488	14560
920.598	14785
920.708	14895
920.818	14708
920.928	14826
921.038	14944
921.148	14876
921.258	14606
921.368	14480
921.477	14434
921.587	14412
921.697	14309
921.806	14415
921.916	14298
922.025	14031
922.134	14001
922.244	14050
922.353	14088
922.462	13921
922.571	13830
922.68	13681
922.789	13639
922.898	13689
923.007	13582
923.116	13533
923.224	13681
923.333	13605
923.442	13464
923.55	13434
923.659	13464
923.767	13552
923.876	13445
923.984	13525
924.092	13415
924.201	13415
924.309	13354
924.417	13373
924.525	13270
924.633	13304
924.741	14065
924.849	13168
924.956	13282
925.064	13046
925.172	13057
925.279	13053
925.387	13099
925.494	13133
925.602	13213
925.709	13118
925.816	12962
925.924	13080
926.031	13099
926.138	12977
926.245	13114
926.352	12837
926.459	13084
926.566	13133
926.673	12939
926.779	12806
926.886	12814
926.993	12738
927.099	12692
927.206	12601
927.312	12532
927.419	12703
927.525	12650
927.631	12650
927.737	12498
927.843	12448
927.95	12448
928.056	12384
928.162	12517
928.267	12498
928.373	13091
928.479	12506
928.585	12251
928.69	12407
928.796	12467
928.901	12251
929.007	12148
929.112	12273
929.218	12270
929.323	12159
929.428	12209
929.533	12216
929.638	12064
929.743	12068
929.848	12178
929.953	12110
930.058	12057
930.163	11889
930.267	11878
930.372	11965
930.477	11790
930.581	12087
930.685	11942
930.79	11699
930.894	11855
930.998	11707
931.103	11859
931.207	11490
931.311	11417
931.415	11204
931.519	11128
931.623	11113
