Data from test_V78500241_2805.txt Node
Date: Fri Mar 25 15:29:23 CST 2022
User: usil
Spectrometer: V785-0024
Trigger mode: 0
Integration Time (sec): 4.000000E-1
Scans to average: 1
Nonlinearity correction enabled: false
Boxcar width: 0
Storing dark spectrum: false
XAxis mode: Wavelengths
Number of Pixels in Spectrum: 1024
>>>>>Begin Spectral Data<<<<<
801.071	27180
801.214	27085
801.356	26910
801.499	26960
801.641	26845
801.783	26804
801.926	26735
802.068	26830
802.211	26621
802.353	26663
802.496	26336
802.638	26358
802.78	26210
802.923	26301
803.065	26366
803.208	26275
803.35	26358
803.492	26415
803.635	26617
803.777	26530
803.919	26522
804.061	26910
804.204	26598
804.346	26446
804.488	26412
804.63	26526
804.773	26499
804.915	26587
805.057	26640
805.199	26602
805.341	26579
805.483	26552
805.626	26625
805.768	26533
805.91	26560
806.052	26754
806.194	26408
806.336	26925
806.478	26686
806.62	26621
806.762	26804
806.904	27009
807.046	27058
807.188	27032
807.33	27135
807.472	27020
807.614	27070
807.756	27081
807.898	26845
808.04	26864
808.182	26940
808.324	27017
808.465	26921
808.607	27077
808.749	27272
808.891	27260
809.033	27412
809.174	27420
809.316	27218
809.458	27150
809.6	27123
809.741	27386
809.883	27306
810.025	27481
810.166	27427
810.308	27443
810.45	27382
810.591	27306
810.733	27279
810.875	27211
811.016	27260
811.158	27157
811.299	27313
811.441	27401
811.582	27427
811.724	27222
811.865	27184
812.007	27294
812.148	27245
812.29	27154
812.431	27298
812.573	27530
812.714	27641
812.855	27652
812.997	27956
813.138	27911
813.279	27804
813.421	27846
813.562	27709
813.703	27561
813.845	27397
813.986	27135
814.127	26914
814.268	26807
814.41	26960
814.551	27081
814.692	27001
814.833	26883
814.974	26819
815.115	26925
815.256	26880
815.397	26811
815.539	26804
815.68	26754
815.821	26560
815.962	26655
816.103	26727
816.244	26484
816.385	26503
816.526	26351
816.666	26339
816.807	26206
816.948	26339
817.089	26115
817.23	26248
817.371	26043
817.512	26103
817.653	26062
817.793	26092
817.934	26081
818.075	26065
818.216	26180
818.356	26027
818.497	25989
818.638	25830
818.778	25776
818.919	25761
819.06	25940
819.2	26043
819.341	26161
819.481	26221
819.622	26161
819.762	26453
819.903	26278
820.043	26339
820.184	26244
820.324	26252
820.465	26385
820.605	26218
820.746	26221
820.886	25982
821.026	26164
821.167	26077
821.307	26305
821.447	26024
821.588	25986
821.728	25894
821.868	25761
822.008	25525
822.149	25651
822.289	25563
822.429	25419
822.569	25247
822.709	25312
822.849	25152
822.99	25145
823.13	25057
823.27	25160
823.41	24867
823.55	24768
823.69	24985
823.83	24875
823.97	24840
824.11	24875
824.25	24768
824.389	24722
824.529	24817
824.669	24741
824.809	24825
824.949	24939
825.089	24798
825.228	24722
825.368	24616
825.508	24665
825.648	24566
825.787	24578
825.927	24719
826.067	24707
826.206	24639
826.346	24711
826.485	24623
826.625	24627
826.765	24585
826.904	24616
827.044	24369
827.183	24376
827.323	24209
827.462	24372
827.601	24315
827.741	24376
827.88	24201
828.02	24194
828.159	24273
828.298	24311
828.437	24399
828.577	24289
828.716	24361
828.855	24190
828.994	24121
829.134	24030
829.273	24030
829.412	23851
829.551	23889
829.69	23988
829.829	23950
829.968	24102
830.107	24095
830.246	23999
830.385	23889
830.524	24015
830.663	23779
830.802	23771
830.941	23657
831.08	23440
831.219	23646
831.357	23794
831.496	23897
831.635	23551
831.774	23505
831.913	23539
832.051	23562
832.19	23414
832.329	23197
832.467	23315
832.606	23216
832.744	23235
832.883	23273
833.022	23303
833.16	23315
833.299	23372
833.437	23315
833.576	23341
833.714	23535
833.852	23425
833.991	23330
834.129	23429
834.267	23436
834.406	23322
834.544	23307
834.682	23292
834.821	23299
834.959	23516
835.097	23493
835.235	23406
835.373	23360
835.511	23315
835.65	23170
835.788	23353
835.926	23109
836.064	22877
836.202	22972
836.34	23292
836.478	23269
836.615	23223
836.753	23227
836.891	23216
837.029	23250
837.167	23140
837.305	23052
837.443	23159
837.58	23056
837.718	23178
837.856	22892
837.993	22938
838.131	22938
838.269	22972
838.406	22885
838.544	22911
838.681	22675
838.819	22740
838.956	22382
839.094	22421
839.231	22634
839.369	22717
839.506	22900
839.643	22778
839.781	22542
839.918	22516
840.055	22474
840.193	22455
840.33	22379
840.467	22497
840.604	22508
840.742	22683
840.879	22280
841.016	22409
841.153	22356
841.29	22489
841.427	22428
841.564	22462
841.701	22379
841.838	22405
841.975	22348
842.112	22318
842.249	22253
842.385	22204
842.522	22447
842.659	22322
842.796	22166
842.933	22139
843.069	22112
843.206	22192
843.343	22192
843.479	22200
843.616	22139
843.752	21941
843.889	21956
844.025	22017
844.162	21899
844.298	21972
844.435	22032
844.571	21926
844.708	21983
844.844	22082
844.98	22070
845.117	22120
845.253	21895
845.389	21736
845.525	22010
845.661	21675
845.798	21660
845.934	21751
846.07	21614
846.206	21751
846.342	21698
846.478	21736
846.614	21568
846.75	21428
846.886	21382
847.022	21473
847.158	21393
847.294	21435
847.429	21549
847.565	21359
847.701	21781
847.837	21146
847.972	21180
848.108	21245
848.244	21188
848.379	21093
848.515	20952
848.65	21017
848.786	21032
848.921	21039
849.057	21176
849.192	21047
849.328	21116
849.463	21032
849.598	20933
849.734	20929
849.869	20845
850.004	20861
850.14	20762
850.275	20773
850.41	20670
850.545	20735
850.68	20765
850.815	20807
850.95	20815
851.085	21017
851.22	20883
851.355	20773
851.49	20777
851.625	20762
851.76	20834
851.895	20807
852.03	20785
852.165	20807
852.299	20838
852.434	20895
852.569	20724
852.703	20686
852.838	20853
852.973	20937
853.107	20910
853.242	20735
853.376	20629
853.511	20503
853.645	20549
853.78	20746
853.914	20697
854.048	20621
854.183	20556
854.317	20701
854.451	20864
854.585	20720
854.72	20663
854.854	20743
854.988	20625
855.122	20625
855.256	20514
855.39	20743
855.524	20659
855.658	20674
855.792	20727
855.926	20701
856.06	20632
856.194	20739
856.327	20705
856.461	20594
856.595	20609
856.729	20594
856.862	20708
856.996	20613
857.13	20682
857.263	20815
857.397	20754
857.53	20670
857.664	20655
857.797	20598
857.931	20880
858.064	20644
858.197	20693
858.331	20549
858.464	20568
858.597	20503
858.731	20511
858.864	20632
858.997	20625
859.13	20693
859.263	20693
859.396	20636
859.529	20640
859.662	20640
859.795	20560
859.928	20693
860.061	20708
860.194	20849
860.327	20606
860.46	20693
860.592	20743
860.725	20804
860.858	20853
860.99	20682
861.123	20442
861.256	20484
861.388	20617
861.521	21317
861.653	20442
861.786	20473
861.918	20393
862.05	20606
862.183	20602
862.315	20545
862.447	20697
862.58	20511
862.712	20347
862.844	20362
862.976	20537
863.108	20484
863.24	20792
863.372	20377
863.504	20389
863.636	20351
863.768	20484
863.9	20400
864.032	20317
864.164	20317
864.296	20385
864.428	20450
864.559	20473
864.691	20366
864.823	20526
864.954	20332
865.086	20324
865.217	20290
865.349	20237
865.48	20240
865.612	20301
865.743	20396
865.875	20263
866.006	20294
866.137	20218
866.269	20221
866.4	20267
866.531	20237
866.662	20138
866.793	20252
866.924	20206
867.055	20244
867.186	20195
867.317	20119
867.448	20096
867.579	20248
867.71	20122
867.841	20073
867.972	20073
868.103	20324
868.233	20290
868.364	20408
868.495	20248
868.625	20396
868.756	20537
868.886	20385
869.017	20488
869.147	20530
869.278	20663
869.408	20480
869.539	20469
869.669	20442
869.799	20526
869.929	20606
870.06	20590
870.19	20621
870.32	20765
870.45	20864
870.58	20788
870.71	20952
870.84	20891
870.97	20868
871.1	20781
871.23	20994
871.36	21055
871.489	20956
871.619	21020
871.749	21108
871.879	21085
872.008	21226
872.138	21142
872.267	21108
872.397	20941
872.526	20800
872.656	20849
872.785	20902
872.915	21013
873.044	21089
873.173	21077
873.303	21085
873.432	21150
873.561	21188
873.69	21127
873.819	21112
873.948	21249
874.077	21112
874.206	21017
874.335	20941
874.464	21226
874.593	21298
874.722	21214
874.851	21245
874.979	21348
875.108	21287
875.237	21226
875.365	21180
875.494	21252
875.623	21386
875.751	21291
875.88	21332
876.008	21485
876.136	21450
876.265	21641
876.393	21816
876.521	21747
876.65	21755
876.778	21751
876.906	21633
877.034	21583
877.162	21717
877.29	21614
877.418	21618
877.546	21542
877.674	21648
877.802	21698
877.93	21606
878.058	21603
878.185	21473
878.313	21507
878.441	21682
878.568	21466
878.696	21682
878.824	21690
878.951	21724
879.079	21842
879.206	21911
879.333	21827
879.461	21679
879.588	21671
879.715	21743
879.842	21918
879.97	21724
880.097	21435
880.224	21443
880.351	21466
880.478	21416
880.605	21424
880.732	21485
880.859	21694
880.986	21526
881.112	21587
881.239	21496
881.366	21081
881.493	21039
881.619	21058
881.746	20967
881.872	21119
881.999	21043
882.125	20994
882.252	21081
882.378	21157
882.505	21226
882.631	20941
882.757	20788
882.883	20975
883.01	20739
883.136	20609
883.262	20571
883.388	20556
883.514	20720
883.64	20823
883.766	20777
883.892	20568
884.018	20518
884.143	20674
884.269	20686
884.395	20552
884.52	20290
884.646	20377
884.772	20351
884.897	20389
885.023	20560
885.148	20598
885.274	20712
885.399	20571
885.524	20374
885.65	20431
885.775	20438
885.9	20400
886.025	20454
886.15	20415
886.275	20419
886.4	20351
886.525	20366
886.65	20336
886.775	20442
886.9	20541
887.025	20484
887.149	20347
887.274	20168
887.399	20271
887.523	20305
887.648	20183
887.773	20092
887.897	20320
888.021	20298
888.146	20164
888.27	20240
888.395	20210
888.519	20119
888.643	20126
888.767	20225
888.891	20187
889.015	19982
889.139	19982
889.263	19940
889.387	20100
889.511	20225
889.635	20161
889.759	20001
889.883	19963
890.006	20062
890.13	20081
890.254	19852
890.377	19940
890.501	19845
890.624	19761
890.748	19708
890.871	19605
890.995	19605
891.118	19605
891.241	19639
891.364	19586
891.488	19712
891.611	19590
891.734	19708
891.857	19571
891.98	19518
892.103	19784
892.226	19632
892.349	19559
892.471	19392
892.594	19506
892.717	19563
892.839	19472
892.962	19468
893.085	19609
893.207	19552
893.33	19400
893.452	19426
893.575	19582
893.697	19400
893.819	19582
893.941	19597
894.064	19586
894.186	19487
894.308	19499
894.43	19586
894.552	19677
894.674	19609
894.796	19441
894.918	19506
895.04	19415
895.161	19556
895.283	19468
895.405	19468
895.526	19502
895.648	19506
895.769	19506
895.891	19510
896.012	19529
896.134	19552
896.255	19590
896.376	19582
896.498	19483
896.619	19575
896.74	19518
896.861	19540
896.982	19875
897.103	19936
897.224	19632
897.345	19674
897.466	19719
897.587	19738
897.708	19928
897.828	19811
897.949	19715
898.07	19563
898.19	19677
898.311	19780
898.431	19784
898.552	19761
898.672	19811
898.792	19814
898.913	19864
899.033	19738
899.153	19518
899.273	19510
899.393	19540
899.513	19594
899.633	19525
899.753	19571
899.873	19438
899.993	19674
900.113	19533
900.232	19487
900.352	19384
900.472	19293
900.591	19206
900.711	19263
900.83	19209
900.95	19354
901.069	19358
901.189	19282
901.308	19004
901.427	18951
901.546	18894
901.665	18871
901.784	18924
901.904	18753
902.023	18608
902.141	18429
902.26	18353
902.379	18460
902.498	18521
902.617	18467
902.735	18410
902.854	18418
902.973	18277
903.091	18167
903.21	18060
903.328	17988
903.446	17927
903.565	17828
903.683	17977
903.801	17726
903.919	17832
904.038	17798
904.156	17672
904.274	17756
904.392	17619
904.51	17657
904.627	17714
904.745	17649
904.863	17737
904.981	17406
905.098	17269
905.216	17383
905.334	17425
905.451	17368
905.569	17315
905.686	17372
905.803	17337
905.921	17181
906.038	17242
906.155	17075
906.272	16911
906.389	17010
906.506	16816
906.623	16930
906.74	16858
906.857	16820
906.974	16790
907.091	16927
907.208	17090
907.324	16896
907.441	16816
907.557	16615
907.674	16641
907.79	16535
907.907	16481
908.023	16656
908.139	16603
908.256	16554
908.372	16577
908.488	16424
908.604	16303
908.72	16356
908.836	16382
908.952	16314
909.068	16386
909.184	16333
909.3	16265
909.415	16333
909.531	16261
909.647	16025
909.762	16048
909.878	16048
909.993	16032
910.108	16021
910.224	16032
910.339	15998
910.454	15934
910.57	15812
910.685	15747
910.8	16063
910.915	15873
911.03	15804
911.145	15709
911.259	15690
911.374	15599
911.489	15519
911.604	15515
911.718	15370
911.833	15389
911.947	15173
912.062	15249
912.176	15473
912.291	15428
912.405	15412
912.519	15591
912.633	15587
912.748	15447
912.862	15317
912.976	15226
913.09	15157
913.204	15142
913.318	15184
913.431	15325
913.545	15275
913.659	15294
913.772	15131
913.886	15104
914	15036
914.113	15097
914.226	15203
914.34	15043
914.453	14948
914.566	14960
914.68	14929
914.793	14819
914.906	14746
915.019	14632
915.132	14621
915.245	14560
915.358	14667
915.47	14598
915.583	14640
915.696	14716
915.809	14689
915.921	14762
916.034	14541
916.146	14488
916.259	14526
916.371	14640
916.483	14629
916.595	14362
916.708	14511
916.82	14457
916.932	14427
917.044	14400
917.156	14488
917.268	14339
917.38	14400
917.491	14210
917.603	14298
917.715	14427
917.826	14396
917.938	14256
918.049	14183
918.161	14256
918.272	14351
918.384	14389
918.495	14199
918.606	14157
918.717	14050
918.828	14107
918.939	14130
919.05	13951
919.161	14062
919.272	13833
919.383	13864
919.494	14088
919.604	14210
919.715	13967
919.826	14043
919.936	14054
920.047	14107
920.157	14016
920.267	14275
920.378	14035
920.488	13947
920.598	14290
920.708	14244
920.818	14180
920.928	14126
921.038	14301
921.148	14153
921.258	13978
921.368	13932
921.477	13788
921.587	13700
921.697	13681
921.806	13712
921.916	13571
922.025	13544
922.134	13525
922.244	13476
922.353	13426
922.462	13377
922.571	13274
922.68	13122
922.789	13133
922.898	13187
923.007	13031
923.116	13152
923.224	13038
923.333	13118
923.442	12909
923.55	12970
923.659	12981
923.767	12966
923.876	12882
923.984	12935
924.092	12833
924.201	12897
924.309	12787
924.417	12772
924.525	12753
924.633	12726
924.741	13582
924.849	12509
924.956	12753
925.064	12658
925.172	12429
925.279	12547
925.387	12589
925.494	12521
925.602	12703
925.709	12540
925.816	12456
925.924	12456
926.031	12509
926.138	12452
926.245	12479
926.352	12380
926.459	12486
926.566	12582
926.673	12380
926.779	12285
926.886	12296
926.993	12136
927.099	12087
927.206	12022
927.312	11939
927.419	12205
927.525	12232
927.631	12064
927.737	12049
927.843	11931
927.95	11828
928.056	11897
928.162	11973
928.267	12003
928.373	12513
928.479	11961
928.585	11836
928.69	12003
928.796	11923
928.901	11756
929.007	11653
929.112	11840
929.218	11802
929.323	11642
929.428	11634
929.533	11798
929.638	11573
929.743	11604
929.848	11707
929.953	11649
930.058	11497
930.163	11349
930.267	11296
930.372	11604
930.477	11345
930.581	11501
930.685	11486
930.79	11284
930.894	11315
930.998	11269
931.103	11414
931.207	11075
931.311	10930
931.415	10862
931.519	10656
931.623	10660
