Data from test_V78500241_3413.txt Node
Date: Fri Mar 25 15:33:37 CST 2022
User: usil
Spectrometer: V785-0024
Trigger mode: 0
Integration Time (sec): 4.000000E-1
Scans to average: 1
Nonlinearity correction enabled: false
Boxcar width: 0
Storing dark spectrum: false
XAxis mode: Wavelengths
Number of Pixels in Spectrum: 1024
>>>>>Begin Spectral Data<<<<<
801.071	27218
801.214	27256
801.356	27036
801.499	26785
801.641	26640
801.783	26651
801.926	26785
802.068	26845
802.211	26754
802.353	26484
802.496	26522
802.638	26545
802.78	26507
802.923	26347
803.065	26259
803.208	26301
803.35	26317
803.492	26473
803.635	26785
803.777	26434
803.919	26670
804.061	26811
804.204	26659
804.346	26526
804.488	26492
804.63	26545
804.773	26720
804.915	26640
805.057	26655
805.199	26533
805.341	26636
805.483	26708
805.626	26644
805.768	26640
805.91	26785
806.052	26876
806.194	26583
806.336	26663
806.478	26701
806.62	26705
806.762	26872
806.904	26990
807.046	27199
807.188	27104
807.33	27112
807.472	26948
807.614	26979
807.756	27058
807.898	26914
808.04	26842
808.182	26910
808.324	26815
808.465	26994
808.607	27096
808.749	27325
808.891	27355
809.033	27378
809.174	27298
809.316	27260
809.458	27207
809.6	27283
809.741	27538
809.883	27340
810.025	27469
810.166	27538
810.308	27538
810.45	27504
810.591	27538
810.733	27469
810.875	27367
811.016	27279
811.158	27024
811.299	27370
811.441	27424
811.582	27348
811.724	27306
811.865	27241
812.007	27123
812.148	27279
812.29	27214
812.431	27325
812.573	27625
812.714	27694
812.855	27911
812.997	27854
813.138	27907
813.279	27987
813.421	27724
813.562	27667
813.703	27595
813.845	27469
813.986	27226
814.127	27043
814.268	27047
814.41	27017
814.551	26880
814.692	27135
814.833	26864
814.974	26842
815.115	26952
815.256	26689
815.397	26739
815.539	26720
815.68	26583
815.821	26731
815.962	26724
816.103	26686
816.244	26476
816.385	26488
816.526	26469
816.666	26286
816.807	26187
816.948	26317
817.089	26339
817.23	26164
817.371	26183
817.512	26282
817.653	26183
817.793	26107
817.934	26282
818.075	26278
818.216	26282
818.356	26164
818.497	26031
818.638	25913
818.778	25936
818.919	25970
819.06	26027
819.2	26111
819.341	26176
819.481	26092
819.622	26457
819.762	26480
819.903	26514
820.043	26412
820.184	26355
820.324	26183
820.465	26492
820.605	26339
820.746	26259
820.886	26119
821.026	26453
821.167	26336
821.307	26309
821.447	26202
821.588	26069
821.728	26065
821.868	25871
822.008	25662
822.149	25727
822.289	25723
822.429	25411
822.569	25255
822.709	25324
822.849	25118
822.99	25095
823.13	25069
823.27	25156
823.41	24966
823.55	24878
823.69	24954
823.83	25004
823.97	24829
824.11	24798
824.25	24829
824.389	24829
824.529	24958
824.669	24856
824.809	24886
824.949	24916
825.089	24798
825.228	24863
825.368	24612
825.508	24719
825.648	24768
825.787	24726
825.927	24620
826.067	24559
826.206	24654
826.346	24688
826.485	24673
826.625	24620
826.765	24810
826.904	24852
827.044	24380
827.183	24441
827.323	24232
827.462	24486
827.601	24509
827.741	24323
827.88	24494
828.02	24350
828.159	24433
828.298	24380
828.437	24475
828.577	24395
828.716	24494
828.855	24311
828.994	24121
829.134	24136
829.273	24057
829.412	24190
829.551	24041
829.69	24072
829.829	24125
829.968	24235
830.107	24125
830.246	24091
830.385	24038
830.524	23999
830.663	23980
830.802	23840
830.941	23691
831.08	23786
831.219	23809
831.357	23771
831.496	23958
831.635	23703
831.774	23707
831.913	23520
832.051	23577
832.19	23524
832.329	23558
832.467	23379
832.606	23353
832.744	23334
832.883	23368
833.022	23436
833.16	23490
833.299	23345
833.437	23337
833.576	23364
833.714	23490
833.852	23516
833.991	23596
834.129	23433
834.267	23600
834.406	23585
834.544	23512
834.682	23490
834.821	23353
834.959	23638
835.097	23410
835.235	23459
835.373	23395
835.511	23330
835.65	23360
835.788	23383
835.926	23337
836.064	23170
836.202	23204
836.34	23223
836.478	23440
836.615	23356
836.753	23220
836.891	23425
837.029	23322
837.167	23235
837.305	23159
837.443	23227
837.58	23189
837.718	23212
837.856	23242
837.993	23197
838.131	23067
838.269	23018
838.406	23200
838.544	22995
838.681	22691
838.819	22694
838.956	22782
839.094	22611
839.231	22637
839.369	22691
839.506	23048
839.643	22934
839.781	22622
839.918	22622
840.055	22599
840.193	22618
840.33	22569
840.467	22713
840.604	22557
840.742	22854
840.879	22512
841.016	22478
841.153	22398
841.29	22637
841.427	22523
841.564	22592
841.701	22584
841.838	22523
841.975	22508
842.112	22462
842.249	22344
842.385	22265
842.522	22443
842.659	22341
842.796	22230
842.933	22386
843.069	22398
843.206	22310
843.343	22371
843.479	22356
843.616	22398
843.752	22093
843.889	22105
844.025	22295
844.162	22078
844.298	22211
844.435	22040
844.571	22082
844.708	22082
844.844	22249
844.98	22223
845.117	22200
845.253	22032
845.389	21964
845.525	21949
845.661	21922
845.798	21880
845.934	21930
846.07	21804
846.206	21880
846.342	21873
846.478	21732
846.614	21682
846.75	21564
846.886	21572
847.022	21747
847.158	21660
847.294	21671
847.429	21656
847.565	21587
847.701	21789
847.837	21439
847.972	21336
848.108	21523
848.244	21393
848.379	21176
848.515	21192
848.65	21131
848.786	21211
848.921	21207
849.057	21283
849.192	21256
849.328	21294
849.463	21154
849.598	21283
849.734	21096
849.869	21093
850.004	20986
850.14	21013
850.275	20956
850.41	20902
850.545	20948
850.68	20887
850.815	21009
850.95	20967
851.085	21081
851.22	21020
851.355	21055
851.49	20937
851.625	21013
851.76	20899
851.895	20914
852.03	20819
852.165	21017
852.299	20933
852.434	21127
852.569	21043
852.703	21017
852.838	21131
852.973	21112
853.107	21131
853.242	20883
853.376	20834
853.511	20636
853.645	20682
853.78	20906
853.914	20883
854.048	20811
854.183	20644
854.317	20796
854.451	20910
854.585	20834
854.72	20750
854.854	20807
854.988	20701
855.122	20857
855.256	20712
855.39	20769
855.524	20842
855.658	20891
855.792	20880
855.926	20765
856.06	20834
856.194	20769
856.327	20765
856.461	20731
856.595	20796
856.729	20823
856.862	20792
856.996	20849
857.13	20842
857.263	21013
857.397	20838
857.53	20853
857.664	20788
857.797	20914
857.931	20906
858.064	20720
858.197	20921
858.331	20781
858.464	20678
858.597	20533
858.731	20659
858.864	20682
858.997	20712
859.13	20891
859.263	20792
859.396	20826
859.529	20765
859.662	20769
859.795	20575
859.928	20849
860.061	20975
860.194	21013
860.327	20941
860.46	20830
860.592	20872
860.725	20971
860.858	20986
860.99	20941
861.123	20720
861.256	20697
861.388	20762
861.521	21447
861.653	20613
861.786	20541
861.918	20636
862.05	20762
862.183	20689
862.315	20720
862.447	20887
862.58	20594
862.712	20640
862.844	20556
862.976	20590
863.108	20579
863.24	20971
863.372	20370
863.504	20480
863.636	20530
863.768	20503
863.9	20358
864.032	20419
864.164	20393
864.296	20499
864.428	20621
864.559	20465
864.691	20438
864.823	20492
864.954	20514
865.086	20457
865.217	20446
865.349	20305
865.48	20404
865.612	20362
865.743	20423
865.875	20408
866.006	20320
866.137	20488
866.269	20358
866.4	20278
866.531	20317
866.662	20317
866.793	20309
866.924	20294
867.055	20362
867.186	20328
867.317	20195
867.448	20351
867.579	20229
867.71	20259
867.841	20225
867.972	20240
868.103	20248
868.233	20339
868.364	20499
868.495	20423
868.625	20571
868.756	20651
868.886	20522
869.017	20568
869.147	20568
869.278	20667
869.408	20617
869.539	20613
869.669	20720
869.799	20655
869.929	20617
870.06	20659
870.19	20925
870.32	20800
870.45	21017
870.58	20967
870.71	20918
870.84	21157
870.97	20971
871.1	21009
871.23	21169
871.36	21135
871.489	21081
871.619	21214
871.749	21222
871.879	21283
872.008	21256
872.138	21245
872.267	21230
872.397	21081
872.526	21036
872.656	20899
872.785	21165
872.915	21203
873.044	21199
873.173	21275
873.303	21207
873.432	21245
873.561	21348
873.69	21298
873.819	21313
873.948	21256
874.077	21233
874.206	21218
874.335	21317
874.464	21291
874.593	21408
874.722	21477
874.851	21485
874.979	21408
875.108	21507
875.237	21447
875.365	21241
875.494	21443
875.623	21424
875.751	21355
875.88	21363
876.008	21591
876.136	21667
876.265	21816
876.393	21975
876.521	21869
876.65	21903
876.778	21953
876.906	21770
877.034	21812
877.162	21800
877.29	21876
877.418	21747
877.546	21835
877.674	21831
877.802	21728
877.93	21778
878.058	21808
878.185	21724
878.313	21789
878.441	21835
878.568	21698
878.696	21633
878.824	21781
878.951	21876
879.079	22067
879.206	22025
879.333	21945
879.461	21808
879.588	21926
879.715	21888
879.842	22013
879.97	21903
880.097	21713
880.224	21728
880.351	21717
880.478	21648
880.605	21610
880.732	21603
880.859	21835
880.986	21690
881.112	21743
881.239	21549
881.366	21359
881.493	21313
881.619	21218
881.746	21306
881.872	21116
881.999	21199
882.125	21096
882.252	21249
882.378	21142
882.505	21344
882.631	21055
882.757	20921
882.883	20952
883.01	20982
883.136	20937
883.262	20823
883.388	20636
883.514	20941
883.64	20864
883.766	20906
883.892	20655
884.018	20781
884.143	20815
884.269	20925
884.395	20640
884.52	20541
884.646	20640
884.772	20499
884.897	20381
885.023	20556
885.148	20625
885.274	20663
885.399	20476
885.524	20530
885.65	20530
885.775	20617
885.9	20499
886.025	20530
886.15	20621
886.275	20575
886.4	20495
886.525	20541
886.65	20552
886.775	20522
886.9	20648
887.025	20689
887.149	20488
887.274	20408
887.399	20381
887.523	20328
887.648	20233
887.773	20142
887.897	20434
888.021	20427
888.146	20115
888.27	20457
888.395	20419
888.519	20404
888.643	20267
888.767	20488
888.891	20252
889.015	20229
889.139	20195
889.263	20130
889.387	20161
889.511	20317
889.635	20370
889.759	20062
889.883	20065
890.006	20153
890.13	20214
890.254	20161
890.377	20031
890.501	19852
890.624	19845
890.748	19951
890.871	19746
890.995	19662
891.118	19738
891.241	19700
891.364	19681
891.488	19894
891.611	19586
891.734	19696
891.857	19757
891.98	19613
892.103	19837
892.226	19727
892.349	19677
892.471	19559
892.594	19708
892.717	19658
892.839	19506
892.962	19674
893.085	19712
893.207	19677
893.33	19559
893.452	19567
893.575	19685
893.697	19624
893.819	19818
893.941	19856
894.064	19780
894.186	19624
894.308	19548
894.43	19624
894.552	19818
894.674	19765
894.796	19518
894.918	19540
895.04	19544
895.161	19727
895.283	19639
895.405	19575
895.526	19689
895.648	19548
895.769	19662
895.891	19624
896.012	19738
896.134	19704
896.255	19468
896.376	19586
896.498	19689
896.619	19658
896.74	19616
896.861	19609
896.982	19925
897.103	20103
897.224	19928
897.345	19689
897.466	19765
897.587	19868
897.708	19986
897.828	19902
897.949	19928
898.07	19750
898.19	19746
898.311	19925
898.431	19780
898.552	19864
898.672	19875
898.792	20031
898.913	19818
899.033	19731
899.153	19689
899.273	19624
899.393	19594
899.513	19662
899.633	19567
899.753	19647
899.873	19518
899.993	19582
900.113	19556
900.232	19624
900.352	19552
900.472	19419
900.591	19346
900.711	19362
900.83	19339
900.95	19441
901.069	19396
901.189	19316
901.308	19129
901.427	18802
901.546	18958
901.665	19053
901.784	19114
901.904	18795
902.023	18627
902.141	18585
902.26	18471
902.379	18692
902.498	18490
902.617	18437
902.735	18467
902.854	18445
902.973	18547
903.091	18155
903.21	18239
903.328	18117
903.446	18155
903.565	18011
903.683	18110
903.801	17863
903.919	18011
904.038	17901
904.156	17672
904.274	17794
904.392	17630
904.51	17771
904.627	17691
904.745	17824
904.863	17733
904.981	17577
905.098	17512
905.216	17433
905.334	17425
905.451	17406
905.569	17402
905.686	17524
905.803	17417
905.921	17258
906.038	17383
906.155	17227
906.272	17102
906.389	17147
906.506	16961
906.623	17041
906.74	16995
906.857	16961
906.974	16908
907.091	16946
907.208	17064
907.324	16946
907.441	16961
907.557	16694
907.674	16782
907.79	16687
907.907	16660
908.023	16679
908.139	16763
908.256	16630
908.372	16660
908.488	16508
908.604	16500
908.72	16424
908.836	16421
908.952	16356
909.068	16417
909.184	16577
909.3	16379
909.415	16341
909.531	16443
909.647	16112
909.762	16188
909.878	16116
909.993	16150
910.108	16086
910.224	15956
910.339	16131
910.454	15975
910.57	15998
910.685	15797
910.8	16242
910.915	16017
911.03	15960
911.145	15781
911.259	15797
911.374	15751
911.489	15591
911.604	15675
911.718	15526
911.833	15473
911.947	15393
912.062	15359
912.176	15336
912.291	15420
912.405	15507
912.519	15652
912.633	15679
912.748	15545
912.862	15534
912.976	15313
913.09	15195
913.204	15268
913.318	15287
913.431	15431
913.545	15389
913.659	15435
913.772	15264
913.886	15085
914	15176
914.113	15180
914.226	15218
914.34	15146
914.453	15001
914.566	15089
914.68	15017
914.793	14975
914.906	14845
915.019	14663
915.132	14674
915.245	14701
915.358	14705
915.47	14708
915.583	14823
915.696	14746
915.809	14861
915.921	14918
916.034	14682
916.146	14640
916.259	14663
916.371	14663
916.483	14655
916.595	14575
916.708	14533
916.82	14590
916.932	14560
917.044	14537
917.156	14461
917.268	14389
917.38	14438
917.491	14309
917.603	14415
917.715	14438
917.826	14499
917.938	14317
918.049	14218
918.161	14423
918.272	14461
918.384	14362
918.495	14339
918.606	14191
918.717	14084
918.828	14240
918.939	14180
919.05	13993
919.161	14145
919.272	13947
919.383	14039
919.494	14142
919.604	14374
919.715	14092
919.826	14065
919.936	14043
920.047	14221
920.157	14062
920.267	14290
920.378	14138
920.488	14062
920.598	14305
920.708	14351
920.818	14134
920.928	14313
921.038	14507
921.148	14347
921.258	14145
921.368	14008
921.477	13906
921.587	13936
921.697	13624
921.806	13947
921.916	13689
922.025	13521
922.134	13552
922.244	13434
922.353	13506
922.462	13415
922.571	13343
922.68	13114
922.789	13164
922.898	13228
923.007	13019
923.116	13209
923.224	13187
923.333	13168
923.442	13034
923.55	13008
923.659	13053
923.767	13084
923.876	12947
923.984	13122
924.092	12863
924.201	12947
924.309	12901
924.417	12954
924.525	12966
924.633	12795
924.741	13761
924.849	12711
924.956	12722
925.064	12635
925.172	12502
925.279	12597
925.387	12578
925.494	12608
925.602	12707
925.709	12677
925.816	12582
925.924	12566
926.031	12589
926.138	12494
926.245	12646
926.352	12441
926.459	12570
926.566	12677
926.673	12445
926.779	12319
926.886	12357
926.993	12311
927.099	12216
927.206	12213
927.312	12121
927.419	12330
927.525	12194
927.631	12209
927.737	12079
927.843	11992
927.95	12019
928.056	12068
928.162	11977
928.267	12079
928.373	12525
928.479	12098
928.585	11901
928.69	12045
928.796	12007
928.901	11878
929.007	11794
929.112	11859
929.218	11931
929.323	11714
929.428	11760
929.533	11866
929.638	11726
929.743	11707
929.848	11866
929.953	11665
930.058	11562
930.163	11482
930.267	11501
930.372	11547
930.477	11383
930.581	11661
930.685	11490
930.79	11356
930.894	11337
930.998	11231
931.103	11505
931.207	11124
931.311	11067
931.415	10927
931.519	10729
931.623	10687
