Data from test_V78500241_1063.txt Node
Date: Fri Mar 25 15:17:15 CST 2022
User: usil
Spectrometer: V785-0024
Trigger mode: 0
Integration Time (sec): 4.000000E-1
Scans to average: 1
Nonlinearity correction enabled: false
Boxcar width: 0
Storing dark spectrum: false
XAxis mode: Wavelengths
Number of Pixels in Spectrum: 1024
>>>>>Begin Spectral Data<<<<<
801.071	28128
801.214	28013
801.356	27774
801.499	27690
801.641	27698
801.783	27690
801.926	27789
802.068	27637
802.211	27549
802.353	27496
802.496	27427
802.638	27340
802.78	27412
802.923	27291
803.065	27332
803.208	27169
803.35	27329
803.492	27580
803.635	27279
803.777	27405
803.919	27591
804.061	27869
804.204	27583
804.346	27587
804.488	27485
804.63	27660
804.773	27557
804.915	27557
805.057	27675
805.199	27420
805.341	27534
805.483	27759
805.626	27682
805.768	27485
805.91	27591
806.052	27641
806.194	27633
806.336	27766
806.478	27690
806.62	27816
806.762	27911
806.904	28032
807.046	28147
807.188	28051
807.33	28101
807.472	28143
807.614	28173
807.756	28147
807.898	27994
808.04	27918
808.182	27991
808.324	27869
808.465	28135
808.607	28109
808.749	28181
808.891	28481
809.033	28542
809.174	28367
809.316	28306
809.458	28257
809.6	28238
809.741	28550
809.883	28413
810.025	28641
810.166	28599
810.308	28713
810.45	28634
810.591	28531
810.733	28375
810.875	28489
811.016	28158
811.158	28295
811.299	28421
811.441	28516
811.582	28577
811.724	28341
811.865	28306
812.007	28215
812.148	28478
812.29	28413
812.431	28561
812.573	28710
812.714	28755
812.855	28809
812.997	29071
813.138	29216
813.279	28949
813.421	28987
813.562	28888
813.703	28793
813.845	28649
813.986	28230
814.127	28173
814.268	28177
814.41	28196
814.551	28105
814.692	28215
814.833	28017
814.974	27876
815.115	27945
815.256	27994
815.397	27926
815.539	27918
815.68	27854
815.821	27701
815.962	27781
816.103	27819
816.244	27728
816.385	27656
816.526	27614
816.666	27530
816.807	27287
816.948	27424
817.089	27416
817.23	27393
817.371	27393
817.512	27313
817.653	27363
817.793	27370
817.934	27367
818.075	27382
818.216	27302
818.356	27397
818.497	27275
818.638	27135
818.778	27123
818.919	27131
819.06	27108
819.2	27252
819.341	27424
819.481	27420
819.622	27416
819.762	27751
819.903	27568
820.043	27549
820.184	27386
820.324	27321
820.465	27526
820.605	27481
820.746	27454
820.886	27291
821.026	27386
821.167	27321
821.307	27424
821.447	27332
821.588	27252
821.728	27138
821.868	27024
822.008	26777
822.149	26686
822.289	26720
822.429	26552
822.569	26484
822.709	26587
822.849	26408
822.99	26347
823.13	26404
823.27	26294
823.41	26145
823.55	26119
823.69	26092
823.83	26142
823.97	26115
824.11	25993
824.25	26039
824.389	25928
824.529	26187
824.669	26043
824.809	26157
824.949	26103
825.089	26149
825.228	26024
825.368	25788
825.508	25928
825.648	25868
825.787	25963
825.927	26081
826.067	25879
826.206	25864
826.346	25978
826.485	25898
826.625	25890
826.765	26008
826.904	25795
827.044	25674
827.183	25620
827.323	25620
827.462	25753
827.601	25620
827.741	25594
827.88	25567
828.02	25373
828.159	25651
828.298	25620
828.437	25613
828.577	25441
828.716	25639
828.855	25597
828.994	25384
829.134	25289
829.273	25377
829.412	25316
829.551	25441
829.69	25327
829.829	25339
829.968	25381
830.107	25362
830.246	25304
830.385	25274
830.524	25327
830.663	25236
830.802	25095
830.941	24894
831.08	24973
831.219	24920
831.357	24985
831.496	25152
831.635	25034
831.774	24859
831.913	24985
832.051	24791
832.19	24757
832.329	24623
832.467	24764
832.606	24642
832.744	24601
832.883	24540
833.022	24486
833.16	24700
833.299	24673
833.437	24715
833.576	24760
833.714	24673
833.852	24776
833.991	24734
834.129	24768
834.267	24738
834.406	24738
834.544	24837
834.682	24642
834.821	24730
834.959	24768
835.097	24677
835.235	24741
835.373	24821
835.511	24684
835.65	24532
835.788	24578
835.926	24536
836.064	24365
836.202	24353
836.34	24555
836.478	24620
836.615	24490
836.753	24574
836.891	24525
837.029	24547
837.167	24574
837.305	24388
837.443	24304
837.58	24361
837.718	24391
837.856	24456
837.993	24296
838.131	24353
838.269	24079
838.406	24209
838.544	24079
838.681	24015
838.819	23916
838.956	23901
839.094	23950
839.231	23882
839.369	24053
839.506	24220
839.643	24098
839.781	23794
839.918	23707
840.055	23916
840.193	23638
840.33	23737
840.467	23809
840.604	23714
840.742	24121
840.879	23657
841.016	23699
841.153	23684
841.29	23733
841.427	23657
841.564	23672
841.701	23794
841.838	23813
841.975	23608
842.112	23585
842.249	23642
842.385	23505
842.522	23672
842.659	23570
842.796	23573
842.933	23486
843.069	23372
843.206	23356
843.343	23642
843.479	23509
843.616	23486
843.752	23486
843.889	23398
844.025	23376
844.162	23341
844.298	23341
844.435	23227
844.571	23254
844.708	23379
844.844	23444
844.98	23398
845.117	23440
845.253	23151
845.389	23204
845.525	23254
845.661	23143
845.798	22965
845.934	23037
846.07	22965
846.206	23109
846.342	23178
846.478	23056
846.614	22850
846.75	22694
846.886	22660
847.022	22763
847.158	22946
847.294	22748
847.429	22790
847.565	22767
847.701	22942
847.837	22538
847.972	22424
848.108	22664
848.244	22535
848.379	22405
848.515	22344
848.65	22341
848.786	22287
848.921	22333
849.057	22386
849.192	22382
849.328	22500
849.463	22318
849.598	22436
849.734	22249
849.869	22261
850.004	22059
850.14	22055
850.275	22097
850.41	22021
850.545	22109
850.68	22074
850.815	22131
850.95	21983
851.085	22246
851.22	22230
851.355	22105
851.49	22082
851.625	22120
851.76	22192
851.895	22021
852.03	22025
852.165	22150
852.299	22169
852.434	22261
852.569	22265
852.703	22139
852.838	22185
852.973	22291
853.107	22276
853.242	22051
853.376	21895
853.511	21838
853.645	21816
853.78	21991
853.914	21953
854.048	21937
854.183	22002
854.317	22006
854.451	22112
854.585	22044
854.72	21983
854.854	22025
854.988	21846
855.122	21937
855.256	21770
855.39	21953
855.524	22048
855.658	21968
855.792	21899
855.926	21987
856.06	21964
856.194	21857
856.327	21915
856.461	21876
856.595	21899
856.729	21972
856.862	22048
856.996	21972
857.13	22078
857.263	22093
857.397	21930
857.53	21972
857.664	21972
857.797	22044
857.931	21983
858.064	21869
858.197	21937
858.331	21899
858.464	21857
858.597	21857
858.731	21835
858.864	21915
858.997	21846
859.13	21884
859.263	21983
859.396	21964
859.529	21835
859.662	21953
859.795	21743
859.928	21991
860.061	22097
860.194	22181
860.327	21956
860.46	21831
860.592	22021
860.725	22044
860.858	21972
860.99	21937
861.123	21781
861.256	21816
861.388	21884
861.521	22588
861.653	21819
861.786	21739
861.918	21876
862.05	21736
862.183	21785
862.315	21876
862.447	21953
862.58	21781
862.712	21572
862.844	21557
862.976	21698
863.108	21724
863.24	22207
863.372	21466
863.504	21660
863.636	21641
863.768	21618
863.9	21682
864.032	21568
864.164	21717
864.296	21622
864.428	21622
864.559	21568
864.691	21656
864.823	21675
864.954	21618
865.086	21572
865.217	21595
865.349	21439
865.48	21507
865.612	21523
865.743	21553
865.875	21580
866.006	21416
866.137	21595
866.269	21519
866.4	21557
866.531	21420
866.662	21405
866.793	21359
866.924	21515
867.055	21374
867.186	21431
867.317	21386
867.448	21424
867.579	21466
867.71	21359
867.841	21241
867.972	21420
868.103	21374
868.233	21473
868.364	21416
868.495	21549
868.625	21511
868.756	21743
868.886	21671
869.017	21755
869.147	21797
869.278	21850
869.408	21743
869.539	21743
869.669	21778
869.799	21633
869.929	21739
870.06	21762
870.19	22051
870.32	22055
870.45	21979
870.58	21998
870.71	22177
870.84	22139
870.97	22147
871.1	22131
871.23	22253
871.36	22242
871.489	22196
871.619	22272
871.749	22230
871.879	22333
872.008	22272
872.138	22204
872.267	22276
872.397	22261
872.526	22124
872.656	22177
872.785	22181
872.915	22314
873.044	22299
873.173	22192
873.303	22367
873.432	22329
873.561	22390
873.69	22272
873.819	22200
873.948	22261
874.077	22249
874.206	22341
874.335	22333
874.464	22219
874.593	22527
874.722	22493
874.851	22664
874.979	22512
875.108	22592
875.237	22424
875.365	22386
875.494	22375
875.623	22542
875.751	22432
875.88	22447
876.008	22565
876.136	22698
876.265	22858
876.393	23003
876.521	23037
876.65	22915
876.778	22854
876.906	22774
877.034	22919
877.162	22904
877.29	22793
877.418	23003
877.546	22900
877.674	22957
877.802	22942
877.93	22885
878.058	22824
878.185	22603
878.313	22987
878.441	22755
878.568	22615
878.696	22717
878.824	22869
878.951	22854
879.079	23018
879.206	23094
879.333	22957
879.461	22881
879.588	22786
879.715	23048
879.842	23128
879.97	22927
880.097	22706
880.224	22672
880.351	22744
880.478	22637
880.605	22611
880.732	22653
880.859	22869
880.986	22637
881.112	22759
881.239	22561
881.366	22580
881.493	22291
881.619	22253
881.746	22238
881.872	22272
881.999	22185
882.125	22101
882.252	22284
882.378	22158
882.505	22226
882.631	22063
882.757	22025
882.883	22097
883.01	21945
883.136	21869
883.262	21846
883.388	21766
883.514	21934
883.64	21972
883.766	21732
883.892	21694
884.018	21759
884.143	21789
884.269	21987
884.395	21614
884.52	21564
884.646	21663
884.772	21450
884.897	21492
885.023	21587
885.148	21572
885.274	21755
885.399	21599
885.524	21481
885.65	21576
885.775	21660
885.9	21553
886.025	21606
886.15	21591
886.275	21576
886.4	21298
886.525	21545
886.65	21469
886.775	21488
886.9	21561
887.025	21656
887.149	21511
887.274	21329
887.399	21370
887.523	21302
887.648	21260
887.773	21283
887.897	21401
888.021	21340
888.146	21260
888.27	21336
888.395	21439
888.519	21306
888.643	21313
888.767	21340
888.891	21157
889.015	21089
889.139	21252
889.263	21146
889.387	21268
889.511	21317
889.635	21180
889.759	21047
889.883	21039
890.006	21039
890.13	21176
890.254	21077
890.377	21085
890.501	20899
890.624	20830
890.748	20910
890.871	20811
890.995	20609
891.118	20716
891.241	20739
891.364	20701
891.488	20853
891.611	20735
891.734	20750
891.857	20727
891.98	20602
892.103	20693
892.226	20743
892.349	20648
892.471	20518
892.594	20594
892.717	20537
892.839	20556
892.962	20602
893.085	20583
893.207	20636
893.33	20590
893.452	20530
893.575	20644
893.697	20503
893.819	20758
893.941	20716
894.064	20712
894.186	20575
894.308	20507
894.43	20655
894.552	20689
894.674	20712
894.796	20541
894.918	20446
895.04	20556
895.161	20670
895.283	20556
895.405	20545
895.526	20518
895.648	20556
895.769	20549
895.891	20667
896.012	20549
896.134	20644
896.255	20541
896.376	20461
896.498	20598
896.619	20575
896.74	20518
896.861	20632
896.982	20834
897.103	20891
897.224	20849
897.345	20739
897.466	20773
897.587	20708
897.708	20918
897.828	20811
897.949	20731
898.07	20552
898.19	20724
898.311	20785
898.431	20602
898.552	20701
898.672	20864
898.792	20880
898.913	20750
899.033	20507
899.153	20606
899.273	20450
899.393	20442
899.513	20571
899.633	20461
899.753	20488
899.873	20404
899.993	20457
900.113	20396
900.232	20431
900.352	20389
900.472	20400
900.591	20145
900.711	20271
900.83	20256
900.95	20290
901.069	20278
901.189	20145
901.308	20008
901.427	19830
901.546	19887
901.665	19989
901.784	19795
901.904	19689
902.023	19651
902.141	19445
902.26	19331
902.379	19476
902.498	19403
902.617	19324
902.735	19285
902.854	19289
902.973	19171
903.091	19133
903.21	19015
903.328	18875
903.446	19076
903.565	18859
903.683	18783
903.801	18635
903.919	18757
904.038	18684
904.156	18555
904.274	18677
904.392	18582
904.51	18490
904.627	18498
904.745	18627
904.863	18612
904.981	18330
905.098	18296
905.216	18300
905.334	18361
905.451	18254
905.569	18296
905.686	18365
905.803	18346
905.921	18125
906.038	18174
906.155	18095
906.272	17942
906.389	17935
906.506	17874
906.623	17748
906.74	17809
906.857	17653
906.974	17653
907.091	17870
907.208	17954
907.324	17775
907.441	17634
907.557	17554
907.674	17486
907.79	17436
907.907	17562
908.023	17474
908.139	17452
908.256	17452
908.372	17440
908.488	17353
908.604	17277
908.72	17098
908.836	17231
908.952	17140
909.068	17280
909.184	17337
909.3	17246
909.415	17265
909.531	17212
909.647	16877
909.762	16927
909.878	16949
909.993	16927
910.108	16938
910.224	16919
910.339	16885
910.454	16801
910.57	16763
910.685	16687
910.8	16980
910.915	16858
911.03	16725
911.145	16607
911.259	16542
911.374	16417
911.489	16451
911.604	16478
911.718	16284
911.833	16287
911.947	16219
912.062	16120
912.176	16238
912.291	16219
912.405	16211
912.519	16394
912.633	16390
912.748	16299
912.862	16188
912.976	16059
913.09	15991
913.204	16059
913.318	15930
913.431	16124
913.545	16116
913.659	16200
913.772	15960
913.886	15918
914	15816
914.113	15907
914.226	15930
914.34	15903
914.453	15835
914.566	15857
914.68	15812
914.793	15724
914.906	15458
915.019	15420
915.132	15424
915.245	15431
915.358	15526
915.47	15469
915.583	15450
915.696	15424
915.809	15660
915.921	15633
916.034	15378
916.146	15386
916.259	15275
916.371	15462
916.483	15397
916.595	15287
916.708	15317
916.82	15275
916.932	15249
917.044	15336
917.156	15135
917.268	15142
917.38	15180
917.491	14990
917.603	15039
917.715	15184
917.826	15093
917.938	14998
918.049	14883
918.161	15062
918.272	15211
918.384	15188
918.495	15017
918.606	14880
918.717	14777
918.828	14929
918.939	14891
919.05	14739
919.161	14781
919.272	14617
919.383	14632
919.494	14967
919.604	15020
919.715	14754
919.826	14678
919.936	14758
920.047	14941
920.157	14788
920.267	14948
920.378	14792
920.488	14796
920.598	14982
920.708	15070
920.818	14967
920.928	14998
921.038	15180
921.148	15062
921.258	14727
921.368	14689
921.477	14568
921.587	14446
921.697	14404
921.806	14533
921.916	14408
922.025	14286
922.134	14229
922.244	14031
922.353	14221
922.462	14180
922.571	14043
922.68	13826
922.789	13887
922.898	13761
923.007	13738
923.116	13837
923.224	13765
923.333	13715
923.442	13597
923.55	13651
923.659	13582
923.767	13693
923.876	13632
923.984	13723
924.092	13609
924.201	13552
924.309	13502
924.417	13651
924.525	13499
924.633	13483
924.741	14381
924.849	13343
924.956	13373
925.064	13198
925.172	13110
925.279	13289
925.387	13308
925.494	13206
925.602	13301
925.709	13213
925.816	13046
925.924	13164
926.031	13164
926.138	13107
926.245	13137
926.352	13046
926.459	13175
926.566	13263
926.673	13141
926.779	13015
926.886	12882
926.993	12890
927.099	12795
927.206	12757
927.312	12696
927.419	12840
927.525	12696
927.631	12817
927.737	12696
927.843	12654
927.95	12525
928.056	12513
928.162	12635
928.267	12620
928.373	13179
928.479	12650
928.585	12388
928.69	12578
928.796	12589
928.901	12410
929.007	12304
929.112	12521
929.218	12407
929.323	12262
929.428	12247
929.533	12437
929.638	12235
929.743	12270
929.848	12266
929.953	12281
930.058	12159
930.163	12007
930.267	12053
930.372	12148
930.477	11996
930.581	12239
930.685	11973
930.79	11836
930.894	11950
930.998	11817
931.103	11980
931.207	11539
931.311	11497
931.415	11512
931.519	11318
931.623	11208
