Data from test_V78500241_2582.txt Node
Date: Fri Mar 25 15:27:50 CST 2022
User: usil
Spectrometer: V785-0024
Trigger mode: 0
Integration Time (sec): 4.000000E-1
Scans to average: 1
Nonlinearity correction enabled: false
Boxcar width: 0
Storing dark spectrum: false
XAxis mode: Wavelengths
Number of Pixels in Spectrum: 1024
>>>>>Begin Spectral Data<<<<<
801.071	27081
801.214	27131
801.356	26815
801.499	26849
801.641	26625
801.783	26686
801.926	26667
802.068	26613
802.211	26511
802.353	26579
802.496	26400
802.638	26164
802.78	26271
802.923	26229
803.065	26134
803.208	26115
803.35	26271
803.492	26412
803.635	26442
803.777	26469
803.919	26526
804.061	26727
804.204	26499
804.346	26450
804.488	26355
804.63	26366
804.773	26461
804.915	26537
805.057	26621
805.199	26415
805.341	26507
805.483	26632
805.626	26552
805.768	26511
805.91	26495
806.052	26568
806.194	26412
806.336	26663
806.478	26514
806.62	26434
806.762	26800
806.904	26895
807.046	26960
807.188	26994
807.33	27108
807.472	27104
807.614	26781
807.756	27020
807.898	26815
808.04	26746
808.182	26796
808.324	26811
808.465	26956
808.607	27020
808.749	27039
808.891	27195
809.033	27363
809.174	27230
809.316	27112
809.458	27218
809.6	27028
809.741	27142
809.883	27249
810.025	27332
810.166	27420
810.308	27416
810.45	27351
810.591	27321
810.733	27233
810.875	27036
811.016	26998
811.158	27058
811.299	27340
811.441	27325
811.582	27268
811.724	27005
811.865	27058
812.007	26971
812.148	27047
812.29	26940
812.431	27150
812.573	27496
812.714	27431
812.855	27644
812.997	27587
813.138	27854
813.279	27804
813.421	27686
813.562	27450
813.703	27439
813.845	27089
813.986	27116
814.127	26982
814.268	26621
814.41	26880
814.551	26769
814.692	26686
814.833	26769
814.974	26796
815.115	26655
815.256	26781
815.397	26705
815.539	26651
815.68	26530
815.821	26499
815.962	26564
816.103	26507
816.244	26434
816.385	26362
816.526	26267
816.666	26172
816.807	26001
816.948	26168
817.089	26054
817.23	26115
817.371	25982
817.512	26016
817.653	26039
817.793	25925
817.934	25826
818.075	26183
818.216	26081
818.356	25966
818.497	25860
818.638	25658
818.778	25643
818.919	25712
819.06	25909
819.2	25887
819.341	26016
819.481	25959
819.622	25978
819.762	26385
819.903	26347
820.043	26134
820.184	26126
820.324	26134
820.465	26225
820.605	26012
820.746	26035
820.886	25986
821.026	26016
821.167	26134
821.307	26191
821.447	25974
821.588	26100
821.728	25700
821.868	25700
822.008	25613
822.149	25571
822.289	25487
822.429	25057
822.569	25247
822.709	25225
822.849	24985
822.99	25000
823.13	24954
823.27	25065
823.41	24837
823.55	24745
823.69	24878
823.83	24734
823.97	24669
824.11	24593
824.25	24566
824.389	24490
824.529	24741
824.669	24601
824.809	24734
824.949	24764
825.089	24673
825.228	24642
825.368	24646
825.508	24441
825.648	24357
825.787	24551
825.927	24665
826.067	24616
826.206	24513
826.346	24547
826.485	24635
826.625	24456
826.765	24753
826.904	24585
827.044	24220
827.183	24311
827.323	24285
827.462	24285
827.601	24155
827.741	24129
827.88	24194
828.02	24057
828.159	24254
828.298	24323
828.437	24258
828.577	24190
828.716	24224
828.855	24049
828.994	24007
829.134	23923
829.273	24045
829.412	23973
829.551	23832
829.69	23992
829.829	24106
829.968	24007
830.107	24045
830.246	24083
830.385	23996
830.524	23870
830.663	23775
830.802	23691
830.941	23611
831.08	23501
831.219	23665
831.357	23581
831.496	23874
831.635	23767
831.774	23471
831.913	23531
832.051	23433
832.19	23383
832.329	23223
832.467	23258
832.606	23265
832.744	23277
832.883	23227
833.022	23174
833.16	23353
833.299	23166
833.437	23341
833.576	23258
833.714	23311
833.852	23311
833.991	23280
834.129	23337
834.267	23376
834.406	23303
834.544	23360
834.682	23341
834.821	23254
834.959	23440
835.097	23258
835.235	23299
835.373	23383
835.511	23185
835.65	23231
835.788	23185
835.926	23235
836.064	23010
836.202	23086
836.34	23220
836.478	23402
836.615	23216
836.753	23170
836.891	23166
837.029	23189
837.167	23117
837.305	23052
837.443	23090
837.58	22991
837.718	23048
837.856	23018
837.993	23025
838.131	22984
838.269	22847
838.406	22889
838.544	22850
838.681	22618
838.819	22740
838.956	22527
839.094	22432
839.231	22596
839.369	22862
839.506	22976
839.643	22786
839.781	22584
839.918	22348
840.055	22512
840.193	22489
840.33	22394
840.467	22542
840.604	22611
840.742	22748
840.879	22318
841.016	22447
841.153	22276
841.29	22546
841.427	22386
841.564	22466
841.701	22398
841.838	22337
841.975	22436
842.112	22303
842.249	22337
842.385	22325
842.522	22580
842.659	22295
842.796	22284
842.933	22200
843.069	22177
843.206	22181
843.343	22223
843.479	22238
843.616	22207
843.752	22059
843.889	22040
844.025	22105
844.162	21937
844.298	22025
844.435	22017
844.571	21934
844.708	21903
844.844	22124
844.98	22078
845.117	22040
845.253	21903
845.389	21857
845.525	21892
845.661	21953
845.798	21785
845.934	21823
846.07	21644
846.206	21770
846.342	21808
846.478	21713
846.614	21454
846.75	21355
846.886	21416
847.022	21679
847.158	21603
847.294	21488
847.429	21481
847.565	21500
847.701	21797
847.837	21287
847.972	21123
848.108	21298
848.244	21283
848.379	21104
848.515	21066
848.65	21051
848.786	21051
848.921	21039
849.057	21310
849.192	21104
849.328	21165
849.463	21005
849.598	20990
849.734	20830
849.869	20887
850.004	20838
850.14	20880
850.275	20887
850.41	20815
850.545	20826
850.68	20864
850.815	20819
850.95	20830
851.085	21051
851.22	20849
851.355	20864
851.49	20864
851.625	20826
851.76	20857
851.895	20724
852.03	20735
852.165	20804
852.299	20899
852.434	20883
852.569	20823
852.703	20823
852.838	20777
852.973	20960
853.107	20933
853.242	20819
853.376	20625
853.511	20522
853.645	20686
853.78	20788
853.914	20625
854.048	20629
854.183	20724
854.317	20705
854.451	20800
854.585	20640
854.72	20606
854.854	20743
854.988	20545
855.122	20746
855.256	20583
855.39	20617
855.524	20746
855.658	20724
855.792	20701
855.926	20754
856.06	20769
856.194	20777
856.327	20670
856.461	20602
856.595	20651
856.729	20686
856.862	20758
856.996	20727
857.13	20667
857.263	20800
857.397	20773
857.53	20655
857.664	20773
857.797	20667
857.931	20781
858.064	20594
858.197	20769
858.331	20594
858.464	20583
858.597	20556
858.731	20667
858.864	20640
858.997	20533
859.13	20621
859.263	20629
859.396	20796
859.529	20571
859.662	20545
859.795	20708
859.928	20663
860.061	20792
860.194	20826
860.327	20823
860.46	20621
860.592	20758
860.725	20853
860.858	20746
860.99	20727
861.123	20560
861.256	20583
861.388	20625
861.521	21367
861.653	20537
861.786	20450
861.918	20568
862.05	20552
862.183	20613
862.315	20613
862.447	20590
862.58	20655
862.712	20248
862.844	20214
862.976	20434
863.108	20457
863.24	20788
863.372	20336
863.504	20404
863.636	20358
863.768	20381
863.9	20366
864.032	20393
864.164	20347
864.296	20263
864.428	20507
864.559	20396
864.691	20389
864.823	20507
864.954	20328
865.086	20385
865.217	20180
865.349	20282
865.48	20172
865.612	20408
865.743	20450
865.875	20301
866.006	20267
866.137	20221
866.269	20351
866.4	20221
866.531	20130
866.662	20187
866.793	20180
866.924	20221
867.055	20180
867.186	20248
867.317	20092
867.448	20065
867.579	20259
867.71	20107
867.841	20111
867.972	20210
868.103	20130
868.233	20271
868.364	20202
868.495	20366
868.625	20415
868.756	20552
868.886	20358
869.017	20423
869.147	20438
869.278	20571
869.408	20514
869.539	20450
869.669	20514
869.799	20549
869.929	20693
870.06	20571
870.19	20864
870.32	20743
870.45	20826
870.58	20804
870.71	20998
870.84	20914
870.97	20891
871.1	20876
871.23	21032
871.36	20986
871.489	20994
871.619	20880
871.749	21005
871.879	21127
872.008	21230
872.138	21047
872.267	21066
872.397	20868
872.526	20929
872.656	20785
872.785	20895
872.915	20994
873.044	21112
873.173	21093
873.303	21100
873.432	21119
873.561	21108
873.69	21104
873.819	21051
873.948	21032
874.077	21275
874.206	21009
874.335	21157
874.464	21211
874.593	21329
874.722	21157
874.851	21359
874.979	21268
875.108	21397
875.237	21363
875.365	21272
875.494	21298
875.623	21378
875.751	21374
875.88	21477
876.008	21370
876.136	21511
876.265	21778
876.393	21884
876.521	21819
876.65	21861
876.778	21690
876.906	21679
877.034	21686
877.162	21774
877.29	21561
877.418	21675
877.546	21679
877.674	21641
877.802	21641
877.93	21599
878.058	21717
878.185	21549
878.313	21637
878.441	21800
878.568	21507
878.696	21606
878.824	21675
878.951	21751
879.079	21785
879.206	21991
879.333	21903
879.461	21724
879.588	21838
879.715	21785
879.842	21941
879.97	21766
880.097	21458
880.224	21633
880.351	21473
880.478	21447
880.605	21424
880.732	21511
880.859	21720
880.986	21538
881.112	21454
881.239	21443
881.366	21294
881.493	21058
881.619	20933
881.746	21089
881.872	21093
881.999	21032
882.125	21070
882.252	21077
882.378	21070
882.505	21154
882.631	21020
882.757	20743
882.883	20918
883.01	20834
883.136	20796
883.262	20727
883.388	20663
883.514	20804
883.64	20849
883.766	20594
883.892	20571
884.018	20648
884.143	20819
884.269	20777
884.395	20446
884.52	20355
884.646	20324
884.772	20381
884.897	20355
885.023	20541
885.148	20552
885.274	20556
885.399	20412
885.524	20362
885.65	20419
885.775	20442
885.9	20404
886.025	20609
886.15	20476
886.275	20324
886.4	20286
886.525	20328
886.65	20358
886.775	20423
886.9	20465
887.025	20575
887.149	20351
887.274	20263
887.399	20187
887.523	20240
887.648	20221
887.773	20191
887.897	20248
888.021	20187
888.146	20119
888.27	20286
888.395	20240
888.519	20271
888.643	20282
888.767	20180
888.891	20111
889.015	20024
889.139	20092
889.263	20008
889.387	20092
889.511	20233
889.635	20100
889.759	20043
889.883	19955
890.006	20103
890.13	20119
890.254	20081
890.377	19928
890.501	19807
890.624	19628
890.748	19780
890.871	19689
890.995	19708
891.118	19499
891.241	19597
891.364	19681
891.488	19662
891.611	19514
891.734	19723
891.857	19670
891.98	19613
892.103	19597
892.226	19518
892.349	19476
892.471	19335
892.594	19575
892.717	19609
892.839	19502
892.962	19521
893.085	19582
893.207	19529
893.33	19434
893.452	19457
893.575	19487
893.697	19510
893.819	19674
893.941	19643
894.064	19628
894.186	19499
894.308	19453
894.43	19582
894.552	19670
894.674	19635
894.796	19339
894.918	19468
895.04	19365
895.161	19510
895.283	19559
895.405	19430
895.526	19506
895.648	19419
895.769	19487
895.891	19445
896.012	19655
896.134	19552
896.255	19472
896.376	19438
896.498	19468
896.619	19582
896.74	19544
896.861	19575
896.982	19814
897.103	19856
897.224	19814
897.345	19841
897.466	19666
897.587	19784
897.708	19864
897.828	19674
897.949	19681
898.07	19571
898.19	19757
898.311	19803
898.431	19670
898.552	19696
898.672	19845
898.792	19742
898.913	19700
899.033	19605
899.153	19567
899.273	19415
899.393	19571
899.513	19476
899.633	19578
899.753	19548
899.873	19324
899.993	19419
900.113	19362
900.232	19403
900.352	19468
900.472	19304
900.591	19335
900.711	19339
900.83	19213
900.95	19377
901.069	19316
901.189	19160
901.308	18920
901.427	18802
901.546	18817
901.665	18943
901.784	18905
901.904	18753
902.023	18677
902.141	18490
902.26	18414
902.379	18540
902.498	18342
902.617	18296
902.735	18437
902.854	18323
902.973	18342
903.091	18087
903.21	18049
903.328	18197
903.446	18049
903.565	17961
903.683	17961
903.801	17927
903.919	17813
904.038	17901
904.156	17703
904.274	17786
904.392	17707
904.51	17691
904.627	17581
904.745	17672
904.863	17680
904.981	17467
905.098	17417
905.216	17326
905.334	17379
905.451	17318
905.569	17246
905.686	17421
905.803	17223
905.921	17170
906.038	17231
906.155	17109
906.272	17018
906.389	17147
906.506	16968
906.623	17056
906.74	16995
906.857	16908
906.974	16771
907.091	17102
907.208	17003
907.324	16892
907.441	16771
907.557	16584
907.674	16706
907.79	16565
907.907	16584
908.023	16698
908.139	16683
908.256	16577
908.372	16573
908.488	16561
908.604	16363
908.72	16356
908.836	16443
908.952	16329
909.068	16356
909.184	16470
909.3	16474
909.415	16409
909.531	16367
909.647	16101
909.762	16063
909.878	16067
909.993	16048
910.108	16116
910.224	15937
910.339	16093
910.454	15934
910.57	15854
910.685	15770
910.8	16059
910.915	15960
911.03	15888
911.145	15701
911.259	15679
911.374	15766
911.489	15542
911.604	15561
911.718	15344
911.833	15473
911.947	15458
912.062	15332
912.176	15519
912.291	15519
912.405	15507
912.519	15774
912.633	15595
912.748	15469
912.862	15420
912.976	15348
913.09	15119
913.204	15138
913.318	15192
913.431	15245
913.545	15306
913.659	15336
913.772	15291
913.886	15085
914	14971
914.113	15119
914.226	15138
914.34	15005
914.453	15009
914.566	15104
914.68	15009
914.793	14902
914.906	14731
915.019	14682
915.132	14602
915.245	14686
915.358	14686
915.47	14670
915.583	14701
915.696	14785
915.809	14735
915.921	14724
916.034	14594
916.146	14530
916.259	14530
916.371	14644
916.483	14590
916.595	14461
916.708	14511
916.82	14530
916.932	14488
917.044	14381
917.156	14476
917.268	14385
917.38	14328
917.491	14267
917.603	14351
917.715	14400
917.826	14381
917.938	14343
918.049	14263
918.161	14282
918.272	14400
918.384	14446
918.495	14206
918.606	14123
918.717	13936
918.828	14138
918.939	14191
919.05	14050
919.161	14077
919.272	13826
919.383	13997
919.494	14077
919.604	14290
919.715	14069
919.826	14020
919.936	13967
920.047	14069
920.157	14054
920.267	14240
920.378	14142
920.488	14065
920.598	14256
920.708	14339
920.818	14202
920.928	14240
921.038	14370
921.148	14244
921.258	14043
921.368	13890
921.477	13833
921.587	13879
921.697	13677
921.806	13750
921.916	13700
922.025	13556
922.134	13472
922.244	13453
922.353	13575
922.462	13396
922.571	13228
922.68	13183
922.789	13160
922.898	12973
923.007	13129
923.116	13114
923.224	13122
923.333	13080
923.442	12989
923.55	12916
923.659	12996
923.767	13095
923.876	12852
923.984	12973
924.092	12947
924.201	12886
924.309	12886
924.417	12901
924.525	12817
924.633	12802
924.741	13742
924.849	12646
924.956	12745
925.064	12490
925.172	12483
925.279	12547
925.387	12525
925.494	12517
925.602	12741
925.709	12597
925.816	12448
925.924	12585
926.031	12536
926.138	12525
926.245	12521
926.352	12513
926.459	12479
926.566	12528
926.673	12391
926.779	12232
926.886	12334
926.993	12159
927.099	12144
927.206	12087
927.312	12106
927.419	12152
927.525	12114
927.631	12110
927.737	12045
927.843	12011
927.95	11878
928.056	12068
928.162	11942
928.267	12030
928.373	12582
928.479	12102
928.585	11771
928.69	11920
928.796	11946
928.901	11885
929.007	11695
929.112	11851
929.218	11805
929.323	11729
929.428	11726
929.533	11889
929.638	11699
929.743	11592
929.848	11783
929.953	11619
930.058	11539
930.163	11467
930.267	11387
930.372	11543
930.477	11429
930.581	11570
930.685	11421
930.79	11311
930.894	11337
930.998	11288
931.103	11326
931.207	11079
931.311	10904
931.415	10850
931.519	10714
931.623	10698
