Data from test_V78500241_137.txt Node
Date: Fri Mar 25 15:10:48 CST 2022
User: usil
Spectrometer: V785-0024
Trigger mode: 0
Integration Time (sec): 4.000000E-1
Scans to average: 1
Nonlinearity correction enabled: false
Boxcar width: 0
Storing dark spectrum: false
XAxis mode: Wavelengths
Number of Pixels in Spectrum: 1024
>>>>>Begin Spectral Data<<<<<
801.071	28314
801.214	28147
801.356	27914
801.499	27960
801.641	27766
801.783	27713
801.926	27983
802.068	27873
802.211	27660
802.353	27679
802.496	27519
802.638	27401
802.78	27405
802.923	27374
803.065	27264
803.208	27374
803.35	27386
803.492	27454
803.635	27462
803.777	27298
803.919	27466
804.061	27812
804.204	27606
804.346	27488
804.488	27504
804.63	27405
804.773	27329
804.915	27439
805.057	27538
805.199	27367
805.341	27469
805.483	27515
805.626	27450
805.768	27408
805.91	27435
806.052	27599
806.194	27557
806.336	27778
806.478	27610
806.62	27507
806.762	27694
806.904	27679
807.046	27869
807.188	27770
807.33	27865
807.472	27899
807.614	27690
807.756	27892
807.898	27739
808.04	27652
808.182	27690
808.324	27675
808.465	27717
808.607	27888
808.749	27892
808.891	28055
809.033	28177
809.174	28109
809.316	28135
809.458	28101
809.6	28048
809.741	28135
809.883	28032
810.025	28181
810.166	28238
810.308	28314
810.45	28242
810.591	28109
810.733	28154
810.875	28029
811.016	27998
811.158	27823
811.299	27994
811.441	28078
811.582	28093
811.724	27914
811.865	27827
812.007	27869
812.148	27831
812.29	28025
812.431	28150
812.573	28306
812.714	28318
812.855	28459
812.997	28459
813.138	28778
813.279	28611
813.421	28424
813.562	28440
813.703	28207
813.845	28147
813.986	27911
814.127	27770
814.268	27629
814.41	27675
814.551	27553
814.692	27644
814.833	27534
814.974	27526
815.115	27458
815.256	27306
815.397	27321
815.539	27211
815.68	27397
815.821	27294
815.962	27439
816.103	27363
816.244	27256
816.385	27138
816.526	27047
816.666	26887
816.807	26826
816.948	26929
817.089	26960
817.23	26921
817.371	26762
817.512	26716
817.653	26800
817.793	26838
817.934	26864
818.075	26823
818.216	26765
818.356	26602
818.497	26594
818.638	26476
818.778	26358
818.919	26377
819.06	26530
819.2	26503
819.341	26659
819.481	26663
819.622	26765
819.762	27058
819.903	26914
820.043	26777
820.184	26689
820.324	26731
820.465	26769
820.605	26876
820.746	26845
820.886	26488
821.026	26552
821.167	26849
821.307	26708
821.447	26712
821.588	26587
821.728	26492
821.868	26252
822.008	26199
822.149	26031
822.289	26157
822.429	25902
822.569	25689
822.709	25734
822.849	25628
822.99	25620
823.13	25594
823.27	25578
823.41	25403
823.55	25240
823.69	25289
823.83	25240
823.97	25331
824.11	25221
824.25	25293
824.389	24996
824.529	25365
824.669	25274
824.809	25419
824.949	25232
825.089	25312
825.228	25285
825.368	24981
825.508	25046
825.648	25091
825.787	24985
825.927	24962
826.067	25012
826.206	25031
826.346	24996
826.485	24981
826.625	24954
826.765	25061
826.904	24905
827.044	24753
827.183	24776
827.323	24623
827.462	24620
827.601	24700
827.741	24639
827.88	24715
828.02	24505
828.159	24646
828.298	24574
828.437	24764
828.577	24513
828.716	24669
828.855	24525
828.994	24422
829.134	24433
829.273	24338
829.412	24216
829.551	24277
829.69	24235
829.829	24311
829.968	24308
830.107	24334
830.246	24315
830.385	24292
830.524	24247
830.663	24095
830.802	24091
830.941	23980
831.08	23889
831.219	23965
831.357	23973
831.496	24129
831.635	23923
831.774	23840
831.913	23699
832.051	23646
832.19	23665
832.329	23687
832.467	23543
832.606	23512
832.744	23581
832.883	23608
833.022	23471
833.16	23596
833.299	23551
833.437	23619
833.576	23573
833.714	23653
833.852	23718
833.991	23649
834.129	23589
834.267	23668
834.406	23562
834.544	23573
834.682	23490
834.821	23539
834.959	23703
835.097	23581
835.235	23531
835.373	23482
835.511	23604
835.65	23433
835.788	23341
835.926	23322
836.064	23288
836.202	23223
836.34	23436
836.478	23463
836.615	23341
836.753	23471
836.891	23566
837.029	23364
837.167	23307
837.305	23280
837.443	23181
837.58	23239
837.718	23322
837.856	23265
837.993	23109
838.131	23174
838.269	23067
838.406	23060
838.544	23014
838.681	22828
838.819	22850
838.956	22710
839.094	22634
839.231	22721
839.369	22721
839.506	23113
839.643	22976
839.781	22763
839.918	22565
840.055	22774
840.193	22592
840.33	22481
840.467	22577
840.604	22607
840.742	22809
840.879	22531
841.016	22569
841.153	22569
841.29	22653
841.427	22596
841.564	22474
841.701	22649
841.838	22447
841.975	22523
842.112	22470
842.249	22276
842.385	22295
842.522	22413
842.659	22272
842.796	22409
842.933	22265
843.069	22299
843.206	22242
843.343	22375
843.479	22329
843.616	22348
843.752	22086
843.889	22074
844.025	22219
844.162	22048
844.298	22112
844.435	22055
844.571	22082
844.708	22013
844.844	22200
844.98	22006
845.117	22067
845.253	21857
845.389	21998
845.525	21972
845.661	21915
845.798	21854
845.934	21892
846.07	21850
846.206	21857
846.342	21865
846.478	21713
846.614	21599
846.75	21428
846.886	21564
847.022	21530
847.158	21564
847.294	21492
847.429	21485
847.565	21424
847.701	21724
847.837	21252
847.972	21233
848.108	21211
848.244	21329
848.379	21150
848.515	21218
848.65	20982
848.786	20994
848.921	21195
849.057	21051
849.192	21081
849.328	20998
849.463	20998
849.598	20975
849.734	21062
849.869	20952
850.004	20937
850.14	20834
850.275	20697
850.41	20754
850.545	20796
850.68	20754
850.815	20887
850.95	20849
851.085	21017
851.22	20895
851.355	20716
851.49	20750
851.625	20674
851.76	20716
851.895	20731
852.03	20720
852.165	20735
852.299	20735
852.434	20891
852.569	20758
852.703	20785
852.838	20929
852.973	20910
853.107	20941
853.242	20781
853.376	20648
853.511	20571
853.645	20492
853.78	20750
853.914	20594
854.048	20625
854.183	20583
854.317	20598
854.451	20750
854.585	20560
854.72	20590
854.854	20629
854.988	20530
855.122	20564
855.256	20454
855.39	20613
855.524	20659
855.658	20514
855.792	20632
855.926	20598
856.06	20640
856.194	20621
856.327	20522
856.461	20556
856.595	20412
856.729	20522
856.862	20731
856.996	20625
857.13	20705
857.263	20762
857.397	20712
857.53	20659
857.664	20735
857.797	20556
857.931	20594
858.064	20552
858.197	20606
858.331	20575
858.464	20492
858.597	20385
858.731	20514
858.864	20530
858.997	20457
859.13	20450
859.263	20632
859.396	20514
859.529	20454
859.662	20377
859.795	20579
859.928	20609
860.061	20739
860.194	20678
860.327	20469
860.46	20495
860.592	20533
860.725	20522
860.858	20663
860.99	20541
861.123	20393
861.256	20400
861.388	20587
861.521	21112
861.653	20336
861.786	20476
861.918	20370
862.05	20530
862.183	20617
862.315	20404
862.447	20640
862.58	20526
862.712	20290
862.844	20237
862.976	20438
863.108	20328
863.24	20693
863.372	20176
863.504	20347
863.636	20187
863.768	20225
863.9	20210
864.032	20149
864.164	20092
864.296	20256
864.428	20377
864.559	20278
864.691	20290
864.823	20259
864.954	20275
865.086	20191
865.217	20172
865.349	20065
865.48	20130
865.612	20145
865.743	20301
865.875	20111
866.006	20100
866.137	20206
866.269	20202
866.4	20088
866.531	20191
866.662	20126
866.793	20103
866.924	20027
867.055	20031
867.186	20008
867.317	20008
867.448	20088
867.579	20020
867.71	20005
867.841	19898
867.972	19993
868.103	19997
868.233	20164
868.364	20187
868.495	20221
868.625	20263
868.756	20465
868.886	20229
869.017	20252
869.147	20366
869.278	20431
869.408	20301
869.539	20210
869.669	20366
869.799	20199
869.929	20412
870.06	20309
870.19	20606
870.32	20549
870.45	20590
870.58	20758
870.71	20735
870.84	20826
870.97	20648
871.1	20648
871.23	20845
871.36	20906
871.489	20811
871.619	20872
871.749	20880
871.879	20807
872.008	21085
872.138	20891
872.267	20883
872.397	20800
872.526	20705
872.656	20663
872.785	20697
872.915	20895
873.044	21051
873.173	20845
873.303	20853
873.432	20975
873.561	20883
873.69	20967
873.819	20937
873.948	20914
874.077	20925
874.206	20921
874.335	20902
874.464	21032
874.593	21039
874.722	21161
874.851	21135
874.979	21298
875.108	21321
875.237	21173
875.365	21157
875.494	21032
875.623	21222
875.751	21104
875.88	21195
876.008	21287
876.136	21401
876.265	21561
876.393	21637
876.521	21663
876.65	21591
876.778	21519
876.906	21599
877.034	21572
877.162	21576
877.29	21473
877.418	21545
877.546	21492
877.674	21488
877.802	21496
877.93	21538
878.058	21431
878.185	21450
878.313	21447
878.441	21488
878.568	21428
878.696	21507
878.824	21492
878.951	21576
879.079	21694
879.206	21808
879.333	21656
879.461	21599
879.588	21564
879.715	21671
879.842	21804
879.97	21511
880.097	21294
880.224	21317
880.351	21367
880.478	21332
880.605	21283
880.732	21230
880.859	21660
880.986	21302
881.112	21329
881.239	21138
881.366	21066
881.493	21081
881.619	20910
881.746	20967
881.872	21108
881.999	20891
882.125	20975
882.252	20967
882.378	20830
882.505	21055
882.631	20769
882.757	20625
882.883	20674
883.01	20636
883.136	20617
883.262	20492
883.388	20526
883.514	20743
883.64	20629
883.766	20670
883.892	20541
884.018	20541
884.143	20670
884.269	20667
884.395	20343
884.52	20229
884.646	20317
884.772	20275
884.897	20172
885.023	20320
885.148	20370
885.274	20343
885.399	20469
885.524	20286
885.65	20332
885.775	20305
885.9	20324
886.025	20469
886.15	20400
886.275	20343
886.4	20100
886.525	20168
886.65	20244
886.775	20240
886.9	20324
887.025	20541
887.149	20214
887.274	20084
887.399	20008
887.523	20065
887.648	19970
887.773	19997
887.897	20145
888.021	20115
888.146	19959
888.27	20058
888.395	20122
888.519	20065
888.643	20134
888.767	20084
888.891	19936
889.015	19944
889.139	19989
889.263	19822
889.387	19932
889.511	20100
889.635	19944
889.759	19742
889.883	19833
890.006	19811
890.13	19898
890.254	19780
890.377	19734
890.501	19594
890.624	19495
890.748	19696
890.871	19552
890.995	19445
891.118	19308
891.241	19464
891.364	19441
891.488	19476
891.611	19464
891.734	19445
891.857	19506
891.98	19381
892.103	19476
892.226	19537
892.349	19377
892.471	19289
892.594	19400
892.717	19369
892.839	19362
892.962	19228
893.085	19514
893.207	19343
893.33	19282
893.452	19263
893.575	19438
893.697	19259
893.819	19483
893.941	19518
894.064	19403
894.186	19320
894.308	19320
894.43	19457
894.552	19495
894.674	19441
894.796	19304
894.918	19331
895.04	19316
895.161	19320
895.283	19339
895.405	19247
895.526	19217
895.648	19331
895.769	19343
895.891	19407
896.012	19438
896.134	19324
896.255	19419
896.376	19308
896.498	19335
896.619	19457
896.74	19350
896.861	19449
896.982	19765
897.103	19845
897.224	19761
897.345	19563
897.466	19540
897.587	19586
897.708	19719
897.828	19639
897.949	19670
898.07	19476
898.19	19571
898.311	19662
898.431	19544
898.552	19643
898.672	19689
898.792	19624
898.913	19605
899.033	19415
899.153	19362
899.273	19365
899.393	19381
899.513	19308
899.633	19274
899.753	19324
899.873	19247
899.993	19373
900.113	19278
900.232	19266
900.352	19228
900.472	19232
900.591	19095
900.711	19091
900.83	19072
900.95	19228
901.069	19244
901.189	19156
901.308	18787
901.427	18787
901.546	18688
901.665	18654
901.784	18791
901.904	18639
902.023	18433
902.141	18254
902.26	18262
902.379	18372
902.498	18178
902.617	18098
902.735	18254
902.854	18171
902.973	18019
903.091	17878
903.21	17912
903.328	17874
903.446	17760
903.565	17710
903.683	17672
903.801	17592
903.919	17707
904.038	17528
904.156	17573
904.274	17630
904.392	17402
904.51	17482
904.627	17478
904.745	17444
904.863	17551
904.981	17303
905.098	17098
905.216	17124
905.334	17181
905.451	17090
905.569	17212
905.686	17181
905.803	17079
905.921	16896
906.038	16953
906.155	17014
906.272	16847
906.389	16809
906.506	16801
906.623	16641
906.74	16618
906.857	16561
906.974	16626
907.091	16694
907.208	16748
907.324	16736
907.441	16508
907.557	16390
907.674	16436
907.79	16421
907.907	16394
908.023	16466
908.139	16337
908.256	16325
908.372	16325
908.488	16291
908.604	16101
908.72	16025
908.836	16112
908.952	16097
909.068	16112
909.184	16181
909.3	16097
909.415	16109
909.531	15994
909.647	15797
909.762	15812
909.878	15781
909.993	15755
910.108	15755
910.224	15732
910.339	15743
910.454	15625
910.57	15671
910.685	15466
910.8	15785
910.915	15705
911.03	15557
911.145	15374
911.259	15241
911.374	15439
911.489	15287
911.604	15268
911.718	15131
911.833	15127
911.947	15066
912.062	14887
912.176	15108
912.291	15017
912.405	15077
912.519	15317
912.633	15306
912.748	15119
912.862	15062
912.976	14967
913.09	14899
913.204	14906
913.318	14883
913.431	14986
913.545	14941
913.659	14994
913.772	14921
913.886	14773
914	14754
914.113	14838
914.226	14899
914.34	14872
914.453	14655
914.566	14663
914.68	14587
914.793	14663
914.906	14442
915.019	14343
915.132	14339
915.245	14305
915.358	14396
915.47	14431
915.583	14347
915.696	14343
915.809	14541
915.921	14450
916.034	14282
916.146	14286
916.259	14263
916.371	14404
916.483	14408
916.595	14259
916.708	14180
916.82	14278
916.932	14123
917.044	14206
917.156	14180
917.268	14134
917.38	14149
917.491	13917
917.603	14073
917.715	14092
917.826	14069
917.938	14012
918.049	13917
918.161	13944
918.272	14130
918.384	14149
918.495	14119
918.606	13860
918.717	13784
918.828	13868
918.939	13814
919.05	13734
919.161	13772
919.272	13567
919.383	13666
919.494	13883
919.604	14046
919.715	13822
919.826	13734
919.936	13658
920.047	13845
920.157	13662
920.267	13959
920.378	13761
920.488	13830
920.598	13845
920.708	14069
920.818	13849
920.928	13864
921.038	13997
921.148	14050
921.258	13674
921.368	13605
921.477	13499
921.587	13540
921.697	13480
921.806	13525
921.916	13430
922.025	13225
922.134	13217
922.244	13145
922.353	13175
922.462	13034
922.571	13004
922.68	12856
922.789	12768
922.898	12848
923.007	12658
923.116	12779
923.224	12806
923.333	12768
923.442	12593
923.55	12673
923.659	12662
923.767	12688
923.876	12627
923.984	12711
924.092	12551
924.201	12544
924.309	12669
924.417	12483
924.525	12536
924.633	12597
924.741	13270
924.849	12300
924.956	12517
925.064	12277
925.172	12258
925.279	12224
925.387	12334
925.494	12380
925.602	12308
925.709	12228
925.816	12155
925.924	12136
926.031	12296
926.138	12163
926.245	12254
926.352	12182
926.459	12281
926.566	12350
926.673	12091
926.779	11988
926.886	11999
926.993	11961
927.099	11874
927.206	11828
927.312	11817
927.419	11851
927.525	11901
927.631	11855
927.737	11714
927.843	11676
927.95	11623
928.056	11600
928.162	11653
928.267	11748
928.373	12213
928.479	11741
928.585	11452
928.69	11672
928.796	11680
928.901	11627
929.007	11360
929.112	11505
929.218	11486
929.323	11395
929.428	11398
929.533	11649
929.638	11341
929.743	11364
929.848	11433
929.953	11376
930.058	11265
930.163	11124
930.267	11166
930.372	11223
930.477	11083
930.581	11322
930.685	11220
930.79	11029
930.894	11079
930.998	10965
931.103	10999
931.207	10714
931.311	10729
931.415	10577
931.519	10413
931.623	10462
