Data from test_V78500241_1382.txt Node
Date: Fri Mar 25 15:19:28 CST 2022
User: usil
Spectrometer: V785-0024
Trigger mode: 0
Integration Time (sec): 4.000000E-1
Scans to average: 1
Nonlinearity correction enabled: false
Boxcar width: 0
Storing dark spectrum: false
XAxis mode: Wavelengths
Number of Pixels in Spectrum: 1024
>>>>>Begin Spectral Data<<<<<
801.071	28200
801.214	28135
801.356	27884
801.499	27873
801.641	27701
801.783	27717
801.926	27743
802.068	27717
802.211	27701
802.353	27667
802.496	27450
802.638	27389
802.78	27351
802.923	27469
803.065	27336
803.208	27332
803.35	27405
803.492	27496
803.635	27587
803.777	27416
803.919	27511
804.061	27880
804.204	27762
804.346	27435
804.488	27511
804.63	27530
804.773	27644
804.915	27583
805.057	27835
805.199	27568
805.341	27808
805.483	27793
805.626	27637
805.768	27656
805.91	27580
806.052	27701
806.194	27720
806.336	27827
806.478	27800
806.62	27732
806.762	27755
806.904	28013
807.046	28166
807.188	28109
807.33	28109
807.472	28139
807.614	28276
807.756	28150
807.898	27979
808.04	27979
808.182	27831
808.324	27884
808.465	28002
808.607	28211
808.749	28409
808.891	28470
809.033	28668
809.174	28417
809.316	28409
809.458	28394
809.6	28348
809.741	28413
809.883	28573
810.025	28577
810.166	28622
810.308	28710
810.45	28489
810.591	28615
810.733	28447
810.875	28394
811.016	28249
811.158	28272
811.299	28409
811.441	28516
811.582	28493
811.724	28363
811.865	28421
812.007	28451
812.148	28447
812.29	28401
812.431	28729
812.573	28702
812.714	28801
812.855	28869
812.997	28953
813.138	29178
813.279	28957
813.421	29025
813.562	28968
813.703	28733
813.845	28771
813.986	28318
814.127	28040
814.268	28036
814.41	28337
814.551	28112
814.692	28318
814.833	28048
814.974	28078
815.115	28192
815.256	28173
815.397	27987
815.539	28021
815.68	27922
815.821	27899
815.962	27873
816.103	27930
816.244	27865
816.385	27751
816.526	27739
816.666	27519
816.807	27325
816.948	27466
817.089	27481
817.23	27492
817.371	27306
817.512	27450
817.653	27408
817.793	27332
817.934	27397
818.075	27481
818.216	27435
818.356	27252
818.497	27275
818.638	27093
818.778	27211
818.919	27218
819.06	27226
819.2	27359
819.341	27393
819.481	27492
819.622	27614
819.762	27747
819.903	27835
820.043	27507
820.184	27587
820.324	27458
820.465	27663
820.605	27454
820.746	27614
820.886	27336
821.026	27469
821.167	27477
821.307	27648
821.447	27363
821.588	27207
821.728	27218
821.868	26960
822.008	27055
822.149	26933
822.289	26838
822.429	26598
822.569	26511
822.709	26568
822.849	26374
822.99	26423
823.13	26415
823.27	26336
823.41	26259
823.55	26058
823.69	26199
823.83	26256
823.97	26317
824.11	25993
824.25	26046
824.389	26073
824.529	26115
824.669	26096
824.809	26267
824.949	26062
825.089	26161
825.228	26058
825.368	26008
825.508	25845
825.648	25993
825.787	25902
825.927	25989
826.067	25902
826.206	25833
826.346	26092
826.485	25936
826.625	25921
826.765	25970
826.904	25890
827.044	25681
827.183	25666
827.323	25597
827.462	25674
827.601	25712
827.741	25609
827.88	25616
828.02	25506
828.159	25674
828.298	25567
828.437	25514
828.577	25548
828.716	25647
828.855	25540
828.994	25339
829.134	25244
829.273	25274
829.412	25270
829.551	25221
829.69	25499
829.829	25285
829.968	25320
830.107	25327
830.246	25400
830.385	25160
830.524	25251
830.663	25057
830.802	25080
830.941	24966
831.08	24791
831.219	24985
831.357	25027
831.496	25171
831.635	24882
831.774	24943
831.913	24894
832.051	24707
832.19	24810
832.329	24783
832.467	24654
832.606	24673
832.744	24525
832.883	24711
833.022	24616
833.16	24620
833.299	24745
833.437	24646
833.576	24719
833.714	24578
833.852	24623
833.991	24840
834.129	24734
834.267	24677
834.406	24646
834.544	24696
834.682	24673
834.821	24578
834.959	24715
835.097	24593
835.235	24612
835.373	24551
835.511	24639
835.65	24448
835.788	24540
835.926	24353
836.064	24285
836.202	24346
836.34	24486
836.478	24612
836.615	24483
836.753	24426
836.891	24540
837.029	24502
837.167	24486
837.305	24308
837.443	24407
837.58	24407
837.718	24372
837.856	24475
837.993	24220
838.131	24342
838.269	24167
838.406	24091
838.544	24182
838.681	23939
838.819	23942
838.956	23779
839.094	23805
839.231	23824
839.369	23999
839.506	24232
839.643	24133
839.781	23699
839.918	23726
840.055	23790
840.193	23847
840.33	23653
840.467	23771
840.604	23707
840.742	24003
840.879	23459
841.016	23596
841.153	23539
841.29	23821
841.427	23718
841.564	23630
841.701	23608
841.838	23623
841.975	23444
842.112	23680
842.249	23543
842.385	23322
842.522	23699
842.659	23379
842.796	23433
842.933	23364
843.069	23280
843.206	23284
843.343	23585
843.479	23425
843.616	23417
843.752	23356
843.889	23303
844.025	23356
844.162	23185
844.298	23239
844.435	23231
844.571	23216
844.708	23246
844.844	23334
844.98	23402
845.117	23315
845.253	23277
845.389	23056
845.525	23147
845.661	23033
845.798	23025
845.934	22953
846.07	22839
846.206	22980
846.342	23178
846.478	22953
846.614	22744
846.75	22687
846.886	22664
847.022	22725
847.158	22641
847.294	22767
847.429	22672
847.565	22668
847.701	22858
847.837	22405
847.972	22348
848.108	22367
848.244	22508
848.379	22196
848.515	22280
848.65	22188
848.786	22375
848.921	22287
849.057	22360
849.192	22360
849.328	22242
849.463	22249
849.598	22226
849.734	22131
849.869	22128
850.004	21956
850.14	22067
850.275	22010
850.41	21918
850.545	22006
850.68	22010
850.815	21998
850.95	22116
851.085	22238
851.22	22124
851.355	22139
851.49	22025
851.625	21907
851.76	21979
851.895	21934
852.03	21956
852.165	21892
852.299	21934
852.434	22093
852.569	22029
852.703	22048
852.838	22177
852.973	22158
853.107	22074
853.242	21892
853.376	21922
853.511	21873
853.645	21812
853.78	21941
853.914	21873
854.048	21842
854.183	21846
854.317	21888
854.451	22036
854.585	21899
854.72	21816
854.854	21915
854.988	21739
855.122	21759
855.256	21667
855.39	21705
855.524	21827
855.658	21907
855.792	21987
855.926	21800
856.06	21812
856.194	21937
856.327	21747
856.461	21762
856.595	21812
856.729	21774
856.862	21972
856.996	21926
857.13	21941
857.263	21968
857.397	21934
857.53	21800
857.664	21907
857.797	21846
857.931	21930
858.064	21903
858.197	21960
858.331	21854
858.464	21751
858.597	21698
858.731	21770
858.864	21781
858.997	21835
859.13	21842
859.263	21812
859.396	22021
859.529	21831
859.662	21854
859.795	21937
859.928	21827
860.061	22021
860.194	21991
860.327	21895
860.46	21785
860.592	21956
860.725	21949
860.858	21991
860.99	21861
861.123	21743
861.256	21838
861.388	21838
861.521	22527
861.653	21770
861.786	21652
861.918	21637
862.05	21705
862.183	21701
862.315	21789
862.447	21857
862.58	21800
862.712	21580
862.844	21557
862.976	21591
863.108	21545
863.24	21945
863.372	21561
863.504	21549
863.636	21530
863.768	21720
863.9	21561
864.032	21473
864.164	21481
864.296	21629
864.428	21595
864.559	21466
864.691	21766
864.823	21519
864.954	21561
865.086	21538
865.217	21492
865.349	21428
865.48	21424
865.612	21534
865.743	21450
865.875	21542
866.006	21321
866.137	21393
866.269	21447
866.4	21511
866.531	21348
866.662	21435
866.793	21405
866.924	21321
867.055	21359
867.186	21363
867.317	21340
867.448	21226
867.579	21401
867.71	21310
867.841	21256
867.972	21469
868.103	21340
868.233	21450
868.364	21367
868.495	21359
868.625	21443
868.756	21625
868.886	21515
869.017	21488
869.147	21720
869.278	21800
869.408	21568
869.539	21671
869.669	21679
869.799	21652
869.929	21793
870.06	21682
870.19	21861
870.32	21994
870.45	21915
870.58	21983
870.71	22086
870.84	22101
870.97	22048
871.1	22059
871.23	22211
871.36	22154
871.489	22074
871.619	22105
871.749	22188
871.879	22272
872.008	22192
872.138	22150
872.267	22272
872.397	22078
872.526	22097
872.656	21975
872.785	22067
872.915	22147
873.044	22303
873.173	22314
873.303	22287
873.432	22348
873.561	22295
873.69	22303
873.819	22166
873.948	22295
874.077	22074
874.206	22154
874.335	22181
874.464	22242
874.593	22421
874.722	22466
874.851	22500
874.979	22577
875.108	22402
875.237	22413
875.365	22291
875.494	22352
875.623	22523
875.751	22424
875.88	22402
876.008	22577
876.136	22637
876.265	22736
876.393	22942
876.521	22835
876.65	22972
876.778	22790
876.906	22656
877.034	22869
877.162	22702
877.29	22687
877.418	22733
877.546	22889
877.674	22755
877.802	22767
877.93	22698
878.058	22725
878.185	22694
878.313	22828
878.441	22763
878.568	22565
878.696	22786
878.824	22755
878.951	22946
879.079	22896
879.206	23064
879.333	22995
879.461	22778
879.588	22828
879.715	22980
879.842	23128
879.97	22904
880.097	22603
880.224	22516
880.351	22698
880.478	22542
880.605	22538
880.732	22618
880.859	22828
880.986	22519
881.112	22622
881.239	22375
881.366	22341
881.493	22272
881.619	22181
881.746	22246
881.872	22166
881.999	22135
882.125	22128
882.252	22234
882.378	22093
882.505	22261
882.631	21987
882.757	21876
882.883	21892
883.01	21804
883.136	21743
883.262	21713
883.388	21720
883.514	21816
883.64	21876
883.766	21876
883.892	21682
884.018	21774
884.143	21857
884.269	21884
884.395	21549
884.52	21473
884.646	21542
884.772	21462
884.897	21382
885.023	21443
885.148	21595
885.274	21599
885.399	21485
885.524	21443
885.65	21553
885.775	21519
885.9	21462
886.025	21603
886.15	21618
886.275	21397
886.4	21435
886.525	21355
886.65	21447
886.775	21416
886.9	21583
887.025	21694
887.149	21416
887.274	21283
887.399	21184
887.523	21325
887.648	21176
887.773	21112
887.897	21313
888.021	21378
888.146	21165
888.27	21386
888.395	21359
888.519	21203
888.643	21321
888.767	21192
888.891	21142
889.015	21039
889.139	21043
889.263	21009
889.387	21116
889.511	21233
889.635	21268
889.759	20975
889.883	21135
890.006	21195
890.13	21214
890.254	21066
890.377	20956
890.501	20788
890.624	20853
890.748	20807
890.871	20777
890.995	20590
891.118	20594
891.241	20617
891.364	20537
891.488	20682
891.611	20613
891.734	20716
891.857	20701
891.98	20659
892.103	20606
892.226	20625
892.349	20552
892.471	20442
892.594	20461
892.717	20511
892.839	20415
892.962	20545
893.085	20590
893.207	20526
893.33	20457
893.452	20389
893.575	20552
893.697	20522
893.819	20651
893.941	20670
894.064	20712
894.186	20503
894.308	20362
894.43	20549
894.552	20712
894.674	20590
894.796	20461
894.918	20564
895.04	20522
895.161	20549
895.283	20377
895.405	20408
895.526	20446
895.648	20412
895.769	20625
895.891	20450
896.012	20621
896.134	20590
896.255	20511
896.376	20438
896.498	20541
896.619	20579
896.74	20568
896.861	20541
896.982	20788
897.103	20830
897.224	20712
897.345	20731
897.466	20629
897.587	20823
897.708	20792
897.828	20720
897.949	20708
898.07	20629
898.19	20693
898.311	20720
898.431	20602
898.552	20727
898.672	20830
898.792	20727
898.913	20716
899.033	20640
899.153	20492
899.273	20396
899.393	20385
899.513	20492
899.633	20328
899.753	20431
899.873	20385
899.993	20511
900.113	20389
900.232	20370
900.352	20339
900.472	20355
900.591	20111
900.711	20237
900.83	20103
900.95	20332
901.069	20183
901.189	20149
901.308	19769
901.427	19761
901.546	19788
901.665	19822
901.784	19723
901.904	19708
902.023	19540
902.141	19400
902.26	19301
902.379	19457
902.498	19358
902.617	19168
902.735	19343
902.854	19240
902.973	19255
903.091	19031
903.21	18916
903.328	18932
903.446	18890
903.565	18798
903.683	18821
903.801	18620
903.919	18722
904.038	18661
904.156	18650
904.274	18612
904.392	18513
904.51	18559
904.627	18437
904.745	18589
904.863	18585
904.981	18403
905.098	18254
905.216	18159
905.334	18388
905.451	18171
905.569	18197
905.686	18262
905.803	18171
905.921	18003
906.038	18125
906.155	17927
906.272	17988
906.389	17809
906.506	17794
906.623	17687
906.74	17767
906.857	17547
906.974	17699
907.091	17771
907.208	17813
907.324	17676
907.441	17627
907.557	17452
907.674	17486
907.79	17448
907.907	17410
908.023	17467
908.139	17486
908.256	17364
908.372	17414
908.488	17425
908.604	17227
908.72	17227
908.836	17174
908.952	17193
909.068	17212
909.184	17220
909.3	17216
909.415	17292
909.531	17132
909.647	16923
909.762	16885
909.878	16877
909.993	16934
910.108	16858
910.224	16869
910.339	16972
910.454	16740
910.57	16660
910.685	16607
910.8	16896
910.915	16774
911.03	16687
911.145	16440
911.259	16500
911.374	16558
911.489	16375
911.604	16303
911.718	16261
911.833	16177
911.947	16139
912.062	16025
912.176	16211
912.291	16173
912.405	16223
912.519	16344
912.633	16478
912.748	16253
912.862	16150
912.976	16059
913.09	15937
913.204	15998
913.318	16112
913.431	16109
913.545	16112
913.659	16135
913.772	15899
913.886	15827
914	15823
914.113	16017
914.226	15915
914.34	15831
914.453	15705
914.566	15778
914.68	15686
914.793	15694
914.906	15504
915.019	15523
915.132	15424
915.245	15458
915.358	15439
915.47	15492
915.583	15412
915.696	15515
915.809	15416
915.921	15549
916.034	15310
916.146	15329
916.259	15211
916.371	15462
916.483	15382
916.595	15237
916.708	15169
916.82	15214
916.932	15123
917.044	15211
917.156	15176
917.268	15017
917.38	15119
917.491	15104
917.603	15093
917.715	15070
917.826	15093
917.938	15001
918.049	15001
918.161	14914
918.272	15116
918.384	14990
918.495	15013
918.606	14807
918.717	14754
918.828	14830
918.939	14804
919.05	14697
919.161	14834
919.272	14678
919.383	14613
919.494	14891
919.604	14952
919.715	14785
919.826	14705
919.936	14785
920.047	14796
920.157	14777
920.267	14975
920.378	14735
920.488	14724
920.598	14864
920.708	15024
920.818	14792
920.928	14864
921.038	15051
921.148	14960
921.258	14800
921.368	14648
921.477	14571
921.587	14507
921.697	14400
921.806	14419
921.916	14298
922.025	14134
922.134	14191
922.244	14119
922.353	14244
922.462	14043
922.571	13818
922.68	13772
922.789	13769
922.898	13761
923.007	13765
923.116	13795
923.224	13864
923.333	13674
923.442	13681
923.55	13514
923.659	13632
923.767	13624
923.876	13613
923.984	13662
924.092	13499
924.201	13502
924.309	13491
924.417	13415
924.525	13453
924.633	13400
924.741	14210
924.849	13206
924.956	13354
925.064	13339
925.172	13145
925.279	13171
925.387	13164
925.494	13175
925.602	13400
925.709	13221
925.816	13004
925.924	13057
926.031	13194
926.138	13095
926.245	13088
926.352	13038
926.459	13160
926.566	13046
926.673	13042
926.779	12962
926.886	12913
926.993	12760
927.099	12662
927.206	12673
927.312	12654
927.419	12802
927.525	12688
927.631	12802
927.737	12559
927.843	12589
927.95	12418
928.056	12555
928.162	12585
928.267	12585
928.373	13137
928.479	12578
928.585	12422
928.69	12559
928.796	12513
928.901	12399
929.007	12277
929.112	12410
929.218	12369
929.323	12315
929.428	12338
929.533	12380
929.638	12125
929.743	12216
929.848	12266
929.953	12213
930.058	12182
930.163	11984
930.267	11946
930.372	12045
930.477	11950
930.581	12117
930.685	12003
930.79	11847
930.894	11817
930.998	11775
931.103	11969
931.207	11589
931.311	11528
931.415	11478
931.519	11178
931.623	11185
