Data from test_V78500241_3459.txt Node
Date: Fri Mar 25 15:33:56 CST 2022
User: usil
Spectrometer: V785-0024
Trigger mode: 0
Integration Time (sec): 4.000000E-1
Scans to average: 1
Nonlinearity correction enabled: false
Boxcar width: 0
Storing dark spectrum: false
XAxis mode: Wavelengths
Number of Pixels in Spectrum: 1024
>>>>>Begin Spectral Data<<<<<
801.071	27176
801.214	27055
801.356	26960
801.499	26845
801.641	26659
801.783	26590
801.926	26773
802.068	26777
802.211	26727
802.353	26571
802.496	26571
802.638	26263
802.78	26370
802.923	26366
803.065	26290
803.208	26221
803.35	26366
803.492	26438
803.635	26518
803.777	26545
803.919	26552
804.061	26819
804.204	26568
804.346	26374
804.488	26259
804.63	26571
804.773	26324
804.915	26579
805.057	26598
805.199	26488
805.341	26556
805.483	26609
805.626	26644
805.768	26503
805.91	26579
806.052	26617
806.194	26564
806.336	26887
806.478	26590
806.62	26495
806.762	26686
806.904	26895
807.046	27157
807.188	27005
807.33	27176
807.472	26937
807.614	26960
807.756	26940
807.898	26944
808.04	26880
808.182	26705
808.324	26731
808.465	26948
808.607	27077
808.749	27176
808.891	27302
809.033	27378
809.174	27211
809.316	27256
809.458	27264
809.6	27260
809.741	27317
809.883	27291
810.025	27450
810.166	27363
810.308	27576
810.45	27443
810.591	27466
810.733	27241
810.875	27211
811.016	27127
811.158	27211
811.299	27226
811.441	27469
811.582	27412
811.724	27226
811.865	27211
812.007	27233
812.148	27043
812.29	27214
812.431	27382
812.573	27576
812.714	27462
812.855	27606
812.997	27816
813.138	27907
813.279	27907
813.421	27648
813.562	27652
813.703	27420
813.845	27203
813.986	27051
814.127	26864
814.268	26792
814.41	26963
814.551	26971
814.692	26823
814.833	26762
814.974	26712
815.115	26872
815.256	26727
815.397	26689
815.539	26655
815.68	26617
815.821	26651
815.962	26659
816.103	26613
816.244	26442
816.385	26339
816.526	26263
816.666	26176
816.807	26168
816.948	26024
817.089	26282
817.23	26176
817.371	26077
817.512	26138
817.653	25959
817.793	25970
817.934	26252
818.075	26115
818.216	26119
818.356	26088
818.497	26016
818.638	25738
818.778	25769
818.919	25811
819.06	25963
819.2	25921
819.341	26001
819.481	26103
819.622	26187
819.762	26541
819.903	26320
820.043	26278
820.184	26351
820.324	26225
820.465	26237
820.605	26229
820.746	26290
820.886	26107
821.026	26176
821.167	26016
821.307	26218
821.447	26065
821.588	26024
821.728	25947
821.868	25685
822.008	25666
822.149	25677
822.289	25514
822.429	25308
822.569	25327
822.709	25251
822.849	25076
822.99	25122
823.13	24981
823.27	24924
823.41	24875
823.55	24719
823.69	24909
823.83	24856
823.97	24909
824.11	24722
824.25	24741
824.389	24597
824.529	24715
824.669	24757
824.809	24654
824.949	24768
825.089	24776
825.228	24741
825.368	24582
825.508	24566
825.648	24677
825.787	24601
825.927	24639
826.067	24559
826.206	24498
826.346	24646
826.485	24757
826.625	24669
826.765	24631
826.904	24464
827.044	24372
827.183	24376
827.323	24292
827.462	24388
827.601	24281
827.741	24319
827.88	24395
828.02	24186
828.159	24266
828.298	24319
828.437	24353
828.577	24304
828.716	24350
828.855	24110
828.994	23965
829.134	24030
829.273	24011
829.412	23946
829.551	23813
829.69	23977
829.829	23969
829.968	24140
830.107	24079
830.246	24076
830.385	24102
830.524	24007
830.663	23832
830.802	23779
830.941	23608
831.08	23512
831.219	23676
831.357	23802
831.496	23718
831.635	23649
831.774	23551
831.913	23547
832.051	23383
832.19	23395
832.329	23554
832.467	23383
832.606	23231
832.744	23174
832.883	23395
833.022	23189
833.16	23311
833.299	23474
833.437	23414
833.576	23379
833.714	23368
833.852	23425
833.991	23433
834.129	23467
834.267	23497
834.406	23440
834.544	23433
834.682	23383
834.821	23311
834.959	23474
835.097	23265
835.235	23429
835.373	23410
835.511	23387
835.65	23155
835.788	23200
835.926	23105
836.064	23025
836.202	23094
836.34	23318
836.478	23322
836.615	23235
836.753	23216
836.891	23349
837.029	23136
837.167	23181
837.305	23052
837.443	23056
837.58	23048
837.718	23071
837.856	23102
837.993	22965
838.131	23037
838.269	22847
838.406	22873
838.544	22999
838.681	22729
838.819	22729
838.956	22588
839.094	22653
839.231	22630
839.369	22717
839.506	22862
839.643	22763
839.781	22698
839.918	22478
840.055	22538
840.193	22542
840.33	22440
840.467	22493
840.604	22569
840.742	22717
840.879	22382
841.016	22417
841.153	22413
841.29	22599
841.427	22569
841.564	22443
841.701	22424
841.838	22390
841.975	22314
842.112	22500
842.249	22215
842.385	22272
842.522	22485
842.659	22333
842.796	22253
842.933	22147
843.069	22219
843.206	22204
843.343	22379
843.479	22363
843.616	22265
843.752	21934
843.889	22048
844.025	22139
844.162	22017
844.298	22128
844.435	21979
844.571	21865
844.708	22040
844.844	22177
844.98	22086
845.117	22051
845.253	21937
845.389	21800
845.525	22006
845.661	21739
845.798	21774
845.934	21823
846.07	21618
846.206	21842
846.342	21739
846.478	21800
846.614	21637
846.75	21534
846.886	21447
847.022	21583
847.158	21583
847.294	21576
847.429	21515
847.565	21507
847.701	21690
847.837	21348
847.972	21100
848.108	21249
848.244	21241
848.379	21096
848.515	21089
848.65	21146
848.786	21142
848.921	21043
849.057	21291
849.192	21195
849.328	21089
849.463	21108
849.598	20952
849.734	20880
849.869	20914
850.004	20811
850.14	20773
850.275	20918
850.41	20769
850.545	20800
850.68	20804
850.815	20868
850.95	20845
851.085	21001
851.22	20937
851.355	20910
851.49	20872
851.625	20823
851.76	20823
851.895	20735
852.03	20781
852.165	20906
852.299	20804
852.434	20937
852.569	20910
852.703	20830
852.838	20861
852.973	20990
853.107	20929
853.242	20880
853.376	20678
853.511	20663
853.645	20697
853.78	20838
853.914	20731
854.048	20640
854.183	20514
854.317	20781
854.451	20800
854.585	20617
854.72	20720
854.854	20720
854.988	20617
855.122	20804
855.256	20590
855.39	20579
855.524	20701
855.658	20746
855.792	20678
855.926	20678
856.06	20773
856.194	20640
856.327	20568
856.461	20598
856.595	20678
856.729	20678
856.862	20750
856.996	20651
857.13	20788
857.263	20830
857.397	20769
857.53	20568
857.664	20701
857.797	20746
857.931	20785
858.064	20686
858.197	20701
858.331	20727
858.464	20625
858.597	20469
858.731	20617
858.864	20701
858.997	20526
859.13	20613
859.263	20720
859.396	20758
859.529	20655
859.662	20651
859.795	20587
859.928	20788
860.061	20914
860.194	20815
860.327	20629
860.46	20621
860.592	20811
860.725	20880
860.858	20834
860.99	20640
861.123	20530
861.256	20655
861.388	20617
861.521	21447
861.653	20427
861.786	20484
861.918	20503
862.05	20583
862.183	20571
862.315	20667
862.447	20556
862.58	20598
862.712	20541
862.844	20282
862.976	20461
863.108	20438
863.24	20921
863.372	20396
863.504	20366
863.636	20434
863.768	20313
863.9	20317
864.032	20339
864.164	20370
864.296	20438
864.428	20499
864.559	20412
864.691	20598
864.823	20450
864.954	20495
865.086	20434
865.217	20412
865.349	20309
865.48	20259
865.612	20336
865.743	20518
865.875	20339
866.006	20309
866.137	20282
866.269	20313
866.4	20336
866.531	20210
866.662	20126
866.793	20237
866.924	20229
867.055	20328
867.186	20199
867.317	20343
867.448	20126
867.579	20267
867.71	20157
867.841	20278
867.972	20290
868.103	20259
868.233	20202
868.364	20237
868.495	20355
868.625	20454
868.756	20617
868.886	20484
869.017	20431
869.147	20609
869.278	20457
869.408	20446
869.539	20571
869.669	20530
869.799	20545
869.929	20632
870.06	20556
870.19	20765
870.32	20807
870.45	20834
870.58	20914
870.71	21043
870.84	20990
870.97	20979
871.1	20880
871.23	21119
871.36	21070
871.489	21039
871.619	21024
871.749	21047
871.879	21055
872.008	21142
872.138	21066
872.267	21093
872.397	21028
872.526	20918
872.656	20887
872.785	21032
872.915	21192
873.044	21222
873.173	21089
873.303	21135
873.432	21165
873.561	21268
873.69	21058
873.819	21180
873.948	21150
874.077	21260
874.206	21135
874.335	21165
874.464	21176
874.593	21412
874.722	21199
874.851	21329
874.979	21435
875.108	21492
875.237	21275
875.365	21310
875.494	21321
875.623	21511
875.751	21321
875.88	21435
876.008	21488
876.136	21545
876.265	21739
876.393	21888
876.521	21842
876.65	21895
876.778	21747
876.906	21755
877.034	21660
877.162	21686
877.29	21724
877.418	21869
877.546	21739
877.674	21671
877.802	21652
877.93	21652
878.058	21679
878.185	21561
878.313	21644
878.441	21804
878.568	21477
878.696	21663
878.824	21797
878.951	21690
879.079	21835
879.206	21903
879.333	21983
879.461	21720
879.588	21766
879.715	21797
879.842	21915
879.97	21766
880.097	21564
880.224	21488
880.351	21488
880.478	21439
880.605	21507
880.732	21591
880.859	21713
880.986	21443
881.112	21477
881.239	21481
881.366	21329
881.493	21199
881.619	21249
881.746	21116
881.872	21142
881.999	21093
882.125	21005
882.252	21173
882.378	21051
882.505	21260
882.631	20952
882.757	20796
882.883	20853
883.01	20910
883.136	20765
883.262	20629
883.388	20739
883.514	20830
883.64	20921
883.766	20720
883.892	20716
884.018	20621
884.143	20823
884.269	20765
884.395	20518
884.52	20488
884.646	20526
884.772	20427
884.897	20427
885.023	20583
885.148	20625
885.274	20636
885.399	20579
885.524	20415
885.65	20499
885.775	20511
885.9	20522
886.025	20412
886.15	20461
886.275	20427
886.4	20320
886.525	20415
886.65	20434
886.775	20450
886.9	20526
887.025	20644
887.149	20457
887.274	20290
887.399	20256
887.523	20191
887.648	20191
887.773	20161
887.897	20313
888.021	20317
888.146	20168
888.27	20301
888.395	20336
888.519	20320
888.643	20214
888.767	20225
888.891	20237
889.015	20065
889.139	20024
889.263	20130
889.387	20119
889.511	20267
889.635	20256
889.759	20024
889.883	20096
890.006	20008
890.13	20081
890.254	20050
890.377	20027
890.501	19818
890.624	19696
890.748	19822
890.871	19704
890.995	19655
891.118	19548
891.241	19616
891.364	19685
891.488	19761
891.611	19590
891.734	19704
891.857	19715
891.98	19639
892.103	19597
892.226	19563
892.349	19624
892.471	19445
892.594	19525
892.717	19506
892.839	19578
892.962	19563
893.085	19563
893.207	19521
893.33	19468
893.452	19506
893.575	19510
893.697	19559
893.819	19769
893.941	19727
894.064	19776
894.186	19510
894.308	19388
894.43	19651
894.552	19757
894.674	19662
894.796	19464
894.918	19495
895.04	19537
895.161	19601
895.283	19666
895.405	19510
895.526	19510
895.648	19552
895.769	19544
895.891	19571
896.012	19609
896.134	19628
896.255	19609
896.376	19453
896.498	19552
896.619	19601
896.74	19514
896.861	19674
896.982	19894
897.103	20058
897.224	19864
897.345	19765
897.466	19765
897.587	19841
897.708	19951
897.828	19715
897.949	19601
898.07	19609
898.19	19681
898.311	19845
898.431	19849
898.552	19795
898.672	19902
898.792	19928
898.913	19928
899.033	19746
899.153	19628
899.273	19487
899.393	19552
899.513	19548
899.633	19616
899.753	19605
899.873	19529
899.993	19601
900.113	19472
900.232	19594
900.352	19449
900.472	19377
900.591	19400
900.711	19331
900.83	19232
900.95	19320
901.069	19506
901.189	19148
901.308	18962
901.427	18829
901.546	18886
901.665	18856
901.784	18989
901.904	18692
902.023	18597
902.141	18342
902.26	18479
902.379	18544
902.498	18452
902.617	18521
902.735	18521
902.854	18380
902.973	18365
903.091	18277
903.21	18117
903.328	18125
903.446	18079
903.565	18011
903.683	17863
903.801	17828
903.919	17832
904.038	17809
904.156	17657
904.274	17756
904.392	17703
904.51	17661
904.627	17684
904.745	17722
904.863	17653
904.981	17474
905.098	17383
905.216	17410
905.334	17414
905.451	17337
905.569	17334
905.686	17372
905.803	17353
905.921	17170
906.038	17273
906.155	17056
906.272	17010
906.389	17109
906.506	16942
906.623	16953
906.74	16839
906.857	16744
906.974	16828
907.091	17014
907.208	16991
907.324	16831
907.441	16797
907.557	16611
907.674	16607
907.79	16649
907.907	16649
908.023	16538
908.139	16603
908.256	16554
908.372	16443
908.488	16455
908.604	16405
908.72	16356
908.836	16379
908.952	16306
909.068	16512
909.184	16447
909.3	16390
909.415	16314
909.531	16390
909.647	16063
909.762	16150
909.878	16082
909.993	16006
910.108	16044
910.224	16025
910.339	16154
910.454	15937
910.57	15876
910.685	15835
910.8	16147
910.915	16006
911.03	15854
911.145	15603
911.259	15709
911.374	15652
911.489	15599
911.604	15572
911.718	15412
911.833	15382
911.947	15306
912.062	15245
912.176	15428
912.291	15481
912.405	15412
912.519	15637
912.633	15542
912.748	15549
912.862	15386
912.976	15279
913.09	15104
913.204	15184
913.318	15249
913.431	15233
913.545	15313
913.659	15233
913.772	15264
913.886	15112
914	15013
914.113	15199
914.226	15131
914.34	15058
914.453	14861
914.566	15097
914.68	14998
914.793	14979
914.906	14815
915.019	14724
915.132	14590
915.245	14644
915.358	14613
915.47	14644
915.583	14693
915.696	14750
915.809	14788
915.921	14842
916.034	14606
916.146	14640
916.259	14541
916.371	14629
916.483	14587
916.595	14423
916.708	14431
916.82	14473
916.932	14511
917.044	14469
917.156	14438
917.268	14320
917.38	14404
917.491	14324
917.603	14347
917.715	14396
917.826	14377
917.938	14244
918.049	14199
918.161	14271
918.272	14442
918.384	14370
918.495	14237
918.606	14191
918.717	14084
918.828	14233
918.939	14046
919.05	14073
919.161	14103
919.272	13879
919.383	13936
919.494	14024
919.604	14248
919.715	14092
919.826	13989
919.936	14084
920.047	14115
920.157	14081
920.267	14229
920.378	14008
920.488	14054
920.598	14202
920.708	14389
920.818	14088
920.928	14240
921.038	14294
921.148	14408
921.258	14123
921.368	13909
921.477	13826
921.587	13811
921.697	13677
921.806	13780
921.916	13776
922.025	13628
922.134	13487
922.244	13453
922.353	13502
922.462	13381
922.571	13183
922.68	13255
922.789	13091
922.898	13118
923.007	13042
923.116	13164
923.224	13050
923.333	13091
923.442	12840
923.55	12920
923.659	12970
923.767	13095
923.876	12886
923.984	12943
924.092	12829
924.201	12886
924.309	12875
924.417	12886
924.525	12764
924.633	12886
924.741	13723
924.849	12589
924.956	12639
925.064	12582
925.172	12559
925.279	12498
925.387	12604
925.494	12620
925.602	12642
925.709	12658
925.816	12418
925.924	12566
926.031	12593
926.138	12509
926.245	12498
926.352	12540
926.459	12460
926.566	12498
926.673	12365
926.779	12323
926.886	12273
926.993	12239
927.099	12117
927.206	12155
927.312	12087
927.419	12110
927.525	12144
927.631	12155
927.737	12015
927.843	12030
927.95	11874
928.056	11999
928.162	11988
928.267	11923
928.373	12486
928.479	12125
928.585	11824
928.69	11954
928.796	11908
928.901	11821
929.007	11668
929.112	11836
929.218	11695
929.323	11703
929.428	11680
929.533	11870
929.638	11653
929.743	11676
929.848	11718
929.953	11680
930.058	11532
930.163	11341
930.267	11391
930.372	11619
930.477	11337
930.581	11539
930.685	11417
930.79	11299
930.894	11250
930.998	11265
931.103	11452
931.207	11048
931.311	10961
931.415	10824
931.519	10656
931.623	10660
