Data from test_V78500241_901.txt Node
Date: Fri Mar 25 15:16:07 CST 2022
User: usil
Spectrometer: V785-0024
Trigger mode: 0
Integration Time (sec): 4.000000E-1
Scans to average: 1
Nonlinearity correction enabled: false
Boxcar width: 0
Storing dark spectrum: false
XAxis mode: Wavelengths
Number of Pixels in Spectrum: 1024
>>>>>Begin Spectral Data<<<<<
801.071	28261
801.214	28169
801.356	27857
801.499	27842
801.641	27705
801.783	27854
801.926	27884
802.068	27755
802.211	27698
802.353	27713
802.496	27466
802.638	27450
802.78	27420
802.923	27348
803.065	27313
803.208	27443
803.35	27526
803.492	27534
803.635	27652
803.777	27511
803.919	27690
804.061	27816
804.204	27751
804.346	27656
804.488	27504
804.63	27526
804.773	27561
804.915	27732
805.057	27846
805.199	27755
805.341	27656
805.483	27888
805.626	27724
805.768	27800
805.91	27781
806.052	27819
806.194	27717
806.336	28063
806.478	27789
806.62	27808
806.762	27979
806.904	28032
807.046	28413
807.188	28181
807.33	28120
807.472	28242
807.614	28105
807.756	28265
807.898	28082
808.04	28040
808.182	28074
808.324	28169
808.465	28265
808.607	28379
808.749	28424
808.891	28535
809.033	28599
809.174	28481
809.316	28455
809.458	28588
809.6	28451
809.741	28656
809.883	28607
810.025	28763
810.166	28645
810.308	28626
810.45	28691
810.591	28664
810.733	28569
810.875	28474
811.016	28440
811.158	28451
811.299	28550
811.441	28508
811.582	28645
811.724	28474
811.865	28451
812.007	28401
812.148	28401
812.29	28428
812.431	28645
812.573	28828
812.714	28805
812.855	29014
812.997	29227
813.138	29170
813.279	29166
813.421	28923
813.562	29060
813.703	28869
813.845	28584
813.986	28493
814.127	28158
814.268	28109
814.41	28200
814.551	28124
814.692	28230
814.833	28253
814.974	28002
815.115	28188
815.256	27922
815.397	28158
815.539	28063
815.68	28086
815.821	27934
815.962	28070
816.103	27994
816.244	27888
816.385	27949
816.526	27743
816.666	27511
816.807	27614
816.948	27580
817.089	27534
817.23	27481
817.371	27447
817.512	27519
817.653	27431
817.793	27268
817.934	27443
818.075	27576
818.216	27564
818.356	27317
818.497	27439
818.638	27268
818.778	27207
818.919	27298
819.06	27348
819.2	27424
819.341	27431
819.481	27583
819.622	27728
819.762	27762
819.903	27838
820.043	27614
820.184	27488
820.324	27603
820.465	27386
820.605	27587
820.746	27652
820.886	27370
821.026	27587
821.167	27587
821.307	27564
821.447	27526
821.588	27420
821.728	27211
821.868	27119
822.008	26990
822.149	26842
822.289	26948
822.429	26762
822.569	26575
822.709	26617
822.849	26438
822.99	26396
823.13	26400
823.27	26408
823.41	26263
823.55	26176
823.69	26290
823.83	26393
823.97	26221
824.11	26233
824.25	26126
824.389	26092
824.529	26244
824.669	26012
824.809	26415
824.949	26221
825.089	26324
825.228	26126
825.368	26024
825.508	26012
825.648	26058
825.787	26168
825.927	26077
826.067	25947
826.206	26039
826.346	25966
826.485	26035
826.625	26008
826.765	26031
826.904	26096
827.044	25845
827.183	25807
827.323	25746
827.462	25731
827.601	25811
827.741	25677
827.88	25830
828.02	25521
828.159	25753
828.298	25742
828.437	25772
828.577	25727
828.716	25742
828.855	25616
828.994	25483
829.134	25415
829.273	25411
829.412	25396
829.551	25365
829.69	25354
829.829	25468
829.968	25392
830.107	25369
830.246	25483
830.385	25438
830.524	25316
830.663	25354
830.802	25152
830.941	25034
831.08	24954
831.219	25137
831.357	25217
831.496	25343
831.635	25053
831.774	24985
831.913	24878
832.051	24696
832.19	24928
832.329	24852
832.467	24764
832.606	24623
832.744	24642
832.883	24646
833.022	24635
833.16	24734
833.299	24817
833.437	24681
833.576	24627
833.714	24905
833.852	24810
833.991	24692
834.129	24844
834.267	24669
834.406	24719
834.544	24787
834.682	24783
834.821	24798
834.959	24916
835.097	24852
835.235	24863
835.373	24738
835.511	24669
835.65	24646
835.788	24612
835.926	24498
836.064	24490
836.202	24403
836.34	24479
836.478	24760
836.615	24544
836.753	24684
836.891	24749
837.029	24631
837.167	24627
837.305	24509
837.443	24494
837.58	24475
837.718	24540
837.856	24471
837.993	24346
838.131	24346
838.269	24289
838.406	24300
838.544	24289
838.681	24087
838.819	24133
838.956	23973
839.094	23889
839.231	24049
839.369	24015
839.506	24224
839.643	24003
839.781	23946
839.918	23897
840.055	23927
840.193	23870
840.33	23733
840.467	23798
840.604	23817
840.742	24114
840.879	23718
841.016	23703
841.153	23665
841.29	23836
841.427	23729
841.564	23889
841.701	23775
841.838	23775
841.975	23771
842.112	23722
842.249	23627
842.385	23596
842.522	23729
842.659	23676
842.796	23535
842.933	23600
843.069	23585
843.206	23524
843.343	23608
843.479	23649
843.616	23585
843.752	23299
843.889	23334
844.025	23417
844.162	23364
844.298	23573
844.435	23334
844.571	23414
844.708	23334
844.844	23414
844.98	23486
845.117	23410
845.253	23246
845.389	23326
845.525	23181
845.661	23151
845.798	23212
845.934	23136
846.07	22938
846.206	23128
846.342	23269
846.478	23083
846.614	23048
846.75	22782
846.886	22706
847.022	22839
847.158	22927
847.294	22839
847.429	22873
847.565	22740
847.701	23147
847.837	22443
847.972	22516
848.108	22637
848.244	22481
848.379	22478
848.515	22390
848.65	22398
848.786	22436
848.921	22299
849.057	22497
849.192	22497
849.328	22409
849.463	22478
849.598	22386
849.734	22310
849.869	22223
850.004	22246
850.14	22181
850.275	22280
850.41	22101
850.545	22139
850.68	22192
850.815	22253
850.95	22124
851.085	22333
851.22	22257
851.355	22257
851.49	22143
851.625	22226
851.76	22139
851.895	22192
852.03	22040
852.165	22185
852.299	22215
852.434	22135
852.569	22215
852.703	22268
852.838	22188
852.973	22337
853.107	22333
853.242	22116
853.376	22010
853.511	21842
853.645	21994
853.78	22147
853.914	22051
854.048	21857
854.183	21964
854.317	22006
854.451	22143
854.585	22188
854.72	21934
854.854	21949
854.988	21888
855.122	22048
855.256	21846
855.39	22093
855.524	22017
855.658	22074
855.792	22017
855.926	22002
856.06	22029
856.194	22044
856.327	21918
856.461	21888
856.595	21850
856.729	21899
856.862	22143
856.996	21998
857.13	22135
857.263	22040
857.397	22124
857.53	22010
857.664	22048
857.797	22067
857.931	21991
858.064	22082
858.197	22207
858.331	22055
858.464	21953
858.597	21766
858.731	21960
858.864	21918
858.997	21945
859.13	21823
859.263	22029
859.396	22063
859.529	21926
859.662	21983
859.795	21857
859.928	21945
860.061	22188
860.194	22185
860.327	21991
860.46	22040
860.592	22036
860.725	22135
860.858	22055
860.99	21994
861.123	21930
861.256	21979
861.388	21994
861.521	22881
861.653	21808
861.786	21937
861.918	21755
862.05	21873
862.183	21907
862.315	22002
862.447	21865
862.58	21941
862.712	21648
862.844	21648
862.976	21797
863.108	21720
863.24	21998
863.372	21572
863.504	21587
863.636	21629
863.768	21690
863.9	21694
864.032	21709
864.164	21625
864.296	21675
864.428	21800
864.559	21732
864.691	21816
864.823	21766
864.954	21656
865.086	21564
865.217	21587
865.349	21488
865.48	21549
865.612	21625
865.743	21682
865.875	21568
866.006	21587
866.137	21618
866.269	21580
866.4	21450
866.531	21515
866.662	21416
866.793	21557
866.924	21523
867.055	21572
867.186	21557
867.317	21447
867.448	21374
867.579	21420
867.71	21454
867.841	21370
867.972	21462
868.103	21469
868.233	21420
868.364	21462
868.495	21728
868.625	21774
868.756	21899
868.886	21705
869.017	21736
869.147	21812
869.278	21812
869.408	21739
869.539	21804
869.669	21880
869.799	21819
869.929	21911
870.06	21892
870.19	22040
870.32	21945
870.45	22059
870.58	22223
870.71	22310
870.84	22215
870.97	22147
871.1	22097
871.23	22382
871.36	22246
871.489	22242
871.619	22344
871.749	22390
871.879	22299
872.008	22481
872.138	22375
872.267	22310
872.397	22188
872.526	22120
872.656	22219
872.785	22131
872.915	22386
873.044	22500
873.173	22344
873.303	22325
873.432	22318
873.561	22485
873.69	22447
873.819	22424
873.948	22421
874.077	22394
874.206	22268
874.335	22322
874.464	22394
874.593	22500
874.722	22504
874.851	22645
874.979	22538
875.108	22672
875.237	22512
875.365	22523
875.494	22481
875.623	22626
875.751	22375
875.88	22478
876.008	22675
876.136	22656
876.265	22961
876.393	22828
876.521	22858
876.65	23014
876.778	22900
876.906	22889
877.034	22793
877.162	22904
877.29	22946
877.418	22835
877.546	22889
877.674	22984
877.802	22816
877.93	22850
878.058	22778
878.185	22653
878.313	22744
878.441	22881
878.568	22645
878.696	22793
878.824	22919
878.951	23060
879.079	23162
879.206	23303
879.333	23041
879.461	22984
879.588	22968
879.715	23003
879.842	23124
879.97	22896
880.097	22763
880.224	22763
880.351	22862
880.478	22828
880.605	22660
880.732	22721
880.859	22938
880.986	22675
881.112	22672
881.239	22580
881.366	22493
881.493	22363
881.619	22238
881.746	22280
881.872	22234
881.999	22219
882.125	22120
882.252	22322
882.378	22200
882.505	22348
882.631	22154
882.757	21899
882.883	22211
883.01	21911
883.136	21956
883.262	21861
883.388	21884
883.514	21892
883.64	22131
883.766	21686
883.892	21759
884.018	21610
884.143	21972
884.269	21998
884.395	21709
884.52	21564
884.646	21694
884.772	21614
884.897	21580
885.023	21625
885.148	21793
885.274	21770
885.399	21732
885.524	21564
885.65	21701
885.775	21511
885.9	21431
886.025	21576
886.15	21755
886.275	21538
886.4	21507
886.525	21519
886.65	21412
886.775	21595
886.9	21633
887.025	21717
887.149	21652
887.274	21412
887.399	21298
887.523	21367
887.648	21359
887.773	21313
887.897	21401
888.021	21412
888.146	21329
888.27	21412
888.395	21435
888.519	21393
888.643	21359
888.767	21393
888.891	21359
889.015	21154
889.139	21199
889.263	21195
889.387	21222
889.511	21454
889.635	21306
889.759	21207
889.883	21104
890.006	21222
890.13	21264
890.254	21055
890.377	21195
890.501	20956
890.624	20963
890.748	20880
890.871	20918
890.995	20659
891.118	20632
891.241	20590
891.364	20834
891.488	20880
891.611	20739
891.734	20727
891.857	20651
891.98	20739
892.103	20762
892.226	20819
892.349	20670
892.471	20571
892.594	20598
892.717	20708
892.839	20568
892.962	20644
893.085	20625
893.207	20644
893.33	20571
893.452	20552
893.575	20716
893.697	20648
893.819	20735
893.941	20777
894.064	20743
894.186	20499
894.308	20609
894.43	20693
894.552	20640
894.674	20667
894.796	20419
894.918	20564
895.04	20568
895.161	20663
895.283	20716
895.405	20484
895.526	20667
895.648	20514
895.769	20598
895.891	20659
896.012	20712
896.134	20701
896.255	20625
896.376	20465
896.498	20609
896.619	20613
896.74	20648
896.861	20670
896.982	20842
897.103	20948
897.224	20906
897.345	20872
897.466	20781
897.587	20914
897.708	20986
897.828	20788
897.949	20838
898.07	20617
898.19	20632
898.311	20830
898.431	20815
898.552	20804
898.672	20823
898.792	20861
898.913	20754
899.033	20765
899.153	20602
899.273	20537
899.393	20499
899.513	20701
899.633	20560
899.753	20583
899.873	20503
899.993	20598
900.113	20488
900.232	20499
900.352	20381
900.472	20377
900.591	20206
900.711	20256
900.83	20229
900.95	20351
901.069	20446
901.189	20240
901.308	20035
901.427	19959
901.546	19955
901.665	19928
901.784	19913
901.904	19738
902.023	19734
902.141	19487
902.26	19464
902.379	19540
902.498	19438
902.617	19403
902.735	19468
902.854	19316
902.973	19263
903.091	19084
903.21	19065
903.328	19038
903.446	18989
903.565	18905
903.683	18852
903.801	18741
903.919	18909
904.038	18806
904.156	18722
904.274	18677
904.392	18650
904.51	18684
904.627	18646
904.745	18665
904.863	18669
904.981	18353
905.098	18327
905.216	18380
905.334	18365
905.451	18437
905.569	18281
905.686	18270
905.803	18338
905.921	18213
906.038	18114
906.155	18163
906.272	17980
906.389	18003
906.506	17832
906.623	17969
906.74	17821
906.857	17828
906.974	17657
907.091	17901
907.208	17897
907.324	17866
907.441	17843
907.557	17547
907.674	17554
907.79	17429
907.907	17615
908.023	17699
908.139	17528
908.256	17497
908.372	17482
908.488	17269
908.604	17383
908.72	17261
908.836	17288
908.952	17284
909.068	17223
909.184	17334
909.3	17197
909.415	17250
909.531	17318
909.647	17056
909.762	16987
909.878	16900
909.993	16911
910.108	16934
910.224	16957
910.339	16908
910.454	16816
910.57	16839
910.685	16664
910.8	16961
910.915	16923
911.03	16763
911.145	16645
911.259	16592
911.374	16660
911.489	16379
911.604	16474
911.718	16287
911.833	16295
911.947	16177
912.062	16101
912.176	16268
912.291	16246
912.405	16200
912.519	16519
912.633	16497
912.748	16356
912.862	16329
912.976	16101
913.09	15968
913.204	16021
913.318	16128
913.431	16234
913.545	16226
913.659	16150
913.772	16101
913.886	15983
914	15915
914.113	15930
914.226	15949
914.34	15968
914.453	15774
914.566	15960
914.68	15762
914.793	15797
914.906	15530
915.019	15580
915.132	15496
915.245	15526
915.358	15595
915.47	15564
915.583	15504
915.696	15488
915.809	15667
915.921	15633
916.034	15492
916.146	15416
916.259	15447
916.371	15466
916.483	15439
916.595	15237
916.708	15416
916.82	15306
916.932	15310
917.044	15317
917.156	15203
917.268	15123
917.38	15241
917.491	15089
917.603	15119
917.715	15157
917.826	15192
917.938	15043
918.049	14906
918.161	15009
918.272	15245
918.384	15157
918.495	14967
918.606	14868
918.717	14864
918.828	14883
918.939	14925
919.05	14815
919.161	14838
919.272	14610
919.383	14876
919.494	14815
919.604	15028
919.715	14792
919.826	14826
919.936	14853
920.047	15020
920.157	14815
920.267	14967
920.378	14899
920.488	14838
920.598	14963
920.708	15146
920.818	14925
920.928	14925
921.038	15062
921.148	15085
921.258	14800
921.368	14705
921.477	14610
921.587	14613
921.697	14415
921.806	14492
921.916	14366
922.025	14195
922.134	14233
922.244	14214
922.353	14225
922.462	14103
922.571	14012
922.68	13833
922.789	13795
922.898	13830
923.007	13856
923.116	13833
923.224	13818
923.333	13769
923.442	13723
923.55	13693
923.659	13708
923.767	13742
923.876	13575
923.984	13731
924.092	13480
924.201	13643
924.309	13544
924.417	13655
924.525	13525
924.633	13460
924.741	14339
924.849	13346
924.956	13415
925.064	13331
925.172	13270
925.279	13206
925.387	13282
925.494	13251
925.602	13346
925.709	13301
925.816	13129
925.924	13255
926.031	13202
926.138	13141
926.245	13381
926.352	13160
926.459	13149
926.566	13297
926.673	13118
926.779	13069
926.886	12989
926.993	12795
927.099	12829
927.206	12703
927.312	12753
927.419	12852
927.525	12738
927.631	12867
927.737	12730
927.843	12612
927.95	12585
928.056	12688
928.162	12642
928.267	12662
928.373	13297
928.479	12703
928.585	12426
928.69	12551
928.796	12692
928.901	12471
929.007	12266
929.112	12528
929.218	12357
929.323	12380
929.428	12399
929.533	12422
929.638	12194
929.743	12308
929.848	12311
929.953	12308
930.058	12110
930.163	12068
930.267	12049
930.372	12254
930.477	11965
930.581	12117
930.685	12079
930.79	11931
930.894	11961
930.998	11893
931.103	12041
931.207	11592
931.311	11615
931.415	11452
931.519	11414
931.623	11239
