Data from test_V78500241_816.txt Node
Date: Fri Mar 25 15:15:32 CST 2022
User: usil
Spectrometer: V785-0024
Trigger mode: 0
Integration Time (sec): 4.000000E-1
Scans to average: 1
Nonlinearity correction enabled: false
Boxcar width: 0
Storing dark spectrum: false
XAxis mode: Wavelengths
Number of Pixels in Spectrum: 1024
>>>>>Begin Spectral Data<<<<<
801.071	28329
801.214	28329
801.356	28090
801.499	27956
801.641	27941
801.783	27873
801.926	27972
802.068	27823
802.211	27804
802.353	27797
802.496	27443
802.638	27435
802.78	27485
802.923	27485
803.065	27534
803.208	27564
803.35	27572
803.492	27675
803.635	27580
803.777	27557
803.919	27732
804.061	28010
804.204	27762
804.346	27644
804.488	27732
804.63	27633
804.773	27603
804.915	27732
805.057	27800
805.199	27762
805.341	27850
805.483	27850
805.626	27876
805.768	27797
805.91	27838
806.052	27960
806.194	27835
806.336	28074
806.478	27968
806.62	27873
806.762	27941
806.904	28173
807.046	28405
807.188	28276
807.33	28211
807.472	28401
807.614	28211
807.756	28352
807.898	28261
808.04	28097
808.182	28112
808.324	28192
808.465	28276
808.607	28367
808.749	28466
808.891	28618
809.033	28683
809.174	28565
809.316	28516
809.458	28428
809.6	28580
809.741	28767
809.883	28839
810.025	28782
810.166	28797
810.308	28873
810.45	28767
810.591	28850
810.733	28622
810.875	28550
811.016	28531
811.158	28478
811.299	28668
811.441	28721
811.582	28733
811.724	28531
811.865	28603
812.007	28474
812.148	28569
812.29	28565
812.431	28885
812.573	28953
812.714	28915
812.855	29105
812.997	29185
813.138	29250
813.279	29299
813.421	29083
813.562	29166
813.703	28915
813.845	28904
813.986	28634
814.127	28455
814.268	28291
814.41	28382
814.551	28188
814.692	28375
814.833	28246
814.974	28234
815.115	28394
815.256	28173
815.397	28158
815.539	28238
815.68	28067
815.821	27983
815.962	28063
816.103	28048
816.244	27926
816.385	27838
816.526	27747
816.666	27663
816.807	27530
816.948	27682
817.089	27701
817.23	27580
817.371	27694
817.512	27637
817.653	27720
817.793	27564
817.934	27576
818.075	27682
818.216	27686
818.356	27599
818.497	27439
818.638	27386
818.778	27317
818.919	27401
819.06	27462
819.2	27511
819.341	27500
819.481	27686
819.622	27808
819.762	27831
819.903	27884
820.043	27751
820.184	27770
820.324	27660
820.465	27762
820.605	27709
820.746	27682
820.886	27526
821.026	27694
821.167	27614
821.307	27724
821.447	27496
821.588	27534
821.728	27367
821.868	27180
822.008	27138
822.149	27013
822.289	26842
822.429	26861
822.569	26720
822.709	26686
822.849	26625
822.99	26575
823.13	26530
823.27	26602
823.41	26450
823.55	26389
823.69	26431
823.83	26320
823.97	26450
824.11	26164
824.25	26317
824.389	26328
824.529	26290
824.669	26153
824.809	26484
824.949	26256
825.089	26423
825.228	26393
825.368	26084
825.508	26126
825.648	26199
825.787	26145
825.927	26130
826.067	26111
826.206	26016
826.346	26039
826.485	26092
826.625	25986
826.765	26362
826.904	26100
827.044	25883
827.183	25917
827.323	25822
827.462	25826
827.601	25833
827.741	25784
827.88	25871
828.02	25715
828.159	25799
828.298	25845
828.437	25940
828.577	25727
828.716	26008
828.855	25674
828.994	25578
829.134	25613
829.273	25605
829.412	25449
829.551	25396
829.69	25392
829.829	25628
829.968	25670
830.107	25476
830.246	25400
830.385	25472
830.524	25422
830.663	25381
830.802	25327
830.941	25190
831.08	25107
831.219	25350
831.357	25133
831.496	25289
831.635	25236
831.774	25118
831.913	25095
832.051	24890
832.19	24905
832.329	24924
832.467	24783
832.606	24749
832.744	24745
832.883	24802
833.022	24764
833.16	24825
833.299	24886
833.437	24745
833.576	24875
833.714	24989
833.852	24958
833.991	24913
834.129	25069
834.267	24897
834.406	24894
834.544	24878
834.682	24924
834.821	24802
834.959	24989
835.097	24875
835.235	24779
835.373	24745
835.511	24795
835.65	24627
835.788	24635
835.926	24521
836.064	24528
836.202	24513
836.34	24719
836.478	24681
836.615	24532
836.753	24760
836.891	24719
837.029	24722
837.167	24612
837.305	24509
837.443	24528
837.58	24547
837.718	24620
837.856	24490
837.993	24372
838.131	24528
838.269	24369
838.406	24475
838.544	24220
838.681	24148
838.819	24205
838.956	23961
839.094	23916
839.231	24057
839.369	24285
839.506	24407
839.643	24277
839.781	24011
839.918	23870
840.055	23980
840.193	23889
840.33	23999
840.467	23931
840.604	23931
840.742	24079
840.879	23741
841.016	23893
841.153	23843
841.29	24030
841.427	23786
841.564	24057
841.701	23908
841.838	23847
841.975	23855
842.112	23779
842.249	23577
842.385	23570
842.522	23840
842.659	23786
842.796	23554
842.933	23729
843.069	23554
843.206	23627
843.343	23680
843.479	23786
843.616	23668
843.752	23463
843.889	23486
844.025	23661
844.162	23337
844.298	23516
844.435	23471
844.571	23356
844.708	23478
844.844	23623
844.98	23512
845.117	23539
845.253	23372
845.389	23284
845.525	23341
845.661	23307
845.798	23280
845.934	23204
846.07	23159
846.206	23208
846.342	23307
846.478	23105
846.614	22930
846.75	22809
846.886	22934
847.022	23003
847.158	22881
847.294	23018
847.429	22850
847.565	22896
847.701	23048
847.837	22577
847.972	22443
848.108	22694
848.244	22645
848.379	22573
848.515	22398
848.65	22497
848.786	22432
848.921	22546
849.057	22668
849.192	22577
849.328	22409
849.463	22405
849.598	22424
849.734	22455
849.869	22455
850.004	22310
850.14	22367
850.275	22268
850.41	22082
850.545	22188
850.68	22234
850.815	22223
850.95	22284
851.085	22341
851.22	22390
851.355	22219
851.49	22177
851.625	22192
851.76	22249
851.895	22109
852.03	22078
852.165	22230
852.299	22325
852.434	22143
852.569	22234
852.703	22257
852.838	22257
852.973	22367
853.107	22413
853.242	22150
853.376	22040
853.511	21964
853.645	21987
853.78	22226
853.914	22036
854.048	21949
854.183	22017
854.317	22105
854.451	22177
854.585	22116
854.72	22097
854.854	22181
854.988	21926
855.122	22120
855.256	21926
855.39	21964
855.524	22162
855.658	22124
855.792	22101
855.926	22044
856.06	22116
856.194	22059
856.327	22013
856.461	21960
856.595	21922
856.729	21998
856.862	22131
856.996	22120
857.13	22063
857.263	22143
857.397	22242
857.53	22090
857.664	22017
857.797	22204
857.931	22204
858.064	22173
858.197	22109
858.331	22010
858.464	22105
858.597	21880
858.731	22017
858.864	21956
858.997	21911
859.13	22188
859.263	22010
859.396	22230
859.529	22036
859.662	22002
859.795	22044
859.928	22021
860.061	22101
860.194	22234
860.327	22226
860.46	22128
860.592	22147
860.725	22265
860.858	22139
860.99	22051
861.123	22002
861.256	22032
861.388	22006
861.521	22839
861.653	21835
861.786	21785
861.918	21892
862.05	21781
862.183	21998
862.315	21945
862.447	22135
862.58	21964
862.712	21797
862.844	21660
862.976	21755
863.108	21781
863.24	22078
863.372	21686
863.504	21732
863.636	21732
863.768	21766
863.9	21861
864.032	21663
864.164	21682
864.296	21762
864.428	21854
864.559	21846
864.691	21911
864.823	21762
864.954	21736
865.086	21774
865.217	21553
865.349	21587
865.48	21713
865.612	21606
865.743	21755
865.875	21644
866.006	21603
866.137	21705
866.269	21793
866.4	21534
866.531	21542
866.662	21587
866.793	21591
866.924	21523
867.055	21519
867.186	21572
867.317	21473
867.448	21466
867.579	21553
867.71	21443
867.841	21378
867.972	21625
868.103	21515
868.233	21633
868.364	21435
868.495	21694
868.625	21709
868.756	21991
868.886	21648
869.017	21842
869.147	21960
869.278	21934
869.408	21797
869.539	21899
869.669	21907
869.799	21762
869.929	21907
870.06	21884
870.19	22086
870.32	22185
870.45	22070
870.58	22181
870.71	22204
870.84	22314
870.97	22253
871.1	22139
871.23	22390
871.36	22436
871.489	22185
871.619	22344
871.749	22348
871.879	22470
872.008	22542
872.138	22443
872.267	22329
872.397	22188
872.526	22310
872.656	22318
872.785	22219
872.915	22443
873.044	22341
873.173	22535
873.303	22352
873.432	22421
873.561	22554
873.69	22470
873.819	22352
873.948	22554
874.077	22379
874.206	22344
874.335	22451
874.464	22611
874.593	22649
874.722	22546
874.851	22588
874.979	22618
875.108	22577
875.237	22599
875.365	22447
875.494	22569
875.623	22782
875.751	22451
875.88	22656
876.008	22771
876.136	22797
876.265	23044
876.393	23086
876.521	23064
876.65	23006
876.778	23064
876.906	22892
877.034	23075
877.162	22999
877.29	22820
877.418	23075
877.546	22980
877.674	22847
877.802	22896
877.93	22847
878.058	22961
878.185	22694
878.313	22869
878.441	22938
878.568	22877
878.696	22949
878.824	22881
878.951	23056
879.079	23033
879.206	23151
879.333	23071
879.461	22991
879.588	22991
879.715	23067
879.842	23277
879.97	23006
880.097	22790
880.224	22774
880.351	22927
880.478	22843
880.605	22710
880.732	22702
880.859	23010
880.986	22744
881.112	22759
881.239	22778
881.366	22538
881.493	22405
881.619	22253
881.746	22341
881.872	22329
881.999	22238
882.125	22291
882.252	22455
882.378	22333
882.505	22474
882.631	22181
882.757	22063
882.883	22185
883.01	22036
883.136	21915
883.262	21861
883.388	21899
883.514	22010
883.64	22040
883.766	21975
883.892	21827
884.018	21785
884.143	21987
884.269	22059
884.395	21705
884.52	21690
884.646	21713
884.772	21496
884.897	21583
885.023	21755
885.148	21682
885.274	21800
885.399	21873
885.524	21743
885.65	21660
885.775	21667
885.9	21679
886.025	21660
886.15	21800
886.275	21755
886.4	21591
886.525	21675
886.65	21534
886.775	21561
886.9	21751
887.025	21850
887.149	21622
887.274	21481
887.399	21424
887.523	21450
887.648	21382
887.773	21370
887.897	21473
888.021	21534
888.146	21378
888.27	21462
888.395	21557
888.519	21447
888.643	21515
888.767	21424
888.891	21321
889.015	21211
889.139	21340
889.263	21260
889.387	21268
889.511	21583
889.635	21401
889.759	21264
889.883	21237
890.006	21298
890.13	21260
890.254	21165
890.377	21077
890.501	21024
890.624	20872
890.748	21051
890.871	20864
890.995	20720
891.118	20849
891.241	20819
891.364	20902
891.488	20868
891.611	20807
891.734	20880
891.857	20781
891.98	20834
892.103	20667
892.226	20800
892.349	20743
892.471	20609
892.594	20689
892.717	20804
892.839	20667
892.962	20670
893.085	20796
893.207	20667
893.33	20518
893.452	20507
893.575	20750
893.697	20606
893.819	20880
893.941	20800
894.064	20872
894.186	20613
894.308	20571
894.43	20708
894.552	20906
894.674	20735
894.796	20514
894.918	20716
895.04	20564
895.161	20693
895.283	20609
895.405	20575
895.526	20746
895.648	20746
895.769	20769
895.891	20651
896.012	20804
896.134	20739
896.255	20720
896.376	20693
896.498	20587
896.619	20716
896.74	20705
896.861	20651
896.982	20929
897.103	21047
897.224	20921
897.345	20929
897.466	20815
897.587	20788
897.708	20883
897.828	20982
897.949	20785
898.07	20670
898.19	20758
898.311	20967
898.431	20796
898.552	20842
898.672	20933
898.792	20979
898.913	20880
899.033	20632
899.153	20625
899.273	20518
899.393	20667
899.513	20670
899.633	20571
899.753	20606
899.873	20590
899.993	20606
900.113	20526
900.232	20644
900.352	20457
900.472	20419
900.591	20309
900.711	20404
900.83	20218
900.95	20499
901.069	20385
901.189	20240
901.308	20027
901.427	19993
901.546	19963
901.665	19917
901.784	20012
901.904	19883
902.023	19849
902.141	19624
902.26	19468
902.379	19578
902.498	19582
902.617	19533
902.735	19499
902.854	19483
902.973	19381
903.091	19114
903.21	19129
903.328	19160
903.446	18985
903.565	18939
903.683	19061
903.801	18852
903.919	18764
904.038	18844
904.156	18798
904.274	18825
904.392	18585
904.51	18646
904.627	18646
904.745	18707
904.863	18700
904.981	18528
905.098	18376
905.216	18262
905.334	18471
905.451	18433
905.569	18365
905.686	18410
905.803	18308
905.921	18148
906.038	18247
906.155	18209
906.272	18068
906.389	18019
906.506	17866
906.623	17980
906.74	17897
906.857	17885
906.974	17802
907.091	17885
907.208	18053
907.324	17901
907.441	17661
907.557	17600
907.674	17691
907.79	17528
907.907	17558
908.023	17653
908.139	17627
908.256	17600
908.372	17467
908.488	17436
908.604	17364
908.72	17288
908.836	17364
908.952	17140
909.068	17334
909.184	17391
909.3	17315
909.415	17395
909.531	17250
909.647	17052
909.762	17117
909.878	16965
909.993	17056
910.108	17006
910.224	16934
910.339	16930
910.454	16854
910.57	16759
910.685	16702
910.8	16991
910.915	16942
911.03	16774
911.145	16698
911.259	16516
911.374	16588
911.489	16573
911.604	16409
911.718	16310
911.833	16207
911.947	16291
912.062	16082
912.176	16291
912.291	16268
912.405	16413
912.519	16455
912.633	16584
912.748	16314
912.862	16253
912.976	16032
913.09	16063
913.204	16112
913.318	16090
913.431	16280
913.545	16303
913.659	16204
913.772	16078
913.886	15998
914	15956
914.113	15987
914.226	16093
914.34	15994
914.453	15880
914.566	15880
914.68	15842
914.793	15728
914.906	15736
915.019	15481
915.132	15507
915.245	15534
915.358	15553
915.47	15553
915.583	15553
915.696	15614
915.809	15667
915.921	15705
916.034	15447
916.146	15431
916.259	15428
916.371	15591
916.483	15435
916.595	15275
916.708	15378
916.82	15424
916.932	15275
917.044	15264
917.156	15211
917.268	15199
917.38	15192
917.491	15165
917.603	15184
917.715	15157
917.826	15252
917.938	15043
918.049	15001
918.161	15055
918.272	15233
918.384	15214
918.495	15157
918.606	14971
918.717	14845
918.828	14994
918.939	15032
919.05	14830
919.161	14914
919.272	14720
919.383	14678
919.494	14872
919.604	15169
919.715	14899
919.826	14796
919.936	14857
920.047	14902
920.157	14902
920.267	15032
920.378	14906
920.488	14811
920.598	14963
920.708	15154
920.818	15028
920.928	15009
921.038	15093
921.148	15241
921.258	14834
921.368	14632
921.477	14594
921.587	14640
921.697	14511
921.806	14678
921.916	14579
922.025	14374
922.134	14237
922.244	14199
922.353	14271
922.462	14130
922.571	14092
922.68	14016
922.789	13864
922.898	13989
923.007	13921
923.116	13921
923.224	13833
923.333	13852
923.442	13841
923.55	13788
923.659	13704
923.767	13898
923.876	13658
923.984	13803
924.092	13639
924.201	13628
924.309	13719
924.417	13651
924.525	13655
924.633	13639
924.741	14301
924.849	13422
924.956	13510
925.064	13335
925.172	13255
925.279	13350
925.387	13381
925.494	13316
925.602	13407
925.709	13377
925.816	13255
925.924	13312
926.031	13320
926.138	13266
926.245	13312
926.352	13145
926.459	13232
926.566	13285
926.673	13160
926.779	13107
926.886	13114
926.993	12909
927.099	12958
927.206	12802
927.312	12802
927.419	12871
927.525	12859
927.631	12932
927.737	12791
927.843	12768
927.95	12566
928.056	12722
928.162	12722
928.267	12753
928.373	13293
928.479	12753
928.585	12536
928.69	12677
928.796	12684
928.901	12547
929.007	12452
929.112	12532
929.218	12471
929.323	12490
929.428	12410
929.533	12528
929.638	12407
929.743	12281
929.848	12372
929.953	12292
930.058	12175
930.163	12060
930.267	12182
930.372	12133
930.477	11996
930.581	12254
930.685	12068
930.79	11885
930.894	11977
930.998	11996
931.103	12041
931.207	11760
931.311	11562
931.415	11478
931.519	11398
931.623	11231
