Data from test_V78500241_1598.txt Node
Date: Fri Mar 25 15:20:59 CST 2022
User: usil
Spectrometer: V785-0024
Trigger mode: 0
Integration Time (sec): 4.000000E-1
Scans to average: 1
Nonlinearity correction enabled: false
Boxcar width: 0
Storing dark spectrum: false
XAxis mode: Wavelengths
Number of Pixels in Spectrum: 1024
>>>>>Begin Spectral Data<<<<<
801.071	27819
801.214	27808
801.356	27682
801.499	27583
801.641	27447
801.783	27450
801.926	27530
802.068	27458
802.211	27374
802.353	27298
802.496	27119
802.638	27096
802.78	27176
802.923	26994
803.065	26868
803.208	26910
803.35	27154
803.492	27176
803.635	27279
803.777	27222
803.919	27268
804.061	27663
804.204	27317
804.346	27344
804.488	27275
804.63	27222
804.773	27135
804.915	27154
805.057	27466
805.199	27298
805.341	27367
805.483	27458
805.626	27439
805.768	27329
805.91	27313
806.052	27424
806.194	27424
806.336	27595
806.478	27454
806.62	27530
806.762	27389
806.904	27614
807.046	27953
807.188	27739
807.33	27812
807.472	28051
807.614	27789
807.756	27861
807.898	27720
808.04	27850
808.182	27705
808.324	27675
808.465	27686
808.607	27903
808.749	28067
808.891	28128
809.033	28226
809.174	28177
809.316	27994
809.458	28109
809.6	27994
809.741	28131
809.883	28135
810.025	28177
810.166	28261
810.308	28390
810.45	28188
810.591	28169
810.733	28006
810.875	28025
811.016	28002
811.158	27979
811.299	28177
811.441	28048
811.582	28192
811.724	28173
811.865	28112
812.007	27945
812.148	28051
812.29	28101
812.431	28303
812.573	28455
812.714	28497
812.855	28474
812.997	28630
813.138	28786
813.279	28755
813.421	28599
813.562	28500
813.703	28344
813.845	28265
813.986	28013
814.127	27873
814.268	27671
814.41	27679
814.551	27762
814.692	27671
814.833	27641
814.974	27743
815.115	27911
815.256	27686
815.397	27728
815.539	27622
815.68	27625
815.821	27462
815.962	27553
816.103	27587
816.244	27454
816.385	27214
816.526	27218
816.666	27112
816.807	26982
816.948	27096
817.089	27188
817.23	27085
817.371	26838
817.512	26781
817.653	26960
817.793	27032
817.934	26979
818.075	27039
818.216	26956
818.356	26929
818.497	26933
818.638	26758
818.778	26708
818.919	26644
819.06	26834
819.2	26819
819.341	27036
819.481	27017
819.622	27233
819.762	27408
819.903	27146
820.043	27211
820.184	27112
820.324	27154
820.465	27294
820.605	27017
820.746	27077
820.886	27028
821.026	27150
821.167	27089
821.307	27138
821.447	27024
821.588	26956
821.728	26887
821.868	26682
822.008	26511
822.149	26522
822.289	26514
822.429	26366
822.569	26096
822.709	26088
822.849	26031
822.99	25970
823.13	25925
823.27	25986
823.41	25856
823.55	25731
823.69	25784
823.83	25879
823.97	25693
824.11	25624
824.25	25609
824.389	25693
824.529	25552
824.669	25620
824.809	25658
824.949	25723
825.089	25689
825.228	25670
825.368	25491
825.508	25552
825.648	25472
825.787	25403
825.927	25514
826.067	25453
826.206	25457
826.346	25540
826.485	25472
826.625	25616
826.765	25499
826.904	25514
827.044	25228
827.183	25198
827.323	25190
827.462	25145
827.601	25251
827.741	25198
827.88	25255
828.02	25156
828.159	25198
828.298	25168
828.437	25198
828.577	25114
828.716	25232
828.855	25114
828.994	24958
829.134	24867
829.273	24916
829.412	24806
829.551	24787
829.69	24985
829.829	25023
829.968	25004
830.107	25069
830.246	24939
830.385	24939
830.524	24787
830.663	24696
830.802	24639
830.941	24620
831.08	24448
831.219	24608
831.357	24540
831.496	24677
831.635	24536
831.774	24494
831.913	24494
832.051	24426
832.19	24277
832.329	24369
832.467	24330
832.606	24098
832.744	24102
832.883	24258
833.022	24254
833.16	24194
833.299	24152
833.437	24205
833.576	24327
833.714	24228
833.852	24380
833.991	24174
834.129	24414
834.267	24155
834.406	24201
834.544	24266
834.682	24277
834.821	24148
834.959	24456
835.097	24144
835.235	24353
835.373	24155
835.511	24171
835.65	24178
835.788	24060
835.926	24003
836.064	23866
836.202	23984
836.34	24064
836.478	24228
836.615	24098
836.753	24087
836.891	24201
837.029	23965
837.167	23961
837.305	24072
837.443	23916
837.58	23790
837.718	23950
837.856	23901
837.993	23783
838.131	23988
838.269	23764
838.406	23836
838.544	23779
838.681	23581
838.819	23600
838.956	23292
839.094	23524
839.231	23482
839.369	23627
839.506	23893
839.643	23638
839.781	23303
839.918	23379
840.055	23387
840.193	23284
840.33	23292
840.467	23356
840.604	23315
840.742	23455
840.879	23181
841.016	23265
841.153	23185
841.29	23528
841.427	23326
841.564	23303
841.701	23220
841.838	23307
841.975	23185
842.112	23174
842.249	23208
842.385	22980
842.522	23231
842.659	23109
842.796	23143
842.933	23060
843.069	23083
843.206	23086
843.343	23086
843.479	23128
843.616	23056
843.752	22904
843.889	22782
844.025	22980
844.162	22847
844.298	22976
844.435	22869
844.571	22736
844.708	22877
844.844	22896
844.98	22938
845.117	22987
845.253	22733
845.389	22664
845.525	22706
845.661	22713
845.798	22527
845.934	22592
846.07	22550
846.206	22565
846.342	22653
846.478	22565
846.614	22363
846.75	22249
846.886	22360
847.022	22348
847.158	22394
847.294	22375
847.429	22303
847.565	22265
847.701	22523
847.837	22131
847.972	22006
848.108	22169
848.244	22063
848.379	22017
848.515	21800
848.65	21831
848.786	21903
848.921	21930
849.057	22017
849.192	21964
849.328	21888
849.463	21850
849.598	21838
849.734	21766
849.869	21660
850.004	21667
850.14	21732
850.275	21751
850.41	21580
850.545	21606
850.68	21667
850.815	21698
850.95	21549
851.085	21854
851.22	21789
851.355	21686
851.49	21686
851.625	21599
851.76	21606
851.895	21473
852.03	21599
852.165	21698
852.299	21679
852.434	21686
852.569	21682
852.703	21553
852.838	21660
852.973	21713
853.107	21724
853.242	21473
853.376	21606
853.511	21340
853.645	21466
853.78	21519
853.914	21542
854.048	21447
854.183	21397
854.317	21511
854.451	21595
854.585	21545
854.72	21443
854.854	21515
854.988	21340
855.122	21477
855.256	21397
855.39	21397
855.524	21477
855.658	21500
855.792	21564
855.926	21477
856.06	21454
856.194	21481
856.327	21428
856.461	21359
856.595	21435
856.729	21485
856.862	21553
856.996	21587
857.13	21538
857.263	21652
857.397	21500
857.53	21466
857.664	21542
857.797	21561
857.931	21488
858.064	21530
858.197	21576
858.331	21367
858.464	21332
858.597	21268
858.731	21405
858.864	21397
858.997	21462
859.13	21488
859.263	21408
859.396	21545
859.529	21526
859.662	21367
859.795	21233
859.928	21397
860.061	21534
860.194	21724
860.327	21485
860.46	21526
860.592	21580
860.725	21477
860.858	21622
860.99	21530
861.123	21515
861.256	21428
861.388	21386
861.521	22112
861.653	21272
861.786	21195
861.918	21420
862.05	21302
862.183	21344
862.315	21428
862.447	21515
862.58	21431
862.712	21207
862.844	21074
862.976	21256
863.108	21184
863.24	21568
863.372	21020
863.504	21260
863.636	21173
863.768	21252
863.9	21112
864.032	21211
864.164	21165
864.296	21188
864.428	21195
864.559	21275
864.691	21230
864.823	21233
864.954	21096
865.086	21119
865.217	21043
865.349	21036
865.48	20971
865.612	21043
865.743	21207
865.875	21024
866.006	20944
866.137	21180
866.269	21096
866.4	21104
866.531	21100
866.662	20876
866.793	20979
866.924	21089
867.055	21039
867.186	20982
867.317	20902
867.448	21013
867.579	20975
867.71	20899
867.841	20868
867.972	21077
868.103	21001
868.233	21070
868.364	20979
868.495	21100
868.625	21272
868.756	21447
868.886	21119
869.017	21302
869.147	21268
869.278	21275
869.408	21188
869.539	21230
869.669	21310
869.799	21268
869.929	21336
870.06	21306
870.19	21663
870.32	21557
870.45	21530
870.58	21500
870.71	21644
870.84	21717
870.97	21694
871.1	21633
871.23	21816
871.36	21797
871.489	21793
871.619	21739
871.749	21831
871.879	21937
872.008	21991
872.138	21899
872.267	21755
872.397	21743
872.526	21660
872.656	21606
872.785	21682
872.915	21945
873.044	21854
873.173	21850
873.303	21903
873.432	21823
873.561	21903
873.69	21895
873.819	21701
873.948	21835
874.077	21884
874.206	21759
874.335	21781
874.464	21987
874.593	22059
874.722	21953
874.851	22090
874.979	22036
875.108	22162
875.237	21972
875.365	21945
875.494	21994
875.623	22067
875.751	21991
875.88	22124
876.008	22268
876.136	22295
876.265	22466
876.393	22649
876.521	22459
876.65	22478
876.778	22436
876.906	22447
877.034	22352
877.162	22398
877.29	22394
877.418	22443
877.546	22443
877.674	22375
877.802	22466
877.93	22500
878.058	22344
878.185	22356
878.313	22424
878.441	22398
878.568	22318
878.696	22440
878.824	22459
878.951	22455
879.079	22710
879.206	22763
879.333	22603
879.461	22436
879.588	22504
879.715	22698
879.842	22816
879.97	22382
880.097	22238
880.224	22207
880.351	22268
880.478	22242
880.605	22185
880.732	22242
880.859	22447
880.986	22211
881.112	22128
881.239	22261
881.366	22017
881.493	21937
881.619	21808
881.746	21808
881.872	21816
881.999	21728
882.125	21759
882.252	21838
882.378	21778
882.505	21869
882.631	21793
882.757	21507
882.883	21614
883.01	21500
883.136	21496
883.262	21329
883.388	21416
883.514	21507
883.64	21481
883.766	21351
883.892	21241
884.018	21245
884.143	21386
884.269	21466
884.395	21203
884.52	21096
884.646	21100
884.772	21020
884.897	20998
885.023	21173
885.148	21233
885.274	21275
885.399	21199
885.524	21180
885.65	21260
885.775	21077
885.9	21192
886.025	21222
886.15	21241
886.275	21161
886.4	21028
886.525	21116
886.65	21222
886.775	21055
886.9	21188
887.025	21351
887.149	21123
887.274	20823
887.399	20994
887.523	20895
887.648	20830
887.773	20804
887.897	21017
888.021	20933
888.146	20994
888.27	20994
888.395	21104
888.519	20925
888.643	20918
888.767	21051
888.891	21017
889.015	20697
889.139	20731
889.263	20758
889.387	20883
889.511	20921
889.635	20891
889.759	20640
889.883	20667
890.006	20811
890.13	20910
890.254	20735
890.377	20727
890.501	20598
890.624	20442
890.748	20503
890.871	20457
890.995	20328
891.118	20263
891.241	20343
891.364	20275
891.488	20423
891.611	20377
891.734	20336
891.857	20370
891.98	20328
892.103	20374
892.226	20301
892.349	20305
892.471	20043
892.594	20347
892.717	20225
892.839	20275
892.962	20256
893.085	20286
893.207	20191
893.33	20100
893.452	20157
893.575	20374
893.697	20191
893.819	20393
893.941	20358
894.064	20267
894.186	20126
894.308	20134
894.43	20259
894.552	20324
894.674	20286
894.796	20153
894.918	20183
895.04	20187
895.161	20225
895.283	20271
895.405	20164
895.526	20244
895.648	20229
895.769	20183
895.891	20252
896.012	20328
896.134	20275
896.255	20256
896.376	20225
896.498	20256
896.619	20225
896.74	20153
896.861	20275
896.982	20537
897.103	20568
897.224	20431
897.345	20514
897.466	20495
897.587	20374
897.708	20625
897.828	20252
897.949	20271
898.07	20229
898.19	20396
898.311	20488
898.431	20370
898.552	20434
898.672	20434
898.792	20526
898.913	20389
899.033	20351
899.153	20271
899.273	20103
899.393	20176
899.513	20142
899.633	20107
899.753	20225
899.873	20157
899.993	20298
900.113	20168
900.232	20164
900.352	20046
900.472	20119
900.591	19959
900.711	19947
900.83	19887
900.95	19959
901.069	20020
901.189	19944
901.308	19666
901.427	19559
901.546	19548
901.665	19533
901.784	19472
901.904	19457
902.023	19388
902.141	19148
902.26	19206
902.379	19103
902.498	19023
902.617	18928
902.735	19065
902.854	18966
902.973	19072
903.091	18719
903.21	18722
903.328	18681
903.446	18639
903.565	18646
903.683	18532
903.801	18403
903.919	18441
904.038	18490
904.156	18285
904.274	18380
904.392	18194
904.51	18323
904.627	18239
904.745	18285
904.863	18308
904.981	18144
905.098	18060
905.216	17882
905.334	17916
905.451	18121
905.569	17954
905.686	17942
905.803	17927
905.921	17684
906.038	17764
906.155	17760
906.272	17687
906.389	17687
906.506	17539
906.623	17406
906.74	17444
906.857	17391
906.974	17341
907.091	17528
907.208	17646
907.324	17486
907.441	17577
907.557	17315
907.674	17212
907.79	17299
907.907	17265
908.023	17132
908.139	17269
908.256	17151
908.372	17124
908.488	17037
908.604	17033
908.72	16831
908.836	16953
908.952	16904
909.068	16938
909.184	16999
909.3	17018
909.415	16919
909.531	16938
909.647	16664
909.762	16771
909.878	16546
909.993	16694
910.108	16580
910.224	16588
910.339	16622
910.454	16421
910.57	16470
910.685	16428
910.8	16626
910.915	16588
911.03	16348
911.145	16272
911.259	16188
911.374	16272
911.489	16082
911.604	16143
911.718	16040
911.833	16048
911.947	15846
912.062	15850
912.176	15922
912.291	15968
912.405	15899
912.519	16029
912.633	16120
912.748	15945
912.862	15884
912.976	15812
913.09	15606
913.204	15660
913.318	15846
913.431	15823
913.545	15861
913.659	15869
913.772	15679
913.886	15568
914	15576
914.113	15625
914.226	15679
914.34	15660
914.453	15515
914.566	15530
914.68	15523
914.793	15466
914.906	15310
915.019	15154
915.132	15203
915.245	15123
915.358	15108
915.47	15256
915.583	15195
915.696	15127
915.809	15233
915.921	15268
916.034	15222
916.146	15131
916.259	15077
916.371	15214
916.483	15173
916.595	15074
916.708	15074
916.82	15001
916.932	15062
917.044	15036
917.156	14982
917.268	14891
917.38	14891
917.491	14743
917.603	14746
917.715	15005
917.826	14792
917.938	14792
918.049	14670
918.161	14697
918.272	14861
918.384	14963
918.495	14762
918.606	14682
918.717	14503
918.828	14727
918.939	14636
919.05	14492
919.161	14465
919.272	14381
919.383	14503
919.494	14602
919.604	14773
919.715	14571
919.826	14552
919.936	14602
920.047	14629
920.157	14571
920.267	14826
920.378	14560
920.488	14438
920.598	14716
920.708	14804
920.818	14720
920.928	14712
921.038	14849
921.148	14830
921.258	14552
921.368	14339
921.477	14263
921.587	14244
921.697	14233
921.806	14347
921.916	14130
922.025	14024
922.134	13963
922.244	13887
922.353	13936
922.462	13811
922.571	13750
922.68	13605
922.789	13559
922.898	13639
923.007	13476
923.116	13658
923.224	13552
923.333	13586
923.442	13411
923.55	13381
923.659	13426
923.767	13449
923.876	13350
923.984	13480
924.092	13335
924.201	13453
924.309	13384
924.417	13225
924.525	13301
924.633	13244
924.741	14043
924.849	13061
924.956	13171
925.064	12989
925.172	12962
925.279	12939
925.387	12977
925.494	12985
925.602	13080
925.709	13061
925.816	12867
925.924	12920
926.031	13008
926.138	12962
926.245	12989
926.352	12833
926.459	12954
926.566	12970
926.673	12802
926.779	12719
926.886	12703
926.993	12559
927.099	12517
927.206	12532
927.312	12467
927.419	12547
927.525	12620
927.631	12536
927.737	12525
927.843	12407
927.95	12315
928.056	12338
928.162	12361
928.267	12388
928.373	13050
928.479	12479
928.585	12273
928.69	12308
928.796	12350
928.901	12247
929.007	12030
929.112	12258
929.218	12239
929.323	12171
929.428	12091
929.533	12270
929.638	12106
929.743	12022
929.848	12087
929.953	12026
930.058	11878
930.163	11741
930.267	11824
930.372	11897
930.477	11794
930.581	11954
930.685	11828
930.79	11646
930.894	11691
930.998	11642
931.103	11805
931.207	11417
931.311	11315
931.415	11239
931.519	11090
931.623	11064
