Data from test_V78500241_3281.txt Node
Date: Fri Mar 25 15:32:42 CST 2022
User: usil
Spectrometer: V785-0024
Trigger mode: 0
Integration Time (sec): 4.000000E-1
Scans to average: 1
Nonlinearity correction enabled: false
Boxcar width: 0
Storing dark spectrum: false
XAxis mode: Wavelengths
Number of Pixels in Spectrum: 1024
>>>>>Begin Spectral Data<<<<<
801.071	27313
801.214	27184
801.356	27009
801.499	27013
801.641	26937
801.783	26830
801.926	26899
802.068	26769
802.211	26735
802.353	26689
802.496	26571
802.638	26507
802.78	26503
802.923	26526
803.065	26442
803.208	26400
803.35	26343
803.492	26533
803.635	26659
803.777	26644
803.919	26758
804.061	26990
804.204	26811
804.346	26457
804.488	26469
804.63	26617
804.773	26568
804.915	26598
805.057	26750
805.199	26651
805.341	26743
805.483	26621
805.626	26823
805.768	26712
805.91	26720
806.052	26769
806.194	26617
806.336	26940
806.478	26868
806.62	26708
806.762	26880
806.904	26952
807.046	27230
807.188	27074
807.33	27017
807.472	27169
807.614	27066
807.756	27157
807.898	27131
808.04	26864
808.182	26872
808.324	27013
808.465	27135
808.607	27226
808.749	27492
808.891	27511
809.033	27458
809.174	27351
809.316	27256
809.458	27317
809.6	27256
809.741	27458
809.883	27424
810.025	27622
810.166	27717
810.308	27637
810.45	27511
810.591	27500
810.733	27485
810.875	27207
811.016	27287
811.158	27344
811.299	27477
811.441	27545
811.582	27530
811.724	27283
811.865	27256
812.007	27100
812.148	27249
812.29	27450
812.431	27397
812.573	27545
812.714	27736
812.855	27789
812.997	27953
813.138	28067
813.279	27911
813.421	27964
813.562	27857
813.703	27644
813.845	27523
813.986	27230
814.127	27142
814.268	26979
814.41	27131
814.551	26994
814.692	27005
814.833	26929
814.974	26918
815.115	26899
815.256	26918
815.397	26883
815.539	26956
815.68	26663
815.821	26712
815.962	26857
816.103	26731
816.244	26545
816.385	26579
816.526	26324
816.666	26320
816.807	26244
816.948	26336
817.089	26324
817.23	26210
817.371	26404
817.512	26271
817.653	26263
817.793	26142
817.934	26271
818.075	26381
818.216	26298
818.356	26168
818.497	26016
818.638	25970
818.778	26001
818.919	25974
819.06	26103
819.2	26168
819.341	26240
819.481	26214
819.622	26351
819.762	26663
819.903	26526
820.043	26507
820.184	26252
820.324	26469
820.465	26469
820.605	26305
820.746	26313
820.886	26183
821.026	26282
821.167	26214
821.307	26377
821.447	26240
821.588	26195
821.728	26073
821.868	25902
822.008	25799
822.149	25670
822.289	25700
822.429	25521
822.569	25457
822.709	25502
822.849	25228
822.99	25270
823.13	25091
823.27	25057
823.41	24920
823.55	24992
823.69	25110
823.83	24924
823.97	25015
824.11	24802
824.25	24791
824.389	24935
824.529	24901
824.669	24726
824.809	24970
824.949	24970
825.089	24977
825.228	24863
825.368	24623
825.508	24650
825.648	24734
825.787	24787
825.927	24684
826.067	24650
826.206	24749
826.346	24867
826.485	24749
826.625	24821
826.765	24802
826.904	24749
827.044	24544
827.183	24460
827.323	24471
827.462	24517
827.601	24479
827.741	24403
827.88	24521
828.02	24285
828.159	24486
828.298	24445
828.437	24445
828.577	24448
828.716	24563
828.855	24346
828.994	24235
829.134	24361
829.273	24182
829.412	24121
829.551	24087
829.69	24087
829.829	24216
829.968	24209
830.107	24289
830.246	24224
830.385	24273
830.524	24053
830.663	23992
830.802	23908
830.941	23798
831.08	23908
831.219	23847
831.357	23885
831.496	23961
831.635	23714
831.774	23718
831.913	23676
832.051	23687
832.19	23379
832.329	23566
832.467	23478
832.606	23398
832.744	23353
832.883	23436
833.022	23501
833.16	23577
833.299	23440
833.437	23516
833.576	23608
833.714	23566
833.852	23589
833.991	23634
834.129	23573
834.267	23672
834.406	23566
834.544	23585
834.682	23509
834.821	23463
834.959	23821
835.097	23463
835.235	23668
835.373	23520
835.511	23547
835.65	23391
835.788	23410
835.926	23193
836.064	23265
836.202	23159
836.34	23242
836.478	23512
836.615	23239
836.753	23455
836.891	23433
837.029	23307
837.167	23208
837.305	23242
837.443	23181
837.58	23227
837.718	23360
837.856	23269
837.993	23181
838.131	23170
838.269	23124
838.406	23117
838.544	23052
838.681	22942
838.819	22809
838.956	22748
839.094	22672
839.231	22710
839.369	22923
839.506	23128
839.643	22885
839.781	22752
839.918	22729
840.055	22637
840.193	22668
840.33	22550
840.467	22687
840.604	22615
840.742	22999
840.879	22462
841.016	22527
841.153	22618
841.29	22828
841.427	22599
841.564	22683
841.701	22603
841.838	22668
841.975	22504
842.112	22577
842.249	22512
842.385	22455
842.522	22660
842.659	22561
842.796	22436
842.933	22504
843.069	22402
843.206	22276
843.343	22459
843.479	22474
843.616	22367
843.752	22177
843.889	22135
844.025	22329
844.162	22177
844.298	22306
844.435	22051
844.571	22204
844.708	22265
844.844	22371
844.98	22314
845.117	22242
845.253	22124
845.389	22101
845.525	22036
845.661	22124
845.798	21968
845.934	21949
846.07	21907
846.206	21823
846.342	22078
846.478	21831
846.614	21743
846.75	21542
846.886	21591
847.022	21671
847.158	21717
847.294	21690
847.429	21812
847.565	21675
847.701	21979
847.837	21481
847.972	21405
848.108	21500
848.244	21523
848.379	21249
848.515	21230
848.65	21279
848.786	21325
848.921	21268
849.057	21332
849.192	21313
849.328	21249
849.463	21211
849.598	21142
849.734	21100
849.869	21093
850.004	21055
850.14	21116
850.275	20918
850.41	20960
850.545	20979
850.68	20971
850.815	21028
850.95	20982
851.085	21173
851.22	21188
851.355	21001
851.49	21062
851.625	21074
851.76	20929
851.895	20918
852.03	20925
852.165	21009
852.299	20971
852.434	21154
852.569	20963
852.703	21119
852.838	21116
852.973	21116
853.107	21093
853.242	20933
853.376	20777
853.511	20708
853.645	20849
853.78	20967
853.914	20830
854.048	20853
854.183	20746
854.317	20895
854.451	21070
854.585	20788
854.72	20842
854.854	20902
854.988	20792
855.122	20819
855.256	20819
855.39	20876
855.524	20857
855.658	20895
855.792	20880
855.926	20796
856.06	20910
856.194	20948
856.327	20754
856.461	20758
856.595	20682
856.729	20674
856.862	20842
856.996	20804
857.13	20800
857.263	20941
857.397	20902
857.53	20868
857.664	20925
857.797	20918
857.931	20899
858.064	20823
858.197	20944
858.331	20800
858.464	20838
858.597	20670
858.731	20762
858.864	20708
858.997	20834
859.13	20819
859.263	20876
859.396	20914
859.529	20773
859.662	20800
859.795	20769
859.928	20864
860.061	21017
860.194	21001
860.327	20956
860.46	20868
860.592	20948
860.725	20979
860.858	20842
860.99	20960
861.123	20785
861.256	20895
861.388	20910
861.521	21447
861.653	20701
861.786	20606
861.918	20739
862.05	20796
862.183	20754
862.315	20758
862.447	20796
862.58	20830
862.712	20564
862.844	20465
862.976	20625
863.108	20602
863.24	21142
863.372	20476
863.504	20522
863.636	20530
863.768	20587
863.9	20587
864.032	20457
864.164	20583
864.296	20617
864.428	20667
864.559	20640
864.691	20667
864.823	20564
864.954	20488
865.086	20552
865.217	20526
865.349	20446
865.48	20457
865.612	20431
865.743	20526
865.875	20514
866.006	20370
866.137	20457
866.269	20385
866.4	20415
866.531	20473
866.662	20339
866.793	20408
866.924	20355
867.055	20438
867.186	20465
867.317	20427
867.448	20320
867.579	20381
867.71	20305
867.841	20294
867.972	20419
868.103	20461
868.233	20446
868.364	20503
868.495	20499
868.625	20457
868.756	20754
868.886	20545
869.017	20594
869.147	20826
869.278	20762
869.408	20735
869.539	20556
869.669	20735
869.799	20655
869.929	20720
870.06	20762
870.19	20899
870.32	20891
870.45	20891
870.58	21066
870.71	21157
870.84	21085
870.97	20960
871.1	21043
871.23	21226
871.36	21146
871.489	21157
871.619	21325
871.749	21272
871.879	21310
872.008	21367
872.138	21287
872.267	21268
872.397	21184
872.526	21085
872.656	21135
872.785	21116
872.915	21218
873.044	21260
873.173	21272
873.303	21279
873.432	21291
873.561	21435
873.69	21203
873.819	21085
873.948	21428
874.077	21336
874.206	21306
874.335	21241
874.464	21378
874.593	21572
874.722	21473
874.851	21488
874.979	21553
875.108	21599
875.237	21431
875.365	21534
875.494	21523
875.623	21534
875.751	21447
875.88	21511
876.008	21682
876.136	21694
876.265	21911
876.393	22048
876.521	21960
876.65	22021
876.778	21918
876.906	21888
877.034	21873
877.162	21827
877.29	21755
877.418	21899
877.546	21869
877.674	21770
877.802	21698
877.93	21861
878.058	21732
878.185	21831
878.313	21793
878.441	21789
878.568	21641
878.696	21747
878.824	21861
878.951	22017
879.079	22063
879.206	22177
879.333	22006
879.461	21892
879.588	21975
879.715	22006
879.842	22230
879.97	22055
880.097	21641
880.224	21675
880.351	21713
880.478	21717
880.605	21667
880.732	21717
880.859	21736
880.986	21732
881.112	21865
881.239	21576
881.366	21492
881.493	21374
881.619	21245
881.746	21249
881.872	21142
881.999	21195
882.125	21146
882.252	21310
882.378	21249
882.505	21351
882.631	21135
882.757	20963
882.883	21096
883.01	20937
883.136	20891
883.262	20891
883.388	20762
883.514	20941
883.64	21017
883.766	20819
883.892	20697
884.018	20914
884.143	21032
884.269	20887
884.395	20564
884.52	20640
884.646	20629
884.772	20613
884.897	20511
885.023	20648
885.148	20552
885.274	20853
885.399	20659
885.524	20617
885.65	20579
885.775	20705
885.9	20583
886.025	20727
886.15	20716
886.275	20545
886.4	20598
886.525	20590
886.65	20530
886.775	20507
886.9	20754
887.025	20804
887.149	20716
887.274	20503
887.399	20495
887.523	20393
887.648	20225
887.773	20240
887.897	20434
888.021	20400
888.146	20408
888.27	20370
888.395	20488
888.519	20419
888.643	20408
888.767	20412
888.891	20320
889.015	20161
889.139	20225
889.263	20195
889.387	20362
889.511	20393
889.635	20366
889.759	20176
889.883	20069
890.006	20149
890.13	20278
890.254	20199
890.377	19986
890.501	19967
890.624	19940
890.748	19970
890.871	19841
890.995	19689
891.118	19601
891.241	19799
891.364	19791
891.488	19894
891.611	19898
891.734	19791
891.857	19776
891.98	19731
892.103	19784
892.226	19795
892.349	19734
892.471	19605
892.594	19712
892.717	19772
892.839	19628
892.962	19723
893.085	19803
893.207	19666
893.33	19616
893.452	19643
893.575	19731
893.697	19704
893.819	19814
893.941	19852
894.064	19894
894.186	19662
894.308	19647
894.43	19795
894.552	19864
894.674	19712
894.796	19567
894.918	19738
895.04	19776
895.161	19807
895.283	19753
895.405	19578
895.526	19723
895.648	19601
895.769	19742
895.891	19693
896.012	19894
896.134	19826
896.255	19704
896.376	19540
896.498	19757
896.619	19757
896.74	19681
896.861	19696
896.982	20043
897.103	20191
897.224	20058
897.345	19776
897.466	19822
897.587	19970
897.708	19955
897.828	19913
897.949	19875
898.07	19788
898.19	19921
898.311	20020
898.431	19860
898.552	19917
898.672	19989
898.792	20008
898.913	19947
899.033	19753
899.153	19761
899.273	19605
899.393	19601
899.513	19677
899.633	19658
899.753	19689
899.873	19575
899.993	19723
900.113	19594
900.232	19651
900.352	19658
900.472	19559
900.591	19384
900.711	19502
900.83	19354
900.95	19518
901.069	19487
901.189	19346
901.308	19183
901.427	19069
901.546	18977
901.665	19061
901.784	19080
901.904	18954
902.023	18905
902.141	18650
902.26	18566
902.379	18612
902.498	18506
902.617	18479
902.735	18631
902.854	18669
902.973	18414
903.091	18300
903.21	18197
903.328	18144
903.446	18178
903.565	18019
903.683	18072
903.801	17904
903.919	17984
904.038	17946
904.156	17802
904.274	17843
904.392	17760
904.51	17767
904.627	17718
904.745	17840
904.863	17828
904.981	17604
905.098	17638
905.216	17444
905.334	17543
905.451	17554
905.569	17425
905.686	17471
905.803	17619
905.921	17277
906.038	17265
906.155	17261
906.272	17242
906.389	17128
906.506	17083
906.623	17075
906.74	16972
906.857	16843
906.974	16847
907.091	17071
907.208	17132
907.324	17105
907.441	16904
907.557	16896
907.674	16816
907.79	16710
907.907	16630
908.023	16729
908.139	16774
908.256	16577
908.372	16679
908.488	16565
908.604	16523
908.72	16588
908.836	16508
908.952	16554
909.068	16611
909.184	16630
909.3	16497
909.415	16519
909.531	16523
909.647	16223
909.762	16147
909.878	16048
909.993	16139
910.108	16162
910.224	16143
910.339	16158
910.454	16051
910.57	15987
910.685	15873
910.8	16196
910.915	16082
911.03	16032
911.145	15789
911.259	15739
911.374	15713
911.489	15671
911.604	15603
911.718	15538
911.833	15591
911.947	15458
912.062	15428
912.176	15564
912.291	15519
912.405	15553
912.519	15766
912.633	15713
912.748	15595
912.862	15530
912.976	15412
913.09	15291
913.204	15302
913.318	15332
913.431	15389
913.545	15351
913.659	15435
913.772	15230
913.886	15195
914	15085
914.113	15294
914.226	15207
914.34	15279
914.453	15089
914.566	15180
914.68	15055
914.793	15066
914.906	14872
915.019	14705
915.132	14758
915.245	14769
915.358	14872
915.47	14864
915.583	14804
915.696	14785
915.809	14838
915.921	14842
916.034	14720
916.146	14712
916.259	14727
916.371	14693
916.483	14826
916.595	14663
916.708	14651
916.82	14583
916.932	14571
917.044	14602
917.156	14465
917.268	14423
917.38	14370
917.491	14309
917.603	14480
917.715	14450
917.826	14571
917.938	14366
918.049	14298
918.161	14336
918.272	14530
918.384	14507
918.495	14518
918.606	14290
918.717	14058
918.828	14332
918.939	14229
919.05	14100
919.161	14176
919.272	14046
919.383	14107
919.494	14313
919.604	14450
919.715	14142
919.826	14130
919.936	14210
920.047	14202
920.157	14210
920.267	14347
920.378	14130
920.488	14069
920.598	14328
920.708	14438
920.818	14366
920.928	14328
921.038	14560
921.148	14400
921.258	14092
921.368	14043
921.477	13993
921.587	13890
921.697	13784
921.806	13909
921.916	13753
922.025	13590
922.134	13552
922.244	13476
922.353	13540
922.462	13403
922.571	13487
922.68	13312
922.789	13206
922.898	13255
923.007	13088
923.116	13251
923.224	13168
923.333	13103
923.442	13107
923.55	13034
923.659	13129
923.767	13103
923.876	12932
923.984	13057
924.092	12973
924.201	12943
924.309	12920
924.417	12985
924.525	12875
924.633	12932
924.741	13811
924.849	12753
924.956	12878
925.064	12726
925.172	12612
925.279	12612
925.387	12711
925.494	12669
925.602	12715
925.709	12608
925.816	12521
925.924	12650
926.031	12654
926.138	12566
926.245	12631
926.352	12544
926.459	12669
926.566	12662
926.673	12471
926.779	12361
926.886	12456
926.993	12304
927.099	12251
927.206	12197
927.312	12190
927.419	12186
927.525	12216
927.631	12182
927.737	12140
927.843	12125
927.95	12030
928.056	12041
928.162	12121
928.267	12019
928.373	12779
928.479	12205
928.585	11847
928.69	11950
928.796	12091
928.901	11954
929.007	11786
929.112	11874
929.218	11889
929.323	11767
929.428	11790
929.533	11927
929.638	11764
929.743	11817
929.848	11824
929.953	11672
930.058	11680
930.163	11532
930.267	11520
930.372	11638
930.477	11459
930.581	11638
930.685	11497
930.79	11379
930.894	11368
930.998	11349
931.103	11440
931.207	11075
931.311	11022
931.415	10946
931.519	10862
931.623	10725
