Data from test_V78500241_3497.txt Node
Date: Fri Mar 25 15:34:12 CST 2022
User: usil
Spectrometer: V785-0024
Trigger mode: 0
Integration Time (sec): 4.000000E-1
Scans to average: 1
Nonlinearity correction enabled: false
Boxcar width: 0
Storing dark spectrum: false
XAxis mode: Wavelengths
Number of Pixels in Spectrum: 1024
>>>>>Begin Spectral Data<<<<<
801.071	27424
801.214	27252
801.356	27047
801.499	26823
801.641	26849
801.783	26872
801.926	26777
802.068	26830
802.211	26906
802.353	26720
802.496	26400
802.638	26533
802.78	26461
802.923	26522
803.065	26259
803.208	26400
803.35	26617
803.492	26651
803.635	26625
803.777	26693
803.919	26609
804.061	26944
804.204	26777
804.346	26473
804.488	26457
804.63	26621
804.773	26560
804.915	26568
805.057	26693
805.199	26625
805.341	26678
805.483	26872
805.626	26678
805.768	26670
805.91	26724
806.052	26773
806.194	26606
806.336	26918
806.478	26731
806.62	26644
806.762	26746
806.904	26910
807.046	27340
807.188	27039
807.33	27047
807.472	27256
807.614	27207
807.756	27013
807.898	26975
808.04	26872
808.182	27020
808.324	26960
808.465	27096
808.607	27169
808.749	27332
808.891	27427
809.033	27367
809.174	27344
809.316	27218
809.458	27435
809.6	27184
809.741	27329
809.883	27553
810.025	27644
810.166	27603
810.308	27732
810.45	27603
810.591	27576
810.733	27321
810.875	27256
811.016	27192
811.158	27218
811.299	27264
811.441	27382
811.582	27469
811.724	27298
811.865	27321
812.007	27279
812.148	27279
812.29	27378
812.431	27496
812.573	27648
812.714	27842
812.855	27827
812.997	27800
813.138	28147
813.279	27895
813.421	27816
813.562	27838
813.703	27576
813.845	27641
813.986	27393
814.127	27028
814.268	27043
814.41	27066
814.551	27028
814.692	27100
814.833	27024
814.974	26929
815.115	27104
815.256	26765
815.397	26883
815.539	26880
815.68	26674
815.821	26712
815.962	26777
816.103	26651
816.244	26579
816.385	26556
816.526	26579
816.666	26343
816.807	26191
816.948	26294
817.089	26434
817.23	26256
817.371	26164
817.512	26252
817.653	26195
817.793	26225
817.934	26225
818.075	26317
818.216	26381
818.356	26161
818.497	26172
818.638	26065
818.778	26084
818.919	25997
819.06	26008
819.2	26221
819.341	26244
819.481	26278
819.622	26370
819.762	26530
819.903	26552
820.043	26358
820.184	26347
820.324	26355
820.465	26530
820.605	26351
820.746	26237
820.886	26233
821.026	26244
821.167	26248
821.307	26423
821.447	26229
821.588	26233
821.728	25974
821.868	25757
822.008	25780
822.149	25651
822.289	25799
822.429	25377
822.569	25403
822.709	25430
822.849	25244
822.99	25202
823.13	25156
823.27	25148
823.41	25023
823.55	25057
823.69	24924
823.83	25084
823.97	24875
824.11	24863
824.25	24814
824.389	24886
824.529	24951
824.669	24768
824.809	25034
824.949	24996
825.089	24989
825.228	24894
825.368	24745
825.508	24795
825.648	24810
825.787	24768
825.927	24741
826.067	24578
826.206	24707
826.346	24745
826.485	24886
826.625	24703
826.765	24810
826.904	24802
827.044	24551
827.183	24498
827.323	24437
827.462	24612
827.601	24471
827.741	24490
827.88	24308
828.02	24270
828.159	24544
828.298	24513
828.437	24479
828.577	24323
828.716	24578
828.855	24315
828.994	24258
829.134	24167
829.273	24167
829.412	24201
829.551	24106
829.69	24110
829.829	24136
829.968	24270
830.107	24197
830.246	24117
830.385	24121
830.524	23969
830.663	23954
830.802	23813
830.941	23707
831.08	23699
831.219	23756
831.357	23817
831.496	24041
831.635	23684
831.774	23726
831.913	23611
832.051	23478
832.19	23573
832.329	23687
832.467	23417
832.606	23482
832.744	23360
832.883	23509
833.022	23505
833.16	23353
833.299	23531
833.437	23436
833.576	23581
833.714	23638
833.852	23490
833.991	23665
834.129	23501
834.267	23592
834.406	23512
834.544	23539
834.682	23501
834.821	23471
834.959	23676
835.097	23417
835.235	23592
835.373	23516
835.511	23421
835.65	23402
835.788	23421
835.926	23292
836.064	23170
836.202	23204
836.34	23421
836.478	23482
836.615	23250
836.753	23387
836.891	23440
837.029	23296
837.167	23356
837.305	23178
837.443	23204
837.58	23159
837.718	23208
837.856	23174
837.993	23128
838.131	23181
838.269	22957
838.406	23273
838.544	22968
838.681	22942
838.819	22904
838.956	22653
839.094	22641
839.231	22805
839.369	22919
839.506	22991
839.643	22942
839.781	22656
839.918	22698
840.055	22744
840.193	22691
840.33	22702
840.467	22694
840.604	22702
840.742	22778
840.879	22478
841.016	22557
841.153	22634
841.29	22797
841.427	22596
841.564	22615
841.701	22611
841.838	22588
841.975	22584
842.112	22592
842.249	22398
842.385	22519
842.522	22649
842.659	22436
842.796	22333
842.933	22455
843.069	22497
843.206	22424
843.343	22535
843.479	22314
843.616	22382
843.752	22181
843.889	22215
844.025	22177
844.162	22207
844.298	22200
844.435	22158
844.571	22135
844.708	22181
844.844	22329
844.98	22226
845.117	22234
845.253	22082
845.389	22017
845.525	22017
845.661	22013
845.798	21876
845.934	22032
846.07	21964
846.206	21983
846.342	22002
846.478	21892
846.614	21690
846.75	21580
846.886	21667
847.022	21789
847.158	21804
847.294	21759
847.429	21728
847.565	21568
847.701	21812
847.837	21462
847.972	21405
848.108	21370
848.244	21428
848.379	21306
848.515	21123
848.65	21207
848.786	21256
848.921	21268
849.057	21348
849.192	21393
849.328	21260
849.463	21310
849.598	21154
849.734	21108
849.869	21237
850.004	21051
850.14	20990
850.275	21188
850.41	20925
850.545	20902
850.68	20982
850.815	21047
850.95	20952
851.085	21062
851.22	20967
851.355	20998
851.49	20918
851.625	20994
851.76	20994
851.895	20914
852.03	20765
852.165	21028
852.299	21100
852.434	21169
852.569	21047
852.703	21009
852.838	21028
852.973	21135
853.107	21241
853.242	20967
853.376	20743
853.511	20659
853.645	20739
853.78	20982
853.914	20830
854.048	20868
854.183	20899
854.317	20910
854.451	20990
854.585	20765
854.72	20792
854.854	20876
854.988	20849
855.122	20773
855.256	20651
855.39	20838
855.524	20944
855.658	20838
855.792	20811
855.926	20876
856.06	20906
856.194	20975
856.327	20773
856.461	20765
856.595	20842
856.729	20823
856.862	20773
856.996	20929
857.13	20864
857.263	20956
857.397	20933
857.53	20899
857.664	20864
857.797	20876
857.931	20914
858.064	20899
858.197	20948
858.331	20815
858.464	20754
858.597	20727
858.731	20876
858.864	20758
858.997	20762
859.13	20716
859.263	20902
859.396	20937
859.529	20785
859.662	20785
859.795	20716
859.928	20826
860.061	20994
860.194	20960
860.327	20891
860.46	20826
860.592	20857
860.725	20944
860.858	20929
860.99	20826
861.123	20754
861.256	20746
861.388	20815
861.521	21545
861.653	20720
861.786	20629
861.918	20655
862.05	20727
862.183	20800
862.315	20796
862.447	20796
862.58	20762
862.712	20636
862.844	20625
862.976	20602
863.108	20701
863.24	21085
863.372	20488
863.504	20568
863.636	20587
863.768	20594
863.9	20613
864.032	20522
864.164	20568
864.296	20670
864.428	20575
864.559	20575
864.691	20598
864.823	20457
864.954	20511
865.086	20549
865.217	20469
865.349	20419
865.48	20476
865.612	20492
865.743	20396
865.875	20415
866.006	20419
866.137	20587
866.269	20495
866.4	20423
866.531	20233
866.662	20415
866.793	20332
866.924	20339
867.055	20366
867.186	20446
867.317	20328
867.448	20328
867.579	20522
867.71	20172
867.841	20267
867.972	20434
868.103	20442
868.233	20396
868.364	20366
868.495	20469
868.625	20663
868.756	20716
868.886	20541
869.017	20625
869.147	20659
869.278	20819
869.408	20686
869.539	20613
869.669	20743
869.799	20674
869.929	20712
870.06	20792
870.19	21009
870.32	20758
870.45	20944
870.58	21085
870.71	21211
870.84	21085
870.97	21100
871.1	21093
871.23	21169
871.36	21321
871.489	21154
871.619	21074
871.749	21222
871.879	21275
872.008	21321
872.138	21313
872.267	21367
872.397	21192
872.526	21013
872.656	21013
872.785	21100
872.915	21176
873.044	21344
873.173	21260
873.303	21325
873.432	21378
873.561	21340
873.69	21252
873.819	21169
873.948	21336
874.077	21272
874.206	21264
874.335	21302
874.464	21321
874.593	21466
874.722	21462
874.851	21485
874.979	21496
875.108	21606
875.237	21496
875.365	21466
875.494	21549
875.623	21576
875.751	21431
875.88	21698
876.008	21694
876.136	21694
876.265	21816
876.393	21926
876.521	21922
876.65	22006
876.778	21968
876.906	21903
877.034	21846
877.162	21888
877.29	21827
877.418	21964
877.546	21816
877.674	21880
877.802	21823
877.93	21800
878.058	21831
878.185	21724
878.313	21808
878.441	21781
878.568	21660
878.696	21679
878.824	21922
878.951	21926
879.079	22048
879.206	22162
879.333	21964
879.461	21907
879.588	22017
879.715	22032
879.842	22139
879.97	21876
880.097	21724
880.224	21606
880.351	21755
880.478	21720
880.605	21701
880.732	21641
880.859	22032
880.986	21686
881.112	21755
881.239	21564
881.366	21447
881.493	21355
881.619	21233
881.746	21249
881.872	21222
881.999	21348
882.125	21249
882.252	21294
882.378	21184
882.505	21332
882.631	21119
882.757	20921
882.883	20979
883.01	20929
883.136	20921
883.262	20815
883.388	20731
883.514	21001
883.64	21036
883.766	20906
883.892	20758
884.018	20743
884.143	20811
884.269	21058
884.395	20720
884.52	20590
884.646	20590
884.772	20682
884.897	20461
885.023	20655
885.148	20720
885.274	20754
885.399	20644
885.524	20632
885.65	20674
885.775	20640
885.9	20613
886.025	20644
886.15	20640
886.275	20530
886.4	20442
886.525	20590
886.65	20587
886.775	20507
886.9	20606
887.025	20811
887.149	20530
887.274	20347
887.399	20434
887.523	20400
887.648	20427
887.773	20343
887.897	20484
888.021	20278
888.146	20358
888.27	20461
888.395	20564
888.519	20400
888.643	20408
888.767	20301
888.891	20381
889.015	20275
889.139	20237
889.263	20168
889.387	20313
889.511	20404
889.635	20377
889.759	20176
889.883	20187
890.006	20187
890.13	20336
890.254	20046
890.377	20039
890.501	20035
890.624	19986
890.748	19902
890.871	19666
890.995	19670
891.118	19738
891.241	19909
891.364	19738
891.488	19883
891.611	19864
891.734	19772
891.857	19909
891.98	19818
892.103	19731
892.226	19769
892.349	19753
892.471	19674
892.594	19620
892.717	19662
892.839	19639
892.962	19685
893.085	19696
893.207	19651
893.33	19597
893.452	19502
893.575	19696
893.697	19537
893.819	19753
893.941	19803
894.064	19845
894.186	19689
894.308	19548
894.43	19864
894.552	19902
894.674	19826
894.796	19518
894.918	19723
895.04	19742
895.161	19826
895.283	19681
895.405	19685
895.526	19594
895.648	19586
895.769	19689
895.891	19765
896.012	19723
896.134	19788
896.255	19647
896.376	19685
896.498	19655
896.619	19791
896.74	19655
896.861	19708
896.982	20050
897.103	20199
897.224	19997
897.345	19833
897.466	19852
897.587	19978
897.708	20069
897.828	19959
897.949	19860
898.07	19765
898.19	19776
898.311	19997
898.431	19913
898.552	19856
898.672	19982
898.792	20058
898.913	19932
899.033	19799
899.153	19662
899.273	19601
899.393	19658
899.513	19670
899.633	19563
899.753	19586
899.873	19594
899.993	19811
900.113	19544
900.232	19632
900.352	19601
900.472	19533
900.591	19396
900.711	19396
900.83	19403
900.95	19472
901.069	19563
901.189	19415
901.308	19099
901.427	18966
901.546	19072
901.665	18924
901.784	19118
901.904	18894
902.023	18745
902.141	18631
902.26	18525
902.379	18536
902.498	18574
902.617	18460
902.735	18521
902.854	18490
902.973	18456
903.091	18273
903.21	18277
903.328	18251
903.446	18121
903.565	17942
903.683	18034
903.801	17882
903.919	17999
904.038	18007
904.156	17790
904.274	17866
904.392	17809
904.51	17821
904.627	17840
904.745	17824
904.863	17843
904.981	17665
905.098	17459
905.216	17478
905.334	17520
905.451	17497
905.569	17421
905.686	17562
905.803	17406
905.921	17280
906.038	17429
906.155	17318
906.272	17178
906.389	17299
906.506	17147
906.623	17006
906.74	16995
906.857	16850
906.974	16904
907.091	17071
907.208	17067
907.324	17048
907.441	16858
907.557	16805
907.674	16790
907.79	16717
907.907	16717
908.023	16793
908.139	16668
908.256	16687
908.372	16672
908.488	16645
908.604	16504
908.72	16398
908.836	16500
908.952	16405
909.068	16489
909.184	16603
909.3	16478
909.415	16523
909.531	16325
909.647	16211
909.762	16215
909.878	16124
909.993	16223
910.108	16200
910.224	16112
910.339	16086
910.454	15994
910.57	15979
910.685	15926
910.8	16128
910.915	16097
911.03	15876
911.145	15854
911.259	15774
911.374	15774
911.489	15686
911.604	15644
911.718	15519
911.833	15675
911.947	15450
912.062	15405
912.176	15553
912.291	15523
912.405	15526
912.519	15701
912.633	15717
912.748	15564
912.862	15439
912.976	15287
913.09	15241
913.204	15291
913.318	15291
913.431	15443
913.545	15359
913.659	15302
913.772	15283
913.886	15245
914	15176
914.113	15245
914.226	15268
914.34	15313
914.453	15070
914.566	15150
914.68	15085
914.793	15055
914.906	14845
915.019	14758
915.132	14644
915.245	14750
915.358	14773
915.47	14712
915.583	14640
915.696	14724
915.809	14823
915.921	14883
916.034	14720
916.146	14625
916.259	14610
916.371	14727
916.483	14689
916.595	14560
916.708	14651
916.82	14663
916.932	14579
917.044	14488
917.156	14488
917.268	14400
917.38	14446
917.491	14381
917.603	14446
917.715	14568
917.826	14473
917.938	14423
918.049	14355
918.161	14355
918.272	14621
918.384	14511
918.495	14389
918.606	14252
918.717	14043
918.828	14157
918.939	14195
919.05	14107
919.161	14149
919.272	13944
919.383	14058
919.494	14347
919.604	14309
919.715	14206
919.826	14103
919.936	14233
920.047	14263
920.157	14142
920.267	14362
920.378	14214
920.488	14191
920.598	14301
920.708	14415
920.818	14347
920.928	14267
921.038	14446
921.148	14381
921.258	14161
921.368	14005
921.477	13955
921.587	13898
921.697	13849
921.806	13883
921.916	13784
922.025	13624
922.134	13567
922.244	13449
922.353	13590
922.462	13464
922.571	13343
922.68	13297
922.789	13190
922.898	13297
923.007	13126
923.116	13175
923.224	13053
923.333	13175
923.442	13065
923.55	12993
923.659	13149
923.767	13137
923.876	13061
923.984	13034
924.092	12951
924.201	12939
924.309	12981
924.417	12939
924.525	12878
924.633	12886
924.741	13643
924.849	12707
924.956	12871
925.064	12684
925.172	12506
925.279	12741
925.387	12646
925.494	12639
925.602	12692
925.709	12635
925.816	12494
925.924	12604
926.031	12707
926.138	12627
926.245	12623
926.352	12544
926.459	12601
926.566	12604
926.673	12525
926.779	12369
926.886	12502
926.993	12251
927.099	12197
927.206	12205
927.312	12235
927.419	12175
927.525	12175
927.631	12315
927.737	12076
927.843	12125
927.95	11988
928.056	12007
928.162	12057
928.267	12083
928.373	12623
928.479	12171
928.585	11939
928.69	12057
928.796	11988
928.901	11889
929.007	11684
929.112	11923
929.218	11866
929.323	11688
929.428	11764
929.533	11904
929.638	11756
929.743	11714
929.848	11802
929.953	11691
930.058	11615
930.163	11539
930.267	11478
930.372	11623
930.477	11444
930.581	11676
930.685	11501
930.79	11334
930.894	11406
930.998	11433
931.103	11474
931.207	11178
931.311	11022
931.415	10949
931.519	10748
931.623	10714
