Data from test_V78500241_3613.txt Node
Date: Fri Mar 25 15:35:00 CST 2022
User: usil
Spectrometer: V785-0024
Trigger mode: 0
Integration Time (sec): 4.000000E-1
Scans to average: 1
Nonlinearity correction enabled: false
Boxcar width: 0
Storing dark spectrum: false
XAxis mode: Wavelengths
Number of Pixels in Spectrum: 1024
>>>>>Begin Spectral Data<<<<<
801.071	27298
801.214	27340
801.356	27039
801.499	27017
801.641	26883
801.783	26857
801.926	26967
802.068	26899
802.211	26716
802.353	26785
802.496	26602
802.638	26659
802.78	26431
802.923	26629
803.065	26400
803.208	26438
803.35	26347
803.492	26549
803.635	26701
803.777	26598
803.919	26708
804.061	26986
804.204	26701
804.346	26720
804.488	26598
804.63	26769
804.773	26621
804.915	26625
805.057	26781
805.199	26705
805.341	26617
805.483	26830
805.626	26785
805.768	26590
805.91	26762
806.052	26845
806.194	26682
806.336	26902
806.478	26781
806.62	26743
806.762	26823
806.904	27180
807.046	27370
807.188	27154
807.33	27135
807.472	27230
807.614	27093
807.756	27180
807.898	26933
808.04	26948
808.182	27047
808.324	27104
808.465	27180
808.607	27214
808.749	27405
808.891	27545
809.033	27629
809.174	27530
809.316	27397
809.458	27488
809.6	27230
809.741	27523
809.883	27576
810.025	27599
810.166	27545
810.308	27705
810.45	27732
810.591	27450
810.733	27405
810.875	27393
811.016	27218
811.158	27302
811.299	27591
811.441	27614
811.582	27454
811.724	27336
811.865	27386
812.007	27389
812.148	27397
812.29	27485
812.431	27545
812.573	27717
812.714	27732
812.855	27884
812.997	28059
813.138	28109
813.279	27968
813.421	28013
813.562	27873
813.703	27793
813.845	27599
813.986	27386
814.127	27119
814.268	26990
814.41	27081
814.551	27017
814.692	27112
814.833	26990
814.974	27055
815.115	27112
815.256	26838
815.397	26906
815.539	26807
815.68	26929
815.821	26781
815.962	26899
816.103	26906
816.244	26644
816.385	26495
816.526	26659
816.666	26298
816.807	26412
816.948	26442
817.089	26423
817.23	26221
817.371	26328
817.512	26305
817.653	26351
817.793	26252
817.934	26355
818.075	26290
818.216	26347
818.356	26290
818.497	26214
818.638	26016
818.778	26195
818.919	26081
819.06	26168
819.2	26256
819.341	26256
819.481	26374
819.622	26499
819.762	26648
819.903	26560
820.043	26374
820.184	26412
820.324	26492
820.465	26560
820.605	26415
820.746	26393
820.886	26328
821.026	26431
821.167	26233
821.307	26511
821.447	26263
821.588	26100
821.728	26176
821.868	25906
822.008	25780
822.149	25826
822.289	25784
822.429	25643
822.569	25400
822.709	25544
822.849	25346
822.99	25392
823.13	25274
823.27	25274
823.41	25202
823.55	25008
823.69	25091
823.83	25114
823.97	25038
824.11	25015
824.25	25012
824.389	24878
824.529	25103
824.669	24913
824.809	25141
824.949	25103
825.089	24973
825.228	24856
825.368	24787
825.508	24913
825.648	24738
825.787	24935
825.927	24901
826.067	24787
826.206	24848
826.346	24871
826.485	24844
826.625	24840
826.765	25008
826.904	24901
827.044	24544
827.183	24578
827.323	24502
827.462	24540
827.601	24505
827.741	24517
827.88	24585
828.02	24467
828.159	24433
828.298	24536
828.437	24597
828.577	24319
828.716	24536
828.855	24422
828.994	24247
829.134	24190
829.273	24323
829.412	24247
829.551	24277
829.69	24251
829.829	24289
829.968	24262
830.107	24304
830.246	24254
830.385	24251
830.524	24289
830.663	24072
830.802	24022
830.941	23824
831.08	23897
831.219	23912
831.357	23908
831.496	24152
831.635	23946
831.774	23828
831.913	23672
832.051	23767
832.19	23551
832.329	23585
832.467	23551
832.606	23505
832.744	23391
832.883	23395
833.022	23501
833.16	23512
833.299	23478
833.437	23615
833.576	23668
833.714	23596
833.852	23672
833.991	23718
834.129	23756
834.267	23764
834.406	23649
834.544	23714
834.682	23551
834.821	23531
834.959	23752
835.097	23619
835.235	23695
835.373	23707
835.511	23566
835.65	23554
835.788	23406
835.926	23387
836.064	23356
836.202	23364
836.34	23444
836.478	23623
836.615	23471
836.753	23406
836.891	23539
837.029	23604
837.167	23326
837.305	23425
837.443	23425
837.58	23242
837.718	23364
837.856	23337
837.993	23242
838.131	23349
838.269	23242
838.406	23391
838.544	23048
838.681	22965
838.819	22930
838.956	22843
839.094	22877
839.231	22854
839.369	22980
839.506	23102
839.643	23155
839.781	22786
839.918	22660
840.055	22782
840.193	22683
840.33	22736
840.467	22752
840.604	22774
840.742	23003
840.879	22622
841.016	22744
841.153	22729
841.29	22801
841.427	22626
841.564	22774
841.701	22793
841.838	22702
841.975	22592
842.112	22626
842.249	22557
842.385	22630
842.522	22672
842.659	22497
842.796	22622
842.933	22436
843.069	22535
843.206	22382
843.343	22588
843.479	22459
843.616	22474
843.752	22371
843.889	22394
844.025	22367
844.162	22303
844.298	22329
844.435	22265
844.571	22234
844.708	22462
844.844	22386
844.98	22382
845.117	22306
845.253	22188
845.389	22166
845.525	22044
845.661	22105
845.798	21998
845.934	22051
846.07	22036
846.206	21953
846.342	22188
846.478	21876
846.614	21835
846.75	21690
846.886	21728
847.022	21804
847.158	21724
847.294	21865
847.429	21652
847.565	21690
847.701	21964
847.837	21515
847.972	21557
848.108	21591
848.244	21591
848.379	21336
848.515	21298
848.65	21249
848.786	21302
848.921	21386
849.057	21530
849.192	21466
849.328	21329
849.463	21389
849.598	21291
849.734	21180
849.869	21264
850.004	21123
850.14	21123
850.275	21138
850.41	21112
850.545	20891
850.68	21116
850.815	21100
850.95	21192
851.085	21157
851.22	21233
851.355	21131
851.49	21093
851.625	21058
851.76	21005
851.895	20967
852.03	21039
852.165	21058
852.299	21112
852.434	21116
852.569	21154
852.703	21176
852.838	21230
852.973	21252
853.107	21104
853.242	21161
853.376	20956
853.511	20800
853.645	20902
853.78	20982
853.914	20842
854.048	20857
854.183	21047
854.317	20933
854.451	21161
854.585	20979
854.72	20876
854.854	20998
854.988	20929
855.122	21024
855.256	20765
855.39	20895
855.524	21070
855.658	20967
855.792	20933
855.926	21005
856.06	21013
856.194	21024
856.327	20948
856.461	20899
856.595	20906
856.729	20876
856.862	21074
856.996	20979
857.13	20994
857.263	21066
857.397	21001
857.53	20967
857.664	20975
857.797	20895
857.931	21062
858.064	21032
858.197	21119
858.331	20933
858.464	20773
858.597	20800
858.731	20941
858.864	20864
858.997	20929
859.13	20815
859.263	20918
859.396	21074
859.529	20910
859.662	20887
859.795	20830
859.928	20887
860.061	21123
860.194	20998
860.327	20906
860.46	20986
860.592	21104
860.725	21161
860.858	21058
860.99	20807
861.123	20788
861.256	20864
861.388	21036
861.521	21762
861.653	20853
861.786	20670
861.918	20743
862.05	20819
862.183	20933
862.315	20982
862.447	20864
862.58	20956
862.712	20743
862.844	20655
862.976	20743
863.108	20830
863.24	20998
863.372	20617
863.504	20621
863.636	20682
863.768	20640
863.9	20537
864.032	20560
864.164	20602
864.296	20564
864.428	20701
864.559	20625
864.691	20651
864.823	20667
864.954	20537
865.086	20689
865.217	20579
865.349	20427
865.48	20537
865.612	20419
865.743	20670
865.875	20484
866.006	20583
866.137	20541
866.269	20499
866.4	20541
866.531	20583
866.662	20575
866.793	20545
866.924	20492
867.055	20503
867.186	20568
867.317	20499
867.448	20393
867.579	20495
867.71	20374
867.841	20484
867.972	20568
868.103	20423
868.233	20492
868.364	20609
868.495	20552
868.625	20720
868.756	20819
868.886	20670
869.017	20644
869.147	20864
869.278	20887
869.408	20720
869.539	20731
869.669	20807
869.799	20834
869.929	20861
870.06	20876
870.19	21112
870.32	21142
870.45	21127
870.58	21119
870.71	21207
870.84	21214
870.97	21131
871.1	21165
871.23	21249
871.36	21450
871.489	21287
871.619	21233
871.749	21294
871.879	21386
872.008	21469
872.138	21313
872.267	21386
872.397	21241
872.526	21028
872.656	21237
872.785	21047
872.915	21310
873.044	21564
873.173	21306
873.303	21264
873.432	21378
873.561	21412
873.69	21477
873.819	21283
873.948	21408
874.077	21359
874.206	21363
874.335	21355
874.464	21317
874.593	21644
874.722	21431
874.851	21747
874.979	21606
875.108	21618
875.237	21591
875.365	21519
875.494	21644
875.623	21785
875.751	21568
875.88	21713
876.008	21686
876.136	21762
876.265	21998
876.393	22147
876.521	22074
876.65	22150
876.778	21945
876.906	21964
877.034	21899
877.162	21991
877.29	21827
877.418	21998
877.546	22055
877.674	21960
877.802	21956
877.93	22013
878.058	21884
878.185	21960
878.313	21724
878.441	21960
878.568	21739
878.696	21915
878.824	21975
878.951	22082
879.079	22067
879.206	22166
879.333	22112
879.461	22010
879.588	22059
879.715	22090
879.842	22310
879.97	21960
880.097	21854
880.224	21778
880.351	21945
880.478	21903
880.605	21713
880.732	21819
880.859	21972
880.986	21789
881.112	21854
881.239	21736
881.366	21561
881.493	21454
881.619	21283
881.746	21340
881.872	21507
881.999	21454
882.125	21260
882.252	21317
882.378	21405
882.505	21466
882.631	21275
882.757	21195
882.883	21131
883.01	21279
883.136	21039
883.262	20944
883.388	20967
883.514	21039
883.64	21077
883.766	20948
883.892	20876
884.018	20853
884.143	21077
884.269	21176
884.395	20777
884.52	20613
884.646	20762
884.772	20705
884.897	20568
885.023	20716
885.148	20826
885.274	20849
885.399	20743
885.524	20678
885.65	20636
885.775	20682
885.9	20697
886.025	20800
886.15	20708
886.275	20720
886.4	20541
886.525	20750
886.65	20613
886.775	20727
886.9	20724
887.025	20868
887.149	20636
887.274	20476
887.399	20457
887.523	20423
887.648	20370
887.773	20393
887.897	20606
888.021	20556
888.146	20355
888.27	20518
888.395	20678
888.519	20609
888.643	20545
888.767	20651
888.891	20415
889.015	20328
889.139	20336
889.263	20339
889.387	20461
889.511	20438
889.635	20355
889.759	20237
889.883	20199
890.006	20267
890.13	20419
890.254	20218
890.377	20172
890.501	19875
890.624	19982
890.748	20111
890.871	19997
890.995	19871
891.118	19799
891.241	19917
891.364	19894
891.488	19909
891.611	19769
891.734	19879
891.857	19864
891.98	20035
892.103	19841
892.226	19830
892.349	19913
892.471	19601
892.594	19822
892.717	19845
892.839	19803
892.962	19803
893.085	19868
893.207	19761
893.33	19750
893.452	19575
893.575	19807
893.697	19780
893.819	19894
893.941	20115
894.064	19986
894.186	19677
894.308	19613
894.43	19719
894.552	19894
894.674	19887
894.796	19856
894.918	19746
895.04	19712
895.161	19807
895.283	19795
895.405	19753
895.526	19833
895.648	19761
895.769	19750
895.891	19727
896.012	19940
896.134	19814
896.255	19715
896.376	19765
896.498	19856
896.619	19833
896.74	19772
896.861	19803
896.982	20122
897.103	20191
897.224	20008
897.345	20024
897.466	19917
897.587	20016
897.708	20065
897.828	19963
897.949	19837
898.07	19814
898.19	19932
898.311	19947
898.431	19803
898.552	20024
898.672	20005
898.792	19970
898.913	19997
899.033	19845
899.153	19795
899.273	19681
899.393	19670
899.513	19795
899.633	19662
899.753	19670
899.873	19674
899.993	19727
900.113	19571
900.232	19738
900.352	19677
900.472	19521
900.591	19518
900.711	19525
900.83	19438
900.95	19590
901.069	19605
901.189	19373
901.308	19209
901.427	19171
901.546	19194
901.665	19126
901.784	19137
901.904	18943
902.023	18837
902.141	18658
902.26	18585
902.379	18757
902.498	18608
902.617	18532
902.735	18692
902.854	18513
902.973	18563
903.091	18281
903.21	18262
903.328	18228
903.446	18167
903.565	18178
903.683	18174
903.801	17996
903.919	18152
904.038	18003
904.156	17847
904.274	17863
904.392	17874
904.51	17813
904.627	17802
904.745	17965
904.863	17923
904.981	17699
905.098	17581
905.216	17577
905.334	17596
905.451	17581
905.569	17452
905.686	17653
905.803	17543
905.921	17429
906.038	17395
906.155	17425
906.272	17280
906.389	17239
906.506	17022
906.623	17018
906.74	16999
906.857	16923
906.974	17048
907.091	17178
907.208	17159
907.324	17204
907.441	17037
907.557	16797
907.674	16869
907.79	16771
907.907	16809
908.023	16824
908.139	16831
908.256	16862
908.372	16729
908.488	16721
908.604	16558
908.72	16622
908.836	16565
908.952	16519
909.068	16584
909.184	16687
909.3	16580
909.415	16580
909.531	16538
909.647	16112
909.762	16154
909.878	16147
909.993	16303
910.108	16337
910.224	16200
910.339	16329
910.454	16029
910.57	16135
910.685	15987
910.8	16306
910.915	16204
911.03	16021
911.145	15911
911.259	15808
911.374	15903
911.489	15823
911.604	15618
911.718	15561
911.833	15713
911.947	15519
912.062	15450
912.176	15564
912.291	15572
912.405	15599
912.519	15808
912.633	15812
912.748	15644
912.862	15553
912.976	15428
913.09	15321
913.204	15500
913.318	15431
913.431	15469
913.545	15603
913.659	15496
913.772	15378
913.886	15214
914	15188
914.113	15233
914.226	15275
914.34	15260
914.453	15142
914.566	15180
914.68	15180
914.793	15165
914.906	14899
915.019	14861
915.132	14739
915.245	14800
915.358	14868
915.47	14849
915.583	14807
915.696	14823
915.809	14960
915.921	14929
916.034	14785
916.146	14765
916.259	14629
916.371	14819
916.483	14773
916.595	14648
916.708	14697
916.82	14568
916.932	14705
917.044	14530
917.156	14579
917.268	14537
917.38	14545
917.491	14446
917.603	14495
917.715	14590
917.826	14560
917.938	14495
918.049	14294
918.161	14488
918.272	14518
918.384	14514
918.495	14419
918.606	14339
918.717	14229
918.828	14286
918.939	14339
919.05	14168
919.161	14252
919.272	14050
919.383	14073
919.494	14267
919.604	14423
919.715	14240
919.826	14168
919.936	14229
920.047	14305
920.157	14309
920.267	14454
920.378	14199
920.488	14126
920.598	14442
920.708	14587
920.818	14362
920.928	14313
921.038	14476
921.148	14526
921.258	14138
921.368	14142
921.477	14069
921.587	14050
921.697	13871
921.806	14065
921.916	13807
922.025	13658
922.134	13632
922.244	13601
922.353	13708
922.462	13544
922.571	13419
922.68	13381
922.789	13221
922.898	13304
923.007	13187
923.116	13301
923.224	13278
923.333	13266
923.442	13095
923.55	13129
923.659	13171
923.767	13133
923.876	13031
923.984	13137
924.092	13000
924.201	13076
924.309	13027
924.417	12947
924.525	12947
924.633	12943
924.741	13951
924.849	12719
924.956	12833
925.064	12677
925.172	12589
925.279	12623
925.387	12665
925.494	12681
925.602	12871
925.709	12677
925.816	12536
925.924	12669
926.031	12753
926.138	12662
926.245	12776
926.352	12551
926.459	12623
926.566	12601
926.673	12555
926.779	12437
926.886	12422
926.993	12330
927.099	12254
927.206	12201
927.312	12239
927.419	12319
927.525	12163
927.631	12315
927.737	12117
927.843	12015
927.95	11920
928.056	12045
928.162	12121
928.267	12095
928.373	12696
928.479	12228
928.585	11973
928.69	12098
928.796	12148
928.901	11935
929.007	11889
929.112	11973
929.218	11931
929.323	11809
929.428	11790
929.533	11908
929.638	11714
929.743	11832
929.848	11889
929.953	11760
930.058	11627
930.163	11566
930.267	11547
930.372	11638
930.477	11471
930.581	11699
930.685	11615
930.79	11414
930.894	11444
930.998	11391
931.103	11535
931.207	11162
931.311	11102
931.415	10949
931.519	10809
931.623	10809
