Data from test_V78500241_357.txt Node
Date: Fri Mar 25 15:12:20 CST 2022
User: usil
Spectrometer: V785-0024
Trigger mode: 0
Integration Time (sec): 4.000000E-1
Scans to average: 1
Nonlinearity correction enabled: false
Boxcar width: 0
Storing dark spectrum: false
XAxis mode: Wavelengths
Number of Pixels in Spectrum: 1024
>>>>>Begin Spectral Data<<<<<
801.071	26948
801.214	26815
801.356	26746
801.499	26705
801.641	26507
801.783	26716
801.926	26575
802.068	26587
802.211	26362
802.353	26377
802.496	26168
802.638	26278
802.78	26168
802.923	26122
803.065	26092
803.208	26126
803.35	26199
803.492	26324
803.635	26320
803.777	26210
803.919	26400
804.061	26613
804.204	26374
804.346	26267
804.488	26172
804.63	26309
804.773	26062
804.915	26339
805.057	26427
805.199	26301
805.341	26370
805.483	26389
805.626	26294
805.768	26259
805.91	26473
806.052	26518
806.194	26305
806.336	26556
806.478	26438
806.62	26381
806.762	26434
806.904	26712
807.046	26986
807.188	26796
807.33	26967
807.472	26910
807.614	26845
807.756	26754
807.898	26640
808.04	26526
808.182	26606
808.324	26716
808.465	26644
808.607	26788
808.749	27043
808.891	27009
809.033	27169
809.174	27218
809.316	26910
809.458	26857
809.6	26975
809.741	26994
809.883	26963
810.025	27252
810.166	27230
810.308	27203
810.45	27332
810.591	27180
810.733	27051
810.875	26982
811.016	26864
811.158	26834
811.299	27028
811.441	27043
811.582	27154
811.724	26937
811.865	26902
812.007	26800
812.148	26967
812.29	26906
812.431	27131
812.573	27203
812.714	27466
812.855	27530
812.997	27526
813.138	27785
813.279	27633
813.421	27542
813.562	27564
813.703	27359
813.845	27176
813.986	26910
814.127	26826
814.268	26549
814.41	26735
814.551	26621
814.692	26701
814.833	26617
814.974	26526
815.115	26632
815.256	26415
815.397	26514
815.539	26495
815.68	26457
815.821	26358
815.962	26541
816.103	26465
816.244	26374
816.385	26161
816.526	26252
816.666	25989
816.807	25868
816.948	25966
817.089	26122
817.23	25963
817.371	25845
817.512	25856
817.653	25917
817.793	25822
817.934	25883
818.075	25940
818.216	25955
818.356	25788
818.497	25772
818.638	25700
818.778	25674
818.919	25544
819.06	25818
819.2	25753
819.341	25978
819.481	25868
819.622	26122
819.762	26263
819.903	26122
820.043	25963
820.184	25928
820.324	25879
820.465	26103
820.605	26035
820.746	25932
820.886	25868
821.026	25951
821.167	25974
821.307	26077
821.447	25928
821.588	25928
821.728	25715
821.868	25525
822.008	25335
822.149	25381
822.289	25327
822.429	25187
822.569	25038
822.709	25137
822.849	24844
822.99	24871
823.13	24939
823.27	24677
823.41	24768
823.55	24627
823.69	24692
823.83	24692
823.97	24669
824.11	24483
824.25	24376
824.389	24582
824.529	24654
824.669	24570
824.809	24620
824.949	24681
825.089	24521
825.228	24555
825.368	24437
825.508	24361
825.648	24407
825.787	24521
825.927	24513
826.067	24384
826.206	24350
826.346	24384
826.485	24418
826.625	24414
826.765	24456
826.904	24410
827.044	24285
827.183	24213
827.323	24076
827.462	24121
827.601	24098
827.741	24053
827.88	24251
828.02	23939
828.159	23916
828.298	24095
828.437	24133
828.577	24076
828.716	24148
828.855	24060
828.994	23783
829.134	23783
829.273	23942
829.412	23737
829.551	23729
829.69	23767
829.829	23786
829.968	23859
830.107	23832
830.246	23878
830.385	23684
830.524	23809
830.663	23478
830.802	23535
830.941	23497
831.08	23269
831.219	23478
831.357	23619
831.496	23790
831.635	23482
831.774	23318
831.913	23402
832.051	23280
832.19	23197
832.329	23216
832.467	23105
832.606	23193
832.744	23208
832.883	23227
833.022	23166
833.16	23121
833.299	23128
833.437	23193
833.576	23117
833.714	23273
833.852	23258
833.991	23395
834.129	23376
834.267	23189
834.406	23220
834.544	23242
834.682	23143
834.821	23155
834.959	23334
835.097	23170
835.235	23227
835.373	23151
835.511	23212
835.65	23052
835.788	23029
835.926	22957
836.064	22911
836.202	22900
836.34	23083
836.478	23242
836.615	23075
836.753	22968
836.891	23227
837.029	23136
837.167	23041
837.305	23025
837.443	22991
837.58	22927
837.718	23029
837.856	22995
837.993	22847
838.131	23041
838.269	22771
838.406	22961
838.544	22793
838.681	22584
838.819	22470
838.956	22348
839.094	22428
839.231	22447
839.369	22561
839.506	22740
839.643	22573
839.781	22421
839.918	22398
840.055	22344
840.193	22405
840.33	22428
840.467	22226
840.604	22394
840.742	22577
840.879	22318
841.016	22329
841.153	22181
841.29	22440
841.427	22287
841.564	22265
841.701	22337
841.838	22276
841.975	22261
842.112	22207
842.249	22131
842.385	22090
842.522	22192
842.659	22223
842.796	22181
842.933	22067
843.069	21983
843.206	22040
843.343	22097
843.479	22063
843.616	22124
843.752	21846
843.889	21934
844.025	22040
844.162	21926
844.298	21960
844.435	21884
844.571	21759
844.708	21960
844.844	22044
844.98	21987
845.117	21884
845.253	21857
845.389	21755
845.525	21869
845.661	21770
845.798	21599
845.934	21538
846.07	21667
846.206	21564
846.342	21705
846.478	21587
846.614	21428
846.75	21230
846.886	21336
847.022	21481
847.158	21382
847.294	21374
847.429	21428
847.565	21294
847.701	21530
847.837	21123
847.972	21039
848.108	21142
848.244	21184
848.379	21119
848.515	20982
848.65	20899
848.786	21051
848.921	20906
849.057	21074
849.192	20918
849.328	20921
849.463	20998
849.598	20998
849.734	20868
849.869	20777
850.004	20625
850.14	20743
850.275	20792
850.41	20659
850.545	20663
850.68	20731
850.815	20792
850.95	20682
851.085	20883
851.22	20750
851.355	20800
851.49	20686
851.625	20541
851.76	20606
851.895	20693
852.03	20609
852.165	20613
852.299	20651
852.434	20758
852.569	20693
852.703	20632
852.838	20716
852.973	20785
853.107	20861
853.242	20590
853.376	20568
853.511	20507
853.645	20328
853.78	20629
853.914	20545
854.048	20465
854.183	20484
854.317	20533
854.451	20724
854.585	20465
854.72	20507
854.854	20609
854.988	20473
855.122	20400
855.256	20366
855.39	20480
855.524	20651
855.658	20571
855.792	20655
855.926	20438
856.06	20670
856.194	20644
856.327	20503
856.461	20492
856.595	20434
856.729	20552
856.862	20640
856.996	20495
857.13	20552
857.263	20655
857.397	20545
857.53	20549
857.664	20568
857.797	20549
857.931	20655
858.064	20499
858.197	20617
858.331	20492
858.464	20419
858.597	20461
858.731	20473
858.864	20412
858.997	20530
859.13	20511
859.263	20518
859.396	20708
859.529	20423
859.662	20564
859.795	20400
859.928	20583
860.061	20613
860.194	20663
860.327	20640
860.46	20434
860.592	20785
860.725	20549
860.858	20648
860.99	20499
861.123	20606
861.256	20514
861.388	20545
861.521	21055
861.653	20374
861.786	20370
861.918	20229
862.05	20454
862.183	20492
862.315	20522
862.447	20564
862.58	20446
862.712	20301
862.844	20199
862.976	20400
863.108	20298
863.24	20765
863.372	20248
863.504	20206
863.636	20309
863.768	20286
863.9	20172
864.032	20122
864.164	20256
864.296	20195
864.428	20252
864.559	20252
864.691	20370
864.823	20336
864.954	20244
865.086	20172
865.217	20103
865.349	20058
865.48	20195
865.612	20142
865.743	20278
865.875	20240
866.006	20191
866.137	20195
866.269	20202
866.4	20058
866.531	20145
866.662	20092
866.793	20073
866.924	20134
867.055	20119
867.186	20149
867.317	19993
867.448	20058
867.579	20107
867.71	20024
867.841	19970
867.972	20062
868.103	20077
868.233	19970
868.364	20111
868.495	20134
868.625	20298
868.756	20419
868.886	20259
869.017	20298
869.147	20385
869.278	20495
869.408	20324
869.539	20286
869.669	20511
869.799	20301
869.929	20438
870.06	20389
870.19	20697
870.32	20587
870.45	20648
870.58	20659
870.71	20773
870.84	20765
870.97	20830
871.1	20644
871.23	20921
871.36	20918
871.489	20712
871.619	20727
871.749	20956
871.879	21051
872.008	20963
872.138	20921
872.267	20864
872.397	20705
872.526	20765
872.656	20735
872.785	20682
872.915	20914
873.044	21104
873.173	20925
873.303	20952
873.432	20876
873.561	21093
873.69	21104
873.819	20982
873.948	21104
874.077	20864
874.206	20880
874.335	20918
874.464	21131
874.593	21188
874.722	21123
874.851	21222
874.979	21256
875.108	21176
875.237	21093
875.365	21058
875.494	21165
875.623	21138
875.751	21195
875.88	21214
876.008	21336
876.136	21389
876.265	21557
876.393	21591
876.521	21743
876.65	21572
876.778	21705
876.906	21553
877.034	21504
877.162	21595
877.29	21420
877.418	21561
877.546	21580
877.674	21507
877.802	21397
877.93	21530
878.058	21572
878.185	21397
878.313	21488
878.441	21583
878.568	21397
878.696	21610
878.824	21397
878.951	21538
879.079	21660
879.206	21759
879.333	21728
879.461	21515
879.588	21690
879.715	21728
879.842	21842
879.97	21587
880.097	21466
880.224	21325
880.351	21462
880.478	21348
880.605	21401
880.732	21287
880.859	21553
880.986	21340
881.112	21336
881.239	21184
881.366	21119
881.493	21070
881.619	20967
881.746	21009
881.872	20876
881.999	20929
882.125	20990
882.252	20918
882.378	20925
882.505	21047
882.631	20762
882.757	20621
882.883	20857
883.01	20632
883.136	20651
883.262	20568
883.388	20358
883.514	20651
883.64	20773
883.766	20606
883.892	20541
884.018	20396
884.143	20545
884.269	20724
884.395	20324
884.52	20305
884.646	20358
884.772	20259
884.897	20271
885.023	20275
885.148	20457
885.274	20385
885.399	20431
885.524	20195
885.65	20400
885.775	20309
885.9	20259
886.025	20351
886.15	20408
886.275	20480
886.4	20092
886.525	20202
886.65	20244
886.775	20233
886.9	20374
887.025	20533
887.149	20294
887.274	20081
887.399	20058
887.523	20062
887.648	19909
887.773	20069
887.897	20191
888.021	20271
888.146	20031
888.27	20221
888.395	20164
888.519	20065
888.643	20176
888.767	20145
888.891	20100
889.015	19902
889.139	19955
889.263	19837
889.387	19997
889.511	20153
889.635	20122
889.759	19879
889.883	20005
890.006	19879
890.13	19944
890.254	19940
890.377	19826
890.501	19624
890.624	19674
890.748	19662
890.871	19635
890.995	19441
891.118	19453
891.241	19544
891.364	19544
891.488	19651
891.611	19480
891.734	19540
891.857	19544
891.98	19422
892.103	19582
892.226	19487
892.349	19434
892.471	19240
892.594	19441
892.717	19384
892.839	19502
892.962	19476
893.085	19373
893.207	19396
893.33	19282
893.452	19396
893.575	19468
893.697	19312
893.819	19483
893.941	19674
894.064	19533
894.186	19320
894.308	19407
894.43	19407
894.552	19529
894.674	19457
894.796	19202
894.918	19362
895.04	19206
895.161	19415
895.283	19415
895.405	19396
895.526	19457
895.648	19381
895.769	19468
895.891	19426
896.012	19426
896.134	19354
896.255	19373
896.376	19339
896.498	19400
896.619	19396
896.74	19407
896.861	19354
896.982	19723
897.103	19818
897.224	19799
897.345	19670
897.466	19609
897.587	19677
897.708	19685
897.828	19620
897.949	19559
898.07	19597
898.19	19571
898.311	19628
898.431	19613
898.552	19533
898.672	19647
898.792	19727
898.913	19575
899.033	19594
899.153	19430
899.273	19327
899.393	19415
899.513	19480
899.633	19354
899.753	19358
899.873	19384
899.993	19476
900.113	19400
900.232	19221
900.352	19171
900.472	19118
900.591	19164
900.711	19190
900.83	19103
900.95	19270
901.069	19285
901.189	19137
901.308	18878
901.427	18726
901.546	18757
901.665	18779
901.784	18806
901.904	18559
902.023	18429
902.141	18365
902.26	18308
902.379	18380
902.498	18270
902.617	18308
902.735	18467
902.854	18273
902.973	18148
903.091	18041
903.21	17824
903.328	17923
903.446	17874
903.565	17813
903.683	17726
903.801	17638
903.919	17699
904.038	17710
904.156	17558
904.274	17642
904.392	17440
904.51	17493
904.627	17524
904.745	17532
904.863	17668
904.981	17280
905.098	17223
905.216	17212
905.334	17231
905.451	17239
905.569	17284
905.686	17280
905.803	17250
905.921	17064
906.038	17124
906.155	17086
906.272	16923
906.389	16930
906.506	16797
906.623	16778
906.74	16736
906.857	16687
906.974	16767
907.091	16812
907.208	16812
907.324	16778
907.441	16596
907.557	16558
907.674	16481
907.79	16405
907.907	16428
908.023	16523
908.139	16478
908.256	16459
908.372	16417
908.488	16398
908.604	16253
908.72	16162
908.836	16276
908.952	16200
909.068	16242
909.184	16219
909.3	16128
909.415	16253
909.531	16219
909.647	16021
909.762	15953
909.878	15922
909.993	16006
910.108	15816
910.224	15903
910.339	15915
910.454	15857
910.57	15622
910.685	15682
910.8	15968
910.915	15857
911.03	15739
911.145	15549
911.259	15610
911.374	15629
911.489	15519
911.604	15393
911.718	15412
911.833	15272
911.947	15173
912.062	15142
912.176	15226
912.291	15279
912.405	15329
912.519	15481
912.633	15355
912.748	15310
912.862	15184
912.976	15207
913.09	15043
913.204	15028
913.318	15028
913.431	15233
913.545	15192
913.659	15127
913.772	15077
913.886	14979
914	14914
914.113	14937
914.226	15036
914.34	14963
914.453	14769
914.566	15036
914.68	14769
914.793	14826
914.906	14689
915.019	14533
915.132	14533
915.245	14514
915.358	14488
915.47	14507
915.583	14488
915.696	14651
915.809	14674
915.921	14716
916.034	14442
916.146	14370
916.259	14381
916.371	14469
916.483	14442
916.595	14473
916.708	14412
916.82	14400
916.932	14381
917.044	14377
917.156	14313
917.268	14248
917.38	14187
917.491	14123
917.603	14282
917.715	14282
917.826	14206
917.938	14195
918.049	14092
918.161	14218
918.272	14317
918.384	14332
918.495	14259
918.606	14123
918.717	13970
918.828	14027
918.939	14005
919.05	13940
919.161	13936
919.272	13837
919.383	13898
919.494	14046
919.604	14176
919.715	13989
919.826	13921
919.936	13894
920.047	14046
920.157	13967
920.267	14164
920.378	13970
920.488	13909
920.598	14195
920.708	14244
920.818	14126
920.928	14012
921.038	14298
921.148	14172
921.258	13913
921.368	13890
921.477	13670
921.587	13689
921.697	13578
921.806	13693
921.916	13487
922.025	13430
922.134	13350
922.244	13343
922.353	13457
922.462	13183
922.571	13118
922.68	13046
922.789	12905
922.898	12985
923.007	13023
923.116	13114
923.224	13015
923.333	13008
923.442	12878
923.55	12821
923.659	12871
923.767	13000
923.876	12833
923.984	12817
924.092	12635
924.201	12817
924.309	12795
924.417	12817
924.525	12726
924.633	12726
924.741	13438
924.849	12506
924.956	12646
925.064	12506
925.172	12509
925.279	12414
925.387	12479
925.494	12418
925.602	12578
925.709	12475
925.816	12433
925.924	12452
926.031	12460
926.138	12483
926.245	12399
926.352	12323
926.459	12437
926.566	12429
926.673	12319
926.779	12296
926.886	12270
926.993	12079
927.099	11965
927.206	12068
927.312	11961
927.419	12026
927.525	12015
927.631	12057
927.737	11973
927.843	11855
927.95	11798
928.056	11908
928.162	11878
928.267	11950
928.373	12525
928.479	11950
928.585	11729
928.69	11866
928.796	11931
928.901	11726
929.007	11688
929.112	11741
929.218	11699
929.323	11634
929.428	11577
929.533	11699
929.638	11558
929.743	11516
929.848	11535
929.953	11539
930.058	11440
930.163	11326
930.267	11356
930.372	11482
930.477	11242
930.581	11452
930.685	11318
930.79	11121
930.894	11227
930.998	11216
931.103	11250
931.207	10949
931.311	10858
931.415	10774
931.519	10675
931.623	10615
