Data from test_V78500241_369.txt Node
Date: Fri Mar 25 15:12:25 CST 2022
User: usil
Spectrometer: V785-0024
Trigger mode: 0
Integration Time (sec): 4.000000E-1
Scans to average: 1
Nonlinearity correction enabled: false
Boxcar width: 0
Storing dark spectrum: false
XAxis mode: Wavelengths
Number of Pixels in Spectrum: 1024
>>>>>Begin Spectral Data<<<<<
801.071	26895
801.214	26933
801.356	26674
801.499	26785
801.641	26583
801.783	26480
801.926	26651
802.068	26469
802.211	26492
802.353	26473
802.496	26199
802.638	26183
802.78	26191
802.923	26164
803.065	26062
803.208	26252
803.35	26111
803.492	26343
803.635	26328
803.777	26218
803.919	26180
804.061	26545
804.204	26412
804.346	26153
804.488	26130
804.63	26214
804.773	26107
804.915	26214
805.057	26427
805.199	26412
805.341	26267
805.483	26457
805.626	26400
805.768	26275
805.91	26385
806.052	26317
806.194	26301
806.336	26579
806.478	26286
806.62	26313
806.762	26507
806.904	26549
807.046	26838
807.188	26849
807.33	26762
807.472	26857
807.614	26807
807.756	26720
807.898	26659
808.04	26598
808.182	26682
808.324	26503
808.465	26651
808.607	26811
808.749	26940
808.891	26914
809.033	27230
809.174	26975
809.316	27001
809.458	26982
809.6	27127
809.741	26963
809.883	27127
810.025	27043
810.166	27249
810.308	27313
810.45	27325
810.591	27176
810.733	27051
810.875	26956
811.016	26762
811.158	26769
811.299	27165
811.441	27127
811.582	27131
811.724	26895
811.865	26872
812.007	26845
812.148	26967
812.29	27032
812.431	27321
812.573	27218
812.714	27351
812.855	27450
812.997	27587
813.138	27713
813.279	27568
813.421	27580
813.562	27466
813.703	27389
813.845	27036
813.986	26990
814.127	26762
814.268	26724
814.41	26526
814.551	26537
814.692	26594
814.833	26659
814.974	26530
815.115	26568
815.256	26366
815.397	26446
815.539	26587
815.68	26503
815.821	26343
815.962	26480
816.103	26469
816.244	26195
816.385	26180
816.526	26153
816.666	25974
816.807	26001
816.948	25928
817.089	26100
817.23	25928
817.371	25928
817.512	25887
817.653	25776
817.793	25776
817.934	25860
818.075	25868
818.216	25776
818.356	25761
818.497	25696
818.638	25582
818.778	25632
818.919	25563
819.06	25719
819.2	25833
819.341	25765
819.481	25845
819.622	26077
819.762	26126
819.903	26149
820.043	26024
820.184	26054
820.324	25959
820.465	26054
820.605	26107
820.746	25966
820.886	25951
821.026	26073
821.167	25959
821.307	25944
821.447	25898
821.588	25746
821.728	25757
821.868	25460
822.008	25331
822.149	25346
822.289	25381
822.429	25065
822.569	25046
822.709	25057
822.849	24970
822.99	24886
823.13	24722
823.27	24642
823.41	24528
823.55	24475
823.69	24505
823.83	24669
823.97	24631
824.11	24380
824.25	24483
824.389	24422
824.529	24460
824.669	24456
824.809	24608
824.949	24566
825.089	24540
825.228	24616
825.368	24384
825.508	24277
825.648	24296
825.787	24296
825.927	24448
826.067	24281
826.206	24251
826.346	24350
826.485	24346
826.625	24304
826.765	24384
826.904	24319
827.044	24034
827.183	24152
827.323	23980
827.462	24106
827.601	23984
827.741	23999
827.88	24003
828.02	23923
828.159	23992
828.298	24011
828.437	24057
828.577	23973
828.716	24186
828.855	24098
828.994	23897
829.134	23828
829.273	23809
829.412	23687
829.551	23726
829.69	23843
829.829	23767
829.968	23821
830.107	23840
830.246	23661
830.385	23653
830.524	23775
830.663	23577
830.802	23562
830.941	23277
831.08	23311
831.219	23440
831.357	23410
831.496	23646
831.635	23402
831.774	23174
831.913	23330
832.051	23223
832.19	23178
832.329	23185
832.467	23197
832.606	22919
832.744	23014
832.883	23010
833.022	23075
833.16	23143
833.299	23094
833.437	23006
833.576	23307
833.714	23174
833.852	23151
833.991	23064
834.129	23269
834.267	23242
834.406	23140
834.544	23117
834.682	23109
834.821	23136
834.959	23273
835.097	23064
835.235	23155
835.373	23010
835.511	23075
835.65	23022
835.788	23060
835.926	22877
836.064	22805
836.202	22805
836.34	22942
836.478	23121
836.615	22987
836.753	22968
836.891	23041
837.029	22980
837.167	22881
837.305	23094
837.443	22812
837.58	22839
837.718	22968
837.856	22748
837.993	22805
838.131	22847
838.269	22752
838.406	22801
838.544	22618
838.681	22519
838.819	22584
838.956	22443
839.094	22325
839.231	22470
839.369	22531
839.506	22565
839.643	22630
839.781	22265
839.918	22306
840.055	22318
840.193	22261
840.33	22257
840.467	22280
840.604	22287
840.742	22546
840.879	22063
841.016	22284
841.153	22158
841.29	22409
841.427	22261
841.564	22272
841.701	22333
841.838	22154
841.975	22181
842.112	22044
842.249	22109
842.385	22074
842.522	22253
842.659	21979
842.796	21918
842.933	22154
843.069	22044
843.206	21941
843.343	22032
843.479	22025
843.616	21945
843.752	21709
843.889	21827
844.025	22002
844.162	21842
844.298	21930
844.435	21663
844.571	21724
844.708	21819
844.844	21945
844.98	22029
845.117	21937
845.253	21591
845.389	21667
845.525	21671
845.661	21819
845.798	21526
845.934	21720
846.07	21526
846.206	21591
846.342	21534
846.478	21500
846.614	21325
846.75	21150
846.886	21237
847.022	21355
847.158	21218
847.294	21108
847.429	21169
847.565	21245
847.701	21610
847.837	21085
847.972	20925
848.108	21131
848.244	21020
848.379	20941
848.515	20845
848.65	20887
848.786	20849
848.921	20902
849.057	20948
849.192	21051
849.328	20883
849.463	20914
849.598	20823
849.734	20716
849.869	20731
850.004	20575
850.14	20667
850.275	20720
850.41	20579
850.545	20571
850.68	20594
850.815	20617
850.95	20644
851.085	20731
851.22	20807
851.355	20739
851.49	20568
851.625	20590
851.76	20564
851.895	20499
852.03	20613
852.165	20701
852.299	20537
852.434	20731
852.569	20773
852.703	20640
852.838	20857
852.973	20739
853.107	20697
853.242	20564
853.376	20499
853.511	20237
853.645	20415
853.78	20564
853.914	20522
854.048	20362
854.183	20404
854.317	20568
854.451	20602
854.585	20446
854.72	20343
854.854	20552
854.988	20480
855.122	20476
855.256	20275
855.39	20454
855.524	20518
855.658	20446
855.792	20480
855.926	20446
856.06	20545
856.194	20552
856.327	20442
856.461	20370
856.595	20298
856.729	20461
856.862	20545
856.996	20480
857.13	20518
857.263	20549
857.397	20511
857.53	20492
857.664	20499
857.797	20434
857.931	20590
858.064	20423
858.197	20499
858.331	20332
858.464	20275
858.597	20332
858.731	20415
858.864	20343
858.997	20362
859.13	20457
859.263	20549
859.396	20594
859.529	20434
859.662	20396
859.795	20438
859.928	20396
860.061	20674
860.194	20739
860.327	20518
860.46	20423
860.592	20625
860.725	20575
860.858	20549
860.99	20442
861.123	20400
861.256	20282
861.388	20457
861.521	21028
861.653	20434
861.786	20218
861.918	20301
862.05	20362
862.183	20309
862.315	20324
862.447	20575
862.58	20332
862.712	20164
862.844	20134
862.976	20259
863.108	20256
863.24	20609
863.372	20218
863.504	20164
863.636	20161
863.768	20214
863.9	20206
864.032	20050
864.164	20145
864.296	20183
864.428	20313
864.559	20271
864.691	20355
864.823	20229
864.954	20126
865.086	20263
865.217	20180
865.349	20062
865.48	20046
865.612	20126
865.743	20142
865.875	20138
866.006	20043
866.137	20065
866.269	19967
866.4	20024
866.531	20054
866.662	19947
866.793	20081
866.924	19947
867.055	20058
867.186	20069
867.317	19997
867.448	19837
867.579	20084
867.71	19936
867.841	20035
867.972	20084
868.103	19936
868.233	20069
868.364	20005
868.495	20115
868.625	20256
868.756	20305
868.886	20054
869.017	20229
869.147	20476
869.278	20469
869.408	20336
869.539	20237
869.669	20385
869.799	20271
869.929	20419
870.06	20400
870.19	20575
870.32	20549
870.45	20648
870.58	20629
870.71	20838
870.84	20895
870.97	20644
871.1	20777
871.23	20777
871.36	20826
871.489	20777
871.619	20785
871.749	20864
871.879	20815
872.008	20975
872.138	20834
872.267	20876
872.397	20594
872.526	20682
872.656	20667
872.785	20644
872.915	20853
873.044	21017
873.173	20952
873.303	20902
873.432	20944
873.561	20937
873.69	20906
873.819	20895
873.948	20838
874.077	20857
874.206	20982
874.335	20914
874.464	20990
874.593	21119
874.722	21089
874.851	21218
874.979	21199
875.108	21203
875.237	21032
875.365	21024
875.494	20990
875.623	21256
875.751	21123
875.88	21127
876.008	21237
876.136	21329
876.265	21648
876.393	21580
876.521	21519
876.65	21568
876.778	21591
876.906	21545
877.034	21412
877.162	21526
877.29	21481
877.418	21523
877.546	21466
877.674	21545
877.802	21382
877.93	21435
878.058	21488
878.185	21363
878.313	21416
878.441	21443
878.568	21382
878.696	21397
878.824	21507
878.951	21545
879.079	21595
879.206	21850
879.333	21606
879.461	21545
879.588	21648
879.715	21663
879.842	21819
879.97	21504
880.097	21313
880.224	21298
880.351	21329
880.478	21344
880.605	21226
880.732	21272
880.859	21534
880.986	21321
881.112	21405
881.239	21100
881.366	21081
881.493	21116
881.619	20979
881.746	21017
881.872	20883
881.999	20868
882.125	20899
882.252	20933
882.378	20918
882.505	20891
882.631	20754
882.757	20587
882.883	20735
883.01	20743
883.136	20594
883.262	20408
883.388	20332
883.514	20590
883.64	20712
883.766	20473
883.892	20484
884.018	20541
884.143	20663
884.269	20720
884.395	20381
884.52	20161
884.646	20233
884.772	20240
884.897	20161
885.023	20336
885.148	20366
885.274	20450
885.399	20434
885.524	20237
885.65	20343
885.775	20191
885.9	20065
886.025	20492
886.15	20332
886.275	20366
886.4	20081
886.525	20229
886.65	20199
886.775	20187
886.9	20393
887.025	20530
887.149	20294
887.274	20046
887.399	20130
887.523	20027
887.648	20001
887.773	19951
887.897	20096
888.021	20077
888.146	19978
888.27	20206
888.395	20210
888.519	20176
888.643	20073
888.767	20187
888.891	19807
889.015	19890
889.139	19955
889.263	19841
889.387	20012
889.511	20153
889.635	19925
889.759	19845
889.883	19830
890.006	19967
890.13	19868
890.254	19693
890.377	19864
890.501	19601
890.624	19590
890.748	19750
890.871	19495
890.995	19453
891.118	19354
891.241	19480
891.364	19483
891.488	19525
891.611	19472
891.734	19464
891.857	19514
891.98	19396
892.103	19460
892.226	19639
892.349	19289
892.471	19343
892.594	19369
892.717	19346
892.839	19403
892.962	19312
893.085	19289
893.207	19343
893.33	19103
893.452	19251
893.575	19476
893.697	19228
893.819	19514
893.941	19582
894.064	19453
894.186	19171
894.308	19240
894.43	19506
894.552	19441
894.674	19369
894.796	19274
894.918	19255
895.04	19301
895.161	19384
895.283	19377
895.405	19346
895.526	19384
895.648	19381
895.769	19392
895.891	19339
896.012	19343
896.134	19567
896.255	19419
896.376	19320
896.498	19457
896.619	19373
896.74	19209
896.861	19529
896.982	19643
897.103	19803
897.224	19704
897.345	19605
897.466	19601
897.587	19506
897.708	19795
897.828	19624
897.949	19476
898.07	19354
898.19	19453
898.311	19643
898.431	19537
898.552	19495
898.672	19677
898.792	19597
898.913	19689
899.033	19441
899.153	19430
899.273	19381
899.393	19339
899.513	19346
899.633	19289
899.753	19274
899.873	19343
899.993	19282
900.113	19320
900.232	19377
900.352	19206
900.472	19133
900.591	19110
900.711	19156
900.83	18966
900.95	19228
901.069	19145
901.189	19084
901.308	18875
901.427	18856
901.546	18856
901.665	18696
901.784	18730
901.904	18589
902.023	18391
902.141	18247
902.26	18262
902.379	18426
902.498	18262
902.617	18117
902.735	18136
902.854	18232
902.973	18209
903.091	17901
903.21	17901
903.328	17935
903.446	17901
903.565	17668
903.683	17764
903.801	17630
903.919	17710
904.038	17665
904.156	17577
904.274	17581
904.392	17376
904.51	17570
904.627	17402
904.745	17573
904.863	17497
904.981	17315
905.098	17208
905.216	17064
905.334	17109
905.451	17189
905.569	17083
905.686	17178
905.803	17117
905.921	17048
906.038	17098
906.155	16957
906.272	16930
906.389	16866
906.506	16782
906.623	16793
906.74	16740
906.857	16500
906.974	16558
907.091	16763
907.208	16942
907.324	16771
907.441	16622
907.557	16451
907.674	16413
907.79	16405
907.907	16382
908.023	16352
908.139	16474
908.256	16402
908.372	16409
908.488	16405
908.604	16143
908.72	16185
908.836	16188
908.952	16147
909.068	16078
909.184	16284
909.3	16211
909.415	16246
909.531	16135
909.647	15975
909.762	15945
909.878	15850
909.993	15895
910.108	15861
910.224	15865
910.339	15835
910.454	15819
910.57	15762
910.685	15739
910.8	15880
910.915	15869
911.03	15663
911.145	15401
911.259	15595
911.374	15519
911.489	15393
911.604	15408
911.718	15233
911.833	15245
911.947	15055
912.062	15051
912.176	15207
912.291	15291
912.405	15184
912.519	15393
912.633	15469
912.748	15233
912.862	15135
912.976	15081
913.09	14979
913.204	14906
913.318	15024
913.431	15207
913.545	15116
913.659	15157
913.772	15020
913.886	14941
914	14887
914.113	15017
914.226	14998
914.34	14857
914.453	14773
914.566	14845
914.68	14724
914.793	14716
914.906	14629
915.019	14492
915.132	14514
915.245	14564
915.358	14564
915.47	14552
915.583	14606
915.696	14514
915.809	14579
915.921	14571
916.034	14469
916.146	14415
916.259	14415
916.371	14465
916.483	14419
916.595	14415
916.708	14313
916.82	14431
916.932	14259
917.044	14298
917.156	14317
917.268	14199
917.38	14218
917.491	14313
917.603	14195
917.715	14168
917.826	14267
917.938	14157
918.049	13959
918.161	14119
918.272	14259
918.384	14290
918.495	14153
918.606	13986
918.717	13879
918.828	13921
918.939	13925
919.05	13799
919.161	13944
919.272	13811
919.383	13818
919.494	13970
919.604	14145
919.715	13955
919.826	13967
919.936	13902
920.047	13879
920.157	13788
920.267	14134
920.378	13955
920.488	13875
920.598	14065
920.708	14233
920.818	14069
920.928	14111
921.038	14237
921.148	14248
921.258	13940
921.368	13864
921.477	13719
921.587	13689
921.697	13521
921.806	13742
921.916	13529
922.025	13384
922.134	13251
922.244	13285
922.353	13320
922.462	13263
922.571	13129
922.68	13015
922.789	12985
922.898	12977
923.007	12894
923.116	12981
923.224	12890
923.333	12928
923.442	12776
923.55	12787
923.659	12814
923.767	12886
923.876	12783
923.984	12757
924.092	12635
924.201	12802
924.309	12791
924.417	12768
924.525	12627
924.633	12654
924.741	13434
924.849	12494
924.956	12604
925.064	12452
925.172	12456
925.279	12403
925.387	12437
925.494	12410
925.602	12585
925.709	12494
925.816	12361
925.924	12448
926.031	12452
926.138	12502
926.245	12410
926.352	12315
926.459	12395
926.566	12544
926.673	12300
926.779	12175
926.886	12205
926.993	12060
927.099	11980
927.206	11931
927.312	11992
927.419	12068
927.525	11984
927.631	12003
927.737	11824
927.843	11882
927.95	11726
928.056	11893
928.162	11923
928.267	11939
928.373	12475
928.479	11927
928.585	11756
928.69	11824
928.796	11828
928.901	11688
929.007	11600
929.112	11813
929.218	11752
929.323	11592
929.428	11589
929.533	11767
929.638	11490
929.743	11497
929.848	11638
929.953	11589
930.058	11539
930.163	11292
930.267	11417
930.372	11440
930.477	11246
930.581	11452
930.685	11410
930.79	11220
930.894	11250
930.998	11189
931.103	11391
931.207	10919
931.311	11014
931.415	10862
931.519	10649
931.623	10607
