Data from test_V78500241_39.txt Node
Date: Fri Mar 25 15:10:08 CST 2022
User: usil
Spectrometer: V785-0024
Trigger mode: 0
Integration Time (sec): 4.000000E-1
Scans to average: 1
Nonlinearity correction enabled: false
Boxcar width: 0
Storing dark spectrum: false
XAxis mode: Wavelengths
Number of Pixels in Spectrum: 1024
>>>>>Begin Spectral Data<<<<<
801.071	28759
801.214	28694
801.356	28409
801.499	28348
801.641	28154
801.783	28379
801.926	28333
802.068	28109
802.211	28105
802.353	28135
802.496	27911
802.638	27945
802.78	27823
802.923	27720
803.065	27789
803.208	27934
803.35	27895
803.492	28048
803.635	27956
803.777	27953
803.919	28032
804.061	28310
804.204	28093
804.346	27854
804.488	27816
804.63	27998
804.773	27816
804.915	27975
805.057	28048
805.199	27960
805.341	28044
805.483	28021
805.626	27998
805.768	27949
805.91	28074
806.052	27994
806.194	27934
806.336	28215
806.478	28116
806.62	28082
806.762	28143
806.904	28356
807.046	28451
807.188	28531
807.33	28325
807.472	28436
807.614	28246
807.756	28382
807.898	28234
808.04	28124
808.182	28196
808.324	28261
808.465	28386
808.607	28287
808.749	28455
808.891	28462
809.033	28573
809.174	28523
809.316	28481
809.458	28493
809.6	28535
809.741	28584
809.883	28588
810.025	28626
810.166	28679
810.308	28835
810.45	28733
810.591	28577
810.733	28580
810.875	28398
811.016	28322
811.158	28234
811.299	28489
811.441	28683
811.582	28592
811.724	28344
811.865	28333
812.007	28329
812.148	28474
812.29	28287
812.431	28554
812.573	28675
812.714	28793
812.855	29071
812.997	29060
813.138	29280
813.279	29018
813.421	29067
813.562	28824
813.703	28702
813.845	28660
813.986	28284
814.127	28124
814.268	28105
814.41	28006
814.551	28036
814.692	28143
814.833	27983
814.974	28070
815.115	28109
815.256	27880
815.397	27907
815.539	27987
815.68	27888
815.821	27694
815.962	27778
816.103	27751
816.244	27675
816.385	27367
816.526	27351
816.666	27321
816.807	27233
816.948	27313
817.089	27264
817.23	27298
817.371	27142
817.512	27370
817.653	27100
817.793	27119
817.934	27005
818.075	27169
818.216	27096
818.356	27116
818.497	26925
818.638	26689
818.778	26933
818.919	26781
819.06	26899
819.2	26952
819.341	27001
819.481	27032
819.622	27241
819.762	27233
819.903	27260
820.043	27188
820.184	27062
820.324	27051
820.465	27233
820.605	27161
820.746	27154
820.886	27074
821.026	27093
821.167	27104
821.307	27096
821.447	26971
821.588	26891
821.728	26830
821.868	26689
822.008	26381
822.149	26465
822.289	26461
822.429	26240
822.569	26077
822.709	26046
822.849	25928
822.99	25898
823.13	25921
823.27	25906
823.41	25700
823.55	25700
823.69	25818
823.83	25830
823.97	25632
824.11	25651
824.25	25597
824.389	25487
824.529	25529
824.669	25426
824.809	25571
824.949	25514
825.089	25506
825.228	25487
825.368	25297
825.508	25301
825.648	25255
825.787	25411
825.927	25445
826.067	25274
826.206	25384
826.346	25217
826.485	25263
826.625	25274
826.765	25335
826.904	25358
827.044	24962
827.183	25031
827.323	24852
827.462	24951
827.601	24996
827.741	24901
827.88	24970
828.02	24882
828.159	24844
828.298	24882
828.437	25012
828.577	24787
828.716	24897
828.855	24738
828.994	24589
829.134	24635
829.273	24517
829.412	24570
829.551	24612
829.69	24582
829.829	24631
829.968	24730
830.107	24612
830.246	24646
830.385	24620
830.524	24490
830.663	24414
830.802	24342
830.941	24167
831.08	24125
831.219	24125
831.357	24201
831.496	24361
831.635	24057
831.774	23836
831.913	24018
832.051	23904
832.19	23901
832.329	23958
832.467	23939
832.606	23737
832.744	23737
832.883	23874
833.022	23805
833.16	23851
833.299	23760
833.437	23756
833.576	23893
833.714	23851
833.852	23878
833.991	23870
834.129	23813
834.267	23893
834.406	23783
834.544	23859
834.682	23859
834.821	23760
834.959	23882
835.097	23733
835.235	23764
835.373	23752
835.511	23824
835.65	23630
835.788	23611
835.926	23471
836.064	23349
836.202	23376
836.34	23501
836.478	23589
836.615	23554
836.753	23615
836.891	23665
837.029	23627
837.167	23478
837.305	23486
837.443	23497
837.58	23558
837.718	23539
837.856	23474
837.993	23368
838.131	23383
838.269	23223
838.406	23273
838.544	23318
838.681	23098
838.819	23098
838.956	22824
839.094	22873
839.231	22877
839.369	23018
839.506	23254
839.643	23052
839.781	22774
839.918	22733
840.055	22816
840.193	22706
840.33	22744
840.467	22675
840.604	22843
840.742	22942
840.879	22569
841.016	22634
841.153	22478
841.29	22759
841.427	22702
841.564	22706
841.701	22702
841.838	22542
841.975	22626
842.112	22519
842.249	22508
842.385	22394
842.522	22630
842.659	22394
842.796	22409
842.933	22318
843.069	22413
843.206	22379
843.343	22432
843.479	22542
843.616	22417
843.752	22097
843.889	22128
844.025	22177
844.162	22090
844.298	22177
844.435	22147
844.571	22090
844.708	22196
844.844	22299
844.98	22284
845.117	22173
845.253	22070
845.389	22017
845.525	22082
845.661	22048
845.798	21975
845.934	21964
846.07	21762
846.206	21857
846.342	21915
846.478	21816
846.614	21770
846.75	21515
846.886	21622
847.022	21720
847.158	21671
847.294	21660
847.429	21652
847.565	21500
847.701	21762
847.837	21268
847.972	21211
848.108	21519
848.244	21340
848.379	21211
848.515	21017
848.65	21131
848.786	21116
848.921	21211
849.057	21195
849.192	21218
849.328	21123
849.463	21127
849.598	21093
849.734	20944
849.869	20982
850.004	20933
850.14	20925
850.275	20826
850.41	20705
850.545	20845
850.68	20781
850.815	20872
850.95	20670
851.085	20982
851.22	20952
851.355	20769
851.49	20800
851.625	20727
851.76	20727
851.895	20708
852.03	20648
852.165	20845
852.299	20754
852.434	20948
852.569	20785
852.703	20758
852.838	20876
852.973	20857
853.107	20982
853.242	20663
853.376	20701
853.511	20518
853.645	20678
853.78	20682
853.914	20697
854.048	20617
854.183	20686
854.317	20724
854.451	20857
854.585	20693
854.72	20587
854.854	20686
854.988	20655
855.122	20663
855.256	20511
855.39	20629
855.524	20606
855.658	20621
855.792	20644
855.926	20632
856.06	20590
856.194	20746
856.327	20587
856.461	20655
856.595	20514
856.729	20602
856.862	20720
856.996	20613
857.13	20644
857.263	20746
857.397	20663
857.53	20537
857.664	20659
857.797	20617
857.931	20663
858.064	20625
858.197	20785
858.331	20526
858.464	20575
858.597	20393
858.731	20522
858.864	20522
858.997	20446
859.13	20545
859.263	20541
859.396	20606
859.529	20621
859.662	20560
859.795	20530
859.928	20587
860.061	20613
860.194	20838
860.327	20598
860.46	20530
860.592	20674
860.725	20606
860.858	20682
860.99	20503
861.123	20351
861.256	20465
861.388	20609
861.521	21123
861.653	20431
861.786	20366
861.918	20351
862.05	20526
862.183	20507
862.315	20495
862.447	20492
862.58	20552
862.712	20427
862.844	20290
862.976	20332
863.108	20317
863.24	20777
863.372	20039
863.504	20317
863.636	20286
863.768	20237
863.9	20252
864.032	20191
864.164	20256
864.296	20278
864.428	20214
864.559	20381
864.691	20366
864.823	20202
864.954	20256
865.086	20214
865.217	20126
865.349	20031
865.48	20077
865.612	20142
865.743	20225
865.875	20069
866.006	20008
866.137	20259
866.269	20153
866.4	20062
866.531	20111
866.662	19982
866.793	20130
866.924	20020
867.055	20164
867.186	19944
867.317	20043
867.448	19955
867.579	20062
867.71	19902
867.841	19970
867.972	20035
868.103	19944
868.233	19986
868.364	20142
868.495	20164
868.625	20263
868.756	20358
868.886	20271
869.017	20210
869.147	20343
869.278	20473
869.408	20294
869.539	20275
869.669	20240
869.799	20320
869.929	20427
870.06	20408
870.19	20636
870.32	20564
870.45	20689
870.58	20708
870.71	20735
870.84	20861
870.97	20724
871.1	20621
871.23	20849
871.36	20982
871.489	20826
871.619	20838
871.749	20853
871.879	21062
872.008	21013
872.138	20792
872.267	20804
872.397	20864
872.526	20621
872.656	20716
872.785	20758
872.915	20876
873.044	20941
873.173	20944
873.303	20952
873.432	20921
873.561	20883
873.69	20807
873.819	20921
873.948	20929
874.077	20937
874.206	20864
874.335	20868
874.464	21066
874.593	21173
874.722	21089
874.851	21119
874.979	21222
875.108	21241
875.237	21062
875.365	21119
875.494	21024
875.623	21211
875.751	21226
875.88	21207
876.008	21310
876.136	21260
876.265	21625
876.393	21694
876.521	21641
876.65	21629
876.778	21477
876.906	21408
877.034	21469
877.162	21477
877.29	21450
877.418	21488
877.546	21485
877.674	21530
877.802	21500
877.93	21477
878.058	21382
878.185	21325
878.313	21405
878.441	21496
878.568	21370
878.696	21439
878.824	21477
878.951	21538
879.079	21675
879.206	21751
879.333	21580
879.461	21538
879.588	21614
879.715	21709
879.842	21797
879.97	21599
880.097	21264
880.224	21245
880.351	21416
880.478	21370
880.605	21188
880.732	21298
880.859	21603
880.986	21283
881.112	21310
881.239	21252
881.366	21108
881.493	20963
881.619	20880
881.746	21017
881.872	20826
881.999	20906
882.125	20857
882.252	20906
882.378	20842
882.505	21009
882.631	20750
882.757	20632
882.883	20750
883.01	20594
883.136	20670
883.262	20609
883.388	20484
883.514	20629
883.64	20689
883.766	20495
883.892	20370
884.018	20473
884.143	20613
884.269	20750
884.395	20389
884.52	20275
884.646	20305
884.772	20237
884.897	20267
885.023	20336
885.148	20396
885.274	20423
885.399	20385
885.524	20366
885.65	20339
885.775	20377
885.9	20191
886.025	20347
886.15	20282
886.275	20168
886.4	20138
886.525	20195
886.65	20149
886.775	20233
886.9	20294
887.025	20522
887.149	20180
887.274	20119
887.399	20092
887.523	19944
887.648	19959
887.773	19913
887.897	20088
888.021	20016
888.146	19955
888.27	20027
888.395	20134
888.519	19993
888.643	20073
888.767	20142
888.891	19883
889.015	19780
889.139	19993
889.263	19757
889.387	19871
889.511	20073
889.635	19936
889.759	19875
889.883	19776
890.006	19750
890.13	19890
890.254	19780
890.377	19769
890.501	19559
890.624	19628
890.748	19639
890.871	19457
890.995	19400
891.118	19316
891.241	19415
891.364	19434
891.488	19476
891.611	19335
891.734	19304
891.857	19468
891.98	19449
892.103	19506
892.226	19407
892.349	19308
892.471	19225
892.594	19350
892.717	19396
892.839	19304
892.962	19335
893.085	19343
893.207	19335
893.33	19301
893.452	19247
893.575	19362
893.697	19384
893.819	19415
893.941	19559
894.064	19438
894.186	19301
894.308	19312
894.43	19476
894.552	19434
894.674	19449
894.796	19206
894.918	19301
895.04	19266
895.161	19476
895.283	19255
895.405	19293
895.526	19327
895.648	19301
895.769	19422
895.891	19430
896.012	19392
896.134	19430
896.255	19422
896.376	19358
896.498	19464
896.619	19468
896.74	19407
896.861	19377
896.982	19658
897.103	19906
897.224	19655
897.345	19719
897.466	19521
897.587	19628
897.708	19811
897.828	19670
897.949	19476
898.07	19476
898.19	19616
898.311	19590
898.431	19468
898.552	19548
898.672	19613
898.792	19620
898.913	19449
899.033	19297
899.153	19285
899.273	19247
899.393	19194
899.513	19312
899.633	19331
899.753	19354
899.873	19202
899.993	19346
900.113	19251
900.232	19320
900.352	19244
900.472	19095
900.591	19076
900.711	19145
900.83	19187
900.95	19240
901.069	19171
901.189	18977
901.308	18783
901.427	18745
901.546	18700
901.665	18745
901.784	18722
901.904	18517
902.023	18513
902.141	18232
902.26	18266
902.379	18342
902.498	18197
902.617	18114
902.735	18308
902.854	18178
902.973	18144
903.091	17912
903.21	17832
903.328	17832
903.446	17767
903.565	17691
903.683	17661
903.801	17520
903.919	17611
904.038	17695
904.156	17543
904.274	17493
904.392	17417
904.51	17398
904.627	17497
904.745	17493
904.863	17463
904.981	17200
905.098	17098
905.216	17181
905.334	17109
905.451	17124
905.569	16984
905.686	17178
905.803	17128
905.921	16873
906.038	16946
906.155	16987
906.272	16812
906.389	16828
906.506	16713
906.623	16683
906.74	16649
906.857	16554
906.974	16504
907.091	16656
907.208	16618
907.324	16694
907.441	16527
907.557	16360
907.674	16379
907.79	16295
907.907	16272
908.023	16291
908.139	16379
908.256	16265
908.372	16284
908.488	16139
908.604	16200
908.72	15991
908.836	16025
908.952	15983
909.068	16109
909.184	16093
909.3	16029
909.415	15972
909.531	16013
909.647	15812
909.762	15694
909.878	15705
909.993	15770
910.108	15644
910.224	15717
910.339	15663
910.454	15545
910.57	15507
910.685	15530
910.8	15641
910.915	15648
911.03	15549
911.145	15294
911.259	15325
911.374	15298
911.489	15272
911.604	15264
911.718	15062
911.833	15058
911.947	14948
912.062	14868
912.176	14963
912.291	15001
912.405	14944
912.519	15146
912.633	15188
912.748	14998
912.862	14921
912.976	14876
913.09	14678
913.204	14746
913.318	14933
913.431	14982
913.545	14944
913.659	14902
913.772	14861
913.886	14701
914	14651
914.113	14762
914.226	14845
914.34	14613
914.453	14545
914.566	14746
914.68	14568
914.793	14610
914.906	14446
915.019	14377
915.132	14237
915.245	14278
915.358	14355
915.47	14320
915.583	14298
915.696	14278
915.809	14434
915.921	14370
916.034	14199
916.146	14199
916.259	14221
916.371	14374
916.483	14351
916.595	14233
916.708	14134
916.82	14256
916.932	14031
917.044	14130
917.156	14225
917.268	13982
917.38	13967
917.491	13890
917.603	14111
917.715	13967
917.826	14134
917.938	13894
918.049	13799
918.161	13993
918.272	14092
918.384	14195
918.495	13947
918.606	13830
918.717	13670
918.828	13791
918.939	13822
919.05	13742
919.161	13723
919.272	13495
919.383	13578
919.494	13788
919.604	13864
919.715	13727
919.826	13597
919.936	13674
920.047	13731
920.157	13753
920.267	13868
920.378	13769
920.488	13750
920.598	13761
920.708	13917
920.818	13811
920.928	13753
921.038	14027
921.148	13807
921.258	13708
921.368	13525
921.477	13476
921.587	13422
921.697	13327
921.806	13438
921.916	13278
922.025	13129
922.134	13091
922.244	13103
922.353	13095
922.462	12958
922.571	12897
922.68	12783
922.789	12722
922.898	12734
923.007	12650
923.116	12783
923.224	12635
923.333	12707
923.442	12555
923.55	12555
923.659	12597
923.767	12589
923.876	12593
923.984	12585
924.092	12483
924.201	12551
924.309	12475
924.417	12528
924.525	12323
924.633	12414
924.741	13236
924.849	12258
924.956	12338
925.064	12258
925.172	12159
925.279	12171
925.387	12228
925.494	12152
925.602	12369
925.709	12235
925.816	12159
925.924	12155
926.031	12232
926.138	12197
926.245	12163
926.352	11992
926.459	12220
926.566	12163
926.673	12053
926.779	11954
926.886	11897
926.993	11760
927.099	11790
927.206	11790
927.312	11668
927.419	11851
927.525	11722
927.631	11874
927.737	11592
927.843	11680
927.95	11547
928.056	11562
928.162	11528
928.267	11634
928.373	12232
928.479	11680
928.585	11444
928.69	11547
928.796	11558
928.901	11497
929.007	11322
929.112	11414
929.218	11474
929.323	11421
929.428	11425
929.533	11493
929.638	11318
929.743	11273
929.848	11349
929.953	11273
930.058	11155
930.163	11064
930.267	11075
930.372	11250
930.477	11041
930.581	11246
930.685	11064
930.79	10984
930.894	10972
930.998	10896
931.103	11037
931.207	10698
931.311	10565
931.415	10474
931.519	10276
931.623	10291
