Data from test_V78500241_1488.txt Node
Date: Fri Mar 25 15:20:13 CST 2022
User: usil
Spectrometer: V785-0024
Trigger mode: 0
Integration Time (sec): 4.000000E-1
Scans to average: 1
Nonlinearity correction enabled: false
Boxcar width: 0
Storing dark spectrum: false
XAxis mode: Wavelengths
Number of Pixels in Spectrum: 1024
>>>>>Begin Spectral Data<<<<<
801.071	28116
801.214	28105
801.356	27766
801.499	27652
801.641	27663
801.783	27648
801.926	27690
802.068	27732
802.211	27557
802.353	27519
802.496	27351
802.638	27321
802.78	27310
802.923	27199
803.065	27161
803.208	27298
803.35	27306
803.492	27412
803.635	27439
803.777	27313
803.919	27587
804.061	27732
804.204	27439
804.346	27348
804.488	27386
804.63	27587
804.773	27458
804.915	27424
805.057	27534
805.199	27374
805.341	27408
805.483	27694
805.626	27686
805.768	27545
805.91	27625
806.052	27690
806.194	27648
806.336	27812
806.478	27724
806.62	27694
806.762	27641
806.904	27770
807.046	28154
807.188	28090
807.33	28051
807.472	28074
807.614	28036
807.756	28154
807.898	27972
808.04	27854
808.182	27922
808.324	27846
808.465	28029
808.607	28131
808.749	28295
808.891	28325
809.033	28413
809.174	28284
809.316	28207
809.458	28181
809.6	28261
809.741	28398
809.883	28379
810.025	28557
810.166	28527
810.308	28531
810.45	28497
810.591	28421
810.733	28295
810.875	28284
811.016	28070
811.158	28131
811.299	28394
811.441	28382
811.582	28394
811.724	28265
811.865	28219
812.007	28219
812.148	28268
812.29	28409
812.431	28485
812.573	28603
812.714	28656
812.855	28774
812.997	28888
813.138	29041
813.279	29075
813.421	28961
813.562	28767
813.703	28645
813.845	28607
813.986	28303
814.127	28211
814.268	28006
814.41	28078
814.551	27895
814.692	27934
814.833	27975
814.974	27892
815.115	27960
815.256	27854
815.397	27812
815.539	27812
815.68	27816
815.821	27557
815.962	27876
816.103	27797
816.244	27618
816.385	27595
816.526	27545
816.666	27397
816.807	27268
816.948	27306
817.089	27431
817.23	27389
817.371	27142
817.512	27230
817.653	27169
817.793	27233
817.934	27283
818.075	27275
818.216	27272
818.356	27100
818.497	27081
818.638	27100
818.778	27123
818.919	26990
819.06	26891
819.2	27135
819.341	27252
819.481	27283
819.622	27294
819.762	27705
819.903	27344
820.043	27545
820.184	27374
820.324	27427
820.465	27469
820.605	27488
820.746	27306
820.886	27237
821.026	27458
821.167	27291
821.307	27382
821.447	27260
821.588	27146
821.728	27066
821.868	26853
822.008	26792
822.149	26819
822.289	26720
822.429	26495
822.569	26404
822.709	26484
822.849	26317
822.99	26298
823.13	26332
823.27	26153
823.41	26157
823.55	26027
823.69	26069
823.83	26031
823.97	25982
824.11	25841
824.25	25784
824.389	25909
824.529	26077
824.669	25921
824.809	26092
824.949	26031
825.089	25951
825.228	26084
825.368	25689
825.508	25906
825.648	25757
825.787	25837
825.927	25807
826.067	25757
826.206	25791
826.346	25864
826.485	25738
826.625	25822
826.765	25772
826.904	25791
827.044	25590
827.183	25540
827.323	25491
827.462	25502
827.601	25472
827.741	25479
827.88	25499
828.02	25457
828.159	25483
828.298	25586
828.437	25521
828.577	25403
828.716	25594
828.855	25438
828.994	25282
829.134	25202
829.273	25221
829.412	25282
829.551	25076
829.69	25255
829.829	25156
829.968	25213
830.107	25145
830.246	25202
830.385	25251
830.524	25076
830.663	25072
830.802	24916
830.941	24875
831.08	24772
831.219	24852
831.357	24909
831.496	25031
831.635	24848
831.774	24776
831.913	24772
832.051	24627
832.19	24578
832.329	24677
832.467	24585
832.606	24513
832.744	24422
832.883	24350
833.022	24407
833.16	24498
833.299	24528
833.437	24452
833.576	24372
833.714	24612
833.852	24521
833.991	24479
834.129	24574
834.267	24505
834.406	24578
834.544	24433
834.682	24589
834.821	24437
834.959	24760
835.097	24471
835.235	24585
835.373	24410
835.511	24365
835.65	24361
835.788	24414
835.926	24194
836.064	24117
836.202	24258
836.34	24391
836.478	24448
836.615	24311
836.753	24380
836.891	24372
837.029	24365
837.167	24254
837.305	24205
837.443	24270
837.58	24273
837.718	24304
837.856	24209
837.993	24197
838.131	24178
838.269	23969
838.406	24007
838.544	24030
838.681	23748
838.819	23847
838.956	23707
839.094	23741
839.231	23687
839.369	23760
839.506	24114
839.643	23786
839.781	23611
839.918	23531
840.055	23729
840.193	23684
840.33	23551
840.467	23680
840.604	23649
840.742	23805
840.879	23395
841.016	23448
841.153	23528
841.29	23657
841.427	23463
841.564	23528
841.701	23543
841.838	23516
841.975	23471
842.112	23410
842.249	23417
842.385	23250
842.522	23417
842.659	23341
842.796	23356
842.933	23330
843.069	23223
843.206	23364
843.343	23360
843.479	23341
843.616	23364
843.752	23041
843.889	23025
844.025	23307
844.162	23090
844.298	23086
844.435	23086
844.571	23098
844.708	23151
844.844	23330
844.98	23227
845.117	23185
845.253	23132
845.389	23067
845.525	22987
845.661	23071
845.798	22778
845.934	22938
846.07	22752
846.206	22908
846.342	22923
846.478	22771
846.614	22554
846.75	22398
846.886	22622
847.022	22603
847.158	22599
847.294	22554
847.429	22672
847.565	22557
847.701	22805
847.837	22398
847.972	22211
848.108	22386
848.244	22474
848.379	22226
848.515	22120
848.65	22086
848.786	22090
848.921	22215
849.057	22181
849.192	22139
849.328	22200
849.463	22234
849.598	21994
849.734	22048
849.869	21994
850.004	21816
850.14	22055
850.275	21880
850.41	21835
850.545	21819
850.68	21823
850.815	21922
850.95	21797
851.085	22097
851.22	22006
851.355	22029
851.49	21766
851.625	21797
851.76	21774
851.895	21861
852.03	21755
852.165	21945
852.299	21895
852.434	21975
852.569	21869
852.703	21892
852.838	21983
852.973	22192
853.107	21899
853.242	21903
853.376	21747
853.511	21599
853.645	21671
853.78	21838
853.914	21728
854.048	21804
854.183	21720
854.317	21694
854.451	21865
854.585	21747
854.72	21713
854.854	21728
854.988	21633
855.122	21694
855.256	21564
855.39	21694
855.524	21800
855.658	21778
855.792	21713
855.926	21728
856.06	21804
856.194	21762
856.327	21732
856.461	21663
856.595	21679
856.729	21698
856.862	21918
856.996	21728
857.13	21736
857.263	21865
857.397	21698
857.53	21732
857.664	21838
857.797	21698
857.931	21789
858.064	21816
858.197	21804
858.331	21663
858.464	21587
858.597	21606
858.731	21656
858.864	21515
858.997	21663
859.13	21629
859.263	21747
859.396	21766
859.529	21747
859.662	21667
859.795	21656
859.928	21698
860.061	21804
860.194	21869
860.327	21690
860.46	21739
860.592	21812
860.725	21808
860.858	21766
860.99	21663
861.123	21690
861.256	21656
861.388	21599
861.521	22162
861.653	21458
861.786	21515
861.918	21500
862.05	21523
862.183	21583
862.315	21591
862.447	21648
862.58	21572
862.712	21530
862.844	21287
862.976	21515
863.108	21553
863.24	21865
863.372	21355
863.504	21329
863.636	21439
863.768	21443
863.9	21443
864.032	21447
864.164	21386
864.296	21469
864.428	21641
864.559	21511
864.691	21511
864.823	21370
864.954	21454
865.086	21401
865.217	21351
865.349	21279
865.48	21310
865.612	21294
865.743	21466
865.875	21351
866.006	21252
866.137	21317
866.269	21386
866.4	21313
866.531	21154
866.662	21325
866.793	21157
866.924	21161
867.055	21344
867.186	21237
867.317	21279
867.448	21135
867.579	21142
867.71	21237
867.841	21077
867.972	21230
868.103	21131
868.233	21165
868.364	21108
868.495	21249
868.625	21507
868.756	21481
868.886	21488
869.017	21412
869.147	21496
869.278	21462
869.408	21519
869.539	21420
869.669	21576
869.799	21496
869.929	21583
870.06	21671
870.19	21671
870.32	21759
870.45	21755
870.58	21934
870.71	21956
870.84	21960
870.97	21895
871.1	21808
871.23	21941
871.36	21964
871.489	21968
871.619	22128
871.749	22036
871.879	22128
872.008	22211
872.138	22097
872.267	22055
872.397	21869
872.526	21842
872.656	21949
872.785	21941
872.915	22128
873.044	22131
873.173	22040
873.303	22078
873.432	22093
873.561	22143
873.69	22143
873.819	22070
873.948	22166
874.077	21953
874.206	22070
874.335	22093
874.464	22166
874.593	22272
874.722	22242
874.851	22386
874.979	22405
875.108	22280
875.237	22295
875.365	22150
875.494	22200
875.623	22417
875.751	22230
875.88	22318
876.008	22523
876.136	22459
876.265	22694
876.393	22752
876.521	22820
876.65	22733
876.778	22622
876.906	22668
877.034	22607
877.162	22535
877.29	22626
877.418	22626
877.546	22725
877.674	22653
877.802	22713
877.93	22687
878.058	22618
878.185	22466
878.313	22577
878.441	22611
878.568	22523
878.696	22596
878.824	22664
878.951	22713
879.079	22782
879.206	22938
879.333	22831
879.461	22675
879.588	22752
879.715	22786
879.842	22839
879.97	22634
880.097	22516
880.224	22409
880.351	22394
880.478	22493
880.605	22325
880.732	22500
880.859	22691
880.986	22516
881.112	22500
881.239	22322
881.366	22223
881.493	22147
881.619	22093
881.746	21994
881.872	22082
881.999	21983
882.125	21838
882.252	22002
882.378	22006
882.505	22135
882.631	21915
882.757	21709
882.883	21800
883.01	21743
883.136	21633
883.262	21561
883.388	21545
883.514	21686
883.64	21778
883.766	21663
883.892	21519
884.018	21629
884.143	21591
884.269	21663
884.395	21462
884.52	21344
884.646	21428
884.772	21294
884.897	21249
885.023	21355
885.148	21397
885.274	21416
885.399	21488
885.524	21355
885.65	21329
885.775	21340
885.9	21454
886.025	21477
886.15	21450
886.275	21283
886.4	21218
886.525	21230
886.65	21336
886.775	21310
886.9	21382
887.025	21485
887.149	21310
887.274	21100
887.399	21268
887.523	21146
887.648	21077
887.773	21150
887.897	21184
888.021	21119
888.146	21085
888.27	21089
888.395	21184
888.519	21135
888.643	21222
888.767	21062
888.891	21066
889.015	20929
889.139	20948
889.263	21005
889.387	21077
889.511	21017
889.635	21032
889.759	20834
889.883	20937
890.006	20902
890.13	21108
890.254	20785
890.377	20914
890.501	20720
890.624	20583
890.748	20689
890.871	20583
890.995	20560
891.118	20427
891.241	20446
891.364	20476
891.488	20594
891.611	20476
891.734	20541
891.857	20522
891.98	20469
892.103	20571
892.226	20518
892.349	20343
892.471	20252
892.594	20317
892.717	20427
892.839	20393
892.962	20457
893.085	20533
893.207	20370
893.33	20309
893.452	20214
893.575	20404
893.697	20336
893.819	20556
893.941	20518
894.064	20629
894.186	20138
894.308	20366
894.43	20549
894.552	20434
894.674	20469
894.796	20259
894.918	20328
895.04	20282
895.161	20351
895.283	20450
895.405	20271
895.526	20355
895.648	20282
895.769	20385
895.891	20457
896.012	20355
896.134	20286
896.255	20271
896.376	20237
896.498	20473
896.619	20351
896.74	20298
896.861	20503
896.982	20682
897.103	20921
897.224	20712
897.345	20583
897.466	20602
897.587	20522
897.708	20743
897.828	20629
897.949	20659
898.07	20404
898.19	20461
898.311	20674
898.431	20594
898.552	20533
898.672	20606
898.792	20769
898.913	20705
899.033	20434
899.153	20450
899.273	20332
899.393	20404
899.513	20427
899.633	20336
899.753	20286
899.873	20130
899.993	20252
900.113	20267
900.232	20412
900.352	20343
900.472	20153
900.591	20016
900.711	20199
900.83	20024
900.95	20157
901.069	20130
901.189	19967
901.308	19658
901.427	19685
901.546	19590
901.665	19674
901.784	19639
901.904	19609
902.023	19362
902.141	19206
902.26	19160
902.379	19327
902.498	19278
902.617	19152
902.735	19247
902.854	19263
902.973	19228
903.091	18871
903.21	18863
903.328	18939
903.446	18848
903.565	18688
903.683	18635
903.801	18608
903.919	18631
904.038	18700
904.156	18441
904.274	18566
904.392	18407
904.51	18350
904.627	18361
904.745	18486
904.863	18509
904.981	18232
905.098	18091
905.216	18182
905.334	18133
905.451	18098
905.569	18110
905.686	18110
905.803	18133
905.921	17969
906.038	18072
906.155	17984
906.272	17767
906.389	17729
906.506	17627
906.623	17623
906.74	17699
906.857	17516
906.974	17505
907.091	17630
907.208	17809
907.324	17691
907.441	17573
907.557	17368
907.674	17379
907.79	17242
907.907	17181
908.023	17364
908.139	17383
908.256	17273
908.372	17269
908.488	17315
908.604	17090
908.72	17033
908.836	17151
908.952	17048
909.068	17018
909.184	17159
909.3	17025
909.415	17132
909.531	17151
909.647	16824
909.762	16797
909.878	16778
909.993	16809
910.108	16744
910.224	16736
910.339	16675
910.454	16546
910.57	16527
910.685	16573
910.8	16721
910.915	16721
911.03	16626
911.145	16379
911.259	16272
911.374	16481
911.489	16219
911.604	16234
911.718	16135
911.833	16105
911.947	15895
912.062	15941
912.176	16101
912.291	16109
912.405	16112
912.519	16291
912.633	16329
912.748	16154
912.862	16101
912.976	15934
913.09	15804
913.204	15861
913.318	15838
913.431	15911
913.545	16059
913.659	15953
913.772	15876
913.886	15743
914	15762
914.113	15869
914.226	15789
914.34	15816
914.453	15526
914.566	15736
914.68	15618
914.793	15485
914.906	15367
915.019	15298
915.132	15294
915.245	15260
915.358	15363
915.47	15291
915.583	15241
915.696	15340
915.809	15458
915.921	15454
916.034	15245
916.146	15211
916.259	15138
916.371	15195
916.483	15230
916.595	15165
916.708	15085
916.82	15097
916.932	15070
917.044	15085
917.156	15020
917.268	14979
917.38	14963
917.491	14906
917.603	14864
917.715	15001
917.826	15051
917.938	14899
918.049	14765
918.161	14899
918.272	15077
918.384	14948
918.495	14868
918.606	14758
918.717	14701
918.828	14697
918.939	14773
919.05	14701
919.161	14746
919.272	14503
919.383	14549
919.494	14762
919.604	14788
919.715	14598
919.826	14625
919.936	14621
920.047	14731
920.157	14651
920.267	14902
920.378	14590
920.488	14606
920.598	14800
920.708	14944
920.818	14727
920.928	14864
921.038	14990
921.148	14910
921.258	14648
921.368	14537
921.477	14408
921.587	14419
921.697	14309
921.806	14438
921.916	14187
922.025	14142
922.134	14001
922.244	14065
922.353	14077
922.462	13909
922.571	13788
922.68	13605
922.789	13636
922.898	13666
923.007	13628
923.116	13738
923.224	13757
923.333	13738
923.442	13544
923.55	13540
923.659	13518
923.767	13537
923.876	13422
923.984	13544
924.092	13392
924.201	13472
924.309	13400
924.417	13392
924.525	13339
924.633	13327
924.741	14096
924.849	13221
924.956	13289
925.064	13149
925.172	13095
925.279	13057
925.387	13118
925.494	13076
925.602	13278
925.709	13171
925.816	13027
925.924	13042
926.031	13061
926.138	12981
926.245	13080
926.352	12875
926.459	13065
926.566	13091
926.673	12985
926.779	12848
926.886	12848
926.993	12703
927.099	12650
927.206	12677
927.312	12623
927.419	12684
927.525	12635
927.631	12604
927.737	12578
927.843	12475
927.95	12414
928.056	12456
928.162	12456
928.267	12517
928.373	13065
928.479	12555
928.585	12334
928.69	12300
928.796	12467
928.901	12323
929.007	12258
929.112	12403
929.218	12270
929.323	12186
929.428	12106
929.533	12292
929.638	12216
929.743	12178
929.848	12159
929.953	12102
930.058	12011
930.163	11923
930.267	11885
930.372	11973
930.477	11748
930.581	12060
930.685	11866
930.79	11729
930.894	11805
930.998	11718
931.103	11859
931.207	11505
931.311	11440
931.415	11353
931.519	11094
931.623	11075
