Data from test_V78500241_2571.txt Node
Date: Fri Mar 25 15:27:45 CST 2022
User: usil
Spectrometer: V785-0024
Trigger mode: 0
Integration Time (sec): 4.000000E-1
Scans to average: 1
Nonlinearity correction enabled: false
Boxcar width: 0
Storing dark spectrum: false
XAxis mode: Wavelengths
Number of Pixels in Spectrum: 1024
>>>>>Begin Spectral Data<<<<<
801.071	27233
801.214	27268
801.356	27112
801.499	26971
801.641	26891
801.783	26838
801.926	26845
802.068	26823
802.211	26796
802.353	26640
802.496	26518
802.638	26473
802.78	26488
802.923	26446
803.065	26389
803.208	26351
803.35	26469
803.492	26712
803.635	26682
803.777	26461
803.919	26659
804.061	26925
804.204	26606
804.346	26636
804.488	26461
804.63	26655
804.773	26556
804.915	26625
805.057	26602
805.199	26564
805.341	26655
805.483	26807
805.626	26743
805.768	26625
805.91	26765
806.052	26693
806.194	26636
806.336	26853
806.478	26712
806.62	26667
806.762	26823
806.904	26986
807.046	27336
807.188	27096
807.33	27192
807.472	27294
807.614	27074
807.756	27051
807.898	27024
808.04	26948
808.182	27036
808.324	26906
808.465	26994
808.607	27150
808.749	27424
808.891	27458
809.033	27447
809.174	27466
809.316	27237
809.458	27332
809.6	27283
809.741	27561
809.883	27408
810.025	27709
810.166	27523
810.308	27789
810.45	27633
810.591	27561
810.733	27348
810.875	27401
811.016	27237
811.158	27169
811.299	27507
811.441	27603
811.582	27523
811.724	27199
811.865	27245
812.007	27310
812.148	27264
812.29	27435
812.431	27447
812.573	27660
812.714	27694
812.855	27713
812.997	27797
813.138	27994
813.279	27979
813.421	27876
813.562	27743
813.703	27641
813.845	27603
813.986	27211
814.127	27112
814.268	26944
814.41	27070
814.551	26982
814.692	26986
814.833	26902
814.974	26990
815.115	26971
815.256	26807
815.397	26906
815.539	26868
815.68	26857
815.821	26648
815.962	26796
816.103	26781
816.244	26587
816.385	26495
816.526	26507
816.666	26347
816.807	26199
816.948	26377
817.089	26320
817.23	26263
817.371	26309
817.512	26218
817.653	26187
817.793	26202
817.934	26252
818.075	26244
818.216	26164
818.356	26183
818.497	26195
818.638	25963
818.778	26008
818.919	25936
819.06	25963
819.2	26081
819.341	26351
819.481	26164
819.622	26526
819.762	26587
819.903	26415
820.043	26507
820.184	26317
820.324	26446
820.465	26453
820.605	26476
820.746	26320
820.886	26267
821.026	26336
821.167	26229
821.307	26339
821.447	26305
821.588	26134
821.728	26046
821.868	25986
822.008	25769
822.149	25833
822.289	25666
822.429	25559
822.569	25411
822.709	25472
822.849	25308
822.99	25324
823.13	25415
823.27	25187
823.41	25095
823.55	25027
823.69	25148
823.83	25053
823.97	25076
824.11	24981
824.25	24920
824.389	24901
824.529	24901
824.669	24848
824.809	25042
824.949	25027
825.089	24932
825.228	24844
825.368	24711
825.508	24692
825.648	24696
825.787	24817
825.927	24798
826.067	24745
826.206	24726
826.346	24749
826.485	24783
826.625	24779
826.765	24787
826.904	24669
827.044	24559
827.183	24551
827.323	24505
827.462	24525
827.601	24441
827.741	24426
827.88	24407
828.02	24437
828.159	24357
828.298	24350
828.437	24551
828.577	24498
828.716	24627
828.855	24388
828.994	24216
829.134	24213
829.273	24194
829.412	24148
829.551	24110
829.69	24228
829.829	24239
829.968	24353
830.107	24251
830.246	24209
830.385	24201
830.524	24053
830.663	24015
830.802	23912
830.941	23802
831.08	23805
831.219	23718
831.357	23950
831.496	24144
831.635	23760
831.774	23745
831.913	23771
832.051	23589
832.19	23665
832.329	23737
832.467	23600
832.606	23600
832.744	23509
832.883	23516
833.022	23345
833.16	23471
833.299	23433
833.437	23436
833.576	23558
833.714	23509
833.852	23611
833.991	23634
834.129	23672
834.267	23600
834.406	23619
834.544	23604
834.682	23539
834.821	23543
834.959	23813
835.097	23520
835.235	23672
835.373	23539
835.511	23608
835.65	23436
835.788	23406
835.926	23353
836.064	23242
836.202	23216
836.34	23452
836.478	23490
836.615	23353
836.753	23505
836.891	23512
837.029	23516
837.167	23395
837.305	23265
837.443	23296
837.58	23151
837.718	23246
837.856	23372
837.993	23159
838.131	23216
838.269	22976
838.406	23280
838.544	22999
838.681	22927
838.819	22774
838.956	22759
839.094	22664
839.231	22835
839.369	22919
839.506	23166
839.643	23086
839.781	22915
839.918	22683
840.055	22588
840.193	22645
840.33	22672
840.467	22790
840.604	22816
840.742	23094
840.879	22577
841.016	22683
841.153	22649
841.29	22733
841.427	22748
841.564	22660
841.701	22649
841.838	22672
841.975	22641
842.112	22687
842.249	22702
842.385	22512
842.522	22713
842.659	22607
842.796	22417
842.933	22409
843.069	22474
843.206	22363
843.343	22557
843.479	22428
843.616	22455
843.752	22379
843.889	22219
844.025	22382
844.162	22116
844.298	22382
844.435	22230
844.571	22223
844.708	22329
844.844	22356
844.98	22325
845.117	22291
845.253	22131
845.389	22036
845.525	22150
845.661	22032
845.798	21926
845.934	21994
846.07	21949
846.206	22055
846.342	22078
846.478	22006
846.614	21705
846.75	21660
846.886	21637
847.022	21724
847.158	21717
847.294	21682
847.429	21743
847.565	21603
847.701	21873
847.837	21435
847.972	21332
848.108	21519
848.244	21599
848.379	21355
848.515	21176
848.65	21260
848.786	21325
848.921	21310
849.057	21359
849.192	21378
849.328	21439
849.463	21256
849.598	21252
849.734	21142
849.869	21184
850.004	21142
850.14	21096
850.275	21066
850.41	20986
850.545	20971
850.68	21024
850.815	21047
850.95	21146
851.085	21268
851.22	21138
851.355	21043
851.49	21089
851.625	20990
851.76	20990
851.895	20948
852.03	20941
852.165	20963
852.299	21142
852.434	21142
852.569	21062
852.703	21013
852.838	21108
852.973	21203
853.107	21119
853.242	20937
853.376	20891
853.511	20705
853.645	20811
853.78	21024
853.914	20826
854.048	20921
854.183	20838
854.317	20941
854.451	21074
854.585	20834
854.72	20819
854.854	20864
854.988	20876
855.122	20838
855.256	20750
855.39	20891
855.524	20929
855.658	20845
855.792	21024
855.926	20891
856.06	20963
856.194	21009
856.327	20823
856.461	20967
856.595	20796
856.729	20986
856.862	21108
856.996	20921
857.13	20975
857.263	21020
857.397	20880
857.53	20815
857.664	20880
857.797	20887
857.931	20895
858.064	20819
858.197	21081
858.331	20910
858.464	20785
858.597	20727
858.731	20891
858.864	20925
858.997	20823
859.13	20952
859.263	20899
859.396	20948
859.529	20785
859.662	20781
859.795	20944
859.928	20895
860.061	21028
860.194	21157
860.327	20952
860.46	20891
860.592	20982
860.725	21051
860.858	20986
860.99	20963
861.123	20880
861.256	20788
861.388	20967
861.521	21496
861.653	20750
861.786	20811
861.918	20667
862.05	20815
862.183	20842
862.315	20864
862.447	20823
862.58	20834
862.712	20644
862.844	20522
862.976	20716
863.108	20571
863.24	21096
863.372	20712
863.504	20522
863.636	20545
863.768	20552
863.9	20701
864.032	20499
864.164	20530
864.296	20625
864.428	20781
864.559	20655
864.691	20727
864.823	20682
864.954	20564
865.086	20526
865.217	20499
865.349	20480
865.48	20473
865.612	20480
865.743	20773
865.875	20598
866.006	20495
866.137	20492
866.269	20476
866.4	20385
866.531	20454
866.662	20366
866.793	20446
866.924	20526
867.055	20507
867.186	20488
867.317	20499
867.448	20434
867.579	20393
867.71	20404
867.841	20412
867.972	20362
868.103	20469
868.233	20457
868.364	20377
868.495	20541
868.625	20621
868.756	20697
868.886	20526
869.017	20651
869.147	20758
869.278	20651
869.408	20773
869.539	20678
869.669	20762
869.799	20720
869.929	20777
870.06	20739
870.19	20944
870.32	21020
870.45	20994
870.58	20975
870.71	21112
870.84	21146
870.97	21100
871.1	21039
871.23	21226
871.36	21348
871.489	21169
871.619	21291
871.749	21260
871.879	21348
872.008	21306
872.138	21374
872.267	21268
872.397	21157
872.526	21116
872.656	21188
872.785	21058
872.915	21374
873.044	21428
873.173	21355
873.303	21378
873.432	21310
873.561	21405
873.69	21363
873.819	21302
873.948	21374
874.077	21306
874.206	21321
874.335	21386
874.464	21542
874.593	21515
874.722	21481
874.851	21561
874.979	21591
875.108	21641
875.237	21485
875.365	21466
875.494	21523
875.623	21629
875.751	21526
875.88	21705
876.008	21755
876.136	21747
876.265	21857
876.393	22150
876.521	21979
876.65	21876
876.778	21979
876.906	21949
877.034	21876
877.162	21937
877.29	21892
877.418	21991
877.546	21876
877.674	21911
877.802	21819
877.93	21781
878.058	21861
878.185	21785
878.313	21751
878.441	21778
878.568	21732
878.696	21747
878.824	21945
878.951	21911
879.079	22040
879.206	22150
879.333	21953
879.461	21953
879.588	21934
879.715	22128
879.842	22166
879.97	21915
880.097	21728
880.224	21614
880.351	21736
880.478	21603
880.605	21728
880.732	21724
880.859	21895
880.986	21610
881.112	21679
881.239	21542
881.366	21504
881.493	21344
881.619	21336
881.746	21374
881.872	21199
881.999	21291
882.125	21184
882.252	21233
882.378	21325
882.505	21291
882.631	21218
882.757	20971
882.883	21066
883.01	21081
883.136	20944
883.262	20815
883.388	20823
883.514	21009
883.64	21017
883.766	20963
883.892	20819
884.018	20902
884.143	20819
884.269	21070
884.395	20651
884.52	20598
884.646	20651
884.772	20511
884.897	20526
885.023	20625
885.148	20746
885.274	20876
885.399	20781
885.524	20609
885.65	20613
885.775	20697
885.9	20568
886.025	20720
886.15	20659
886.275	20514
886.4	20514
886.525	20659
886.65	20480
886.775	20537
886.9	20807
887.025	20777
887.149	20571
887.274	20389
887.399	20446
887.523	20404
887.648	20290
887.773	20454
887.897	20480
888.021	20564
888.146	20343
888.27	20575
888.395	20533
888.519	20450
888.643	20499
888.767	20469
888.891	20294
889.015	20195
889.139	20271
889.263	20218
889.387	20396
889.511	20495
889.635	20408
889.759	20343
889.883	20183
890.006	20096
890.13	20290
890.254	20016
890.377	20153
890.501	20001
890.624	20058
890.748	19917
890.871	19906
890.995	19712
891.118	19818
891.241	19742
891.364	19803
891.488	19784
891.611	19750
891.734	19761
891.857	19799
891.98	19822
892.103	19791
892.226	19738
892.349	19811
892.471	19643
892.594	19788
892.717	19685
892.839	19776
892.962	19750
893.085	19818
893.207	19594
893.33	19533
893.452	19628
893.575	19731
893.697	19601
893.819	19761
893.941	19887
894.064	19799
894.186	19620
894.308	19571
894.43	19746
894.552	19928
894.674	19833
894.796	19643
894.918	19670
895.04	19624
895.161	19811
895.283	19761
895.405	19723
895.526	19700
895.648	19674
895.769	19765
895.891	19757
896.012	19795
896.134	19841
896.255	19833
896.376	19643
896.498	19620
896.619	19731
896.74	19594
896.861	19689
896.982	20039
897.103	20202
897.224	19986
897.345	19932
897.466	19902
897.587	19875
897.708	20008
897.828	20008
897.949	19814
898.07	19814
898.19	19864
898.311	20001
898.431	19799
898.552	19974
898.672	19959
898.792	20016
898.913	19887
899.033	19841
899.153	19784
899.273	19628
899.393	19742
899.513	19616
899.633	19616
899.753	19738
899.873	19590
899.993	19753
900.113	19575
900.232	19708
900.352	19601
900.472	19552
900.591	19480
900.711	19578
900.83	19422
900.95	19594
901.069	19559
901.189	19354
901.308	19110
901.427	18928
901.546	19088
901.665	19126
901.784	19088
901.904	18951
902.023	18753
902.141	18673
902.26	18642
902.379	18646
902.498	18631
902.617	18483
902.735	18551
902.854	18525
902.973	18304
903.091	18209
903.21	18254
903.328	18232
903.446	18159
903.565	18106
903.683	18053
903.801	17870
903.919	18019
904.038	17923
904.156	17870
904.274	17878
904.392	17927
904.51	17783
904.627	17840
904.745	17893
904.863	17836
904.981	17661
905.098	17516
905.216	17467
905.334	17440
905.451	17509
905.569	17478
905.686	17615
905.803	17627
905.921	17383
906.038	17326
906.155	17239
906.272	17227
906.389	17124
906.506	17064
906.623	16930
906.74	17064
906.857	16820
906.974	16915
907.091	16946
907.208	17079
907.324	17117
907.441	16915
907.557	16740
907.674	16748
907.79	16748
907.907	16793
908.023	16774
908.139	16850
908.256	16584
908.372	16653
908.488	16653
908.604	16535
908.72	16485
908.836	16447
908.952	16421
909.068	16611
909.184	16481
909.3	16500
909.415	16462
909.531	16344
909.647	16200
909.762	16211
909.878	16059
909.993	16333
910.108	16181
910.224	16192
910.339	16131
910.454	16109
910.57	15945
910.685	15975
910.8	16219
910.915	16177
911.03	16025
911.145	15869
911.259	15873
911.374	15808
911.489	15720
911.604	15724
911.718	15496
911.833	15488
911.947	15568
912.062	15488
912.176	15610
912.291	15599
912.405	15644
912.519	15762
912.633	15717
912.748	15576
912.862	15447
912.976	15401
913.09	15272
913.204	15325
913.318	15329
913.431	15469
913.545	15439
913.659	15435
913.772	15325
913.886	15283
914	15207
914.113	15279
914.226	15317
914.34	15245
914.453	15028
914.566	15173
914.68	15112
914.793	15157
914.906	14811
915.019	14743
915.132	14705
915.245	14773
915.358	14918
915.47	14838
915.583	14830
915.696	14811
915.809	14929
915.921	14982
916.034	14731
916.146	14667
916.259	14663
916.371	14781
916.483	14689
916.595	14575
916.708	14659
916.82	14598
916.932	14651
917.044	14629
917.156	14587
917.268	14419
917.38	14454
917.491	14396
917.603	14408
917.715	14476
917.826	14587
917.938	14358
918.049	14271
918.161	14366
918.272	14610
918.384	14511
918.495	14404
918.606	14168
918.717	14172
918.828	14263
918.939	14267
919.05	14142
919.161	14275
919.272	14027
919.383	14062
919.494	14233
919.604	14355
919.715	14119
919.826	14111
919.936	14058
920.047	14324
920.157	14126
920.267	14362
920.378	14252
920.488	14176
920.598	14343
920.708	14488
920.818	14324
920.928	14294
921.038	14476
921.148	14499
921.258	14237
921.368	14084
921.477	13963
921.587	13921
921.697	13803
921.806	13944
921.916	13814
922.025	13715
922.134	13613
922.244	13544
922.353	13662
922.462	13502
922.571	13457
922.68	13282
922.789	13278
922.898	13339
923.007	13160
923.116	13190
923.224	13156
923.333	13126
923.442	13107
923.55	13008
923.659	13099
923.767	13145
923.876	12962
923.984	13099
924.092	12932
924.201	13000
924.309	13012
924.417	12954
924.525	12878
924.633	12821
924.741	13871
924.849	12772
924.956	12810
925.064	12597
925.172	12559
925.279	12719
925.387	12707
925.494	12650
925.602	12798
925.709	12738
925.816	12604
925.924	12612
926.031	12753
926.138	12582
926.245	12696
926.352	12494
926.459	12563
926.566	12700
926.673	12532
926.779	12384
926.886	12342
926.993	12270
927.099	12281
927.206	12220
927.312	12239
927.419	12289
927.525	12175
927.631	12296
927.737	12072
927.843	12117
927.95	12026
928.056	12038
928.162	12125
928.267	12049
928.373	12639
928.479	12163
928.585	11996
928.69	12034
928.796	12022
928.901	11866
929.007	11832
929.112	12030
929.218	11840
929.323	11813
929.428	11714
929.533	11866
929.638	11707
929.743	11767
929.848	11802
929.953	11809
930.058	11695
930.163	11478
930.267	11512
930.372	11627
930.477	11364
930.581	11691
930.685	11554
930.79	11349
930.894	11372
930.998	11440
931.103	11433
931.207	11105
931.311	11086
931.415	10896
931.519	10805
931.623	10809
