Data from test_V78500241_433.txt Node
Date: Fri Mar 25 15:12:52 CST 2022
User: usil
Spectrometer: V785-0024
Trigger mode: 0
Integration Time (sec): 4.000000E-1
Scans to average: 1
Nonlinearity correction enabled: false
Boxcar width: 0
Storing dark spectrum: false
XAxis mode: Wavelengths
Number of Pixels in Spectrum: 1024
>>>>>Begin Spectral Data<<<<<
801.071	27195
801.214	27055
801.356	26853
801.499	26823
801.641	26686
801.783	26579
801.926	26724
802.068	26545
802.211	26511
802.353	26396
802.496	26358
802.638	26476
802.78	26252
802.923	26290
803.065	26252
803.208	26233
803.35	26305
803.492	26393
803.635	26602
803.777	26301
803.919	26522
804.061	26716
804.204	26530
804.346	26374
804.488	26320
804.63	26507
804.773	26180
804.915	26583
805.057	26598
805.199	26301
805.341	26465
805.483	26609
805.626	26465
805.768	26385
805.91	26590
806.052	26518
806.194	26351
806.336	26613
806.478	26511
806.62	26526
806.762	26697
806.904	26739
807.046	26853
807.188	26963
807.33	26967
807.472	26914
807.614	26940
807.756	26910
807.898	26781
808.04	26823
808.182	26762
808.324	26731
808.465	26708
808.607	26960
808.749	27112
808.891	27306
809.033	27283
809.174	27154
809.316	27131
809.458	27127
809.6	27135
809.741	27207
809.883	27211
810.025	27504
810.166	27382
810.308	27374
810.45	27389
810.591	27272
810.733	27161
810.875	27199
811.016	27028
811.158	27047
811.299	27127
811.441	27306
811.582	27188
811.724	27169
811.865	27131
812.007	27127
812.148	26994
812.29	27176
812.431	27321
812.573	27374
812.714	27405
812.855	27519
812.997	27785
813.138	27774
813.279	27812
813.421	27671
813.562	27644
813.703	27500
813.845	27275
813.986	27043
814.127	27001
814.268	26826
814.41	26720
814.551	26731
814.692	27028
814.833	26651
814.974	26708
815.115	26758
815.256	26651
815.397	26663
815.539	26674
815.68	26594
815.821	26465
815.962	26629
816.103	26583
816.244	26503
816.385	26271
816.526	26393
816.666	26164
816.807	25890
816.948	26043
817.089	26100
817.23	26100
817.371	26073
817.512	26077
817.653	26027
817.793	26008
817.934	26100
818.075	26149
818.216	26096
818.356	26077
818.497	25887
818.638	25788
818.778	25845
818.919	25681
819.06	25868
819.2	25909
819.341	25993
819.481	25921
819.622	26199
819.762	26412
819.903	26282
820.043	26248
820.184	26358
820.324	26229
820.465	26275
820.605	26176
820.746	26183
820.886	26130
821.026	26134
821.167	26164
821.307	26172
821.447	26020
821.588	26008
821.728	25826
821.868	25674
822.008	25499
822.149	25506
822.289	25476
822.429	25308
822.569	25251
822.709	25095
822.849	25050
822.99	25042
823.13	25057
823.27	24973
823.41	24833
823.55	24745
823.69	24768
823.83	24916
823.97	24791
824.11	24673
824.25	24585
824.389	24623
824.529	24730
824.669	24604
824.809	24757
824.949	24749
825.089	24688
825.228	24768
825.368	24597
825.508	24334
825.648	24521
825.787	24483
825.927	24601
826.067	24448
826.206	24585
826.346	24532
826.485	24486
826.625	24475
826.765	24635
826.904	24589
827.044	24163
827.183	24144
827.323	24076
827.462	24213
827.601	24296
827.741	24155
827.88	24117
828.02	24079
828.159	24235
828.298	24228
828.437	24254
828.577	24121
828.716	24350
828.855	24216
828.994	23878
829.134	24026
829.273	24064
829.412	23935
829.551	23939
829.69	23935
829.829	24034
829.968	24007
830.107	23931
830.246	23988
830.385	23942
830.524	23912
830.663	23684
830.802	23741
830.941	23581
831.08	23570
831.219	23634
831.357	23672
831.496	23775
831.635	23661
831.774	23391
831.913	23482
832.051	23406
832.19	23303
832.329	23296
832.467	23242
832.606	23204
832.744	23216
832.883	23296
833.022	23318
833.16	23265
833.299	23337
833.437	23212
833.576	23254
833.714	23334
833.852	23292
833.991	23360
834.129	23410
834.267	23376
834.406	23337
834.544	23353
834.682	23376
834.821	23223
834.959	23585
835.097	23147
835.235	23356
835.373	23280
835.511	23258
835.65	23178
835.788	23292
835.926	22999
836.064	22881
836.202	22987
836.34	22991
836.478	23269
836.615	23227
836.753	23166
836.891	23239
837.029	23212
837.167	23174
837.305	23113
837.443	23071
837.58	23037
837.718	23094
837.856	23200
837.993	22835
838.131	23075
838.269	22831
838.406	22957
838.544	22748
838.681	22687
838.819	22702
838.956	22531
839.094	22531
839.231	22641
839.369	22523
839.506	22904
839.643	22637
839.781	22447
839.918	22481
840.055	22512
840.193	22519
840.33	22394
840.467	22447
840.604	22447
840.742	22637
840.879	22371
841.016	22375
841.153	22223
841.29	22542
841.427	22432
841.564	22436
841.701	22371
841.838	22356
841.975	22207
842.112	22341
842.249	22116
842.385	22169
842.522	22375
842.659	22306
842.796	22124
842.933	22128
843.069	22139
843.206	22303
843.343	22299
843.479	22215
843.616	22226
843.752	22029
843.889	21930
844.025	22200
844.162	21983
844.298	22067
844.435	22006
844.571	21915
844.708	22002
844.844	22166
844.98	22150
845.117	22044
845.253	21846
845.389	21759
845.525	21831
845.661	21713
845.798	21679
845.934	21675
846.07	21743
846.206	21804
846.342	21838
846.478	21766
846.614	21435
846.75	21332
846.886	21477
847.022	21447
847.158	21462
847.294	21374
847.429	21428
847.565	21447
847.701	21720
847.837	21188
847.972	21222
848.108	21283
848.244	21165
848.379	21157
848.515	21020
848.65	20952
848.786	21081
848.921	20925
849.057	21157
849.192	21093
849.328	21165
849.463	21089
849.598	20975
849.734	20937
849.869	20948
850.004	20823
850.14	20975
850.275	20807
850.41	20689
850.545	20697
850.68	20815
850.815	20921
850.95	20743
851.085	21051
851.22	20941
851.355	20830
851.49	20735
851.625	20845
851.76	20788
851.895	20530
852.03	20693
852.165	20754
852.299	20769
852.434	20777
852.569	20933
852.703	20716
852.838	20823
852.973	20956
853.107	20921
853.242	20826
853.376	20689
853.511	20617
853.645	20530
853.78	20712
853.914	20613
854.048	20598
854.183	20594
854.317	20678
854.451	20914
854.585	20579
854.72	20568
854.854	20724
854.988	20579
855.122	20552
855.256	20526
855.39	20651
855.524	20735
855.658	20670
855.792	20575
855.926	20708
856.06	20701
856.194	20773
856.327	20617
856.461	20564
856.595	20617
856.729	20579
856.862	20682
856.996	20746
857.13	20587
857.263	20621
857.397	20708
857.53	20556
857.664	20678
857.797	20750
857.931	20735
858.064	20686
858.197	20727
858.331	20568
858.464	20629
858.597	20511
858.731	20701
858.864	20579
858.997	20606
859.13	20632
859.263	20640
859.396	20716
859.529	20556
859.662	20571
859.795	20526
859.928	20640
860.061	20743
860.194	20804
860.327	20629
860.46	20613
860.592	20857
860.725	20731
860.858	20826
860.99	20629
861.123	20473
861.256	20613
861.388	20590
861.521	21359
861.653	20568
861.786	20412
861.918	20412
862.05	20469
862.183	20590
862.315	20602
862.447	20758
862.58	20583
862.712	20347
862.844	20263
862.976	20415
863.108	20419
863.24	20918
863.372	20286
863.504	20412
863.636	20298
863.768	20347
863.9	20252
864.032	20320
864.164	20180
864.296	20339
864.428	20473
864.559	20328
864.691	20442
864.823	20492
864.954	20427
865.086	20358
865.217	20389
865.349	20339
865.48	20355
865.612	20343
865.743	20476
865.875	20351
866.006	20305
866.137	20256
866.269	20298
866.4	20278
866.531	20183
866.662	20100
866.793	20248
866.924	20153
867.055	20180
867.186	20153
867.317	20172
867.448	20088
867.579	20214
867.71	20138
867.841	20115
867.972	20195
868.103	20122
868.233	20149
868.364	20221
868.495	20267
868.625	20446
868.756	20518
868.886	20454
869.017	20381
869.147	20480
869.278	20549
869.408	20503
869.539	20503
869.669	20492
869.799	20480
869.929	20571
870.06	20495
870.19	20743
870.32	20750
870.45	20800
870.58	20785
870.71	20975
870.84	20986
870.97	20929
871.1	20804
871.23	21020
871.36	20902
871.489	21005
871.619	20914
871.749	21020
871.879	21039
872.008	21226
872.138	21047
872.267	21100
872.397	20872
872.526	20777
872.656	20853
872.785	20941
872.915	21051
873.044	21100
873.173	21047
873.303	21104
873.432	21112
873.561	21233
873.69	21119
873.819	21024
873.948	21138
874.077	21043
874.206	21017
874.335	21150
874.464	21222
874.593	21294
874.722	21275
874.851	21348
874.979	21283
875.108	21420
875.237	21192
875.365	21260
875.494	21119
875.623	21443
875.751	21199
875.88	21287
876.008	21428
876.136	21431
876.265	21686
876.393	21846
876.521	21854
876.65	21819
876.778	21663
876.906	21614
877.034	21625
877.162	21595
877.29	21694
877.418	21743
877.546	21618
877.674	21690
877.802	21610
877.93	21675
878.058	21637
878.185	21454
878.313	21622
878.441	21618
878.568	21530
878.696	21667
878.824	21686
878.951	21686
879.079	21709
879.206	21884
879.333	21876
879.461	21705
879.588	21724
879.715	21717
879.842	21781
879.97	21781
880.097	21629
880.224	21492
880.351	21538
880.478	21386
880.605	21481
880.732	21496
880.859	21644
880.986	21458
881.112	21549
881.239	21291
881.366	21226
881.493	21127
881.619	21024
881.746	21039
881.872	21017
881.999	20960
882.125	21028
882.252	21077
882.378	21051
882.505	21226
882.631	20895
882.757	20773
882.883	20823
883.01	20834
883.136	20762
883.262	20712
883.388	20594
883.514	20857
883.64	20845
883.766	20640
883.892	20625
884.018	20617
884.143	20735
884.269	20777
884.395	20511
884.52	20431
884.646	20427
884.772	20343
884.897	20240
885.023	20412
885.148	20514
885.274	20613
885.399	20541
885.524	20457
885.65	20450
885.775	20438
885.9	20400
886.025	20533
886.15	20564
886.275	20412
886.4	20313
886.525	20362
886.65	20374
886.775	20313
886.9	20507
887.025	20682
887.149	20412
887.274	20210
887.399	20122
887.523	20153
887.648	20031
887.773	20199
887.897	20199
888.021	20290
888.146	20043
888.27	20202
888.395	20271
888.519	20225
888.643	20275
888.767	20214
888.891	20031
889.015	20031
889.139	20096
889.263	19951
889.387	20069
889.511	20301
889.635	20157
889.759	19928
889.883	20020
890.006	20024
890.13	20126
890.254	19890
890.377	20005
890.501	19708
890.624	19666
890.748	19723
890.871	19765
890.995	19613
891.118	19491
891.241	19601
891.364	19571
891.488	19715
891.611	19624
891.734	19537
891.857	19635
891.98	19616
892.103	19693
892.226	19647
892.349	19590
892.471	19457
892.594	19396
892.717	19540
892.839	19438
892.962	19510
893.085	19575
893.207	19514
893.33	19381
893.452	19400
893.575	19529
893.697	19483
893.819	19670
893.941	19719
894.064	19635
894.186	19518
894.308	19285
894.43	19464
894.552	19597
894.674	19506
894.796	19331
894.918	19525
895.04	19502
895.161	19544
895.283	19449
895.405	19434
895.526	19499
895.648	19430
895.769	19521
895.891	19468
896.012	19563
896.134	19556
896.255	19571
896.376	19491
896.498	19453
896.619	19556
896.74	19502
896.861	19544
896.982	19822
897.103	19902
897.224	19757
897.345	19704
897.466	19578
897.587	19742
897.708	19868
897.828	19734
897.949	19685
898.07	19613
898.19	19723
898.311	19765
898.431	19655
898.552	19712
898.672	19837
898.792	19845
898.913	19795
899.033	19601
899.153	19552
899.273	19400
899.393	19540
899.513	19510
899.633	19445
899.753	19392
899.873	19388
899.993	19575
900.113	19460
900.232	19483
900.352	19293
900.472	19354
900.591	19213
900.711	19190
900.83	19202
900.95	19381
901.069	19335
901.189	19289
901.308	18947
901.427	18871
901.546	18753
901.665	18901
901.784	18833
901.904	18779
902.023	18635
902.141	18525
902.26	18380
902.379	18494
902.498	18464
902.617	18346
902.735	18445
902.854	18380
902.973	18205
903.091	18098
903.21	18022
903.328	18045
903.446	17984
903.565	17889
903.683	17851
903.801	17695
903.919	17882
904.038	17840
904.156	17707
904.274	17722
904.392	17615
904.51	17585
904.627	17653
904.745	17729
904.863	17748
904.981	17463
905.098	17349
905.216	17269
905.334	17288
905.451	17269
905.569	17284
905.686	17299
905.803	17296
905.921	17185
906.038	17181
906.155	17212
906.272	17147
906.389	17045
906.506	16801
906.623	16843
906.74	16763
906.857	16828
906.974	16694
907.091	16942
907.208	16961
907.324	16866
907.441	16733
907.557	16687
907.674	16588
907.79	16489
907.907	16546
908.023	16687
908.139	16527
908.256	16672
908.372	16512
908.488	16379
908.604	16303
908.72	16253
908.836	16280
908.952	16348
909.068	16219
909.184	16363
909.3	16215
909.415	16360
909.531	16284
909.647	16044
909.762	16090
909.878	16078
909.993	16017
910.108	15880
910.224	16032
910.339	16021
910.454	15926
910.57	15869
910.685	15800
910.8	16032
910.915	15911
911.03	15838
911.145	15652
911.259	15618
911.374	15675
911.489	15568
911.604	15561
911.718	15405
911.833	15412
911.947	15157
912.062	15226
912.176	15260
912.291	15344
912.405	15272
912.519	15557
912.633	15526
912.748	15351
912.862	15313
912.976	15203
913.09	15074
913.204	14979
913.318	15218
913.431	15279
913.545	15291
913.659	15370
913.772	15138
913.886	15024
914	14990
914.113	15062
914.226	15157
914.34	15097
914.453	14762
914.566	14982
914.68	14948
914.793	14887
914.906	14731
915.019	14625
915.132	14613
915.245	14514
915.358	14678
915.47	14648
915.583	14632
915.696	14644
915.809	14648
915.921	14727
916.034	14526
916.146	14537
916.259	14461
916.371	14594
916.483	14579
916.595	14465
916.708	14442
916.82	14526
916.932	14473
917.044	14457
917.156	14400
917.268	14339
917.38	14343
917.491	14320
917.603	14358
917.715	14362
917.826	14419
917.938	14210
918.049	14103
918.161	14278
918.272	14393
918.384	14278
918.495	14336
918.606	14096
918.717	14092
918.828	14107
918.939	14077
919.05	13925
919.161	13947
919.272	13761
919.383	13928
919.494	14103
919.604	14294
919.715	14031
919.826	13921
919.936	14039
920.047	14069
920.157	14020
920.267	14183
920.378	14001
920.488	14016
920.598	14172
920.708	14328
920.818	14126
920.928	14164
921.038	14362
921.148	14256
921.258	14005
921.368	13902
921.477	13753
921.587	13776
921.697	13731
921.806	13791
921.916	13685
922.025	13472
922.134	13388
922.244	13324
922.353	13537
922.462	13266
922.571	13228
922.68	13141
922.789	13126
922.898	13080
923.007	13004
923.116	13050
923.224	13107
923.333	13012
923.442	12954
923.55	12920
923.659	12901
923.767	12966
923.876	12875
923.984	12913
924.092	12840
924.201	12852
924.309	12837
924.417	12875
924.525	12665
924.633	12715
924.741	13734
924.849	12559
924.956	12688
925.064	12536
925.172	12464
925.279	12525
925.387	12551
925.494	12578
925.602	12616
925.709	12509
925.816	12403
925.924	12502
926.031	12563
926.138	12498
926.245	12544
926.352	12323
926.459	12506
926.566	12536
926.673	12422
926.779	12311
926.886	12235
926.993	12197
927.099	12110
927.206	12038
927.312	12133
927.419	12201
927.525	12125
927.631	12178
927.737	12041
927.843	11946
927.95	11866
928.056	11999
928.162	11920
928.267	12007
928.373	12563
928.479	12079
928.585	11809
928.69	11904
928.796	11977
928.901	11863
929.007	11646
929.112	11840
929.218	11786
929.323	11672
929.428	11657
929.533	11756
929.638	11615
929.743	11638
929.848	11646
929.953	11638
930.058	11532
930.163	11383
930.267	11455
930.372	11474
930.477	11364
930.581	11558
930.685	11436
930.79	11337
930.894	11296
930.998	11174
931.103	11414
931.207	10938
931.311	10980
931.415	10869
931.519	10694
931.623	10641
