Data from test_V78500241_716.txt Node
Date: Fri Mar 25 15:14:50 CST 2022
User: usil
Spectrometer: V785-0024
Trigger mode: 0
Integration Time (sec): 4.000000E-1
Scans to average: 1
Nonlinearity correction enabled: false
Boxcar width: 0
Storing dark spectrum: false
XAxis mode: Wavelengths
Number of Pixels in Spectrum: 1024
>>>>>Begin Spectral Data<<<<<
801.071	27975
801.214	28025
801.356	27816
801.499	27835
801.641	27610
801.783	27443
801.926	27705
802.068	27481
802.211	27511
802.353	27378
802.496	27393
802.638	27123
802.78	27199
802.923	27157
803.065	27150
803.208	27135
803.35	27199
803.492	27230
803.635	27302
803.777	27469
803.919	27344
804.061	27701
804.204	27450
804.346	27291
804.488	27252
804.63	27466
804.773	27230
804.915	27424
805.057	27427
805.199	27447
805.341	27427
805.483	27481
805.626	27466
805.768	27435
805.91	27545
806.052	27492
806.194	27511
806.336	27717
806.478	27671
806.62	27690
806.762	27686
806.904	27755
807.046	28093
807.188	28010
807.33	27903
807.472	28162
807.614	27869
807.756	28029
807.898	27819
808.04	27713
808.182	27732
808.324	27781
808.465	27846
808.607	27998
808.749	28093
808.891	28249
809.033	28337
809.174	28192
809.316	28322
809.458	28185
809.6	28287
809.741	28451
809.883	28360
810.025	28596
810.166	28550
810.308	28497
810.45	28421
810.591	28405
810.733	28280
810.875	28242
811.016	28143
811.158	28029
811.299	28219
811.441	28322
811.582	28333
811.724	28272
811.865	28059
812.007	28295
812.148	28101
812.29	28265
812.431	28325
812.573	28493
812.714	28649
812.855	28896
812.997	28820
813.138	29052
813.279	28763
813.421	28797
813.562	28809
813.703	28717
813.845	28390
813.986	28181
814.127	28070
814.268	27934
814.41	27972
814.551	28032
814.692	27914
814.833	27949
814.974	27930
815.115	27854
815.256	27705
815.397	27732
815.539	27899
815.68	27660
815.821	27671
815.962	27774
816.103	27690
816.244	27515
816.385	27408
816.526	27450
816.666	27317
816.807	27184
816.948	27363
817.089	27378
817.23	27355
817.371	27195
817.512	27180
817.653	27340
817.793	27089
817.934	27203
818.075	27161
818.216	27199
818.356	27161
818.497	26937
818.638	27013
818.778	27039
818.919	27020
819.06	27036
819.2	27089
819.341	27184
819.481	27135
819.622	27329
819.762	27545
819.903	27511
820.043	27462
820.184	27157
820.324	27264
820.465	27351
820.605	27291
820.746	27382
820.886	27302
821.026	27260
821.167	27332
821.307	27351
821.447	27291
821.588	27108
821.728	26956
821.868	26785
822.008	26724
822.149	26682
822.289	26651
822.429	26556
822.569	26343
822.709	26301
822.849	26176
822.99	26202
823.13	26149
823.27	26271
823.41	25986
823.55	25830
823.69	26111
823.83	25970
823.97	25947
824.11	25757
824.25	25879
824.389	25909
824.529	25894
824.669	25860
824.809	25978
824.949	25807
825.089	25906
825.228	25909
825.368	25719
825.508	25590
825.648	25795
825.787	25674
825.927	25708
826.067	25616
826.206	25811
826.346	25628
826.485	25746
826.625	25677
826.765	25753
826.904	25772
827.044	25514
827.183	25506
827.323	25327
827.462	25400
827.601	25453
827.741	25468
827.88	25411
828.02	25392
828.159	25350
828.298	25495
828.437	25438
828.577	25354
828.716	25567
828.855	25449
828.994	25133
829.134	25129
829.273	25217
829.412	25088
829.551	25065
829.69	25095
829.829	25091
829.968	25148
830.107	25145
830.246	25076
830.385	24981
830.524	24859
830.663	24905
830.802	24726
830.941	24593
831.08	24734
831.219	24768
831.357	24966
831.496	24966
831.635	24692
831.774	24665
831.913	24604
832.051	24418
832.19	24544
832.329	24547
832.467	24429
832.606	24266
832.744	24323
832.883	24429
833.022	24311
833.16	24410
833.299	24380
833.437	24372
833.576	24429
833.714	24509
833.852	24494
833.991	24544
834.129	24521
834.267	24494
834.406	24509
834.544	24532
834.682	24441
834.821	24532
834.959	24582
835.097	24433
835.235	24380
835.373	24399
835.511	24270
835.65	24334
835.788	24258
835.926	24190
836.064	24095
836.202	24098
836.34	24289
836.478	24395
836.615	24330
836.753	24338
836.891	24376
837.029	24350
837.167	24155
837.305	24102
837.443	24213
837.58	24087
837.718	24186
837.856	24148
837.993	24121
838.131	24106
838.269	24003
838.406	24030
838.544	23878
838.681	23756
838.819	23581
838.956	23596
839.094	23528
839.231	23573
839.369	23642
839.506	24038
839.643	23843
839.781	23433
839.918	23573
840.055	23554
840.193	23398
840.33	23448
840.467	23376
840.604	23543
840.742	23821
840.879	23395
841.016	23486
841.153	23353
841.29	23615
841.427	23414
841.564	23604
841.701	23554
841.838	23425
841.975	23467
842.112	23421
842.249	23258
842.385	23231
842.522	23383
842.659	23277
842.796	23151
842.933	23204
843.069	23231
843.206	23254
843.343	23254
843.479	23159
843.616	23098
843.752	23003
843.889	23109
844.025	23193
844.162	22930
844.298	23117
844.435	22946
844.571	22957
844.708	23014
844.844	23288
844.98	23079
845.117	23079
845.253	22991
845.389	22854
845.525	22927
845.661	22854
845.798	22850
845.934	22835
846.07	22740
846.206	22645
846.342	22949
846.478	22698
846.614	22542
846.75	22367
846.886	22455
847.022	22531
847.158	22497
847.294	22363
847.429	22519
847.565	22508
847.701	22755
847.837	22246
847.972	22287
848.108	22337
848.244	22402
848.379	22139
848.515	22093
848.65	22017
848.786	22002
848.921	22070
849.057	22192
849.192	22150
849.328	22013
849.463	22200
849.598	21968
849.734	21915
849.869	21857
850.004	21960
850.14	21899
850.275	21945
850.41	21736
850.545	21694
850.68	21797
850.815	21956
850.95	21838
851.085	22048
851.22	21895
851.355	21781
851.49	21850
851.625	21785
851.76	21911
851.895	21694
852.03	21759
852.165	21736
852.299	21759
852.434	21903
852.569	21854
852.703	21930
852.838	21937
852.973	21979
853.107	21941
853.242	21781
853.376	21743
853.511	21519
853.645	21545
853.78	21793
853.914	21709
854.048	21538
854.183	21663
854.317	21713
854.451	21884
854.585	21686
854.72	21686
854.854	21724
854.988	21606
855.122	21660
855.256	21515
855.39	21625
855.524	21709
855.658	21671
855.792	21728
855.926	21625
856.06	21656
856.194	21755
856.327	21561
856.461	21641
856.595	21644
856.729	21591
856.862	21774
856.996	21610
857.13	21739
857.263	21789
857.397	21797
857.53	21679
857.664	21797
857.797	21694
857.931	21656
858.064	21709
858.197	21854
858.331	21625
858.464	21660
858.597	21500
858.731	21637
858.864	21614
858.997	21675
859.13	21743
859.263	21728
859.396	21694
859.529	21618
859.662	21644
859.795	21587
859.928	21797
860.061	21850
860.194	21838
860.327	21724
860.46	21618
860.592	21812
860.725	21736
860.858	21895
860.99	21675
861.123	21504
861.256	21652
861.388	21656
861.521	22299
861.653	21496
861.786	21348
861.918	21511
862.05	21568
862.183	21603
862.315	21637
862.447	21709
862.58	21572
862.712	21344
862.844	21351
862.976	21458
863.108	21408
863.24	21644
863.372	21329
863.504	21469
863.636	21241
863.768	21370
863.9	21336
864.032	21214
864.164	21272
864.296	21359
864.428	21393
864.559	21393
864.691	21336
864.823	21367
864.954	21416
865.086	21344
865.217	21310
865.349	21123
865.48	21249
865.612	21279
865.743	21348
865.875	21294
866.006	21294
866.137	21100
866.269	21214
866.4	21203
866.531	21249
866.662	21214
866.793	21161
866.924	21116
867.055	21207
867.186	21173
867.317	21123
867.448	21066
867.579	21180
867.71	21272
867.841	21135
867.972	21184
868.103	21180
868.233	21020
868.364	21116
868.495	21252
868.625	21462
868.756	21568
868.886	21321
869.017	21416
869.147	21485
869.278	21545
869.408	21481
869.539	21488
869.669	21420
869.799	21538
869.929	21431
870.06	21496
870.19	21656
870.32	21629
870.45	21808
870.58	21717
870.71	21804
870.84	21857
870.97	21759
871.1	21656
871.23	22051
871.36	21937
871.489	21846
871.619	21926
871.749	21907
871.879	21979
872.008	22086
872.138	22059
872.267	21987
872.397	21766
872.526	21941
872.656	21895
872.785	21808
872.915	21968
873.044	22078
873.173	22017
873.303	22048
873.432	22135
873.561	22036
873.69	22093
873.819	22036
873.948	22082
874.077	21983
874.206	21907
874.335	22013
874.464	22074
874.593	22303
874.722	22147
874.851	22344
874.979	22341
875.108	22211
875.237	22051
875.365	22196
875.494	22219
875.623	22337
875.751	22223
875.88	22249
876.008	22295
876.136	22318
876.265	22755
876.393	22668
876.521	22630
876.65	22687
876.778	22710
876.906	22664
877.034	22478
877.162	22523
877.29	22413
877.418	22649
877.546	22596
877.674	22569
877.802	22573
877.93	22607
878.058	22504
878.185	22561
878.313	22459
878.441	22588
878.568	22516
878.696	22527
878.824	22592
878.951	22596
879.079	22748
879.206	22786
879.333	22691
879.461	22493
879.588	22691
879.715	22706
879.842	22881
879.97	22588
880.097	22348
880.224	22409
880.351	22470
880.478	22421
880.605	22363
880.732	22379
880.859	22478
880.986	22405
881.112	22394
881.239	22310
881.366	22101
881.493	22078
881.619	22006
881.746	22185
881.872	21945
881.999	21991
882.125	21873
882.252	22029
882.378	21979
882.505	22120
882.631	21911
882.757	21819
882.883	21800
883.01	21739
883.136	21671
883.262	21545
883.388	21523
883.514	21759
883.64	21766
883.766	21694
883.892	21416
884.018	21481
884.143	21595
884.269	21755
884.395	21363
884.52	21416
884.646	21374
884.772	21291
884.897	21268
885.023	21340
885.148	21374
885.274	21530
885.399	21397
885.524	21306
885.65	21534
885.775	21348
885.9	21306
886.025	21424
886.15	21321
886.275	21237
886.4	21302
886.525	21203
886.65	21211
886.775	21344
886.9	21393
887.025	21462
887.149	21291
887.274	20990
887.399	21169
887.523	21074
887.648	21001
887.773	20979
887.897	21173
888.021	21165
888.146	21058
888.27	21176
888.395	21237
888.519	21028
888.643	21108
888.767	21096
888.891	20971
889.015	21039
889.139	20994
889.263	20773
889.387	21062
889.511	21116
889.635	20960
889.759	20857
889.883	20765
890.006	20925
890.13	20990
890.254	20826
890.377	20750
890.501	20568
890.624	20590
890.748	20705
890.871	20492
890.995	20465
891.118	20328
891.241	20499
891.364	20476
891.488	20598
891.611	20473
891.734	20446
891.857	20511
891.98	20552
892.103	20503
892.226	20328
892.349	20317
892.471	20214
892.594	20366
892.717	20355
892.839	20278
892.962	20317
893.085	20480
893.207	20389
893.33	20263
893.452	20195
893.575	20522
893.697	20195
893.819	20499
893.941	20602
894.064	20579
894.186	20301
894.308	20252
894.43	20381
894.552	20442
894.674	20400
894.796	20199
894.918	20294
895.04	20282
895.161	20385
895.283	20389
895.405	20275
895.526	20290
895.648	20423
895.769	20309
895.891	20339
896.012	20377
896.134	20385
896.255	20252
896.376	20343
896.498	20252
896.619	20233
896.74	20457
896.861	20305
896.982	20659
897.103	20853
897.224	20636
897.345	20560
897.466	20415
897.587	20507
897.708	20632
897.828	20598
897.949	20381
898.07	20328
898.19	20495
898.311	20549
898.431	20495
898.552	20499
898.672	20545
898.792	20579
898.913	20571
899.033	20328
899.153	20317
899.273	20282
899.393	20259
899.513	20298
899.633	20298
899.753	20404
899.873	20252
899.993	20332
900.113	20263
900.232	20290
900.352	20271
900.472	20149
900.591	20054
900.711	20183
900.83	20069
900.95	20180
901.069	20149
901.189	19967
901.308	19700
901.427	19719
901.546	19788
901.665	19727
901.784	19685
901.904	19601
902.023	19327
902.141	19289
902.26	19171
902.379	19263
902.498	19209
902.617	19152
902.735	19343
902.854	19091
902.973	19152
903.091	18962
903.21	18916
903.328	18882
903.446	18798
903.565	18616
903.683	18741
903.801	18608
903.919	18589
904.038	18612
904.156	18388
904.274	18578
904.392	18418
904.51	18414
904.627	18452
904.745	18410
904.863	18475
904.981	18239
905.098	18129
905.216	18148
905.334	18083
905.451	18117
905.569	18038
905.686	18178
905.803	18201
905.921	17752
906.038	18019
906.155	17969
906.272	17733
906.389	17775
906.506	17733
906.623	17657
906.74	17802
906.857	17516
906.974	17532
907.091	17676
907.208	17824
907.324	17691
907.441	17524
907.557	17353
907.674	17395
907.79	17330
907.907	17193
908.023	17379
908.139	17345
908.256	17280
908.372	17124
908.488	17189
908.604	17166
908.72	17086
908.836	17083
908.952	17056
909.068	17128
909.184	17189
909.3	17041
909.415	17151
909.531	17033
909.647	16892
909.762	16653
909.878	16736
909.993	16763
910.108	16710
910.224	16702
910.339	16740
910.454	16561
910.57	16565
910.685	16546
910.8	16809
910.915	16637
911.03	16615
911.145	16390
911.259	16379
911.374	16265
911.489	16261
911.604	16226
911.718	16071
911.833	16090
911.947	16090
912.062	15846
912.176	16093
912.291	16021
912.405	16105
912.519	16291
912.633	16215
912.748	16128
912.862	16128
912.976	15892
913.09	15812
913.204	15846
913.318	15857
913.431	16036
913.545	15918
913.659	16048
913.772	15968
913.886	15774
914	15747
914.113	15827
914.226	15827
914.34	15850
914.453	15561
914.566	15736
914.68	15580
914.793	15580
914.906	15336
915.019	15260
915.132	15207
915.245	15287
915.358	15336
915.47	15313
915.583	15386
915.696	15416
915.809	15386
915.921	15447
916.034	15222
916.146	15173
916.259	15237
916.371	15351
916.483	15264
916.595	15176
916.708	15104
916.82	15047
916.932	15024
917.044	15085
917.156	15165
917.268	14967
917.38	15036
917.491	14921
917.603	14906
917.715	14998
917.826	15047
917.938	14998
918.049	14826
918.161	15020
918.272	14956
918.384	15058
918.495	14902
918.606	14762
918.717	14571
918.828	14769
918.939	14750
919.05	14655
919.161	14712
919.272	14564
919.383	14530
919.494	14678
919.604	15001
919.715	14686
919.826	14606
919.936	14636
920.047	14792
920.157	14617
920.267	14830
920.378	14659
920.488	14754
920.598	14826
920.708	14986
920.818	14842
920.928	14777
921.038	14918
921.148	14853
921.258	14617
921.368	14499
921.477	14484
921.587	14434
921.697	14423
921.806	14537
921.916	14282
922.025	14115
922.134	14054
922.244	13993
922.353	14153
922.462	13898
922.571	13803
922.68	13742
922.789	13715
922.898	13723
923.007	13689
923.116	13757
923.224	13693
923.333	13575
923.442	13502
923.55	13464
923.659	13556
923.767	13662
923.876	13499
923.984	13594
924.092	13468
924.201	13441
924.309	13487
924.417	13457
924.525	13346
924.633	13457
924.741	14119
924.849	13152
924.956	13278
925.064	13221
925.172	13038
925.279	13122
925.387	13164
925.494	13072
925.602	13198
925.709	13126
925.816	13015
925.924	12989
926.031	13110
926.138	12993
926.245	13019
926.352	12966
926.459	13042
926.566	13088
926.673	13065
926.779	12905
926.886	12863
926.993	12783
927.099	12582
927.206	12703
927.312	12684
927.419	12707
927.525	12585
927.631	12719
927.737	12525
927.843	12544
927.95	12365
928.056	12467
928.162	12532
928.267	12475
928.373	13187
928.479	12589
928.585	12334
928.69	12357
928.796	12441
928.901	12353
929.007	12182
929.112	12391
929.218	12426
929.323	12243
929.428	12117
929.533	12323
929.638	12117
929.743	12125
929.848	12194
929.953	12277
930.058	11980
930.163	11885
930.267	11927
930.372	12015
930.477	11794
930.581	12098
930.685	11863
930.79	11817
930.894	11824
930.998	11703
931.103	11859
931.207	11642
931.311	11512
931.415	11379
931.519	11193
931.623	11090
