Data from test_V78500241_2507.txt Node
Date: Fri Mar 25 15:27:18 CST 2022
User: usil
Spectrometer: V785-0024
Trigger mode: 0
Integration Time (sec): 4.000000E-1
Scans to average: 1
Nonlinearity correction enabled: false
Boxcar width: 0
Storing dark spectrum: false
XAxis mode: Wavelengths
Number of Pixels in Spectrum: 1024
>>>>>Begin Spectral Data<<<<<
801.071	27093
801.214	27005
801.356	26758
801.499	26880
801.641	26644
801.783	26469
801.926	26701
802.068	26568
802.211	26701
802.353	26457
802.496	26328
802.638	26244
802.78	26298
802.923	26142
803.065	26126
803.208	26096
803.35	26271
803.492	26313
803.635	26355
803.777	26362
803.919	26305
804.061	26811
804.204	26492
804.346	26400
804.488	26347
804.63	26511
804.773	26305
804.915	26256
805.057	26434
805.199	26275
805.341	26393
805.483	26598
805.626	26549
805.768	26305
805.91	26465
806.052	26511
806.194	26590
806.336	26579
806.478	26545
806.62	26415
806.762	26533
806.904	26590
807.046	27066
807.188	26899
807.33	26982
807.472	26994
807.614	26895
807.756	26754
807.898	26716
808.04	26644
808.182	26655
808.324	26697
808.465	26861
808.607	26902
808.749	26998
808.891	27226
809.033	27310
809.174	27211
809.316	27173
809.458	27013
809.6	27066
809.741	27211
809.883	27226
810.025	27454
810.166	27325
810.308	27317
810.45	27355
810.591	27165
810.733	27096
810.875	27062
811.016	26883
811.158	26956
811.299	27192
811.441	27264
811.582	27188
811.724	27146
811.865	26960
812.007	26975
812.148	27074
812.29	27123
812.431	27230
812.573	27378
812.714	27485
812.855	27629
812.997	27698
813.138	27831
813.279	27656
813.421	27595
813.562	27580
813.703	27260
813.845	27272
813.986	26925
814.127	26811
814.268	26720
814.41	26762
814.551	26484
814.692	26842
814.833	26625
814.974	26609
815.115	26792
815.256	26583
815.397	26541
815.539	26587
815.68	26545
815.821	26431
815.962	26518
816.103	26488
816.244	26313
816.385	26366
816.526	26187
816.666	26069
816.807	25913
816.948	25997
817.089	26058
817.23	25986
817.371	25997
817.512	25951
817.653	25936
817.793	25875
817.934	25940
818.075	25966
818.216	26069
818.356	25856
818.497	25791
818.638	25670
818.778	25799
818.919	25734
819.06	25830
819.2	25795
819.341	25883
819.481	26081
819.622	26130
819.762	26267
819.903	26271
820.043	26225
820.184	26191
820.324	26020
820.465	26240
820.605	26016
820.746	26024
820.886	25875
821.026	26084
821.167	25947
821.307	26115
821.447	25978
821.588	25814
821.728	25738
821.868	25533
822.008	25438
822.149	25548
822.289	25586
822.429	25282
822.569	25038
822.709	25160
822.849	25088
822.99	25046
823.13	24996
823.27	25042
823.41	24707
823.55	24719
823.69	24802
823.83	24859
823.97	24814
824.11	24601
824.25	24528
824.389	24471
824.529	24703
824.669	24608
824.809	24692
824.949	24681
825.089	24650
825.228	24612
825.368	24467
825.508	24452
825.648	24445
825.787	24448
825.927	24589
826.067	24388
826.206	24479
826.346	24433
826.485	24608
826.625	24654
826.765	24585
826.904	24536
827.044	24296
827.183	24304
827.323	24076
827.462	24243
827.601	24235
827.741	24163
827.88	24270
828.02	24079
828.159	24171
828.298	24155
828.437	24216
828.577	24106
828.716	24311
828.855	24095
828.994	23965
829.134	23878
829.273	23893
829.412	23916
829.551	23760
829.69	23901
829.829	23961
829.968	23950
830.107	24045
830.246	23851
830.385	23954
830.524	23718
830.663	23680
830.802	23573
830.941	23619
831.08	23649
831.219	23665
831.357	23524
831.496	23821
831.635	23547
831.774	23497
831.913	23376
832.051	23376
832.19	23307
832.329	23254
832.467	23269
832.606	23113
832.744	23128
832.883	23235
833.022	23227
833.16	23288
833.299	23307
833.437	23235
833.576	23231
833.714	23147
833.852	23288
833.991	23349
834.129	23296
834.267	23318
834.406	23277
834.544	23311
834.682	23376
834.821	23277
834.959	23463
835.097	23265
835.235	23452
835.373	23292
835.511	23322
835.65	23048
835.788	23109
835.926	22968
836.064	22965
836.202	22927
836.34	23162
836.478	23181
836.615	23105
836.753	23159
836.891	23299
837.029	23121
837.167	23239
837.305	23124
837.443	23090
837.58	22877
837.718	23025
837.856	23003
837.993	22881
838.131	23064
838.269	22873
838.406	22858
838.544	22847
838.681	22694
838.819	22626
838.956	22474
839.094	22375
839.231	22626
839.369	22675
839.506	22839
839.643	22778
839.781	22344
839.918	22398
840.055	22504
840.193	22474
840.33	22421
840.467	22481
840.604	22497
840.742	22634
840.879	22322
841.016	22428
841.153	22402
841.29	22417
841.427	22379
841.564	22485
841.701	22436
841.838	22246
841.975	22242
842.112	22436
842.249	22272
842.385	22322
842.522	22390
842.659	22280
842.796	22143
842.933	22162
843.069	22158
843.206	22044
843.343	22344
843.479	22272
843.616	22284
843.752	22010
843.889	21838
844.025	21998
844.162	21998
844.298	21998
844.435	21926
844.571	21827
844.708	21956
844.844	21968
844.98	22055
845.117	22131
845.253	21884
845.389	21800
845.525	21880
845.661	21873
845.798	21785
845.934	21800
846.07	21625
846.206	21618
846.342	21778
846.478	21534
846.614	21553
846.75	21310
846.886	21283
847.022	21454
847.158	21504
847.294	21428
847.429	21572
847.565	21488
847.701	21576
847.837	21119
847.972	21089
848.108	21184
848.244	21313
848.379	21100
848.515	21028
848.65	20967
848.786	20971
848.921	21070
849.057	21131
849.192	21043
849.328	20956
849.463	20895
849.598	20956
849.734	20948
849.869	20861
850.004	20785
850.14	20731
850.275	20857
850.41	20781
850.545	20682
850.68	20697
850.815	20830
850.95	20777
851.085	20906
851.22	20956
851.355	20838
851.49	20716
851.625	20686
851.76	20727
851.895	20697
852.03	20758
852.165	20765
852.299	20921
852.434	20880
852.569	20876
852.703	20739
852.838	20868
852.973	20834
853.107	20720
853.242	20651
853.376	20663
853.511	20568
853.645	20495
853.78	20750
853.914	20598
854.048	20469
854.183	20659
854.317	20678
854.451	20724
854.585	20651
854.72	20575
854.854	20556
854.988	20522
855.122	20431
855.256	20461
855.39	20629
855.524	20617
855.658	20556
855.792	20640
855.926	20659
856.06	20606
856.194	20697
856.327	20587
856.461	20511
856.595	20530
856.729	20629
856.862	20670
856.996	20621
857.13	20659
857.263	20590
857.397	20712
857.53	20484
857.664	20579
857.797	20613
857.931	20651
858.064	20629
858.197	20609
858.331	20609
858.464	20541
858.597	20556
858.731	20587
858.864	20396
858.997	20575
859.13	20514
859.263	20636
859.396	20636
859.529	20629
859.662	20511
859.795	20511
859.928	20594
860.061	20800
860.194	20880
860.327	20648
860.46	20606
860.592	20792
860.725	20746
860.858	20724
860.99	20621
861.123	20511
861.256	20514
861.388	20648
861.521	21180
861.653	20415
861.786	20294
861.918	20408
862.05	20438
862.183	20419
862.315	20549
862.447	20560
862.58	20377
862.712	20332
862.844	20309
862.976	20347
863.108	20355
863.24	20693
863.372	20347
863.504	20343
863.636	20332
863.768	20351
863.9	20351
864.032	20218
864.164	20206
864.296	20305
864.428	20324
864.559	20396
864.691	20298
864.823	20278
864.954	20229
865.086	20240
865.217	20252
865.349	20130
865.48	20206
865.612	20191
865.743	20347
865.875	20275
866.006	20134
866.137	20145
866.269	20221
866.4	20313
866.531	20126
866.662	20077
866.793	20199
866.924	20130
867.055	20221
867.186	20138
867.317	20100
867.448	19967
867.579	20126
867.71	20035
867.841	20115
867.972	20096
868.103	20244
868.233	20092
868.364	20183
868.495	20282
868.625	20317
868.756	20465
868.886	20389
869.017	20351
869.147	20484
869.278	20560
869.408	20400
869.539	20419
869.669	20389
869.799	20389
869.929	20598
870.06	20480
870.19	20648
870.32	20697
870.45	20788
870.58	20823
870.71	21001
870.84	20906
870.97	20811
871.1	20750
871.23	20857
871.36	20929
871.489	20895
871.619	20914
871.749	20990
871.879	21112
872.008	21214
872.138	21009
872.267	21036
872.397	20918
872.526	20853
872.656	20845
872.785	20746
872.915	21013
873.044	21123
873.173	20944
873.303	21100
873.432	21161
873.561	21146
873.69	21070
873.819	21157
873.948	21131
874.077	21017
874.206	20960
874.335	21036
874.464	21173
874.593	21275
874.722	21306
874.851	21302
874.979	21275
875.108	21363
875.237	21329
875.365	21173
875.494	21203
875.623	21363
875.751	21131
875.88	21310
876.008	21291
876.136	21443
876.265	21679
876.393	21800
876.521	21652
876.65	21759
876.778	21614
876.906	21568
877.034	21637
877.162	21580
877.29	21526
877.418	21595
877.546	21564
877.674	21564
877.802	21682
877.93	21595
878.058	21561
878.185	21504
878.313	21603
878.441	21694
878.568	21416
878.696	21595
878.824	21557
878.951	21770
879.079	21842
879.206	22013
879.333	21705
879.461	21637
879.588	21694
879.715	21652
879.842	21827
879.97	21614
880.097	21553
880.224	21386
880.351	21386
880.478	21408
880.605	21374
880.732	21485
880.859	21648
880.986	21424
881.112	21530
881.239	21291
881.366	21146
881.493	21020
881.619	20963
881.746	21070
881.872	21024
881.999	21062
882.125	21036
882.252	21028
882.378	21089
882.505	21043
882.631	20823
882.757	20765
882.883	20804
883.01	20823
883.136	20819
883.262	20640
883.388	20518
883.514	20811
883.64	20750
883.766	20609
883.892	20492
884.018	20492
884.143	20765
884.269	20804
884.395	20446
884.52	20434
884.646	20358
884.772	20438
884.897	20233
885.023	20427
885.148	20587
885.274	20526
885.399	20374
885.524	20362
885.65	20305
885.775	20317
885.9	20446
886.025	20518
886.15	20412
886.275	20393
886.4	20199
886.525	20290
886.65	20309
886.775	20218
886.9	20431
887.025	20530
887.149	20305
887.274	20286
887.399	20130
887.523	20122
887.648	20161
887.773	19947
887.897	20237
888.021	20096
888.146	20107
888.27	20256
888.395	20225
888.519	20149
888.643	20073
888.767	20275
888.891	19989
889.015	19947
889.139	20065
889.263	19959
889.387	20107
889.511	20145
889.635	20024
889.759	19936
889.883	19936
890.006	19890
890.13	20020
890.254	19871
890.377	19887
890.501	19902
890.624	19814
890.748	19658
890.871	19685
890.995	19483
891.118	19514
891.241	19556
891.364	19540
891.488	19628
891.611	19514
891.734	19533
891.857	19620
891.98	19613
892.103	19624
892.226	19559
892.349	19480
892.471	19369
892.594	19453
892.717	19525
892.839	19457
892.962	19495
893.085	19499
893.207	19571
893.33	19419
893.452	19400
893.575	19457
893.697	19400
893.819	19616
893.941	19628
894.064	19590
894.186	19419
894.308	19301
894.43	19582
894.552	19590
894.674	19540
894.796	19362
894.918	19514
895.04	19400
895.161	19411
895.283	19563
895.405	19373
895.526	19403
895.648	19495
895.769	19548
895.891	19506
896.012	19658
896.134	19510
896.255	19544
896.376	19445
896.498	19460
896.619	19609
896.74	19343
896.861	19597
896.982	19818
897.103	19890
897.224	19746
897.345	19727
897.466	19632
897.587	19784
897.708	19803
897.828	19803
897.949	19696
898.07	19575
898.19	19647
898.311	19807
898.431	19616
898.552	19540
898.672	19811
898.792	19818
898.913	19818
899.033	19685
899.153	19578
899.273	19369
899.393	19438
899.513	19514
899.633	19422
899.753	19483
899.873	19457
899.993	19529
900.113	19422
900.232	19415
900.352	19316
900.472	19327
900.591	19308
900.711	19244
900.83	19206
900.95	19362
901.069	19285
901.189	19164
901.308	18837
901.427	18802
901.546	18821
901.665	18821
901.784	18871
901.904	18741
902.023	18654
902.141	18418
902.26	18448
902.379	18460
902.498	18380
902.617	18243
902.735	18311
902.854	18346
902.973	18209
903.091	17999
903.21	18038
903.328	17965
903.446	18019
903.565	17843
903.683	17908
903.801	17722
903.919	17863
904.038	17767
904.156	17646
904.274	17672
904.392	17611
904.51	17699
904.627	17684
904.745	17703
904.863	17630
904.981	17372
905.098	17261
905.216	17220
905.334	17246
905.451	17356
905.569	17322
905.686	17345
905.803	17239
905.921	17064
906.038	17246
906.155	17086
906.272	16892
906.389	17033
906.506	16896
906.623	16767
906.74	16889
906.857	16710
906.974	16683
907.091	16976
907.208	16858
907.324	16759
907.441	16767
907.557	16558
907.674	16698
907.79	16500
907.907	16535
908.023	16546
908.139	16519
908.256	16470
908.372	16523
908.488	16379
908.604	16440
908.72	16242
908.836	16382
908.952	16249
909.068	16375
909.184	16413
909.3	16299
909.415	16310
909.531	16219
909.647	16044
909.762	15926
909.878	15869
909.993	16013
910.108	16010
910.224	15861
910.339	15998
910.454	15732
910.57	15759
910.685	15732
910.8	15956
910.915	15945
911.03	15823
911.145	15644
911.259	15576
911.374	15663
911.489	15564
911.604	15447
911.718	15370
911.833	15420
911.947	15294
912.062	15359
912.176	15397
912.291	15401
912.405	15416
912.519	15595
912.633	15507
912.748	15485
912.862	15207
912.976	15211
913.09	15070
913.204	15138
913.318	15119
913.431	15249
913.545	15218
913.659	15195
913.772	15157
913.886	15036
914	14975
914.113	15058
914.226	15138
914.34	15104
914.453	14815
914.566	15017
914.68	14929
914.793	14937
914.906	14727
915.019	14621
915.132	14587
915.245	14648
915.358	14571
915.47	14590
915.583	14613
915.696	14602
915.809	14716
915.921	14678
916.034	14533
916.146	14488
916.259	14514
916.371	14644
916.483	14514
916.595	14434
916.708	14552
916.82	14480
916.932	14423
917.044	14412
917.156	14381
917.268	14237
917.38	14332
917.491	14267
917.603	14271
917.715	14374
917.826	14408
917.938	14210
918.049	14130
918.161	14191
918.272	14374
918.384	14332
918.495	14191
918.606	14088
918.717	14016
918.828	14138
918.939	13959
919.05	14024
919.161	14001
919.272	13818
919.383	13871
919.494	14157
919.604	14214
919.715	13955
919.826	13879
919.936	13898
920.047	14005
920.157	13982
920.267	14202
920.378	14115
920.488	14050
920.598	14221
920.708	14240
920.818	14096
920.928	14172
921.038	14263
921.148	14275
921.258	14024
921.368	13894
921.477	13765
921.587	13738
921.697	13632
921.806	13723
921.916	13605
922.025	13457
922.134	13396
922.244	13495
922.353	13472
922.462	13259
922.571	13209
922.68	13164
922.789	13095
922.898	13129
923.007	12970
923.116	13046
923.224	13015
923.333	13042
923.442	12825
923.55	12875
923.659	12848
923.767	12989
923.876	12814
923.984	12894
924.092	12802
924.201	12886
924.309	12897
924.417	12852
924.525	12745
924.633	12677
924.741	13685
924.849	12574
924.956	12741
925.064	12578
925.172	12452
925.279	12391
925.387	12506
925.494	12570
925.602	12521
925.709	12578
925.816	12433
925.924	12445
926.031	12582
926.138	12388
926.245	12509
926.352	12353
926.459	12448
926.566	12566
926.673	12407
926.779	12277
926.886	12175
926.993	12106
927.099	12079
927.206	12110
927.312	12003
927.419	12102
927.525	12133
927.631	12159
927.737	11992
927.843	11920
927.95	11756
928.056	11817
928.162	11935
928.267	12011
928.373	12570
928.479	11874
928.585	11805
928.69	11927
928.796	11874
928.901	11748
929.007	11661
929.112	11771
929.218	11794
929.323	11684
929.428	11634
929.533	11729
929.638	11585
929.743	11562
929.848	11619
929.953	11630
930.058	11524
930.163	11387
930.267	11368
930.372	11516
930.477	11246
930.581	11554
930.685	11349
930.79	11193
930.894	11299
930.998	11284
931.103	11341
931.207	10919
931.311	10927
931.415	10805
931.519	10630
931.623	10565
