Data from test_V78500241_1257.txt Node
Date: Fri Mar 25 15:18:36 CST 2022
User: usil
Spectrometer: V785-0024
Trigger mode: 0
Integration Time (sec): 4.000000E-1
Scans to average: 1
Nonlinearity correction enabled: false
Boxcar width: 0
Storing dark spectrum: false
XAxis mode: Wavelengths
Number of Pixels in Spectrum: 1024
>>>>>Begin Spectral Data<<<<<
801.071	27884
801.214	27975
801.356	27747
801.499	27701
801.641	27504
801.783	27374
801.926	27545
802.068	27454
802.211	27477
802.353	27458
802.496	27173
802.638	27138
802.78	27195
802.923	27154
803.065	27066
803.208	27116
803.35	27176
803.492	27203
803.635	27310
803.777	27283
803.919	27397
804.061	27713
804.204	27466
804.346	27279
804.488	27294
804.63	27291
804.773	27340
804.915	27351
805.057	27469
805.199	27298
805.341	27557
805.483	27500
805.626	27389
805.768	27374
805.91	27443
806.052	27492
806.194	27367
806.336	27694
806.478	27443
806.62	27591
806.762	27720
806.904	27838
807.046	28086
807.188	27975
807.33	27975
807.472	27964
807.614	27774
807.756	28006
807.898	27694
808.04	27770
808.182	27633
808.324	27690
808.465	27827
808.607	28074
808.749	28097
808.891	28150
809.033	28375
809.174	28158
809.316	28166
809.458	28185
809.6	27983
809.741	28215
809.883	28204
810.025	28493
810.166	28432
810.308	28565
810.45	28394
810.591	28348
810.733	28204
810.875	28223
811.016	27991
811.158	28082
811.299	28169
811.441	28173
811.582	28276
811.724	28120
811.865	28048
812.007	28036
812.148	28181
812.29	28204
812.431	28234
812.573	28390
812.714	28512
812.855	28698
812.997	28816
813.138	28805
813.279	28691
813.421	28713
813.562	28603
813.703	28504
813.845	28341
813.986	28070
814.127	27998
814.268	27850
814.41	27846
814.551	27846
814.692	27880
814.833	27667
814.974	27838
815.115	27751
815.256	27736
815.397	27622
815.539	27713
815.68	27591
815.821	27759
815.962	27656
816.103	27762
816.244	27553
816.385	27389
816.526	27500
816.666	27123
816.807	27093
816.948	27180
817.089	27245
817.23	27142
817.371	27077
817.512	27096
817.653	27176
817.793	27047
817.934	27218
818.075	27287
818.216	27199
818.356	27154
818.497	27017
818.638	26739
818.778	26956
818.919	26940
819.06	26952
819.2	26979
819.341	27058
819.481	27161
819.622	27123
819.762	27496
819.903	27427
820.043	27344
820.184	27169
820.324	27252
820.465	27237
820.605	27096
820.746	27260
820.886	27062
821.026	27279
821.167	27336
821.307	27226
821.447	27119
821.588	26899
821.728	26800
821.868	26853
822.008	26530
822.149	26625
822.289	26530
822.429	26320
822.569	26267
822.709	26252
822.849	26199
822.99	26180
823.13	26065
823.27	26153
823.41	25947
823.55	25932
823.69	25982
823.83	25909
823.97	26039
824.11	25693
824.25	25883
824.389	25685
824.529	25925
824.669	25799
824.809	25963
824.949	25917
825.089	25883
825.228	25742
825.368	25666
825.508	25537
825.648	25715
825.787	25624
825.927	25761
826.067	25590
826.206	25601
826.346	25727
826.485	25685
826.625	25613
826.765	25708
826.904	25525
827.044	25483
827.183	25362
827.323	25274
827.462	25540
827.601	25312
827.741	25373
827.88	25263
828.02	25240
828.159	25320
828.298	25278
828.437	25441
828.577	25244
828.716	25335
828.855	25247
828.994	25046
829.134	25053
829.273	25137
829.412	24962
829.551	24958
829.69	25031
829.829	25076
829.968	25133
830.107	25080
830.246	24966
830.385	25114
830.524	24905
830.663	24783
830.802	24806
830.941	24757
831.08	24749
831.219	24715
831.357	24719
831.496	24932
831.635	24642
831.774	24608
831.913	24528
832.051	24483
832.19	24414
832.329	24521
832.467	24490
832.606	24429
832.744	24350
832.883	24292
833.022	24395
833.16	24471
833.299	24426
833.437	24239
833.576	24597
833.714	24498
833.852	24528
833.991	24426
834.129	24608
834.267	24631
834.406	24372
834.544	24525
834.682	24559
834.821	24456
834.959	24578
835.097	24426
835.235	24483
835.373	24483
835.511	24346
835.65	24289
835.788	24369
835.926	24216
836.064	24102
836.202	24209
836.34	24350
836.478	24308
836.615	24266
836.753	24247
836.891	24384
837.029	24445
837.167	24155
837.305	24148
837.443	24174
837.58	24182
837.718	24152
837.856	24110
837.993	24011
838.131	24167
838.269	23939
838.406	24087
838.544	23923
838.681	23756
838.819	23748
838.956	23448
839.094	23547
839.231	23676
839.369	23771
839.506	23901
839.643	23882
839.781	23695
839.918	23596
840.055	23623
840.193	23535
840.33	23501
840.467	23535
840.604	23486
840.742	23748
840.879	23387
841.016	23452
841.153	23421
841.29	23581
841.427	23444
841.564	23528
841.701	23509
841.838	23345
841.975	23425
842.112	23360
842.249	23292
842.385	23208
842.522	23436
842.659	23318
842.796	23121
842.933	23379
843.069	23280
843.206	23178
843.343	23322
843.479	23284
843.616	23261
843.752	23197
843.889	22984
844.025	23166
844.162	23029
844.298	23121
844.435	23064
844.571	22904
844.708	23269
844.844	23185
844.98	23124
845.117	23193
845.253	22873
845.389	22908
845.525	22938
845.661	22839
845.798	22729
845.934	22782
846.07	22656
846.206	22767
846.342	22858
846.478	22687
846.614	22546
846.75	22546
846.886	22538
847.022	22531
847.158	22527
847.294	22557
847.429	22497
847.565	22527
847.701	22664
847.837	22177
847.972	22192
848.108	22382
848.244	22253
848.379	22070
848.515	22059
848.65	22112
848.786	21975
848.921	22139
849.057	22139
849.192	22166
849.328	22188
849.463	22135
849.598	22006
849.734	21960
849.869	22010
850.004	21739
850.14	21884
850.275	21816
850.41	21762
850.545	21770
850.68	21785
850.815	21937
850.95	21831
851.085	21983
851.22	21857
851.355	21823
851.49	21888
851.625	21850
851.76	21812
851.895	21663
852.03	21720
852.165	21789
852.299	21960
852.434	21911
852.569	21789
852.703	21789
852.838	21846
852.973	21994
853.107	22029
853.242	21759
853.376	21709
853.511	21583
853.645	21652
853.78	21816
853.914	21713
854.048	21595
854.183	21603
854.317	21724
854.451	21804
854.585	21720
854.72	21774
854.854	21717
854.988	21549
855.122	21690
855.256	21557
855.39	21530
855.524	21778
855.658	21724
855.792	21717
855.926	21679
856.06	21701
856.194	21766
856.327	21679
856.461	21599
856.595	21720
856.729	21583
856.862	21804
856.996	21766
857.13	21766
857.263	21869
857.397	21812
857.53	21572
857.664	21804
857.797	21789
857.931	21869
858.064	21656
858.197	21869
858.331	21629
858.464	21663
858.597	21587
858.731	21629
858.864	21568
858.997	21629
859.13	21701
859.263	21713
859.396	21785
859.529	21622
859.662	21637
859.795	21545
859.928	21633
860.061	21812
860.194	21804
860.327	21682
860.46	21663
860.592	21846
860.725	21808
860.858	21770
860.99	21701
861.123	21542
861.256	21485
861.388	21648
861.521	22341
861.653	21625
861.786	21420
861.918	21538
862.05	21580
862.183	21618
862.315	21568
862.447	21739
862.58	21599
862.712	21355
862.844	21424
862.976	21561
863.108	21477
863.24	21736
863.372	21355
863.504	21424
863.636	21275
863.768	21317
863.9	21504
864.032	21420
864.164	21287
864.296	21389
864.428	21458
864.559	21405
864.691	21485
864.823	21329
864.954	21511
865.086	21405
865.217	21249
865.349	21146
865.48	21306
865.612	21283
865.743	21348
865.875	21252
866.006	21218
866.137	21199
866.269	21275
866.4	21230
866.531	21214
866.662	21119
866.793	21131
866.924	21199
867.055	21226
867.186	21272
867.317	21066
867.448	21203
867.579	21157
867.71	21036
867.841	21070
867.972	21211
868.103	21165
868.233	21184
868.364	21150
868.495	21302
868.625	21351
868.756	21462
868.886	21450
869.017	21428
869.147	21469
869.278	21660
869.408	21389
869.539	21317
869.669	21462
869.799	21530
869.929	21568
870.06	21572
870.19	21846
870.32	21755
870.45	21732
870.58	21728
870.71	21979
870.84	21915
870.97	21865
871.1	21804
871.23	22173
871.36	22070
871.489	21960
871.619	21930
871.749	21926
871.879	22078
872.008	22109
872.138	21979
872.267	22040
872.397	21968
872.526	21846
872.656	21869
872.785	21838
872.915	22120
873.044	22135
873.173	22101
873.303	22002
873.432	22086
873.561	22166
873.69	22059
873.819	22116
873.948	22112
874.077	22055
874.206	22055
874.335	21983
874.464	22120
874.593	22223
874.722	22295
874.851	22295
874.979	22363
875.108	22424
875.237	22181
875.365	22204
875.494	22261
875.623	22287
875.751	22055
875.88	22348
876.008	22462
876.136	22493
876.265	22615
876.393	22771
876.521	22691
876.65	22683
876.778	22752
876.906	22542
877.034	22615
877.162	22573
877.29	22580
877.418	22637
877.546	22588
877.674	22512
877.802	22592
877.93	22679
878.058	22481
878.185	22504
878.313	22569
878.441	22554
878.568	22455
878.696	22527
878.824	22664
878.951	22725
879.079	22778
879.206	22991
879.333	22778
879.461	22706
879.588	22736
879.715	22854
879.842	22908
879.97	22649
880.097	22512
880.224	22371
880.351	22535
880.478	22356
880.605	22405
880.732	22565
880.859	22759
880.986	22474
881.112	22516
881.239	22329
881.366	22242
881.493	22169
881.619	21998
881.746	21918
881.872	21907
881.999	22010
882.125	21956
882.252	22029
882.378	22006
882.505	22101
882.631	21819
882.757	21751
882.883	21956
883.01	21793
883.136	21690
883.262	21492
883.388	21557
883.514	21667
883.64	21778
883.766	21583
883.892	21416
884.018	21515
884.143	21660
884.269	21781
884.395	21412
884.52	21359
884.646	21256
884.772	21207
884.897	21264
885.023	21389
885.148	21473
885.274	21580
885.399	21435
885.524	21329
885.65	21321
885.775	21355
885.9	21344
886.025	21473
886.15	21268
886.275	21195
886.4	21192
886.525	21348
886.65	21325
886.775	21291
886.9	21408
887.025	21553
887.149	21268
887.274	21226
887.399	21192
887.523	21066
887.648	21169
887.773	20994
887.897	21142
888.021	21165
888.146	21093
888.27	21211
888.395	21157
888.519	21142
888.643	21032
888.767	21100
888.891	21013
889.015	20979
889.139	20975
889.263	20895
889.387	21047
889.511	21127
889.635	20937
889.759	20864
889.883	20811
890.006	20941
890.13	21024
890.254	20834
890.377	20811
890.501	20743
890.624	20568
890.748	20670
890.871	20598
890.995	20488
891.118	20370
891.241	20533
891.364	20454
891.488	20507
891.611	20396
891.734	20469
891.857	20442
891.98	20393
892.103	20541
892.226	20476
892.349	20431
892.471	20267
892.594	20423
892.717	20469
892.839	20389
892.962	20434
893.085	20396
893.207	20377
893.33	20328
893.452	20073
893.575	20267
893.697	20282
893.819	20640
893.941	20511
894.064	20438
894.186	20309
894.308	20256
894.43	20488
894.552	20560
894.674	20415
894.796	20336
894.918	20438
895.04	20183
895.161	20400
895.283	20370
895.405	20199
895.526	20286
895.648	20385
895.769	20347
895.891	20419
896.012	20484
896.134	20271
896.255	20210
896.376	20393
896.498	20347
896.619	20385
896.74	20355
896.861	20305
896.982	20648
897.103	20819
897.224	20644
897.345	20469
897.466	20457
897.587	20499
897.708	20720
897.828	20549
897.949	20541
898.07	20374
898.19	20419
898.311	20473
898.431	20492
898.552	20473
898.672	20625
898.792	20590
898.913	20575
899.033	20495
899.153	20343
899.273	20278
899.393	20328
899.513	20438
899.633	20195
899.753	20278
899.873	20142
899.993	20263
900.113	20256
900.232	20221
900.352	20153
900.472	20138
900.591	20119
900.711	20077
900.83	19936
900.95	20119
901.069	20122
901.189	19951
901.308	19655
901.427	19677
901.546	19734
901.665	19651
901.784	19685
901.904	19590
902.023	19457
902.141	19103
902.26	19046
902.379	19240
902.498	19141
902.617	19164
902.735	19228
902.854	19141
902.973	19050
903.091	18863
903.21	18882
903.328	18757
903.446	18688
903.565	18654
903.683	18715
903.801	18521
903.919	18486
904.038	18559
904.156	18391
904.274	18578
904.392	18441
904.51	18422
904.627	18372
904.745	18525
904.863	18407
904.981	18178
905.098	18079
905.216	18041
905.334	18167
905.451	18045
905.569	18064
905.686	18174
905.803	17965
905.921	17878
906.038	17904
906.155	17958
906.272	17771
906.389	17790
906.506	17646
906.623	17668
906.74	17653
906.857	17497
906.974	17699
907.091	17676
907.208	17691
907.324	17771
907.441	17539
907.557	17341
907.674	17353
907.79	17258
907.907	17261
908.023	17292
908.139	17353
908.256	17265
908.372	17284
908.488	17178
908.604	17067
908.72	17090
908.836	17102
908.952	17018
909.068	17006
909.184	17288
909.3	17113
909.415	16946
909.531	16980
909.647	16816
909.762	16801
909.878	16694
909.993	16679
910.108	16759
910.224	16679
910.339	16797
910.454	16660
910.57	16577
910.685	16497
910.8	16816
910.915	16767
911.03	16592
911.145	16344
911.259	16284
911.374	16405
911.489	16287
911.604	16230
911.718	16074
911.833	16063
911.947	15968
912.062	15945
912.176	16192
912.291	16036
912.405	16002
912.519	16306
912.633	16253
912.748	16116
912.862	15911
912.976	15953
913.09	15793
913.204	15869
913.318	15797
913.431	16017
913.545	15915
913.659	15979
913.772	15892
913.886	15728
914	15641
914.113	15789
914.226	15709
914.34	15747
914.453	15625
914.566	15732
914.68	15576
914.793	15485
914.906	15412
915.019	15291
915.132	15207
915.245	15317
915.358	15313
915.47	15233
915.583	15321
915.696	15355
915.809	15382
915.921	15386
916.034	15230
916.146	15138
916.259	15161
916.371	15272
916.483	15180
916.595	15112
916.708	15077
916.82	15074
916.932	14952
917.044	15097
917.156	15028
917.268	14979
917.38	15020
917.491	14868
917.603	14891
917.715	15055
917.826	14960
917.938	14929
918.049	14796
918.161	14815
918.272	14941
918.384	15081
918.495	14883
918.606	14693
918.717	14621
918.828	14739
918.939	14746
919.05	14655
919.161	14701
919.272	14469
919.383	14514
919.494	14659
919.604	14819
919.715	14701
919.826	14602
919.936	14670
920.047	14731
920.157	14708
920.267	14838
920.378	14579
920.488	14606
920.598	14933
920.708	14929
920.818	14746
920.928	14910
921.038	14937
921.148	14842
921.258	14636
921.368	14549
921.477	14400
921.587	14320
921.697	14256
921.806	14374
921.916	14237
922.025	14035
922.134	14008
922.244	13940
922.353	14092
922.462	13879
922.571	13753
922.68	13636
922.789	13723
922.898	13609
923.007	13556
923.116	13685
923.224	13636
923.333	13616
923.442	13529
923.55	13476
923.659	13468
923.767	13632
923.876	13483
923.984	13529
924.092	13327
924.201	13369
924.309	13426
924.417	13441
924.525	13419
924.633	13304
924.741	14001
924.849	13042
924.956	13244
925.064	13031
925.172	12977
925.279	13088
925.387	13179
925.494	13061
925.602	13110
925.709	13099
925.816	12913
925.924	13069
926.031	13225
926.138	13046
926.245	13042
926.352	12954
926.459	13057
926.566	13110
926.673	12894
926.779	12867
926.886	12802
926.993	12715
927.099	12604
927.206	12604
927.312	12593
927.419	12559
927.525	12544
927.631	12631
927.737	12540
927.843	12448
927.95	12380
928.056	12471
928.162	12388
928.267	12525
928.373	13095
928.479	12555
928.585	12388
928.69	12372
928.796	12498
928.901	12334
929.007	12270
929.112	12357
929.218	12273
929.323	12209
929.428	12125
929.533	12270
929.638	12148
929.743	12106
929.848	12186
929.953	12060
930.058	12053
930.163	11950
930.267	11889
930.372	12022
930.477	11874
930.581	12041
930.685	11832
930.79	11657
930.894	11809
930.998	11748
931.103	11836
931.207	11512
931.311	11368
931.415	11379
931.519	11090
931.623	11094
