Data from test_V78500241_847.txt Node
Date: Fri Mar 25 15:15:45 CST 2022
User: usil
Spectrometer: V785-0024
Trigger mode: 0
Integration Time (sec): 4.000000E-1
Scans to average: 1
Nonlinearity correction enabled: false
Boxcar width: 0
Storing dark spectrum: false
XAxis mode: Wavelengths
Number of Pixels in Spectrum: 1024
>>>>>Begin Spectral Data<<<<<
801.071	28124
801.214	28166
801.356	27941
801.499	27846
801.641	27717
801.783	27679
801.926	27724
802.068	27819
802.211	27633
802.353	27511
802.496	27317
802.638	27424
802.78	27420
802.923	27370
803.065	27439
803.208	27355
803.35	27408
803.492	27515
803.635	27660
803.777	27564
803.919	27698
804.061	27903
804.204	27580
804.346	27610
804.488	27420
804.63	27606
804.773	27523
804.915	27599
805.057	27625
805.199	27515
805.341	27698
805.483	27804
805.626	27648
805.768	27545
805.91	27686
806.052	27808
806.194	27603
806.336	27800
806.478	27880
806.62	27914
806.762	27842
806.904	28086
807.046	28299
807.188	28139
807.33	28086
807.472	28105
807.614	28097
807.756	28090
807.898	27998
808.04	28017
808.182	27998
808.324	27983
808.465	28093
808.607	28234
808.749	28325
808.891	28409
809.033	28615
809.174	28363
809.316	28386
809.458	28306
809.6	28295
809.741	28554
809.883	28599
810.025	28767
810.166	28691
810.308	28725
810.45	28645
810.591	28630
810.733	28531
810.875	28508
811.016	28257
811.158	28318
811.299	28325
811.441	28550
811.582	28500
811.724	28398
811.865	28504
812.007	28455
812.148	28470
812.29	28451
812.431	28618
812.573	28816
812.714	28831
812.855	29014
812.997	29056
813.138	29022
813.279	29044
813.421	28927
813.562	29056
813.703	28736
813.845	28748
813.986	28417
814.127	28166
814.268	28105
814.41	28158
814.551	27956
814.692	28257
814.833	28234
814.974	28105
815.115	28211
815.256	27949
815.397	28063
815.539	28059
815.68	27941
815.821	27751
815.962	28021
816.103	27911
816.244	27831
816.385	27633
816.526	27671
816.666	27538
816.807	27378
816.948	27648
817.089	27530
817.23	27534
817.371	27507
817.512	27450
817.653	27321
817.793	27260
817.934	27515
818.075	27420
818.216	27431
818.356	27321
818.497	27268
818.638	27207
818.778	27077
818.919	27192
819.06	27268
819.2	27264
819.341	27485
819.481	27485
819.622	27515
819.762	27827
819.903	27793
820.043	27785
820.184	27633
820.324	27561
820.465	27610
820.605	27599
820.746	27583
820.886	27507
821.026	27557
821.167	27622
821.307	27580
821.447	27469
821.588	27332
821.728	27119
821.868	27024
822.008	26857
822.149	26902
822.289	26914
822.429	26617
822.569	26670
822.709	26621
822.849	26495
822.99	26412
823.13	26396
823.27	26427
823.41	26320
823.55	26111
823.69	26187
823.83	26225
823.97	26130
824.11	26145
824.25	26008
824.389	26100
824.529	26119
824.669	25959
824.809	26259
824.949	26210
825.089	26183
825.228	26142
825.368	25936
825.508	26024
825.648	25982
825.787	26157
825.927	26024
826.067	25898
826.206	25989
826.346	26008
826.485	25917
826.625	26031
826.765	25989
826.904	26046
827.044	25712
827.183	25712
827.323	25719
827.462	25727
827.601	25651
827.741	25639
827.88	25662
828.02	25559
828.159	25693
828.298	25738
828.437	25696
828.577	25727
828.716	25727
828.855	25533
828.994	25365
829.134	25350
829.273	25384
829.412	25400
829.551	25289
829.69	25388
829.829	25445
829.968	25453
830.107	25331
830.246	25377
830.385	25327
830.524	25247
830.663	25099
830.802	25213
830.941	25008
831.08	24951
831.219	25069
831.357	25065
831.496	25122
831.635	25012
831.774	24909
831.913	24886
832.051	24817
832.19	24837
832.329	24859
832.467	24544
832.606	24616
832.744	24627
832.883	24650
833.022	24738
833.16	24661
833.299	24681
833.437	24673
833.576	24696
833.714	24791
833.852	24821
833.991	24696
834.129	24753
834.267	24741
834.406	24703
834.544	24852
834.682	24719
834.821	24764
834.959	24916
835.097	24658
835.235	24753
835.373	24741
835.511	24825
835.65	24715
835.788	24585
835.926	24513
836.064	24380
836.202	24505
836.34	24490
836.478	24730
836.615	24589
836.753	24673
836.891	24551
837.029	24665
837.167	24414
837.305	24513
837.443	24433
837.58	24441
837.718	24407
837.856	24452
837.993	24323
838.131	24296
838.269	24228
838.406	24315
838.544	24159
838.681	23988
838.819	23969
838.956	23840
839.094	23840
839.231	23897
839.369	24095
839.506	24224
839.643	24197
839.781	23828
839.918	23855
840.055	23916
840.193	23828
840.33	23779
840.467	23794
840.604	23775
840.742	24064
840.879	23596
841.016	23653
841.153	23718
841.29	23798
841.427	23748
841.564	23863
841.701	23741
841.838	23638
841.975	23665
842.112	23638
842.249	23528
842.385	23425
842.522	23661
842.659	23554
842.796	23585
842.933	23581
843.069	23482
843.206	23429
843.343	23551
843.479	23547
843.616	23493
843.752	23162
843.889	23212
844.025	23429
844.162	23204
844.298	23364
844.435	23299
844.571	23204
844.708	23417
844.844	23433
844.98	23471
845.117	23444
845.253	23155
845.389	23044
845.525	23109
845.661	23121
845.798	23044
845.934	23159
846.07	22976
846.206	22999
846.342	23143
846.478	23155
846.614	22816
846.75	22691
846.886	22729
847.022	22908
847.158	22713
847.294	22778
847.429	22786
847.565	22702
847.701	23014
847.837	22512
847.972	22413
848.108	22630
848.244	22683
848.379	22375
848.515	22322
848.65	22314
848.786	22333
848.921	22344
849.057	22417
849.192	22341
849.328	22379
849.463	22306
849.598	22344
849.734	22363
849.869	22272
850.004	22086
850.14	22116
850.275	22177
850.41	22032
850.545	22147
850.68	22105
850.815	22044
850.95	22017
851.085	22287
851.22	22257
851.355	22185
851.49	21991
851.625	22013
851.76	21953
851.895	22082
852.03	21998
852.165	22070
852.299	22044
852.434	22223
852.569	22135
852.703	22188
852.838	22048
852.973	22356
853.107	22169
853.242	22143
853.376	22093
853.511	21804
853.645	21850
853.78	21884
853.914	22032
854.048	21888
854.183	22010
854.317	21972
854.451	22169
854.585	22013
854.72	21930
854.854	21991
854.988	21823
855.122	21873
855.256	21679
855.39	21857
855.524	21968
855.658	21934
855.792	21907
855.926	21819
856.06	22013
856.194	22017
856.327	21816
856.461	21819
856.595	21869
856.729	21911
856.862	22116
856.996	21937
857.13	21945
857.263	22101
857.397	22036
857.53	21907
857.664	21903
857.797	21960
857.931	22017
858.064	21991
858.197	21911
858.331	21816
858.464	21972
858.597	21956
858.731	21949
858.864	21865
858.997	21835
859.13	21827
859.263	22002
859.396	22090
859.529	21915
859.662	21747
859.795	21873
859.928	21873
860.061	22055
860.194	22048
860.327	21941
860.46	21880
860.592	21983
860.725	22029
860.858	22010
860.99	21987
861.123	21816
861.256	21869
861.388	21869
861.521	22615
861.653	21869
861.786	21755
861.918	21895
862.05	21869
862.183	21793
862.315	21846
862.447	21888
862.58	21842
862.712	21694
862.844	21625
862.976	21701
863.108	21656
863.24	22032
863.372	21545
863.504	21675
863.636	21595
863.768	21671
863.9	21694
864.032	21595
864.164	21682
864.296	21583
864.428	21686
864.559	21599
864.691	21580
864.823	21530
864.954	21614
865.086	21610
865.217	21492
865.349	21405
865.48	21572
865.612	21473
865.743	21644
865.875	21477
866.006	21405
866.137	21488
866.269	21534
866.4	21477
866.531	21500
866.662	21313
866.793	21291
866.924	21435
867.055	21462
867.186	21405
867.317	21431
867.448	21310
867.579	21431
867.71	21340
867.841	21302
867.972	21435
868.103	21370
868.233	21485
868.364	21473
868.495	21488
868.625	21595
868.756	21816
868.886	21519
869.017	21679
869.147	21789
869.278	21781
869.408	21599
869.539	21618
869.669	21797
869.799	21720
869.929	21797
870.06	21713
870.19	22025
870.32	22040
870.45	22063
870.58	22131
870.71	22112
870.84	22166
870.97	21983
871.1	22040
871.23	22238
871.36	22223
871.489	22150
871.619	22238
871.749	22280
871.879	22257
872.008	22402
872.138	22337
872.267	22265
872.397	22093
872.526	22135
872.656	22059
872.785	22120
872.915	22276
873.044	22398
873.173	22303
873.303	22421
873.432	22379
873.561	22481
873.69	22344
873.819	22234
873.948	22413
874.077	22325
874.206	22120
874.335	22306
874.464	22424
874.593	22447
874.722	22516
874.851	22470
874.979	22656
875.108	22542
875.237	22504
875.365	22363
875.494	22474
875.623	22538
875.751	22394
875.88	22592
876.008	22573
876.136	22668
876.265	22873
876.393	22911
876.521	22942
876.65	23025
876.778	22854
876.906	22869
877.034	22611
877.162	22889
877.29	22706
877.418	22812
877.546	22847
877.674	22767
877.802	22927
877.93	22949
878.058	22778
878.185	22748
878.313	22809
878.441	22869
878.568	22736
878.696	22771
878.824	22938
878.951	22873
879.079	23044
879.206	23052
879.333	22984
879.461	22782
879.588	22984
879.715	23022
879.842	23147
879.97	22904
880.097	22618
880.224	22675
880.351	22710
880.478	22687
880.605	22584
880.732	22569
880.859	22866
880.986	22592
881.112	22622
881.239	22489
881.366	22527
881.493	22363
881.619	22185
881.746	22363
881.872	22135
881.999	22150
882.125	22131
882.252	22280
882.378	22124
882.505	22344
882.631	22097
882.757	22017
882.883	22143
883.01	21915
883.136	21865
883.262	21709
883.388	21793
883.514	21819
883.64	21975
883.766	21956
883.892	21660
884.018	21789
884.143	21812
884.269	21998
884.395	21667
884.52	21568
884.646	21629
884.772	21553
884.897	21439
885.023	21644
885.148	21641
885.274	21728
885.399	21660
885.524	21542
885.65	21690
885.775	21511
885.9	21595
886.025	21583
886.15	21561
886.275	21500
886.4	21230
886.525	21515
886.65	21443
886.775	21450
886.9	21610
887.025	21789
887.149	21450
887.274	21226
887.399	21233
887.523	21283
887.648	21367
887.773	21279
887.897	21462
888.021	21146
888.146	21275
888.27	21389
888.395	21496
888.519	21264
888.643	21367
888.767	21321
888.891	21214
889.015	21146
889.139	21230
889.263	21081
889.387	21218
889.511	21272
889.635	21222
889.759	21032
889.883	20956
890.006	21089
890.13	21089
890.254	21085
890.377	21039
890.501	20899
890.624	20864
890.748	20823
890.871	20773
890.995	20746
891.118	20613
891.241	20689
891.364	20655
891.488	20686
891.611	20720
891.734	20716
891.857	20765
891.98	20701
892.103	20720
892.226	20754
892.349	20644
892.471	20427
892.594	20663
892.717	20670
892.839	20492
892.962	20499
893.085	20583
893.207	20571
893.33	20370
893.452	20434
893.575	20632
893.697	20507
893.819	20746
893.941	20743
894.064	20667
894.186	20473
894.308	20469
894.43	20583
894.552	20640
894.674	20587
894.796	20473
894.918	20606
895.04	20556
895.161	20526
895.283	20590
895.405	20594
895.526	20503
895.648	20511
895.769	20579
895.891	20495
896.012	20655
896.134	20629
896.255	20678
896.376	20518
896.498	20606
896.619	20530
896.74	20484
896.861	20602
896.982	20929
897.103	20891
897.224	20826
897.345	20632
897.466	20720
897.587	20788
897.708	20914
897.828	20765
897.949	20769
898.07	20564
898.19	20602
898.311	20796
898.431	20651
898.552	20743
898.672	20815
898.792	20800
898.913	20796
899.033	20689
899.153	20568
899.273	20499
899.393	20640
899.513	20499
899.633	20473
899.753	20465
899.873	20438
899.993	20514
900.113	20434
900.232	20450
900.352	20366
900.472	20347
900.591	20320
900.711	20389
900.83	20183
900.95	20339
901.069	20415
901.189	20153
901.308	19947
901.427	19909
901.546	19932
901.665	19849
901.784	19879
901.904	19693
902.023	19647
902.141	19491
902.26	19445
902.379	19548
902.498	19430
902.617	19381
902.735	19396
902.854	19419
902.973	19289
903.091	19057
903.21	19034
903.328	18935
903.446	18878
903.565	18875
903.683	18901
903.801	18639
903.919	18745
904.038	18745
904.156	18631
904.274	18661
904.392	18642
904.51	18658
904.627	18582
904.745	18521
904.863	18563
904.981	18388
905.098	18289
905.216	18220
905.334	18407
905.451	18369
905.569	18319
905.686	18209
905.803	18235
905.921	18083
906.038	18140
906.155	18076
906.272	18011
906.389	17893
906.506	17779
906.623	17863
906.74	17714
906.857	17710
906.974	17649
907.091	17843
907.208	17786
907.324	17817
907.441	17737
907.557	17554
907.674	17509
907.79	17421
907.907	17471
908.023	17581
908.139	17509
908.256	17482
908.372	17482
908.488	17364
908.604	17273
908.72	17143
908.836	17212
908.952	17216
909.068	17356
909.184	17299
909.3	17239
909.415	17299
909.531	17208
909.647	16999
909.762	16953
909.878	16972
909.993	16938
910.108	16896
910.224	16915
910.339	16911
910.454	16782
910.57	16771
910.685	16645
910.8	16938
910.915	16854
911.03	16706
911.145	16577
911.259	16535
911.374	16478
911.489	16409
911.604	16356
911.718	16306
911.833	16337
911.947	16192
912.062	16097
912.176	16238
912.291	16291
912.405	16181
912.519	16394
912.633	16409
912.748	16196
912.862	16230
912.976	16139
913.09	16013
913.204	16071
913.318	16032
913.431	16090
913.545	16093
913.659	16196
913.772	16010
913.886	15922
914	15964
914.113	15991
914.226	15945
914.34	16025
914.453	15717
914.566	15854
914.68	15660
914.793	15759
914.906	15488
915.019	15443
915.132	15386
915.245	15370
915.358	15477
915.47	15424
915.583	15481
915.696	15549
915.809	15629
915.921	15473
916.034	15405
916.146	15408
916.259	15332
916.371	15515
916.483	15363
916.595	15268
916.708	15279
916.82	15283
916.932	15207
917.044	15256
917.156	15199
917.268	15036
917.38	15154
917.491	15131
917.603	15119
917.715	15165
917.826	15176
917.938	15066
918.049	14887
918.161	15081
918.272	15157
918.384	15279
918.495	14929
918.606	14906
918.717	14849
918.828	14914
918.939	14777
919.05	14724
919.161	14845
919.272	14575
919.383	14716
919.494	14857
919.604	14967
919.715	14880
919.826	14845
919.936	14815
920.047	14826
920.157	14777
920.267	14971
920.378	14777
920.488	14765
920.598	14929
920.708	15123
920.818	14910
920.928	14925
921.038	15077
921.148	15009
921.258	14705
921.368	14655
921.477	14549
921.587	14629
921.697	14434
921.806	14476
921.916	14362
922.025	14145
922.134	14164
922.244	14176
922.353	14191
922.462	14161
922.571	13986
922.68	13925
922.789	13811
922.898	13852
923.007	13734
923.116	13898
923.224	13784
923.333	13791
923.442	13662
923.55	13636
923.659	13605
923.767	13704
923.876	13601
923.984	13556
924.092	13537
924.201	13647
924.309	13533
924.417	13480
924.525	13483
924.633	13422
924.741	14259
924.849	13285
924.956	13388
925.064	13308
925.172	13076
925.279	13244
925.387	13213
925.494	13209
925.602	13346
925.709	13301
925.816	13133
925.924	13137
926.031	13259
926.138	13187
926.245	13194
926.352	13038
926.459	13149
926.566	13255
926.673	12954
926.779	12985
926.886	12905
926.993	12844
927.099	12753
927.206	12764
927.312	12681
927.419	12810
927.525	12741
927.631	12764
927.737	12745
927.843	12658
927.95	12498
928.056	12620
928.162	12662
928.267	12589
928.373	13171
928.479	12658
928.585	12346
928.69	12494
928.796	12566
928.901	12433
929.007	12273
929.112	12391
929.218	12380
929.323	12380
929.428	12350
929.533	12441
929.638	12178
929.743	12254
929.848	12205
929.953	12175
930.058	12182
930.163	11923
930.267	12034
930.372	12175
930.477	11961
930.581	12171
930.685	12019
930.79	11893
930.894	11851
930.998	11851
931.103	11992
931.207	11623
931.311	11512
931.415	11490
931.519	11330
931.623	11318
