Data from test_V78500241_2834.txt Node
Date: Fri Mar 25 15:29:35 CST 2022
User: usil
Spectrometer: V785-0024
Trigger mode: 0
Integration Time (sec): 4.000000E-1
Scans to average: 1
Nonlinearity correction enabled: false
Boxcar width: 0
Storing dark spectrum: false
XAxis mode: Wavelengths
Number of Pixels in Spectrum: 1024
>>>>>Begin Spectral Data<<<<<
801.071	27351
801.214	27275
801.356	26982
801.499	26925
801.641	26857
801.783	26720
801.926	26773
802.068	26895
802.211	26689
802.353	26868
802.496	26465
802.638	26476
802.78	26560
802.923	26412
803.065	26427
803.208	26393
803.35	26446
803.492	26598
803.635	26663
803.777	26701
803.919	26823
804.061	26979
804.204	26800
804.346	26629
804.488	26587
804.63	26648
804.773	26518
804.915	26583
805.057	26682
805.199	26549
805.341	26587
805.483	26788
805.626	26697
805.768	26617
805.91	26762
806.052	26712
806.194	26598
806.336	26815
806.478	26735
806.62	26724
806.762	26701
806.904	26933
807.046	27199
807.188	27222
807.33	27013
807.472	27047
807.614	27176
807.756	27131
807.898	27013
808.04	26868
808.182	26971
808.324	27116
808.465	27032
808.607	27214
808.749	27256
808.891	27340
809.033	27488
809.174	27386
809.316	27283
809.458	27264
809.6	27222
809.741	27424
809.883	27572
810.025	27667
810.166	27561
810.308	27614
810.45	27614
810.591	27405
810.733	27317
810.875	27291
811.016	27306
811.158	27306
811.299	27492
811.441	27450
811.582	27576
811.724	27291
811.865	27401
812.007	27291
812.148	27317
812.29	27374
812.431	27519
812.573	27641
812.714	27652
812.855	27789
812.997	27994
813.138	27979
813.279	27941
813.421	27804
813.562	27690
813.703	27583
813.845	27351
813.986	27165
814.127	27119
814.268	27100
814.41	27036
814.551	27089
814.692	27119
814.833	26857
814.974	26982
815.115	26986
815.256	26887
815.397	26876
815.539	26864
815.68	26804
815.821	26632
815.962	26777
816.103	26739
816.244	26560
816.385	26613
816.526	26431
816.666	26305
816.807	26202
816.948	26450
817.089	26271
817.23	26256
817.371	26229
817.512	26206
817.653	26153
817.793	26115
817.934	26278
818.075	26305
818.216	26218
818.356	26275
818.497	26092
818.638	26065
818.778	25974
818.919	25898
819.06	26027
819.2	26122
819.341	26366
819.481	26282
819.622	26317
819.762	26613
819.903	26499
820.043	26415
820.184	26400
820.324	26408
820.465	26469
820.605	26248
820.746	26286
820.886	26161
821.026	26438
821.167	26343
821.307	26210
821.447	26191
821.588	26107
821.728	26035
821.868	25875
822.008	25769
822.149	25761
822.289	25689
822.429	25384
822.569	25426
822.709	25213
822.849	25259
822.99	25179
823.13	25129
823.27	25225
823.41	25034
823.55	24954
823.69	25012
823.83	25000
823.97	24928
824.11	24856
824.25	24779
824.389	24886
824.529	24954
824.669	24814
824.809	24947
824.949	24928
825.089	24943
825.228	24848
825.368	24806
825.508	24623
825.648	24749
825.787	24738
825.927	24757
826.067	24776
826.206	24707
826.346	24802
826.485	24730
826.625	24623
826.765	24882
826.904	24745
827.044	24445
827.183	24490
827.323	24315
827.462	24483
827.601	24384
827.741	24327
827.88	24254
828.02	24319
828.159	24361
828.298	24399
828.437	24460
828.577	24311
828.716	24483
828.855	24273
828.994	24030
829.134	24038
829.273	24148
829.412	24167
829.551	23954
829.69	24125
829.829	24095
829.968	24228
830.107	24201
830.246	24022
830.385	24133
830.524	23897
830.663	23935
830.802	23714
830.941	23638
831.08	23611
831.219	23809
831.357	23874
831.496	23939
831.635	23630
831.774	23630
831.913	23531
832.051	23448
832.19	23516
832.329	23634
832.467	23330
832.606	23395
832.744	23345
832.883	23341
833.022	23410
833.16	23402
833.299	23402
833.437	23368
833.576	23429
833.714	23372
833.852	23493
833.991	23406
834.129	23543
834.267	23524
834.406	23596
834.544	23478
834.682	23531
834.821	23471
834.959	23585
835.097	23345
835.235	23528
835.373	23406
835.511	23497
835.65	23383
835.788	23292
835.926	23166
836.064	23094
836.202	23174
836.34	23227
836.478	23349
836.615	23334
836.753	23391
836.891	23200
837.029	23315
837.167	23166
837.305	23296
837.443	23299
837.58	23197
837.718	23109
837.856	23109
837.993	23052
838.131	23124
838.269	22984
838.406	22991
838.544	22957
838.681	22710
838.819	22786
838.956	22557
839.094	22694
839.231	22672
839.369	22687
839.506	22911
839.643	22816
839.781	22630
839.918	22489
840.055	22584
840.193	22455
840.33	22584
840.467	22580
840.604	22554
840.742	22828
840.879	22512
841.016	22375
841.153	22481
841.29	22721
841.427	22493
841.564	22554
841.701	22527
841.838	22371
841.975	22322
842.112	22500
842.249	22440
842.385	22466
842.522	22519
842.659	22310
842.796	22276
842.933	22242
843.069	22398
843.206	22265
843.343	22356
843.479	22352
843.616	22352
843.752	22112
843.889	22025
844.025	22196
844.162	22006
844.298	22147
844.435	22010
844.571	22128
844.708	22093
844.844	22253
844.98	22169
845.117	22086
845.253	21926
845.389	21949
845.525	21968
845.661	21934
845.798	21846
845.934	21949
846.07	21857
846.206	21739
846.342	21930
846.478	21694
846.614	21618
846.75	21545
846.886	21526
847.022	21644
847.158	21599
847.294	21378
847.429	21606
847.565	21424
847.701	21728
847.837	21218
847.972	21291
848.108	21294
848.244	21412
848.379	21176
848.515	21104
848.65	21096
848.786	21020
848.921	21176
849.057	21226
849.192	21180
849.328	21074
849.463	21127
849.598	21081
849.734	21032
849.869	20914
850.004	20864
850.14	20952
850.275	20891
850.41	20769
850.545	20815
850.68	20796
850.815	20914
850.95	20895
851.085	21028
851.22	20979
851.355	20925
851.49	20849
851.625	20876
851.76	20861
851.895	20754
852.03	20796
852.165	21005
852.299	20861
852.434	20880
852.569	20830
852.703	20990
852.838	20971
852.973	21028
853.107	21116
853.242	20868
853.376	20716
853.511	20552
853.645	20701
853.78	20853
853.914	20708
854.048	20716
854.183	20678
854.317	20754
854.451	20838
854.585	20792
854.72	20659
854.854	20697
854.988	20712
855.122	20720
855.256	20590
855.39	20682
855.524	20689
855.658	20773
855.792	20632
855.926	20746
856.06	20826
856.194	20834
856.327	20667
856.461	20754
856.595	20606
856.729	20682
856.862	20830
856.996	20678
857.13	20823
857.263	20845
857.397	20689
857.53	20716
857.664	20705
857.797	20792
857.931	20929
858.064	20697
858.197	20937
858.331	20773
858.464	20632
858.597	20609
858.731	20781
858.864	20632
858.997	20629
859.13	20629
859.263	20720
859.396	20765
859.529	20655
859.662	20754
859.795	20621
859.928	20754
860.061	20826
860.194	20933
860.327	20777
860.46	20648
860.592	20838
860.725	20902
860.858	20941
860.99	20689
861.123	20659
861.256	20575
861.388	20743
861.521	21241
861.653	20511
861.786	20507
861.918	20461
862.05	20583
862.183	20686
862.315	20670
862.447	20762
862.58	20708
862.712	20454
862.844	20332
862.976	20404
863.108	20560
863.24	20918
863.372	20366
863.504	20370
863.636	20492
863.768	20419
863.9	20480
864.032	20419
864.164	20457
864.296	20438
864.428	20621
864.559	20640
864.691	20545
864.823	20511
864.954	20446
865.086	20370
865.217	20389
865.349	20278
865.48	20294
865.612	20252
865.743	20488
865.875	20408
866.006	20313
866.137	20461
866.269	20237
866.4	20408
866.531	20339
866.662	20256
866.793	20252
866.924	20271
867.055	20320
867.186	20305
867.317	20199
867.448	20237
867.579	20225
867.71	20210
867.841	20218
867.972	20256
868.103	20275
868.233	20244
868.364	20339
868.495	20336
868.625	20393
868.756	20480
868.886	20374
869.017	20507
869.147	20556
869.278	20454
869.408	20465
869.539	20537
869.669	20571
869.799	20526
869.929	20651
870.06	20750
870.19	20758
870.32	20834
870.45	20777
870.58	20967
870.71	21020
870.84	21036
870.97	21036
871.1	20952
871.23	21138
871.36	21100
871.489	21062
871.619	21127
871.749	21043
871.879	21104
872.008	21100
872.138	21074
872.267	21085
872.397	20986
872.526	20933
872.656	20807
872.785	21051
872.915	21089
873.044	21169
873.173	21165
873.303	21249
873.432	21233
873.561	21214
873.69	21131
873.819	20979
873.948	21207
874.077	21154
874.206	21001
874.335	21252
874.464	21310
874.593	21408
874.722	21169
874.851	21393
874.979	21355
875.108	21450
875.237	21275
875.365	21237
875.494	21408
875.623	21428
875.751	21363
875.88	21424
876.008	21545
876.136	21625
876.265	21751
876.393	21941
876.521	21895
876.65	21808
876.778	21728
876.906	21755
877.034	21667
877.162	21641
877.29	21656
877.418	21682
877.546	21846
877.674	21656
877.802	21625
877.93	21778
878.058	21679
878.185	21660
878.313	21747
878.441	21747
878.568	21488
878.696	21694
878.824	21785
878.951	21793
879.079	21873
879.206	21884
879.333	21880
879.461	21667
879.588	21804
879.715	21854
879.842	21983
879.97	21793
880.097	21496
880.224	21515
880.351	21545
880.478	21504
880.605	21625
880.732	21473
880.859	21739
880.986	21511
881.112	21519
881.239	21469
881.366	21424
881.493	21199
881.619	21116
881.746	21066
881.872	21108
881.999	21123
882.125	21043
882.252	20975
882.378	21066
882.505	21241
882.631	20990
882.757	20739
882.883	20982
883.01	20830
883.136	20887
883.262	20735
883.388	20644
883.514	20849
883.64	20887
883.766	20792
883.892	20625
884.018	20682
884.143	20758
884.269	20750
884.395	20564
884.52	20492
884.646	20511
884.772	20419
884.897	20385
885.023	20499
885.148	20670
885.274	20568
885.399	20564
885.524	20499
885.65	20530
885.775	20499
885.9	20442
886.025	20541
886.15	20465
886.275	20450
886.4	20366
886.525	20438
886.65	20351
886.775	20332
886.9	20511
887.025	20609
887.149	20370
887.274	20400
887.399	20320
887.523	20313
887.648	20145
887.773	20157
887.897	20290
888.021	20309
888.146	20275
888.27	20278
888.395	20362
888.519	20374
888.643	20263
888.767	20362
888.891	20172
889.015	20096
889.139	20149
889.263	20027
889.387	20191
889.511	20347
889.635	20225
889.759	20050
889.883	19993
890.006	20103
890.13	20172
890.254	20016
890.377	20024
890.501	19871
890.624	19845
890.748	19860
890.871	19811
890.995	19662
891.118	19605
891.241	19632
891.364	19746
891.488	19788
891.611	19708
891.734	19651
891.857	19597
891.98	19613
892.103	19693
892.226	19601
892.349	19594
892.471	19449
892.594	19548
892.717	19571
892.839	19693
892.962	19639
893.085	19540
893.207	19685
893.33	19392
893.452	19632
893.575	19723
893.697	19643
893.819	19696
893.941	19868
894.064	19772
894.186	19453
894.308	19609
894.43	19681
894.552	19734
894.674	19681
894.796	19506
894.918	19502
895.04	19571
895.161	19597
895.283	19616
895.405	19483
895.526	19533
895.648	19548
895.769	19662
895.891	19681
896.012	19635
896.134	19601
896.255	19662
896.376	19655
896.498	19738
896.619	19674
896.74	19548
896.861	19624
896.982	19826
897.103	19986
897.224	19875
897.345	19795
897.466	19772
897.587	19852
897.708	19970
897.828	19921
897.949	19791
898.07	19731
898.19	19712
898.311	19852
898.431	19742
898.552	19776
898.672	19925
898.792	19845
898.913	19795
899.033	19734
899.153	19772
899.273	19578
899.393	19628
899.513	19620
899.633	19674
899.753	19639
899.873	19616
899.993	19567
900.113	19639
900.232	19563
900.352	19559
900.472	19460
900.591	19316
900.711	19365
900.83	19198
900.95	19537
901.069	19422
901.189	19213
901.308	19053
901.427	19027
901.546	18951
901.665	19015
901.784	18989
901.904	18875
902.023	18726
902.141	18593
902.26	18399
902.379	18532
902.498	18502
902.617	18388
902.735	18445
902.854	18464
902.973	18342
903.091	18300
903.21	18186
903.328	18220
903.446	18015
903.565	17996
903.683	17950
903.801	17847
903.919	17920
904.038	17863
904.156	17786
904.274	17821
904.392	17691
904.51	17707
904.627	17790
904.745	17752
904.863	17824
904.981	17520
905.098	17467
905.216	17452
905.334	17379
905.451	17334
905.569	17398
905.686	17452
905.803	17360
905.921	17216
906.038	17315
906.155	17265
906.272	17166
906.389	17124
906.506	16938
906.623	16999
906.74	16957
906.857	16911
906.974	16759
907.091	17071
907.208	17060
907.324	16949
907.441	16824
907.557	16698
907.674	16668
907.79	16531
907.907	16550
908.023	16660
908.139	16653
908.256	16603
908.372	16554
908.488	16535
908.604	16538
908.72	16398
908.836	16421
908.952	16424
909.068	16322
909.184	16504
909.3	16428
909.415	16478
909.531	16394
909.647	16147
909.762	16147
909.878	16032
909.993	16116
910.108	16051
910.224	15960
910.339	16200
910.454	15960
910.57	15956
910.685	15884
910.8	16150
910.915	16116
911.03	15937
911.145	15739
911.259	15679
911.374	15816
911.489	15599
911.604	15679
911.718	15534
911.833	15504
911.947	15416
912.062	15325
912.176	15549
912.291	15488
912.405	15530
912.519	15572
912.633	15637
912.748	15500
912.862	15435
912.976	15386
913.09	15180
913.204	15222
913.318	15283
913.431	15348
913.545	15348
913.659	15317
913.772	15157
913.886	15112
914	15051
914.113	15180
914.226	15070
914.34	15085
914.453	14979
914.566	15207
914.68	15081
914.793	14967
914.906	14746
915.019	14731
915.132	14674
915.245	14632
915.358	14667
915.47	14762
915.583	14659
915.696	14739
915.809	14826
915.921	14815
916.034	14663
916.146	14617
916.259	14613
916.371	14621
916.483	14693
916.595	14552
916.708	14568
916.82	14556
916.932	14549
917.044	14492
917.156	14396
917.268	14400
917.38	14381
917.491	14358
917.603	14324
917.715	14434
917.826	14507
917.938	14271
918.049	14256
918.161	14336
918.272	14594
918.384	14381
918.495	14282
918.606	14275
918.717	14100
918.828	14142
918.939	14164
919.05	14046
919.161	14088
919.272	13868
919.383	14027
919.494	14168
919.604	14400
919.715	14164
919.826	14012
919.936	14046
920.047	14214
920.157	14100
920.267	14328
920.378	14100
920.488	14016
920.598	14183
920.708	14469
920.818	14278
920.928	14183
921.038	14358
921.148	14366
921.258	14096
921.368	13959
921.477	13879
921.587	13772
921.697	13636
921.806	13807
921.916	13696
922.025	13613
922.134	13460
922.244	13476
922.353	13483
922.462	13335
922.571	13384
922.68	13236
922.789	13133
922.898	13156
923.007	13175
923.116	13194
923.224	13194
923.333	13080
923.442	13023
923.55	13004
923.659	12958
923.767	13023
923.876	12916
923.984	12985
924.092	12943
924.201	12886
924.309	12848
924.417	12875
924.525	12829
924.633	12966
924.741	13845
924.849	12593
924.956	12840
925.064	12589
925.172	12532
925.279	12589
925.387	12578
925.494	12620
925.602	12760
925.709	12635
925.816	12452
925.924	12620
926.031	12547
926.138	12456
926.245	12620
926.352	12479
926.459	12589
926.566	12658
926.673	12418
926.779	12330
926.886	12338
926.993	12315
927.099	12197
927.206	12102
927.312	12121
927.419	12117
927.525	12186
927.631	12186
927.737	12083
927.843	12098
927.95	11977
928.056	12011
928.162	12064
928.267	12098
928.373	12585
928.479	12060
928.585	11851
928.69	11885
928.796	11988
928.901	11847
929.007	11733
929.112	11927
929.218	11840
929.323	11699
929.428	11764
929.533	11859
929.638	11665
929.743	11745
929.848	11756
929.953	11726
930.058	11608
930.163	11406
930.267	11501
930.372	11577
930.477	11376
930.581	11665
930.685	11448
930.79	11292
930.894	11387
930.998	11277
931.103	11497
931.207	11037
931.311	11025
931.415	10904
931.519	10740
931.623	10717
