Data from test_V78500241_585.txt Node
Date: Fri Mar 25 15:13:55 CST 2022
User: usil
Spectrometer: V785-0024
Trigger mode: 0
Integration Time (sec): 4.000000E-1
Scans to average: 1
Nonlinearity correction enabled: false
Boxcar width: 0
Storing dark spectrum: false
XAxis mode: Wavelengths
Number of Pixels in Spectrum: 1024
>>>>>Begin Spectral Data<<<<<
801.071	27100
801.214	27093
801.356	26918
801.499	27017
801.641	26773
801.783	26769
801.926	26910
802.068	26579
802.211	26575
802.353	26556
802.496	26393
802.638	26301
802.78	26431
802.923	26180
803.065	26347
803.208	26320
803.35	26351
803.492	26309
803.635	26541
803.777	26358
803.919	26446
804.061	26807
804.204	26423
804.346	26347
804.488	26309
804.63	26499
804.773	26309
804.915	26476
805.057	26617
805.199	26396
805.341	26712
805.483	26522
805.626	26663
805.768	26377
805.91	26514
806.052	26613
806.194	26476
806.336	26838
806.478	26648
806.62	26522
806.762	26705
806.904	26788
807.046	27119
807.188	27039
807.33	27043
807.472	26998
807.614	26876
807.756	26986
807.898	26857
808.04	26845
808.182	26792
808.324	26773
808.465	26754
808.607	26883
808.749	27249
808.891	27287
809.033	27534
809.174	27363
809.316	27249
809.458	27355
809.6	27154
809.741	27321
809.883	27374
810.025	27515
810.166	27435
810.308	27485
810.45	27378
810.591	27473
810.733	27298
810.875	27275
811.016	27135
811.158	27173
811.299	27313
811.441	27363
811.582	27340
811.724	27188
811.865	27112
812.007	27188
812.148	27173
812.29	27127
812.431	27268
812.573	27561
812.714	27701
812.855	27637
812.997	27816
813.138	27880
813.279	27831
813.421	27831
813.562	27770
813.703	27462
813.845	27401
813.986	27123
814.127	27020
814.268	26940
814.41	26804
814.551	26861
814.692	26971
814.833	26891
814.974	26792
815.115	26910
815.256	26750
815.397	26705
815.539	26651
815.68	26777
815.821	26594
815.962	26689
816.103	26663
816.244	26419
816.385	26412
816.526	26450
816.666	26267
816.807	26069
816.948	26237
817.089	26229
817.23	26301
817.371	26256
817.512	26176
817.653	26138
817.793	26115
817.934	26088
818.075	26195
818.216	26183
818.356	26031
818.497	25894
818.638	25833
818.778	25887
818.919	25932
819.06	26024
819.2	26024
819.341	26206
819.481	26073
819.622	26309
819.762	26324
819.903	26404
820.043	26282
820.184	26225
820.324	26278
820.465	26328
820.605	26202
820.746	26119
820.886	26016
821.026	26107
821.167	26130
821.307	26275
821.447	26149
821.588	25978
821.728	26005
821.868	25723
822.008	25734
822.149	25624
822.289	25620
822.429	25263
822.569	25228
822.709	25316
822.849	25217
822.99	25095
823.13	25069
823.27	25095
823.41	24970
823.55	24882
823.69	24878
823.83	25015
823.97	24791
824.11	24734
824.25	24673
824.389	24753
824.529	24776
824.669	24688
824.809	24745
824.949	24958
825.089	24814
825.228	24787
825.368	24608
825.508	24555
825.648	24646
825.787	24635
825.927	24665
826.067	24536
826.206	24521
826.346	24574
826.485	24540
826.625	24391
826.765	24677
826.904	24589
827.044	24380
827.183	24414
827.323	24270
827.462	24346
827.601	24414
827.741	24342
827.88	24330
828.02	24209
828.159	24437
828.298	24235
828.437	24338
828.577	24205
828.716	24365
828.855	24262
828.994	24148
829.134	23973
829.273	24072
829.412	24045
829.551	23950
829.69	23996
829.829	24034
829.968	24224
830.107	23999
830.246	23969
830.385	23885
830.524	23923
830.663	23687
830.802	23783
830.941	23661
831.08	23714
831.219	23668
831.357	23551
831.496	23897
831.635	23661
831.774	23604
831.913	23429
832.051	23455
832.19	23345
832.329	23368
832.467	23277
832.606	23231
832.744	23360
832.883	23277
833.022	23277
833.16	23254
833.299	23284
833.437	23360
833.576	23433
833.714	23410
833.852	23406
833.991	23417
834.129	23547
834.267	23433
834.406	23417
834.544	23307
834.682	23360
834.821	23345
834.959	23429
835.097	23330
835.235	23345
835.373	23337
835.511	23280
835.65	23250
835.788	23166
835.926	22953
836.064	23064
836.202	22930
836.34	23170
836.478	23239
836.615	23151
836.753	23048
836.891	23383
837.029	23231
837.167	23102
837.305	23121
837.443	23124
837.58	23064
837.718	23124
837.856	23010
837.993	22968
838.131	23124
838.269	23010
838.406	23003
838.544	22850
838.681	22793
838.819	22596
838.956	22626
839.094	22500
839.231	22580
839.369	22687
839.506	23003
839.643	22717
839.781	22557
839.918	22523
840.055	22550
840.193	22519
840.33	22424
840.467	22550
840.604	22440
840.742	22694
840.879	22466
841.016	22314
841.153	22363
841.29	22455
841.427	22493
841.564	22538
841.701	22462
841.838	22421
841.975	22432
842.112	22409
842.249	22211
842.385	22299
842.522	22504
842.659	22299
842.796	22131
842.933	22329
843.069	22166
843.206	22162
843.343	22314
843.479	22207
843.616	22276
843.752	21998
843.889	22036
844.025	22090
844.162	22036
844.298	22166
844.435	21717
844.571	22067
844.708	22051
844.844	22249
844.98	22169
845.117	22029
845.253	21998
845.389	21892
845.525	21899
845.661	21937
845.798	21656
845.934	21808
846.07	21770
846.206	21789
846.342	21899
846.478	21648
846.614	21549
846.75	21485
846.886	21526
847.022	21511
847.158	21545
847.294	21568
847.429	21439
847.565	21443
847.701	21709
847.837	21264
847.972	21116
848.108	21218
848.244	21344
848.379	21100
848.515	21070
848.65	21222
848.786	21081
848.921	21142
849.057	21233
849.192	21195
849.328	21131
849.463	21043
849.598	21028
849.734	20941
849.869	20925
850.004	20830
850.14	20872
850.275	20872
850.41	20720
850.545	20788
850.68	20857
850.815	20887
850.95	20830
851.085	21161
851.22	20834
851.355	20811
851.49	20861
851.625	20724
851.76	20746
851.895	20769
852.03	20682
852.165	20750
852.299	20880
852.434	20883
852.569	20845
852.703	20998
852.838	20944
852.973	20963
853.107	21001
853.242	20800
853.376	20625
853.511	20564
853.645	20697
853.78	20769
853.914	20659
854.048	20556
854.183	20674
854.317	20667
854.451	20788
854.585	20651
854.72	20663
854.854	20712
854.988	20575
855.122	20609
855.256	20549
855.39	20632
855.524	20731
855.658	20731
855.792	20716
855.926	20602
856.06	20667
856.194	20712
856.327	20583
856.461	20590
856.595	20609
856.729	20670
856.862	20819
856.996	20609
857.13	20644
857.263	20640
857.397	20769
857.53	20606
857.664	20636
857.797	20705
857.931	20644
858.064	20686
858.197	20731
858.331	20556
858.464	20571
858.597	20545
858.731	20720
858.864	20629
858.997	20670
859.13	20750
859.263	20697
859.396	20663
859.529	20590
859.662	20457
859.795	20549
859.928	20750
860.061	20785
860.194	20739
860.327	20640
860.46	20678
860.592	20830
860.725	20800
860.858	20834
860.99	20758
861.123	20537
861.256	20575
861.388	20648
861.521	21614
861.653	20488
861.786	20476
861.918	20537
862.05	20560
862.183	20613
862.315	20518
862.447	20697
862.58	20438
862.712	20438
862.844	20271
862.976	20450
863.108	20495
863.24	20864
863.372	20259
863.504	20298
863.636	20381
863.768	20488
863.9	20438
864.032	20355
864.164	20298
864.296	20347
864.428	20469
864.559	20339
864.691	20423
864.823	20415
864.954	20404
865.086	20259
865.217	20271
865.349	20172
865.48	20320
865.612	20278
865.743	20237
865.875	20290
866.006	20248
866.137	20324
866.269	20237
866.4	20214
866.531	20301
866.662	20134
866.793	20145
866.924	20062
867.055	20290
867.186	20366
867.317	20187
867.448	20199
867.579	20164
867.71	20043
867.841	20096
867.972	20180
868.103	20248
868.233	20396
868.364	20199
868.495	20183
868.625	20423
868.756	20564
868.886	20465
869.017	20434
869.147	20594
869.278	20598
869.408	20465
869.539	20450
869.669	20575
869.799	20533
869.929	20518
870.06	20682
870.19	20804
870.32	20769
870.45	20781
870.58	20868
870.71	20967
870.84	20845
870.97	20861
871.1	20933
871.23	21009
871.36	21047
871.489	20925
871.619	21066
871.749	21017
871.879	21104
872.008	21230
872.138	20998
872.267	20975
872.397	20937
872.526	20754
872.656	21043
872.785	20872
872.915	21055
873.044	21237
873.173	21169
873.303	21066
873.432	20998
873.561	21245
873.69	21036
873.819	21096
873.948	21165
874.077	20960
874.206	21070
874.335	21032
874.464	21249
874.593	21332
874.722	21199
874.851	21405
874.979	21275
875.108	21469
875.237	21336
875.365	21188
875.494	21233
875.623	21420
875.751	21306
875.88	21374
876.008	21363
876.136	21557
876.265	21679
876.393	21865
876.521	21705
876.65	21656
876.778	21671
876.906	21606
877.034	21572
877.162	21709
877.29	21572
877.418	21766
877.546	21629
877.674	21686
877.802	21648
877.93	21618
878.058	21625
878.185	21553
878.313	21641
878.441	21618
878.568	21428
878.696	21595
878.824	21694
878.951	21789
879.079	21823
879.206	21960
879.333	21831
879.461	21724
879.588	21743
879.715	21873
879.842	21987
879.97	21797
880.097	21485
880.224	21454
880.351	21507
880.478	21526
880.605	21469
880.732	21454
880.859	21629
880.986	21511
881.112	21515
881.239	21313
881.366	21260
881.493	21169
881.619	21085
881.746	21032
881.872	20952
881.999	21043
882.125	20895
882.252	21081
882.378	21074
882.505	21260
882.631	20956
882.757	20724
882.883	20819
883.01	20811
883.136	20842
883.262	20606
883.388	20758
883.514	20895
883.64	20830
883.766	20693
883.892	20537
884.018	20606
884.143	20667
884.269	20804
884.395	20488
884.52	20526
884.646	20473
884.772	20271
884.897	20332
885.023	20492
885.148	20469
885.274	20473
885.399	20503
885.524	20465
885.65	20313
885.775	20457
885.9	20347
886.025	20579
886.15	20560
886.275	20358
886.4	20423
886.525	20461
886.65	20415
886.775	20301
886.9	20473
887.025	20689
887.149	20408
887.274	20191
887.399	20214
887.523	20275
887.648	20103
887.773	20081
887.897	20358
888.021	20229
888.146	20145
888.27	20298
888.395	20229
888.519	20286
888.643	20256
888.767	20298
888.891	20180
889.015	20012
889.139	20065
889.263	19989
889.387	20176
889.511	20229
889.635	20096
889.759	19978
889.883	19951
890.006	20020
890.13	19928
890.254	19951
890.377	20024
890.501	19776
890.624	19723
890.748	19723
890.871	19556
890.995	19590
891.118	19529
891.241	19571
891.364	19685
891.488	19712
891.611	19540
891.734	19510
891.857	19590
891.98	19578
892.103	19578
892.226	19662
892.349	19632
892.471	19480
892.594	19514
892.717	19556
892.839	19499
892.962	19476
893.085	19567
893.207	19502
893.33	19289
893.452	19377
893.575	19696
893.697	19407
893.819	19613
893.941	19651
894.064	19662
894.186	19548
894.308	19426
894.43	19578
894.552	19632
894.674	19556
894.796	19449
894.918	19457
895.04	19426
895.161	19559
895.283	19685
895.405	19495
895.526	19537
895.648	19403
895.769	19487
895.891	19514
896.012	19628
896.134	19582
896.255	19586
896.376	19529
896.498	19434
896.619	19658
896.74	19582
896.861	19575
896.982	19811
897.103	19936
897.224	19791
897.345	19635
897.466	19677
897.587	19750
897.708	19925
897.828	19795
897.949	19708
898.07	19597
898.19	19704
898.311	19791
898.431	19647
898.552	19723
898.672	19723
898.792	19898
898.913	19731
899.033	19708
899.153	19559
899.273	19415
899.393	19552
899.513	19582
899.633	19544
899.753	19556
899.873	19460
899.993	19537
900.113	19453
900.232	19407
900.352	19331
900.472	19324
900.591	19251
900.711	19232
900.83	19213
900.95	19354
901.069	19384
901.189	19247
901.308	19012
901.427	18943
901.546	19000
901.665	18943
901.784	18806
901.904	18711
902.023	18715
902.141	18559
902.26	18395
902.379	18471
902.498	18448
902.617	18509
902.735	18369
902.854	18426
902.973	18270
903.091	17992
903.21	18068
903.328	18098
903.446	17973
903.565	17927
903.683	17870
903.801	17805
903.919	17771
904.038	17832
904.156	17615
904.274	17752
904.392	17676
904.51	17589
904.627	17562
904.745	17729
904.863	17646
904.981	17425
905.098	17364
905.216	17356
905.334	17353
905.451	17296
905.569	17277
905.686	17349
905.803	17277
905.921	17193
906.038	17227
906.155	17212
906.272	17231
906.389	17071
906.506	16930
906.623	17071
906.74	16854
906.857	16812
906.974	16767
907.091	17003
907.208	16961
907.324	17010
907.441	16839
907.557	16691
907.674	16694
907.79	16481
907.907	16573
908.023	16618
908.139	16653
908.256	16512
908.372	16550
908.488	16443
908.604	16390
908.72	16287
908.836	16443
908.952	16333
909.068	16375
909.184	16371
909.3	16291
909.415	16226
909.531	16295
909.647	16207
909.762	16051
909.878	15945
909.993	16002
910.108	15930
910.224	15937
910.339	16071
910.454	15930
910.57	15926
910.685	15778
910.8	16051
910.915	15998
911.03	15884
911.145	15694
911.259	15778
911.374	15568
911.489	15523
911.604	15530
911.718	15477
911.833	15466
911.947	15268
912.062	15154
912.176	15416
912.291	15393
912.405	15351
912.519	15519
912.633	15568
912.748	15386
912.862	15302
912.976	15203
913.09	14998
913.204	15142
913.318	15268
913.431	15291
913.545	15199
913.659	15260
913.772	15176
913.886	15032
914	14990
914.113	15192
914.226	15207
914.34	15104
914.453	14994
914.566	15036
914.68	14944
914.793	14887
914.906	14735
915.019	14693
915.132	14537
915.245	14545
915.358	14655
915.47	14575
915.583	14594
915.696	14804
915.809	14754
915.921	14792
916.034	14560
916.146	14533
916.259	14606
916.371	14648
916.483	14571
916.595	14488
916.708	14431
916.82	14480
916.932	14526
917.044	14400
917.156	14324
917.268	14275
917.38	14370
917.491	14278
917.603	14332
917.715	14339
917.826	14374
917.938	14305
918.049	14107
918.161	14290
918.272	14381
918.384	14305
918.495	14328
918.606	14168
918.717	14012
918.828	14005
918.939	14126
919.05	13944
919.161	14020
919.272	13803
919.383	13944
919.494	14111
919.604	14199
919.715	14005
919.826	13982
919.936	13997
920.047	14134
920.157	14008
920.267	14313
920.378	14069
920.488	14069
920.598	14172
920.708	14225
920.818	14157
920.928	14176
921.038	14393
921.148	14328
921.258	14031
921.368	13967
921.477	13799
921.587	13734
921.697	13674
921.806	13780
921.916	13643
922.025	13491
922.134	13567
922.244	13449
922.353	13506
922.462	13312
922.571	13316
922.68	13110
922.789	13031
922.898	13084
923.007	13091
923.116	13114
923.224	13084
923.333	13141
923.442	12981
923.55	12989
923.659	12901
923.767	12962
923.876	12962
923.984	12928
924.092	12916
924.201	12901
924.309	12867
924.417	12901
924.525	12768
924.633	12859
924.741	13518
924.849	12589
924.956	12734
925.064	12547
925.172	12486
925.279	12528
925.387	12574
925.494	12521
925.602	12753
925.709	12635
925.816	12448
925.924	12502
926.031	12574
926.138	12486
926.245	12574
926.352	12315
926.459	12582
926.566	12566
926.673	12452
926.779	12384
926.886	12330
926.993	12209
927.099	12205
927.206	12095
927.312	11988
927.419	12087
927.525	12114
927.631	12133
927.737	11977
927.843	11984
927.95	11870
928.056	11946
928.162	11942
928.267	11984
928.373	12593
928.479	12083
928.585	11771
928.69	11927
928.796	11935
928.901	11851
929.007	11672
929.112	11760
929.218	11695
929.323	11748
929.428	11676
929.533	11790
929.638	11710
929.743	11634
929.848	11649
929.953	11649
930.058	11509
930.163	11356
930.267	11497
930.372	11535
930.477	11345
930.581	11573
930.685	11478
930.79	11387
930.894	11288
930.998	11307
931.103	11341
931.207	10965
931.311	10946
931.415	10862
931.519	10675
931.623	10660
