Data from test_V78500241_2133.txt Node
Date: Fri Mar 25 15:24:42 CST 2022
User: usil
Spectrometer: V785-0024
Trigger mode: 0
Integration Time (sec): 4.000000E-1
Scans to average: 1
Nonlinearity correction enabled: false
Boxcar width: 0
Storing dark spectrum: false
XAxis mode: Wavelengths
Number of Pixels in Spectrum: 1024
>>>>>Begin Spectral Data<<<<<
801.071	27781
801.214	27682
801.356	27405
801.499	27492
801.641	27245
801.783	27287
801.926	27359
802.068	27317
802.211	27294
802.353	27154
802.496	27005
802.638	26830
802.78	26940
802.923	26853
803.065	26864
803.208	26823
803.35	26948
803.492	27085
803.635	27066
803.777	27055
803.919	27093
804.061	27466
804.204	27104
804.346	27058
804.488	27127
804.63	27169
804.773	27009
804.915	27070
805.057	27116
805.199	27112
805.341	27188
805.483	27275
805.626	27214
805.768	27146
805.91	27157
806.052	27119
806.194	27214
806.336	27466
806.478	27211
806.62	27169
806.762	27389
806.904	27561
807.046	27713
807.188	27644
807.33	27610
807.472	27629
807.614	27523
807.756	27656
807.898	27515
808.04	27351
808.182	27370
808.324	27523
808.465	27355
808.607	27717
808.749	27869
808.891	27835
809.033	28120
809.174	27861
809.316	27842
809.458	27831
809.6	27873
809.741	27899
809.883	27785
810.025	28112
810.166	27994
810.308	28147
810.45	28101
810.591	27994
810.733	27808
810.875	27743
811.016	27698
811.158	27747
811.299	27736
811.441	27914
811.582	27884
811.724	27781
811.865	27854
812.007	27751
812.148	27911
812.29	27751
812.431	27979
812.573	28143
812.714	28196
812.855	28329
812.997	28470
813.138	28504
813.279	28512
813.421	28451
813.562	28337
813.703	28120
813.845	28048
813.986	27804
814.127	27526
814.268	27568
814.41	27576
814.551	27534
814.692	27526
814.833	27439
814.974	27492
815.115	27542
815.256	27325
815.397	27325
815.539	27412
815.68	27256
815.821	27218
815.962	27329
816.103	27264
816.244	27020
816.385	27093
816.526	26963
816.666	26857
816.807	26864
816.948	26960
817.089	26887
817.23	26807
817.371	26777
817.512	26613
817.653	26705
817.793	26594
817.934	26861
818.075	26823
818.216	26876
818.356	26689
818.497	26701
818.638	26507
818.778	26511
818.919	26412
819.06	26712
819.2	26632
819.341	26788
819.481	26617
819.622	26887
819.762	27043
819.903	26967
820.043	26902
820.184	26830
820.324	26849
820.465	27020
820.605	26910
820.746	26777
820.886	26571
821.026	26807
821.167	26716
821.307	26849
821.447	26781
821.588	26625
821.728	26556
821.868	26438
822.008	26282
822.149	26248
822.289	26313
822.429	26039
822.569	25932
822.709	25868
822.849	25826
822.99	25811
823.13	25750
823.27	25784
823.41	25635
823.55	25460
823.69	25571
823.83	25495
823.97	25594
824.11	25479
824.25	25304
824.389	25327
824.529	25438
824.669	25415
824.809	25381
824.949	25419
825.089	25479
825.228	25377
825.368	25240
825.508	25422
825.648	25225
825.787	25293
825.927	25362
826.067	25297
826.206	25213
826.346	25289
826.485	25358
826.625	25236
826.765	25335
826.904	25392
827.044	25023
827.183	25004
827.323	25069
827.462	25027
827.601	25023
827.741	24958
827.88	25042
828.02	24932
828.159	25099
828.298	24863
828.437	25000
828.577	24875
828.716	25008
828.855	24928
828.994	24703
829.134	24502
829.273	24639
829.412	24544
829.551	24589
829.69	24623
829.829	24639
829.968	24859
830.107	24661
830.246	24783
830.385	24585
830.524	24566
830.663	24464
830.802	24483
830.941	24289
831.08	24289
831.219	24376
831.357	24365
831.496	24601
831.635	24300
831.774	24133
831.913	24251
832.051	24038
832.19	24022
832.329	24095
832.467	23996
832.606	23946
832.744	23851
832.883	24011
833.022	23843
833.16	23999
833.299	23920
833.437	24068
833.576	23996
833.714	23999
833.852	24129
833.991	23992
834.129	24197
834.267	24095
834.406	23992
834.544	24110
834.682	24076
834.821	23908
834.959	24159
835.097	23851
835.235	24148
835.373	24064
835.511	23920
835.65	23885
835.788	23729
835.926	23764
836.064	23786
836.202	23646
836.34	23843
836.478	23950
836.615	23805
836.753	23828
836.891	23840
837.029	23798
837.167	23676
837.305	23737
837.443	23794
837.58	23756
837.718	23707
837.856	23790
837.993	23619
838.131	23608
838.269	23680
838.406	23539
838.544	23421
838.681	23349
838.819	23246
838.956	23128
839.094	23231
839.231	23098
839.369	23288
839.506	23562
839.643	23429
839.781	23124
839.918	23037
840.055	23147
840.193	23071
840.33	23083
840.467	23113
840.604	23037
840.742	23356
840.879	22862
841.016	22972
841.153	22873
841.29	23083
841.427	23048
841.564	23014
841.701	22957
841.838	23098
841.975	23083
842.112	23006
842.249	22934
842.385	22797
842.522	23052
842.659	22843
842.796	22596
842.933	22835
843.069	22664
843.206	22740
843.343	22839
843.479	22847
843.616	22733
843.752	22508
843.889	22455
844.025	22725
844.162	22687
844.298	22554
844.435	22580
844.571	22679
844.708	22626
844.844	22702
844.98	22698
845.117	22752
845.253	22535
845.389	22481
845.525	22481
845.661	22443
845.798	22257
845.934	22424
846.07	22253
846.206	22299
846.342	22413
846.478	22200
846.614	22120
846.75	22090
846.886	22112
847.022	22017
847.158	22200
847.294	22101
847.429	21964
847.565	21979
847.701	22280
847.837	21755
847.972	21732
848.108	21812
848.244	21781
848.379	21743
848.515	21762
848.65	21656
848.786	21572
848.921	21663
849.057	21701
849.192	21682
849.328	21656
849.463	21641
849.598	21614
849.734	21576
849.869	21405
850.004	21431
850.14	21462
850.275	21447
850.41	21291
850.545	21340
850.68	21408
850.815	21397
850.95	21264
851.085	21644
851.22	21485
851.355	21279
851.49	21378
851.625	21389
851.76	21302
851.895	21264
852.03	21195
852.165	21420
852.299	21477
852.434	21431
852.569	21466
852.703	21447
852.838	21443
852.973	21466
853.107	21652
853.242	21367
853.376	21275
853.511	21119
853.645	21131
853.78	21370
853.914	21245
854.048	21252
854.183	21173
854.317	21214
854.451	21447
854.585	21203
854.72	21192
854.854	21329
854.988	21176
855.122	21222
855.256	21237
855.39	21028
855.524	21203
855.658	21275
855.792	21245
855.926	21222
856.06	21176
856.194	21252
856.327	21157
856.461	21230
856.595	21161
856.729	21241
856.862	21306
856.996	21245
857.13	21329
857.263	21287
857.397	21294
857.53	21264
857.664	21207
857.797	21222
857.931	21260
858.064	21291
858.197	21397
858.331	21154
858.464	21211
858.597	21157
858.731	21218
858.864	21180
858.997	21218
859.13	21245
859.263	21302
859.396	21332
859.529	21298
859.662	21150
859.795	21104
859.928	21233
860.061	21306
860.194	21428
860.327	21260
860.46	21157
860.592	21408
860.725	21260
860.858	21325
860.99	21313
861.123	21123
861.256	21161
861.388	21218
861.521	21831
861.653	21119
861.786	20967
861.918	21112
862.05	21047
862.183	21150
862.315	21036
862.447	21226
862.58	21207
862.712	20994
862.844	20849
862.976	21036
863.108	21062
863.24	21424
863.372	20819
863.504	20921
863.636	20895
863.768	20948
863.9	20880
864.032	20925
864.164	20762
864.296	21058
864.428	20895
864.559	20872
864.691	20986
864.823	20826
864.954	20960
865.086	20906
865.217	20880
865.349	20758
865.48	20792
865.612	20842
865.743	20963
865.875	20815
866.006	20804
866.137	20796
866.269	20724
866.4	20773
866.531	20617
866.662	20781
866.793	20769
866.924	20845
867.055	20670
867.186	20807
867.317	20613
867.448	20811
867.579	20800
867.71	20819
867.841	20716
867.972	20754
868.103	20686
868.233	20636
868.364	20735
868.495	20750
868.625	20876
868.756	21154
868.886	21005
869.017	20842
869.147	21154
869.278	21142
869.408	20941
869.539	21032
869.669	20967
869.799	21028
869.929	21085
870.06	21161
870.19	21214
870.32	21298
870.45	21332
870.58	21382
870.71	21435
870.84	21637
870.97	21454
871.1	21492
871.23	21549
871.36	21545
871.489	21500
871.619	21473
871.749	21583
871.879	21614
872.008	21637
872.138	21561
872.267	21557
872.397	21370
872.526	21336
872.656	21496
872.785	21519
872.915	21530
873.044	21808
873.173	21671
873.303	21629
873.432	21622
873.561	21766
873.69	21595
873.819	21587
873.948	21720
874.077	21545
874.206	21477
874.335	21705
874.464	21663
874.593	21759
874.722	21766
874.851	21915
874.979	21876
875.108	21880
875.237	21766
875.365	21800
875.494	21743
875.623	21884
875.751	21759
875.88	21888
876.008	21934
876.136	21892
876.265	22348
876.393	22329
876.521	22337
876.65	22333
876.778	22280
876.906	22143
877.034	21983
877.162	22200
877.29	22040
877.418	22207
877.546	22135
877.674	22223
877.802	22253
877.93	22112
878.058	22147
878.185	22025
878.313	22055
878.441	22029
878.568	21964
878.696	22177
878.824	22242
878.951	22143
879.079	22257
879.206	22409
879.333	22390
879.461	22238
879.588	22246
879.715	22299
879.842	22436
879.97	22352
880.097	22086
880.224	22090
880.351	22090
880.478	22040
880.605	22002
880.732	22021
880.859	22223
880.986	21998
881.112	22120
881.239	21960
881.366	21728
881.493	21675
881.619	21545
881.746	21694
881.872	21576
881.999	21504
882.125	21599
882.252	21561
882.378	21431
882.505	21606
882.631	21469
882.757	21393
882.883	21351
883.01	21230
883.136	21291
883.262	21184
883.388	21135
883.514	21355
883.64	21279
883.766	21237
883.892	20910
884.018	21081
884.143	21260
884.269	21389
884.395	20990
884.52	20891
884.646	20986
884.772	20838
884.897	20788
885.023	20918
885.148	21039
885.274	21062
885.399	20933
885.524	21017
885.65	21028
885.775	20975
885.9	20933
886.025	21047
886.15	20948
886.275	20861
886.4	20971
886.525	20781
886.65	20899
886.775	20849
886.9	20956
887.025	21058
887.149	20823
887.274	20720
887.399	20708
887.523	20613
887.648	20575
887.773	20594
887.897	20693
888.021	20781
888.146	20507
888.27	20769
888.395	20834
888.519	20750
888.643	20819
888.767	20568
888.891	20480
889.015	20613
889.139	20598
889.263	20465
889.387	20644
889.511	20670
889.635	20552
889.759	20473
889.883	20499
890.006	20427
890.13	20541
890.254	20366
890.377	20450
890.501	20248
890.624	20187
890.748	20248
890.871	20119
890.995	20111
891.118	19959
891.241	20039
891.364	20039
891.488	20187
891.611	20046
891.734	19993
891.857	20221
891.98	20073
892.103	20195
892.226	20084
892.349	19913
892.471	19769
892.594	19871
892.717	19978
892.839	19932
892.962	19932
893.085	20069
893.207	20008
893.33	19883
893.452	19917
893.575	19986
893.697	19921
893.819	20024
893.941	20199
894.064	20100
894.186	19845
894.308	19826
894.43	19986
894.552	20153
894.674	19951
894.796	19940
894.918	19902
895.04	19856
895.161	20024
895.283	20092
895.405	19978
895.526	19967
895.648	19841
895.769	20001
895.891	19921
896.012	20062
896.134	20031
896.255	19936
896.376	19932
896.498	19947
896.619	20027
896.74	19883
896.861	19951
896.982	20320
897.103	20450
897.224	20278
897.345	20210
897.466	20111
897.587	20172
897.708	20324
897.828	20305
897.949	20126
898.07	20084
898.19	20107
898.311	20145
898.431	20054
898.552	20183
898.672	20374
898.792	20237
898.913	20176
899.033	20084
899.153	19989
899.273	19944
899.393	20012
899.513	20046
899.633	19974
899.753	19974
899.873	19902
899.993	20005
900.113	19849
900.232	19921
900.352	19909
900.472	19734
900.591	19769
900.711	19761
900.83	19750
900.95	19723
901.069	19826
901.189	19605
901.308	19388
901.427	19270
901.546	19320
901.665	19343
901.784	19419
901.904	19126
902.023	19023
902.141	18985
902.26	18890
902.379	18935
902.498	18882
902.617	18825
902.735	18897
902.854	18798
902.973	18757
903.091	18544
903.21	18521
903.328	18555
903.446	18323
903.565	18410
903.683	18281
903.801	18155
903.919	18228
904.038	18308
904.156	18186
904.274	18186
904.392	18011
904.51	18003
904.627	17984
904.745	18079
904.863	18098
904.981	17748
905.098	17748
905.216	17745
905.334	17802
905.451	17710
905.569	17790
905.686	17741
905.803	17722
905.921	17547
906.038	17668
906.155	17482
906.272	17501
906.389	17455
906.506	17204
906.623	17337
906.74	17208
906.857	17185
906.974	17174
907.091	17387
907.208	17368
907.324	17254
907.441	17166
907.557	16972
907.674	17025
907.79	17022
907.907	17045
908.023	17128
908.139	16987
908.256	16881
908.372	16953
908.488	16946
908.604	16679
908.72	16710
908.836	16725
908.952	16835
909.068	16763
909.184	16889
909.3	16713
909.415	16721
909.531	16717
909.647	16405
909.762	16478
909.878	16295
909.993	16455
910.108	16325
910.224	16295
910.339	16398
910.454	16306
910.57	16215
910.685	16242
910.8	16455
910.915	16306
911.03	16097
911.145	16032
911.259	16055
911.374	16036
911.489	15960
911.604	15888
911.718	15770
911.833	15816
911.947	15663
912.062	15584
912.176	15755
912.291	15701
912.405	15743
912.519	15850
912.633	16032
912.748	15736
912.862	15606
912.976	15663
913.09	15458
913.204	15557
913.318	15523
913.431	15637
913.545	15724
913.659	15667
913.772	15584
913.886	15485
914	15370
914.113	15526
914.226	15359
914.34	15401
914.453	15211
914.566	15439
914.68	15275
914.793	15146
914.906	15043
915.019	15005
915.132	14960
915.245	14933
915.358	14967
915.47	14944
915.583	14861
915.696	15039
915.809	14975
915.921	15127
916.034	15043
916.146	14910
916.259	14948
916.371	14979
916.483	14960
916.595	14845
916.708	14842
916.82	14819
916.932	14815
917.044	14826
917.156	14697
917.268	14659
917.38	14674
917.491	14629
917.603	14587
917.715	14773
917.826	14739
917.938	14564
918.049	14541
918.161	14648
918.272	14648
918.384	14625
918.495	14530
918.606	14476
918.717	14377
918.828	14396
918.939	14476
919.05	14240
919.161	14362
919.272	14168
919.383	14214
919.494	14339
919.604	14575
919.715	14358
919.826	14377
919.936	14229
920.047	14393
920.157	14336
920.267	14492
920.378	14419
920.488	14366
920.598	14518
920.708	14712
920.818	14514
920.928	14419
921.038	14815
921.148	14625
921.258	14282
921.368	14126
921.477	14065
921.587	14031
921.697	14027
921.806	14134
921.916	14062
922.025	13856
922.134	13742
922.244	13799
922.353	13795
922.462	13681
922.571	13639
922.68	13460
922.789	13415
922.898	13468
923.007	13381
923.116	13449
923.224	13312
923.333	13316
923.442	13301
923.55	13194
923.659	13251
923.767	13282
923.876	13194
923.984	13247
924.092	13171
924.201	13213
924.309	13110
924.417	13080
924.525	13012
924.633	13065
924.741	13826
924.849	12863
924.956	13034
925.064	12890
925.172	12867
925.279	12749
925.387	12844
925.494	12837
925.602	12970
925.709	12901
925.816	12760
925.924	12757
926.031	12856
926.138	12817
926.245	12760
926.352	12707
926.459	12791
926.566	12783
926.673	12646
926.779	12532
926.886	12570
926.993	12372
927.099	12357
927.206	12273
927.312	12342
927.419	12433
927.525	12437
927.631	12376
927.737	12273
927.843	12178
927.95	12163
928.056	12186
928.162	12289
928.267	12239
928.373	12875
928.479	12270
928.585	12041
928.69	12152
928.796	12194
928.901	12114
929.007	11927
929.112	11977
929.218	12045
929.323	11980
929.428	11885
929.533	12015
929.638	11836
929.743	11923
929.848	11958
929.953	11969
930.058	11821
930.163	11680
930.267	11691
930.372	11710
930.477	11630
930.581	11809
930.685	11661
930.79	11436
930.894	11623
930.998	11493
931.103	11577
931.207	11216
931.311	11197
931.415	11098
931.519	10908
931.623	10987
