Data from test_V78500241_952.txt Node
Date: Fri Mar 25 15:16:29 CST 2022
User: usil
Spectrometer: V785-0024
Trigger mode: 0
Integration Time (sec): 4.000000E-1
Scans to average: 1
Nonlinearity correction enabled: false
Boxcar width: 0
Storing dark spectrum: false
XAxis mode: Wavelengths
Number of Pixels in Spectrum: 1024
>>>>>Begin Spectral Data<<<<<
801.071	27941
801.214	27975
801.356	27641
801.499	27614
801.641	27420
801.783	27564
801.926	27561
802.068	27447
802.211	27340
802.353	27397
802.496	27176
802.638	27051
802.78	27157
802.923	27157
803.065	27055
803.208	27203
803.35	27169
803.492	27397
803.635	27184
803.777	27169
803.919	27370
804.061	27701
804.204	27469
804.346	27195
804.488	27313
804.63	27386
804.773	27405
804.915	27427
805.057	27439
805.199	27447
805.341	27431
805.483	27378
805.626	27511
805.768	27351
805.91	27424
806.052	27500
806.194	27450
806.336	27629
806.478	27614
806.62	27561
806.762	27774
806.904	27774
807.046	28093
807.188	27926
807.33	27842
807.472	27956
807.614	27861
807.756	27857
807.898	27838
808.04	27743
808.182	27766
808.324	27930
808.465	27842
808.607	28025
808.749	28112
808.891	28348
809.033	28382
809.174	28303
809.316	28120
809.458	28139
809.6	28150
809.741	28226
809.883	28325
810.025	28356
810.166	28481
810.308	28531
810.45	28253
810.591	28325
810.733	28112
810.875	28105
811.016	28147
811.158	27949
811.299	28246
811.441	28192
811.582	28196
811.724	28177
811.865	28002
812.007	28097
812.148	28173
812.29	28181
812.431	28470
812.573	28474
812.714	28611
812.855	28664
812.997	28831
813.138	28915
813.279	28927
813.421	28672
813.562	28679
813.703	28656
813.845	28443
813.986	28082
814.127	27907
814.268	27880
814.41	27911
814.551	27838
814.692	27797
814.833	27770
814.974	27770
815.115	27778
815.256	27869
815.397	27728
815.539	27785
815.68	27739
815.821	27583
815.962	27709
816.103	27618
816.244	27564
816.385	27386
816.526	27473
816.666	27370
816.807	27154
816.948	27348
817.089	27355
817.23	27207
817.371	27188
817.512	27188
817.653	27157
817.793	27020
817.934	27085
818.075	27226
818.216	27100
818.356	27081
818.497	27100
818.638	26899
818.778	26952
818.919	26994
819.06	26921
819.2	27081
819.341	27131
819.481	27180
819.622	27173
819.762	27412
819.903	27336
820.043	27291
820.184	27211
820.324	27203
820.465	27321
820.605	27291
820.746	27237
820.886	27154
821.026	27283
821.167	27382
821.307	27378
821.447	27104
821.588	27074
821.728	26887
821.868	26842
822.008	26541
822.149	26697
822.289	26594
822.429	26328
822.569	26275
822.709	26347
822.849	26157
822.99	26153
823.13	26119
823.27	26027
823.41	25928
823.55	26012
823.69	25826
823.83	25894
823.97	25951
824.11	25799
824.25	25814
824.389	25818
824.529	25963
824.669	25772
824.809	25906
824.949	25868
825.089	25750
825.228	25906
825.368	25506
825.508	25708
825.648	25731
825.787	25719
825.927	25723
826.067	25651
826.206	25628
826.346	25734
826.485	25628
826.625	25609
826.765	25708
826.904	25655
827.044	25339
827.183	25384
827.323	25301
827.462	25438
827.601	25388
827.741	25297
827.88	25320
828.02	25304
828.159	25335
828.298	25441
828.437	25499
828.577	25301
828.716	25362
828.855	25240
828.994	25129
829.134	25053
829.273	25152
829.412	25038
829.551	25027
829.69	25206
829.829	25137
829.968	25194
830.107	25152
830.246	25126
830.385	25031
830.524	24829
830.663	24897
830.802	24810
830.941	24631
831.08	24795
831.219	24837
831.357	24920
831.496	24947
831.635	24779
831.774	24639
831.913	24604
832.051	24601
832.19	24456
832.329	24559
832.467	24528
832.606	24388
832.744	24372
832.883	24460
833.022	24285
833.16	24395
833.299	24452
833.437	24235
833.576	24585
833.714	24380
833.852	24479
833.991	24471
834.129	24426
834.267	24490
834.406	24448
834.544	24464
834.682	24475
834.821	24513
834.959	24673
835.097	24452
835.235	24467
835.373	24388
835.511	24372
835.65	24414
835.788	24247
835.926	24216
836.064	24057
836.202	24213
836.34	24243
836.478	24346
836.615	24201
836.753	24369
836.891	24327
837.029	24388
837.167	24121
837.305	24281
837.443	24106
837.58	24034
837.718	24190
837.856	24102
837.993	23973
838.131	24148
838.269	23958
838.406	24083
838.544	23885
838.681	23775
838.819	23916
838.956	23562
839.094	23627
839.231	23642
839.369	23775
839.506	23836
839.643	23904
839.781	23528
839.918	23482
840.055	23615
840.193	23592
840.33	23436
840.467	23558
840.604	23486
840.742	23741
840.879	23486
841.016	23471
841.153	23265
841.29	23638
841.427	23486
841.564	23570
841.701	23493
841.838	23471
841.975	23364
842.112	23376
842.249	23341
842.385	23296
842.522	23486
842.659	23345
842.796	23265
842.933	23220
843.069	23235
843.206	23170
843.343	23288
843.479	23208
843.616	23181
843.752	23048
843.889	22934
844.025	23235
844.162	23079
844.298	23128
844.435	22987
844.571	22961
844.708	23060
844.844	23227
844.98	23231
845.117	23136
845.253	23060
845.389	23033
845.525	23052
845.661	22881
845.798	22809
845.934	22869
846.07	22752
846.206	22763
846.342	22820
846.478	22854
846.614	22462
846.75	22413
846.886	22512
847.022	22637
847.158	22546
847.294	22512
847.429	22535
847.565	22489
847.701	22778
847.837	22204
847.972	22196
848.108	22314
848.244	22329
848.379	22166
848.515	21998
848.65	22139
848.786	22196
848.921	22063
849.057	22299
849.192	22181
849.328	22067
849.463	22097
849.598	22055
849.734	21945
849.869	22010
850.004	21941
850.14	21804
850.275	21915
850.41	21827
850.545	21846
850.68	21838
850.815	21808
850.95	21831
851.085	21953
851.22	22013
851.355	21789
851.49	21854
851.625	21800
851.76	21895
851.895	21759
852.03	21690
852.165	21766
852.299	21918
852.434	21899
852.569	21850
852.703	21857
852.838	21907
852.973	22044
853.107	21907
853.242	21804
853.376	21648
853.511	21542
853.645	21633
853.78	21713
853.914	21709
854.048	21549
854.183	21618
854.317	21682
854.451	21930
854.585	21599
854.72	21713
854.854	21812
854.988	21603
855.122	21660
855.256	21488
855.39	21717
855.524	21789
855.658	21755
855.792	21690
855.926	21660
856.06	21701
856.194	21827
856.327	21698
856.461	21671
856.595	21656
856.729	21656
856.862	21785
856.996	21637
857.13	21713
857.263	21770
857.397	21774
857.53	21774
857.664	21728
857.797	21755
857.931	21831
858.064	21671
858.197	21865
858.331	21606
858.464	21629
858.597	21595
858.731	21686
858.864	21576
858.997	21549
859.13	21686
859.263	21641
859.396	21778
859.529	21698
859.662	21842
859.795	21660
859.928	21644
860.061	21751
860.194	21774
860.327	21819
860.46	21717
860.592	21819
860.725	21865
860.858	21808
860.99	21686
861.123	21709
861.256	21667
861.388	21713
861.521	22314
861.653	21720
861.786	21443
861.918	21523
862.05	21553
862.183	21583
862.315	21778
862.447	21739
862.58	21686
862.712	21386
862.844	21325
862.976	21526
863.108	21507
863.24	21979
863.372	21329
863.504	21306
863.636	21260
863.768	21496
863.9	21458
864.032	21310
864.164	21351
864.296	21420
864.428	21526
864.559	21492
864.691	21603
864.823	21412
864.954	21431
865.086	21332
865.217	21306
865.349	21211
865.48	21439
865.612	21256
865.743	21336
865.875	21245
866.006	21237
866.137	21294
866.269	21378
866.4	21310
866.531	21051
866.662	21287
866.793	21161
866.924	21028
867.055	21233
867.186	21161
867.317	21184
867.448	21123
867.579	21169
867.71	21180
867.841	21104
867.972	21226
868.103	21135
868.233	21287
868.364	21268
868.495	21184
868.625	21351
868.756	21583
868.886	21325
869.017	21386
869.147	21412
869.278	21447
869.408	21492
869.539	21397
869.669	21481
869.799	21454
869.929	21595
870.06	21523
870.19	21739
870.32	21694
870.45	21831
870.58	21846
870.71	21861
870.84	21941
870.97	21793
871.1	21831
871.23	21987
871.36	22154
871.489	21823
871.619	22036
871.749	22067
871.879	22006
872.008	22261
872.138	22147
872.267	21983
872.397	21956
872.526	21945
872.656	21838
872.785	21968
872.915	22013
873.044	22196
873.173	22074
873.303	22120
873.432	22112
873.561	22166
873.69	22055
873.819	22051
873.948	22059
874.077	22128
874.206	21937
874.335	22154
874.464	22196
874.593	22284
874.722	22223
874.851	22390
874.979	22352
875.108	22322
875.237	22329
875.365	22139
875.494	22223
875.623	22230
875.751	22188
875.88	22360
876.008	22641
876.136	22451
876.265	22634
876.393	22809
876.521	22656
876.65	22797
876.778	22481
876.906	22462
877.034	22512
877.162	22611
877.29	22653
877.418	22584
877.546	22618
877.674	22649
877.802	22447
877.93	22615
878.058	22615
878.185	22440
878.313	22645
878.441	22618
878.568	22371
878.696	22618
878.824	22584
878.951	22660
879.079	22850
879.206	22976
879.333	22763
879.461	22637
879.588	22634
879.715	22801
879.842	22900
879.97	22660
880.097	22504
880.224	22424
880.351	22500
880.478	22386
880.605	22268
880.732	22402
880.859	22687
880.986	22287
881.112	22478
881.239	22211
881.366	22177
881.493	22036
881.619	21880
881.746	21895
881.872	22097
881.999	21972
882.125	21922
882.252	21960
882.378	22006
882.505	21983
882.631	21861
882.757	21679
882.883	21766
883.01	21656
883.136	21637
883.262	21587
883.388	21496
883.514	21682
883.64	21690
883.766	21656
883.892	21336
884.018	21439
884.143	21629
884.269	21690
884.395	21344
884.52	21313
884.646	21287
884.772	21256
884.897	21386
885.023	21275
885.148	21477
885.274	21481
885.399	21424
885.524	21317
885.65	21310
885.775	21294
885.9	21332
886.025	21393
886.15	21439
886.275	21298
886.4	21256
886.525	21275
886.65	21272
886.775	21237
886.9	21466
887.025	21595
887.149	21283
887.274	21195
887.399	21146
887.523	21138
887.648	21043
887.773	21020
887.897	21028
888.021	21161
888.146	21028
888.27	21230
888.395	21249
888.519	21298
888.643	21154
888.767	21150
888.891	20941
889.015	20891
889.139	21032
889.263	20857
889.387	21093
889.511	21047
889.635	21142
889.759	20868
889.883	20845
890.006	20948
890.13	21051
890.254	20826
890.377	20872
890.501	20503
890.624	20648
890.748	20727
890.871	20621
890.995	20427
891.118	20343
891.241	20594
891.364	20476
891.488	20518
891.611	20480
891.734	20469
891.857	20552
891.98	20579
892.103	20446
892.226	20423
892.349	20434
892.471	20168
892.594	20294
892.717	20366
892.839	20381
892.962	20229
893.085	20320
893.207	20336
893.33	20263
893.452	20305
893.575	20385
893.697	20309
893.819	20434
893.941	20511
894.064	20476
894.186	20317
894.308	20370
894.43	20377
894.552	20518
894.674	20419
894.796	20271
894.918	20298
895.04	20317
895.161	20499
895.283	20282
895.405	20244
895.526	20473
895.648	20267
895.769	20370
895.891	20427
896.012	20438
896.134	20461
896.255	20347
896.376	20286
896.498	20320
896.619	20469
896.74	20218
896.861	20381
896.982	20667
897.103	20720
897.224	20590
897.345	20644
897.466	20442
897.587	20651
897.708	20769
897.828	20499
897.949	20495
898.07	20454
898.19	20514
898.311	20625
898.431	20492
898.552	20530
898.672	20655
898.792	20746
898.913	20659
899.033	20427
899.153	20343
899.273	20298
899.393	20271
899.513	20336
899.633	20374
899.753	20404
899.873	20237
899.993	20393
900.113	20237
900.232	20320
900.352	20206
900.472	20168
900.591	19986
900.711	20088
900.83	20005
900.95	20126
901.069	20267
901.189	20016
901.308	19708
901.427	19639
901.546	19723
901.665	19689
901.784	19715
901.904	19559
902.023	19396
902.141	19236
902.26	19259
902.379	19301
902.498	19259
902.617	19187
902.735	19110
902.854	19091
902.973	19080
903.091	18886
903.21	18932
903.328	18871
903.446	18749
903.565	18700
903.683	18692
903.801	18566
903.919	18604
904.038	18566
904.156	18353
904.274	18498
904.392	18346
904.51	18422
904.627	18456
904.745	18407
904.863	18422
904.981	18270
905.098	18091
905.216	18133
905.334	18205
905.451	18026
905.569	17977
905.686	18197
905.803	18072
905.921	17851
906.038	18030
906.155	17950
906.272	17809
906.389	17824
906.506	17619
906.623	17646
906.74	17703
906.857	17482
906.974	17490
907.091	17581
907.208	17760
907.324	17649
907.441	17490
907.557	17410
907.674	17330
907.79	17246
907.907	17318
908.023	17337
908.139	17334
908.256	17330
908.372	17208
908.488	17102
908.604	17067
908.72	16991
908.836	17025
908.952	16995
909.068	17029
909.184	17124
909.3	16995
909.415	17132
909.531	17124
909.647	16797
909.762	16733
909.878	16710
909.993	16679
910.108	16767
910.224	16736
910.339	16675
910.454	16653
910.57	16504
910.685	16493
910.8	16790
910.915	16588
911.03	16485
911.145	16341
911.259	16268
911.374	16253
911.489	16329
911.604	16276
911.718	16097
911.833	16139
911.947	15945
912.062	15899
912.176	15983
912.291	16120
912.405	16093
912.519	16238
912.633	16299
912.748	16006
912.862	16074
912.976	15873
913.09	15827
913.204	15854
913.318	15892
913.431	16032
913.545	15968
913.659	16105
913.772	15846
913.886	15705
914	15770
914.113	15701
914.226	15736
914.34	15732
914.453	15526
914.566	15713
914.68	15557
914.793	15564
914.906	15252
915.019	15302
915.132	15241
915.245	15237
915.358	15291
915.47	15291
915.583	15275
915.696	15298
915.809	15485
915.921	15454
916.034	15264
916.146	15211
916.259	15104
916.371	15329
916.483	15237
916.595	15176
916.708	15150
916.82	15157
916.932	15104
917.044	15036
917.156	15032
917.268	14895
917.38	15009
917.491	15009
917.603	14868
917.715	15047
917.826	15070
917.938	14845
918.049	14823
918.161	14788
918.272	14914
918.384	15077
918.495	14861
918.606	14731
918.717	14617
918.828	14651
918.939	14682
919.05	14629
919.161	14777
919.272	14465
919.383	14610
919.494	14712
919.604	14925
919.715	14629
919.826	14659
919.936	14640
920.047	14712
920.157	14648
920.267	14792
920.378	14720
920.488	14625
920.598	14849
920.708	14933
920.818	14804
920.928	14765
921.038	14857
921.148	14910
921.258	14632
921.368	14640
921.477	14400
921.587	14377
921.697	14286
921.806	14339
921.916	14240
922.025	14138
922.134	13982
922.244	13993
922.353	14145
922.462	13830
922.571	13898
922.68	13685
922.789	13582
922.898	13662
923.007	13567
923.116	13696
923.224	13655
923.333	13681
923.442	13495
923.55	13491
923.659	13518
923.767	13620
923.876	13464
923.984	13502
924.092	13365
924.201	13491
924.309	13441
924.417	13445
924.525	13270
924.633	13377
924.741	14233
924.849	13149
924.956	13244
925.064	13107
925.172	13088
925.279	13141
925.387	13080
925.494	13031
925.602	13126
925.709	13160
925.816	13004
925.924	13053
926.031	13095
926.138	13133
926.245	13004
926.352	12909
926.459	13027
926.566	13149
926.673	12901
926.779	12852
926.886	12856
926.993	12688
927.099	12631
927.206	12582
927.312	12532
927.419	12650
927.525	12658
927.631	12612
927.737	12540
927.843	12456
927.95	12433
928.056	12498
928.162	12494
928.267	12456
928.373	13114
928.479	12559
928.585	12334
928.69	12407
928.796	12388
928.901	12285
929.007	12136
929.112	12277
929.218	12308
929.323	12251
929.428	12232
929.533	12380
929.638	12121
929.743	12091
929.848	12209
929.953	12148
930.058	11999
930.163	11901
930.267	11809
930.372	11977
930.477	11836
930.581	12083
930.685	11996
930.79	11695
930.894	11752
930.998	11733
931.103	11893
931.207	11474
931.311	11436
931.415	11296
931.519	11227
931.623	11064
