Data from test_V78500241_1458.txt Node
Date: Fri Mar 25 15:20:00 CST 2022
User: usil
Spectrometer: V785-0024
Trigger mode: 0
Integration Time (sec): 4.000000E-1
Scans to average: 1
Nonlinearity correction enabled: false
Boxcar width: 0
Storing dark spectrum: false
XAxis mode: Wavelengths
Number of Pixels in Spectrum: 1024
>>>>>Begin Spectral Data<<<<<
801.071	27690
801.214	27481
801.356	27443
801.499	27275
801.641	27252
801.783	27169
801.926	27393
802.068	27268
802.211	27119
802.353	27131
802.496	26853
802.638	26754
802.78	26918
802.923	26788
803.065	26731
803.208	26781
803.35	26762
803.492	26933
803.635	27093
803.777	26895
803.919	27058
804.061	27313
804.204	27043
804.346	26979
804.488	27036
804.63	26963
804.773	26842
804.915	27135
805.057	27074
805.199	27017
805.341	27116
805.483	27340
805.626	27127
805.768	27089
805.91	27017
806.052	27222
806.194	27157
806.336	27416
806.478	27230
806.62	27116
806.762	27348
806.904	27393
807.046	27705
807.188	27469
807.33	27580
807.472	27610
807.614	27492
807.756	27504
807.898	27538
808.04	27389
808.182	27344
808.324	27435
808.465	27553
808.607	27591
808.749	27808
808.891	27873
809.033	28048
809.174	27808
809.316	27705
809.458	27797
809.6	27759
809.741	27987
809.883	28013
810.025	28051
810.166	28109
810.308	28078
810.45	28105
810.591	27949
810.733	27781
810.875	27747
811.016	27637
811.158	27698
811.299	27751
811.441	27960
811.582	27873
811.724	27800
811.865	27770
812.007	27675
812.148	27728
812.29	27884
812.431	27876
812.573	28166
812.714	28287
812.855	28234
812.997	28459
813.138	28428
813.279	28443
813.421	28371
813.562	28230
813.703	28230
813.845	27964
813.986	27778
814.127	27511
814.268	27553
814.41	27485
814.551	27405
814.692	27519
814.833	27336
814.974	27408
815.115	27488
815.256	27283
815.397	27408
815.539	27321
815.68	27245
815.821	27180
815.962	27268
816.103	27176
816.244	27085
816.385	27081
816.526	27077
816.666	26857
816.807	26735
816.948	26769
817.089	26925
817.23	26880
817.371	26659
817.512	26701
817.653	26765
817.793	26693
817.934	26792
818.075	26804
818.216	26689
818.356	26765
818.497	26636
818.638	26362
818.778	26530
818.919	26530
819.06	26613
819.2	26735
819.341	26815
819.481	26697
819.622	26792
819.762	26963
819.903	26963
820.043	26785
820.184	26796
820.324	26830
820.465	26906
820.605	26807
820.746	26910
820.886	26800
821.026	26819
821.167	26762
821.307	26899
821.447	26727
821.588	26545
821.728	26423
821.868	26313
822.008	26183
822.149	26229
822.289	26126
822.429	25955
822.569	25868
822.709	25830
822.849	25655
822.99	25761
823.13	25651
823.27	25727
823.41	25685
823.55	25441
823.69	25582
823.83	25491
823.97	25396
824.11	25331
824.25	25278
824.389	25263
824.529	25396
824.669	25419
824.809	25476
824.949	25362
825.089	25434
825.228	25274
825.368	25171
825.508	25228
825.648	25225
825.787	25293
825.927	25217
826.067	25297
826.206	25084
826.346	25388
826.485	25217
826.625	25171
826.765	25289
826.904	25285
827.044	24905
827.183	25015
827.323	24829
827.462	24939
827.601	24867
827.741	24848
827.88	25012
828.02	24817
828.159	24787
828.298	24897
828.437	24894
828.577	24962
828.716	24989
828.855	24814
828.994	24631
829.134	24677
829.273	24601
829.412	24536
829.551	24623
829.69	24608
829.829	24559
829.968	24665
830.107	24700
830.246	24551
830.385	24734
830.524	24483
830.663	24353
830.802	24270
830.941	24136
831.08	24102
831.219	24353
831.357	24285
831.496	24391
831.635	24098
831.774	24011
831.913	24060
832.051	24003
832.19	23961
832.329	23939
832.467	23889
832.606	23767
832.744	23897
832.883	23843
833.022	23767
833.16	23946
833.299	23923
833.437	23874
833.576	24007
833.714	23935
833.852	23901
833.991	23996
834.129	23992
834.267	23942
834.406	23920
834.544	24003
834.682	23882
834.821	23946
834.959	24095
835.097	23863
835.235	24018
835.373	23790
835.511	23897
835.65	23760
835.788	23870
835.926	23653
836.064	23615
836.202	23429
836.34	23676
836.478	23840
836.615	23840
836.753	23752
836.891	23863
837.029	23767
837.167	23707
837.305	23760
837.443	23699
837.58	23478
837.718	23566
837.856	23554
837.993	23471
838.131	23714
838.269	23379
838.406	23425
838.544	23368
838.681	23223
838.819	23197
838.956	23060
839.094	23155
839.231	23151
839.369	23436
839.506	23471
839.643	23368
839.781	23060
839.918	23109
840.055	22972
840.193	23197
840.33	22976
840.467	22953
840.604	22869
840.742	23239
840.879	22835
841.016	22965
841.153	22843
841.29	22972
841.427	23056
841.564	23109
841.701	22984
841.838	22946
841.975	22915
842.112	22919
842.249	22847
842.385	22733
842.522	23067
842.659	22854
842.796	22611
842.933	22748
843.069	22694
843.206	22778
843.343	22809
843.479	22725
843.616	22733
843.752	22565
843.889	22607
844.025	22630
844.162	22447
844.298	22702
844.435	22527
844.571	22478
844.708	22538
844.844	22668
844.98	22713
845.117	22577
845.253	22470
845.389	22405
845.525	22485
845.661	22421
845.798	22234
845.934	22280
846.07	22242
846.206	22325
846.342	22341
846.478	22196
846.614	22143
846.75	21895
846.886	22105
847.022	21987
847.158	22067
847.294	21983
847.429	22158
847.565	21979
847.701	22226
847.837	21682
847.972	21789
848.108	21827
848.244	21759
848.379	21701
848.515	21641
848.65	21561
848.786	21568
848.921	21591
849.057	21705
849.192	21755
849.328	21515
849.463	21553
849.598	21526
849.734	21382
849.869	21431
850.004	21329
850.14	21355
850.275	21199
850.41	21241
850.545	21313
850.68	21237
850.815	21412
850.95	21370
851.085	21534
851.22	21526
851.355	21363
851.49	21370
851.625	21325
851.76	21233
851.895	21283
852.03	21214
852.165	21241
852.299	21382
852.434	21466
852.569	21275
852.703	21401
852.838	21450
852.973	21473
853.107	21606
853.242	21291
853.376	21184
853.511	21089
853.645	21009
853.78	21245
853.914	21154
854.048	21123
854.183	21116
854.317	21237
854.451	21351
854.585	21173
854.72	21211
854.854	21272
854.988	21116
855.122	21165
855.256	21108
855.39	21169
855.524	21176
855.658	21138
855.792	21039
855.926	21203
856.06	21256
856.194	21108
856.327	21135
856.461	21154
856.595	21081
856.729	21203
856.862	21272
856.996	21207
857.13	21294
857.263	21264
857.397	21161
857.53	21237
857.664	21188
857.797	21233
857.931	21325
858.064	21116
858.197	21325
858.331	21165
858.464	21157
858.597	21001
858.731	21093
858.864	21081
858.997	21055
859.13	21241
859.263	21093
859.396	21256
859.529	21127
859.662	21146
859.795	21096
859.928	21077
860.061	21340
860.194	21374
860.327	21207
860.46	21252
860.592	21363
860.725	21260
860.858	21260
860.99	21142
861.123	21123
861.256	21192
861.388	21085
861.521	21778
861.653	20982
861.786	20975
861.918	21070
862.05	21116
862.183	21024
862.315	21077
862.447	21169
862.58	21165
862.712	20902
862.844	20826
862.976	20921
863.108	20956
863.24	21370
863.372	20849
863.504	20796
863.636	20861
863.768	20880
863.9	20773
864.032	20883
864.164	20853
864.296	20914
864.428	20925
864.559	21013
864.691	20960
864.823	20899
864.954	20914
865.086	20868
865.217	20777
865.349	20659
865.48	20705
865.612	20830
865.743	20944
865.875	20773
866.006	20754
866.137	20739
866.269	20708
866.4	20823
866.531	20602
866.662	20777
866.793	20609
866.924	20613
867.055	20674
867.186	20701
867.317	20716
867.448	20663
867.579	20708
867.71	20606
867.841	20731
867.972	20720
868.103	20590
868.233	20762
868.364	20724
868.495	20834
868.625	20910
868.756	21066
868.886	20876
869.017	21028
869.147	20952
869.278	20963
869.408	20937
869.539	20929
869.669	20948
869.799	20937
869.929	21127
870.06	21036
870.19	21180
870.32	21298
870.45	21272
870.58	21325
870.71	21389
870.84	21428
870.97	21283
871.1	21302
871.23	21435
871.36	21477
871.489	21428
871.619	21454
871.749	21538
871.879	21656
872.008	21713
872.138	21637
872.267	21507
872.397	21428
872.526	21355
872.656	21374
872.785	21382
872.915	21481
873.044	21568
873.173	21466
873.303	21553
873.432	21576
873.561	21637
873.69	21534
873.819	21515
873.948	21690
874.077	21564
874.206	21397
874.335	21488
874.464	21724
874.593	21739
874.722	21641
874.851	21861
874.979	21793
875.108	21816
875.237	21755
875.365	21671
875.494	21675
875.623	21736
875.751	21656
875.88	21739
876.008	21808
876.136	21979
876.265	22276
876.393	22314
876.521	22276
876.65	22284
876.778	22295
876.906	22090
877.034	22185
877.162	22112
877.29	22128
877.418	22051
877.546	22162
877.674	22139
877.802	22112
877.93	22147
878.058	22162
878.185	21983
878.313	22238
878.441	22147
878.568	21838
878.696	22143
878.824	22169
878.951	22219
879.079	22322
879.206	22382
879.333	22325
879.461	22215
879.588	22249
879.715	22261
879.842	22481
879.97	22261
880.097	21949
880.224	21888
880.351	21945
880.478	22029
880.605	21972
880.732	21926
880.859	22230
880.986	21888
881.112	22048
881.239	21812
881.366	21603
881.493	21614
881.619	21545
881.746	21553
881.872	21488
881.999	21542
882.125	21344
882.252	21435
882.378	21534
882.505	21660
882.631	21389
882.757	21157
882.883	21393
883.01	21329
883.136	21123
883.262	21028
883.388	21074
883.514	21218
883.64	21264
883.766	21218
883.892	20956
884.018	21020
884.143	21226
884.269	21119
884.395	21047
884.52	20800
884.646	20792
884.772	20781
884.897	20792
885.023	20963
885.148	20960
885.274	20990
885.399	21009
885.524	20762
885.65	20944
885.775	20941
885.9	20838
886.025	21028
886.15	20883
886.275	20823
886.4	20754
886.525	20891
886.65	20807
886.775	20796
886.9	20902
887.025	21066
887.149	20800
887.274	20663
887.399	20655
887.523	20663
887.648	20492
887.773	20594
887.897	20796
888.021	20686
888.146	20518
888.27	20758
888.395	20640
888.519	20598
888.643	20674
888.767	20621
888.891	20575
889.015	20427
889.139	20488
889.263	20389
889.387	20480
889.511	20609
889.635	20442
889.759	20461
889.883	20419
890.006	20473
890.13	20492
890.254	20366
890.377	20408
890.501	20176
890.624	20202
890.748	20225
890.871	20024
890.995	20058
891.118	19909
891.241	20065
891.364	20027
891.488	20081
891.611	19978
891.734	20046
891.857	20103
891.98	20050
892.103	20153
892.226	19917
892.349	19849
892.471	19917
892.594	19898
892.717	20027
892.839	20001
892.962	19868
893.085	19921
893.207	19913
893.33	19807
893.452	19909
893.575	19947
893.697	19887
893.819	20031
893.941	20161
894.064	19951
894.186	19978
894.308	19795
894.43	20008
894.552	20012
894.674	19967
894.796	19753
894.918	19849
895.04	19970
895.161	19986
895.283	19951
895.405	19833
895.526	19860
895.648	19967
895.769	20008
895.891	19841
896.012	19989
896.134	19864
896.255	19879
896.376	19913
896.498	19955
896.619	20039
896.74	20024
896.861	19947
896.982	20233
897.103	20305
897.224	20240
897.345	20138
897.466	20096
897.587	20115
897.708	20305
897.828	20195
897.949	20008
898.07	19936
898.19	19967
898.311	20313
898.431	20008
898.552	20176
898.672	20218
898.792	20294
898.913	20134
899.033	19959
899.153	19978
899.273	19849
899.393	19898
899.513	19947
899.633	19978
899.753	19841
899.873	19883
899.993	19757
900.113	19898
900.232	19940
900.352	19738
900.472	19753
900.591	19643
900.711	19712
900.83	19658
900.95	19753
901.069	19803
901.189	19487
901.308	19308
901.427	19289
901.546	19255
901.665	19324
901.784	19335
901.904	19126
902.023	19000
902.141	18802
902.26	18760
902.379	18928
902.498	18829
902.617	18810
902.735	18741
902.854	18741
902.973	18779
903.091	18513
903.21	18483
903.328	18445
903.446	18403
903.565	18262
903.683	18311
903.801	18216
903.919	18152
904.038	18117
904.156	18060
904.274	18049
904.392	18106
904.51	17961
904.627	17996
904.745	17969
904.863	18140
904.981	17771
905.098	17775
905.216	17691
905.334	17691
905.451	17695
905.569	17699
905.686	17714
905.803	17646
905.921	17493
906.038	17570
906.155	17600
906.272	17524
906.389	17372
906.506	17208
906.623	17292
906.74	17151
906.857	17060
906.974	17128
907.091	17254
907.208	17395
907.324	17220
907.441	17254
907.557	16965
907.674	17048
907.79	16968
907.907	16873
908.023	16976
908.139	16938
908.256	16968
908.372	16820
908.488	16828
908.604	16725
908.72	16637
908.836	16691
908.952	16736
909.068	16641
909.184	16771
909.3	16622
909.415	16645
909.531	16675
909.647	16413
909.762	16310
909.878	16386
909.993	16276
910.108	16402
910.224	16295
910.339	16382
910.454	16299
910.57	16188
910.685	16021
910.8	16455
910.915	16322
911.03	16124
911.145	16036
911.259	15998
911.374	15964
911.489	15804
911.604	15945
911.718	15690
911.833	15690
911.947	15690
912.062	15526
912.176	15762
912.291	15762
912.405	15728
912.519	15838
912.633	15747
912.748	15713
912.862	15614
912.976	15595
913.09	15477
913.204	15580
913.318	15557
913.431	15652
913.545	15515
913.659	15637
913.772	15504
913.886	15450
914	15348
914.113	15351
914.226	15447
914.34	15481
914.453	15199
914.566	15306
914.68	15268
914.793	15294
914.906	15058
915.019	14956
915.132	14906
915.245	14960
915.358	14948
915.47	14937
915.583	14990
915.696	14998
915.809	15070
915.921	15051
916.034	14887
916.146	14849
916.259	14834
916.371	14872
916.483	14838
916.595	14781
916.708	14815
916.82	14788
916.932	14796
917.044	14746
917.156	14667
917.268	14594
917.38	14602
917.491	14518
917.603	14648
917.715	14712
917.826	14727
917.938	14526
918.049	14488
918.161	14503
918.272	14758
918.384	14720
918.495	14575
918.606	14473
918.717	14381
918.828	14438
918.939	14347
919.05	14187
919.161	14320
919.272	14199
919.383	14161
919.494	14431
919.604	14587
919.715	14393
919.826	14278
919.936	14362
920.047	14305
920.157	14332
920.267	14552
920.378	14355
920.488	14328
920.598	14450
920.708	14632
920.818	14503
920.928	14492
921.038	14613
921.148	14537
921.258	14339
921.368	14183
921.477	14058
921.587	14119
921.697	13830
921.806	14119
921.916	13997
922.025	13807
922.134	13769
922.244	13696
922.353	13757
922.462	13677
922.571	13552
922.68	13476
922.789	13426
922.898	13373
923.007	13293
923.116	13285
923.224	13350
923.333	13350
923.442	13301
923.55	13228
923.659	13263
923.767	13213
923.876	13122
923.984	13228
924.092	13061
924.201	13164
924.309	13103
924.417	13145
924.525	13080
924.633	13046
924.741	13894
924.849	12833
924.956	13038
925.064	12901
925.172	12696
925.279	12787
925.387	12757
925.494	12779
925.602	12894
925.709	12829
925.816	12749
925.924	12719
926.031	12856
926.138	12787
926.245	12852
926.352	12616
926.459	12764
926.566	12863
926.673	12700
926.779	12589
926.886	12547
926.993	12475
927.099	12365
927.206	12384
927.312	12311
927.419	12376
927.525	12365
927.631	12372
927.737	12209
927.843	12224
927.95	12083
928.056	12243
928.162	12201
928.267	12201
928.373	12764
928.479	12296
928.585	12125
928.69	12140
928.796	12163
928.901	11965
929.007	11927
929.112	12068
929.218	11889
929.323	12026
929.428	11923
929.533	12011
929.638	11824
929.743	11904
929.848	11863
929.953	11893
930.058	11764
930.163	11615
930.267	11608
930.372	11832
930.477	11535
930.581	11866
930.685	11710
930.79	11551
930.894	11570
930.998	11448
931.103	11547
931.207	11341
931.311	11166
931.415	11121
931.519	10961
931.623	10866
