Data from test_V78500241_1319.txt Node
Date: Fri Mar 25 15:19:02 CST 2022
User: usil
Spectrometer: V785-0024
Trigger mode: 0
Integration Time (sec): 4.000000E-1
Scans to average: 1
Nonlinearity correction enabled: false
Boxcar width: 0
Storing dark spectrum: false
XAxis mode: Wavelengths
Number of Pixels in Spectrum: 1024
>>>>>Begin Spectral Data<<<<<
801.071	28029
801.214	27956
801.356	27705
801.499	27633
801.641	27462
801.783	27545
801.926	27618
802.068	27568
802.211	27504
802.353	27481
802.496	27241
802.638	27165
802.78	27252
802.923	27116
803.065	27096
803.208	27268
803.35	27104
803.492	27355
803.635	27389
803.777	27268
803.919	27359
804.061	27682
804.204	27469
804.346	27359
804.488	27348
804.63	27370
804.773	27378
804.915	27523
805.057	27515
805.199	27401
805.341	27401
805.483	27507
805.626	27473
805.768	27519
805.91	27504
806.052	27564
806.194	27306
806.336	27591
806.478	27523
806.62	27424
806.762	27572
806.904	27667
807.046	28032
807.188	27964
807.33	27873
807.472	27926
807.614	27937
807.756	27918
807.898	27949
808.04	27892
808.182	27835
808.324	27857
808.465	27835
808.607	28090
808.749	28101
808.891	28322
809.033	28265
809.174	28128
809.316	28135
809.458	28238
809.6	28059
809.741	28215
809.883	28363
810.025	28470
810.166	28462
810.308	28573
810.45	28466
810.591	28417
810.733	28185
810.875	28154
811.016	27922
811.158	27987
811.299	28166
811.441	28386
811.582	28166
811.724	28112
811.865	28093
812.007	28219
812.148	28017
812.29	28303
812.431	28421
812.573	28466
812.714	28615
812.855	28736
812.997	28843
813.138	28759
813.279	28828
813.421	28824
813.562	28683
813.703	28580
813.845	28500
813.986	28166
814.127	28048
814.268	27930
814.41	27979
814.551	27728
814.692	27899
814.833	27713
814.974	27956
815.115	27991
815.256	27694
815.397	27637
815.539	27682
815.68	27629
815.821	27698
815.962	27663
816.103	27747
816.244	27545
816.385	27416
816.526	27291
816.666	27256
816.807	27226
816.948	27249
817.089	27287
817.23	27195
817.371	27241
817.512	27081
817.653	27135
817.793	27013
817.934	27184
818.075	27230
818.216	27211
818.356	27275
818.497	26960
818.638	26902
818.778	26982
818.919	26990
819.06	26960
819.2	27222
819.341	27256
819.481	27020
819.622	27355
819.762	27511
819.903	27454
820.043	27408
820.184	27237
820.324	27233
820.465	27272
820.605	27203
820.746	27294
820.886	27138
821.026	27161
821.167	27344
821.307	27332
821.447	27226
821.588	27085
821.728	26857
821.868	26792
822.008	26594
822.149	26754
822.289	26469
822.429	26499
822.569	26286
822.709	26400
822.849	26252
822.99	26157
823.13	26096
823.27	26130
823.41	26073
823.55	25856
823.69	25989
823.83	25906
823.97	25959
824.11	25734
824.25	25902
824.389	25788
824.529	25928
824.669	25670
824.809	26027
824.949	25879
825.089	25906
825.228	25925
825.368	25506
825.508	25700
825.648	25624
825.787	25811
825.927	25655
826.067	25563
826.206	25674
826.346	25746
826.485	25750
826.625	25616
826.765	25643
826.904	25616
827.044	25476
827.183	25483
827.323	25434
827.462	25510
827.601	25335
827.741	25441
827.88	25365
828.02	25247
828.159	25506
828.298	25468
828.437	25476
828.577	25278
828.716	25445
828.855	25240
828.994	25103
829.134	25103
829.273	25103
829.412	25076
829.551	25080
829.69	25069
829.829	25282
829.968	25152
830.107	25270
830.246	25053
830.385	25004
830.524	25031
830.663	24992
830.802	24951
830.941	24749
831.08	24844
831.219	24768
831.357	24859
831.496	24932
831.635	24688
831.774	24597
831.913	24677
832.051	24445
832.19	24395
832.329	24525
832.467	24498
832.606	24251
832.744	24410
832.883	24437
833.022	24304
833.16	24536
833.299	24361
833.437	24517
833.576	24380
833.714	24509
833.852	24471
833.991	24433
834.129	24475
834.267	24437
834.406	24585
834.544	24456
834.682	24441
834.821	24441
834.959	24620
835.097	24304
835.235	24498
835.373	24437
835.511	24483
835.65	24403
835.788	24292
835.926	24163
836.064	24011
836.202	24186
836.34	24270
836.478	24395
836.615	24228
836.753	24319
836.891	24369
837.029	24163
837.167	24197
837.305	24209
837.443	24224
837.58	24064
837.718	24018
837.856	24148
837.993	23969
838.131	24102
838.269	23935
838.406	24057
838.544	23912
838.681	23821
838.819	23760
838.956	23573
839.094	23611
839.231	23771
839.369	23832
839.506	23889
839.643	23859
839.781	23573
839.918	23490
840.055	23630
840.193	23615
840.33	23619
840.467	23509
840.604	23589
840.742	23680
840.879	23490
841.016	23467
841.153	23334
841.29	23592
841.427	23562
841.564	23520
841.701	23509
841.838	23322
841.975	23391
842.112	23406
842.249	23258
842.385	23208
842.522	23436
842.659	23315
842.796	23292
842.933	23273
843.069	23258
843.206	23071
843.343	23330
843.479	23288
843.616	23372
843.752	23079
843.889	23124
844.025	23143
844.162	23109
844.298	23094
844.435	23041
844.571	23117
844.708	23098
844.844	23090
844.98	23258
845.117	23060
845.253	23041
845.389	22904
845.525	23003
845.661	22915
845.798	22809
845.934	22854
846.07	22812
846.206	22675
846.342	22889
846.478	22729
846.614	22740
846.75	22512
846.886	22455
847.022	22546
847.158	22459
847.294	22481
847.429	22542
847.565	22451
847.701	22725
847.837	22310
847.972	22249
848.108	22253
848.244	22261
848.379	22215
848.515	22090
848.65	22078
848.786	22162
848.921	22078
849.057	22181
849.192	22242
849.328	22086
849.463	22105
849.598	21941
849.734	22010
849.869	21953
850.004	21816
850.14	21892
850.275	21880
850.41	21713
850.545	21686
850.68	21838
850.815	21816
850.95	21968
851.085	21998
851.22	21972
851.355	21850
851.49	21797
851.625	21930
851.76	21759
851.895	21831
852.03	21762
852.165	21899
852.299	21941
852.434	21922
852.569	21827
852.703	21941
852.838	21892
852.973	21998
853.107	21835
853.242	21819
853.376	21675
853.511	21561
853.645	21660
853.78	21819
853.914	21549
854.048	21724
854.183	21549
854.317	21701
854.451	21831
854.585	21641
854.72	21663
854.854	21671
854.988	21519
855.122	21610
855.256	21542
855.39	21610
855.524	21682
855.658	21732
855.792	21739
855.926	21641
856.06	21656
856.194	21679
856.327	21561
856.461	21553
856.595	21610
856.729	21663
856.862	21701
856.996	21717
857.13	21736
857.263	21800
857.397	21686
857.53	21625
857.664	21675
857.797	21698
857.931	21842
858.064	21732
858.197	21686
858.331	21660
858.464	21614
858.597	21587
858.731	21663
858.864	21519
858.997	21641
859.13	21534
859.263	21561
859.396	21743
859.529	21644
859.662	21606
859.795	21523
859.928	21576
860.061	21759
860.194	21781
860.327	21660
860.46	21648
860.592	21804
860.725	21778
860.858	21888
860.99	21797
861.123	21515
861.256	21644
861.388	21660
861.521	22337
861.653	21549
861.786	21401
861.918	21561
862.05	21469
862.183	21599
862.315	21553
862.447	21622
862.58	21534
862.712	21329
862.844	21351
862.976	21469
863.108	21504
863.24	21603
863.372	21329
863.504	21336
863.636	21378
863.768	21367
863.9	21447
864.032	21249
864.164	21378
864.296	21321
864.428	21405
864.559	21355
864.691	21431
864.823	21355
864.954	21389
865.086	21397
865.217	21332
865.349	21150
865.48	21233
865.612	21321
865.743	21397
865.875	21283
866.006	21192
866.137	21252
866.269	21119
866.4	21184
866.531	21169
866.662	21218
866.793	21176
866.924	21154
867.055	21245
867.186	21161
867.317	21081
867.448	21123
867.579	21135
867.71	21055
867.841	21074
867.972	21233
868.103	21199
868.233	21230
868.364	21188
868.495	21298
868.625	21408
868.756	21572
868.886	21302
869.017	21458
869.147	21587
869.278	21435
869.408	21492
869.539	21367
869.669	21507
869.799	21405
869.929	21485
870.06	21580
870.19	21819
870.32	21701
870.45	21705
870.58	21663
870.71	21854
870.84	21983
870.97	21804
871.1	21800
871.23	22021
871.36	21941
871.489	21827
871.619	21869
871.749	21987
871.879	22048
872.008	22131
872.138	21960
872.267	22048
872.397	21880
872.526	21880
872.656	21861
872.785	21660
872.915	22017
873.044	22166
873.173	22112
873.303	22162
873.432	22021
873.561	22135
873.69	22097
873.819	22112
873.948	22070
874.077	21945
874.206	22082
874.335	22017
874.464	21987
874.593	22337
874.722	22211
874.851	22314
874.979	22375
875.108	22356
875.237	22093
875.365	22188
875.494	22204
875.623	22314
875.751	22284
875.88	22295
876.008	22432
876.136	22451
876.265	22679
876.393	22710
876.521	22717
876.65	22561
876.778	22649
876.906	22603
877.034	22538
877.162	22516
877.29	22516
877.418	22668
877.546	22474
877.674	22694
877.802	22694
877.93	22618
878.058	22618
878.185	22443
878.313	22489
878.441	22519
878.568	22405
878.696	22478
878.824	22554
878.951	22717
879.079	22767
879.206	22873
879.333	22713
879.461	22634
879.588	22801
879.715	22805
879.842	22767
879.97	22744
880.097	22455
880.224	22443
880.351	22375
880.478	22398
880.605	22333
880.732	22417
880.859	22611
880.986	22348
881.112	22405
881.239	22234
881.366	22074
881.493	22017
881.619	22002
881.746	22044
881.872	21972
881.999	21987
882.125	21983
882.252	22055
882.378	21983
882.505	21994
882.631	21793
882.757	21743
882.883	21736
883.01	21622
883.136	21614
883.262	21595
883.388	21523
883.514	21625
883.64	21835
883.766	21667
883.892	21439
884.018	21435
884.143	21637
884.269	21606
884.395	21389
884.52	21469
884.646	21252
884.772	21264
884.897	21291
885.023	21218
885.148	21454
885.274	21378
885.399	21397
885.524	21317
885.65	21469
885.775	21287
885.9	21294
886.025	21458
886.15	21477
886.275	21370
886.4	21252
886.525	21291
886.65	21226
886.775	21203
886.9	21477
887.025	21458
887.149	21260
887.274	21123
887.399	21138
887.523	21154
887.648	21058
887.773	21009
887.897	21108
888.021	21066
888.146	20975
888.27	21161
888.395	21074
888.519	21119
888.643	21024
888.767	21116
888.891	21001
889.015	20899
889.139	20842
889.263	20902
889.387	20956
889.511	21066
889.635	21131
889.759	20883
889.883	20880
890.006	20937
890.13	20956
890.254	20758
890.377	20899
890.501	20663
890.624	20621
890.748	20720
890.871	20556
890.995	20370
891.118	20332
891.241	20469
891.364	20381
891.488	20552
891.611	20457
891.734	20351
891.857	20454
891.98	20507
892.103	20476
892.226	20533
892.349	20404
892.471	20229
892.594	20259
892.717	20389
892.839	20419
892.962	20381
893.085	20442
893.207	20320
893.33	20145
893.452	20324
893.575	20484
893.697	20294
893.819	20514
893.941	20507
894.064	20476
894.186	20358
894.308	20271
894.43	20381
894.552	20442
894.674	20370
894.796	20362
894.918	20343
895.04	20187
895.161	20343
895.283	20454
895.405	20252
895.526	20282
895.648	20389
895.769	20377
895.891	20313
896.012	20396
896.134	20415
896.255	20358
896.376	20457
896.498	20339
896.619	20278
896.74	20446
896.861	20465
896.982	20682
897.103	20731
897.224	20583
897.345	20598
897.466	20442
897.587	20556
897.708	20678
897.828	20636
897.949	20511
898.07	20332
898.19	20495
898.311	20606
898.431	20389
898.552	20533
898.672	20640
898.792	20556
898.913	20518
899.033	20438
899.153	20400
899.273	20191
899.393	20332
899.513	20263
899.633	20313
899.753	20267
899.873	20214
899.993	20244
900.113	20214
900.232	20351
900.352	20168
900.472	20122
900.591	19967
900.711	19978
900.83	20020
900.95	20046
901.069	20199
901.189	19894
901.308	19791
901.427	19662
901.546	19712
901.665	19670
901.784	19662
901.904	19472
902.023	19388
902.141	19156
902.26	19080
902.379	19301
902.498	19198
902.617	19076
902.735	19236
902.854	19034
902.973	19027
903.091	18749
903.21	18852
903.328	18787
903.446	18703
903.565	18658
903.683	18597
903.801	18506
903.919	18551
904.038	18521
904.156	18471
904.274	18475
904.392	18380
904.51	18410
904.627	18350
904.745	18490
904.863	18380
904.981	18197
905.098	18159
905.216	18049
905.334	18213
905.451	18034
905.569	18148
905.686	18117
905.803	18057
905.921	17904
906.038	18034
906.155	17927
906.272	17889
906.389	17809
906.506	17691
906.623	17665
906.74	17623
906.857	17395
906.974	17516
907.091	17805
907.208	17707
907.324	17535
907.441	17532
907.557	17452
907.674	17345
907.79	17147
907.907	17284
908.023	17360
908.139	17379
908.256	17345
908.372	17170
908.488	17200
908.604	17045
908.72	16972
908.836	17102
908.952	16965
909.068	17109
909.184	17136
909.3	17033
909.415	17090
909.531	16896
909.647	16767
909.762	16691
909.878	16793
909.993	16729
910.108	16592
910.224	16634
910.339	16702
910.454	16580
910.57	16512
910.685	16493
910.8	16694
910.915	16660
911.03	16516
911.145	16497
911.259	16261
911.374	16265
911.489	16303
911.604	16188
911.718	16093
911.833	16154
911.947	16032
912.062	15979
912.176	16040
912.291	15983
912.405	15968
912.519	16249
912.633	16223
912.748	16135
912.862	16044
912.976	15907
913.09	15850
913.204	15823
913.318	15865
913.431	16017
913.545	15941
913.659	15945
913.772	15747
913.886	15610
914	15660
914.113	15823
914.226	15812
914.34	15831
914.453	15614
914.566	15633
914.68	15618
914.793	15507
914.906	15340
915.019	15268
915.132	15287
915.245	15192
915.358	15252
915.47	15313
915.583	15279
915.696	15317
915.809	15359
915.921	15378
916.034	15230
916.146	15207
916.259	15207
916.371	15192
916.483	15226
916.595	15066
916.708	15203
916.82	15108
916.932	15032
917.044	15081
917.156	14979
917.268	14872
917.38	14975
917.491	14914
917.603	14937
917.715	14952
917.826	15036
917.938	14906
918.049	14800
918.161	14883
918.272	14960
918.384	14990
918.495	14800
918.606	14762
918.717	14663
918.828	14697
918.939	14712
919.05	14617
919.161	14610
919.272	14484
919.383	14571
919.494	14762
919.604	14807
919.715	14674
919.826	14632
919.936	14689
920.047	14720
920.157	14587
920.267	14773
920.378	14617
920.488	14560
920.598	14762
920.708	14944
920.818	14712
920.928	14788
921.038	14941
921.148	14891
921.258	14602
921.368	14465
921.477	14396
921.587	14393
921.697	14225
921.806	14336
921.916	14313
922.025	14138
922.134	13993
922.244	13944
922.353	14027
922.462	13879
922.571	13734
922.68	13715
922.789	13666
922.898	13533
923.007	13597
923.116	13662
923.224	13563
923.333	13616
923.442	13556
923.55	13518
923.659	13537
923.767	13400
923.876	13403
923.984	13449
924.092	13403
924.201	13480
924.309	13384
924.417	13350
924.525	13320
924.633	13266
924.741	14199
924.849	13072
924.956	13137
925.064	13103
925.172	12985
925.279	13038
925.387	13137
925.494	13069
925.602	13183
925.709	13053
925.816	12989
925.924	13034
926.031	13080
926.138	12993
926.245	13012
926.352	12954
926.459	13004
926.566	12962
926.673	12928
926.779	12837
926.886	12768
926.993	12677
927.099	12623
927.206	12547
927.312	12540
927.419	12525
927.525	12692
927.631	12620
927.737	12566
927.843	12475
927.95	12338
928.056	12448
928.162	12414
928.267	12471
928.373	13080
928.479	12448
928.585	12167
928.69	12384
928.796	12471
928.901	12277
929.007	12171
929.112	12327
929.218	12334
929.323	12251
929.428	12201
929.533	12311
929.638	12038
929.743	12125
929.848	12148
929.953	12152
930.058	11954
930.163	11805
930.267	11828
930.372	11939
930.477	11840
930.581	12011
930.685	11923
930.79	11672
930.894	11771
930.998	11737
931.103	11741
931.207	11467
931.311	11467
931.415	11277
931.519	11201
931.623	11071
