Data from test_V78500241_44.txt Node
Date: Fri Mar 25 15:10:10 CST 2022
User: usil
Spectrometer: V785-0024
Trigger mode: 0
Integration Time (sec): 4.000000E-1
Scans to average: 1
Nonlinearity correction enabled: false
Boxcar width: 0
Storing dark spectrum: false
XAxis mode: Wavelengths
Number of Pixels in Spectrum: 1024
>>>>>Begin Spectral Data<<<<<
801.071	28702
801.214	28588
801.356	28436
801.499	28344
801.641	28238
801.783	28204
801.926	28318
802.068	28265
802.211	28093
802.353	28192
802.496	27831
802.638	27998
802.78	27903
802.923	27717
803.065	27781
803.208	27713
803.35	27717
803.492	27880
803.635	27945
803.777	27953
803.919	28040
804.061	28249
804.204	28013
804.346	27918
804.488	27846
804.63	27892
804.773	27724
804.915	27941
805.057	28086
805.199	27895
805.341	27892
805.483	28017
805.626	27941
805.768	27869
805.91	28044
806.052	28051
806.194	27861
806.336	28249
806.478	27930
806.62	27949
806.762	28051
806.904	28375
807.046	28459
807.188	28382
807.33	28291
807.472	28550
807.614	28246
807.756	28371
807.898	28154
808.04	28097
808.182	28139
808.324	28086
808.465	28139
808.607	28318
808.749	28261
808.891	28615
809.033	28436
809.174	28531
809.316	28466
809.458	28489
809.6	28382
809.741	28485
809.883	28550
810.025	28588
810.166	28618
810.308	28793
810.45	28702
810.591	28489
810.733	28325
810.875	28447
811.016	28306
811.158	28299
811.299	28527
811.441	28451
811.582	28405
811.724	28314
811.865	28386
812.007	28325
812.148	28363
812.29	28352
812.431	28413
812.573	28683
812.714	28782
812.855	28904
812.997	28980
813.138	29151
813.279	28942
813.421	28854
813.562	28824
813.703	28656
813.845	28565
813.986	28246
814.127	27960
814.268	27751
814.41	28032
814.551	27785
814.692	28029
814.833	27998
814.974	27972
815.115	27926
815.256	27873
815.397	27827
815.539	27808
815.68	27648
815.821	27694
815.962	27694
816.103	27542
816.244	27485
816.385	27511
816.526	27332
816.666	27116
816.807	27184
816.948	27279
817.089	27329
817.23	27294
817.371	27062
817.512	27081
817.653	27043
817.793	27047
817.934	27081
818.075	27108
818.216	27047
818.356	26998
818.497	26842
818.638	26781
818.778	26746
818.919	26765
819.06	26765
819.2	26929
819.341	27074
819.481	26944
819.622	27169
819.762	27176
819.903	27123
820.043	27028
820.184	27039
820.324	27013
820.465	26990
820.605	27055
820.746	26929
820.886	26872
821.026	26929
821.167	27058
821.307	27028
821.447	27001
821.588	26750
821.728	26739
821.868	26621
822.008	26339
822.149	26526
822.289	26271
822.429	26142
822.569	26081
822.709	26031
822.849	25856
822.99	25860
823.13	25871
823.27	25887
823.41	25609
823.55	25525
823.69	25632
823.83	25670
823.97	25533
824.11	25422
824.25	25487
824.389	25377
824.529	25506
824.669	25430
824.809	25479
824.949	25476
825.089	25483
825.228	25464
825.368	25308
825.508	25228
825.648	25194
825.787	25255
825.927	25301
826.067	25179
826.206	25244
826.346	25266
826.485	25251
826.625	25244
826.765	25472
826.904	25202
827.044	25042
827.183	24985
827.323	24802
827.462	25061
827.601	25000
827.741	24692
827.88	24798
828.02	24684
828.159	24837
828.298	24787
828.437	24920
828.577	24783
828.716	25004
828.855	24806
828.994	24646
829.134	24604
829.273	24620
829.412	24513
829.551	24505
829.69	24475
829.829	24513
829.968	24646
830.107	24673
830.246	24551
830.385	24525
830.524	24357
830.663	24323
830.802	24197
830.941	23992
831.08	24095
831.219	24110
831.357	24129
831.496	24319
831.635	24106
831.774	24018
831.913	23961
832.051	23916
832.19	23878
832.329	23840
832.467	23790
832.606	23748
832.744	23767
832.883	23760
833.022	23695
833.16	23710
833.299	23710
833.437	23611
833.576	23802
833.714	23691
833.852	23832
833.991	23790
834.129	23779
834.267	23843
834.406	23676
834.544	23691
834.682	23733
834.821	23760
834.959	23779
835.097	23562
835.235	23733
835.373	23737
835.511	23684
835.65	23657
835.788	23512
835.926	23509
836.064	23326
836.202	23307
836.34	23421
836.478	23528
836.615	23474
836.753	23608
836.891	23535
837.029	23520
837.167	23562
837.305	23478
837.443	23474
837.58	23303
837.718	23452
837.856	23379
837.993	23326
838.131	23398
838.269	23235
838.406	23155
838.544	23140
838.681	22980
838.819	22995
838.956	22801
839.094	22793
839.231	22755
839.369	22946
839.506	23136
839.643	23056
839.781	22740
839.918	22687
840.055	22748
840.193	22729
840.33	22668
840.467	22634
840.604	22717
840.742	22957
840.879	22508
841.016	22668
841.153	22538
841.29	22831
841.427	22615
841.564	22786
841.701	22729
841.838	22645
841.975	22637
842.112	22603
842.249	22447
842.385	22249
842.522	22519
842.659	22440
842.796	22409
842.933	22303
843.069	22459
843.206	22215
843.343	22356
843.479	22371
843.616	22337
843.752	22093
843.889	22025
844.025	22268
844.162	22166
844.298	22036
844.435	22124
844.571	22112
844.708	22135
844.844	22219
844.98	22177
845.117	22173
845.253	22139
845.389	21964
845.525	22025
845.661	21907
845.798	21915
845.934	21850
846.07	21808
846.206	21838
846.342	21838
846.478	21778
846.614	21625
846.75	21523
846.886	21591
847.022	21675
847.158	21466
847.294	21637
847.429	21587
847.565	21477
847.701	21747
847.837	21184
847.972	21211
848.108	21393
848.244	21355
848.379	21154
848.515	21024
848.65	21074
848.786	21081
848.921	21066
849.057	21138
849.192	21135
849.328	21119
849.463	21051
849.598	21009
849.734	20994
849.869	20952
850.004	20902
850.14	20823
850.275	20788
850.41	20743
850.545	20830
850.68	20792
850.815	20811
850.95	20804
851.085	21062
851.22	20868
851.355	20781
851.49	20788
851.625	20727
851.76	20712
851.895	20606
852.03	20701
852.165	20807
852.299	20750
852.434	20880
852.569	20697
852.703	20781
852.838	20750
852.973	20902
853.107	20895
853.242	20682
853.376	20689
853.511	20537
853.645	20541
853.78	20754
853.914	20697
854.048	20530
854.183	20750
854.317	20598
854.451	20785
854.585	20629
854.72	20632
854.854	20716
854.988	20454
855.122	20495
855.256	20530
855.39	20590
855.524	20636
855.658	20663
855.792	20560
855.926	20731
856.06	20526
856.194	20678
856.327	20602
856.461	20541
856.595	20560
856.729	20530
856.862	20781
856.996	20530
857.13	20655
857.263	20667
857.397	20579
857.53	20537
857.664	20457
857.797	20613
857.931	20552
858.064	20579
858.197	20689
858.331	20434
858.464	20400
858.597	20362
858.731	20526
858.864	20522
858.997	20526
859.13	20457
859.263	20415
859.396	20549
859.529	20514
859.662	20457
859.795	20461
859.928	20549
860.061	20644
860.194	20617
860.327	20545
860.46	20473
860.592	20552
860.725	20693
860.858	20564
860.99	20438
861.123	20412
861.256	20461
861.388	20473
861.521	21047
861.653	20320
861.786	20305
861.918	20389
862.05	20457
862.183	20507
862.315	20503
862.447	20609
862.58	20507
862.712	20324
862.844	20172
862.976	20305
863.108	20195
863.24	20712
863.372	20229
863.504	20103
863.636	20153
863.768	20187
863.9	20202
864.032	20218
864.164	20202
864.296	20088
864.428	20259
864.559	20256
864.691	20290
864.823	20111
864.954	20142
865.086	20187
865.217	20130
865.349	20031
865.48	19989
865.612	20122
865.743	20336
865.875	20111
866.006	19928
866.137	20100
866.269	20088
866.4	20088
866.531	19993
866.662	19955
866.793	19925
866.924	19967
867.055	20054
867.186	19967
867.317	19993
867.448	19955
867.579	20020
867.71	19811
867.841	20005
867.972	20005
868.103	20012
868.233	20050
868.364	19940
868.495	20035
868.625	20119
868.756	20362
868.886	20259
869.017	20180
869.147	20389
869.278	20298
869.408	20298
869.539	20244
869.669	20195
869.799	20286
869.929	20286
870.06	20400
870.19	20469
870.32	20587
870.45	20590
870.58	20530
870.71	20777
870.84	20659
870.97	20625
871.1	20579
871.23	20739
871.36	20887
871.489	20887
871.619	20826
871.749	20800
871.879	20887
872.008	20975
872.138	20868
872.267	20838
872.397	20602
872.526	20670
872.656	20571
872.785	20663
872.915	20788
873.044	21036
873.173	20849
873.303	20864
873.432	20921
873.561	20910
873.69	20933
873.819	20861
873.948	20876
874.077	21001
874.206	20777
874.335	20944
874.464	21036
874.593	21157
874.722	21104
874.851	21180
874.979	21249
875.108	21192
875.237	21104
875.365	21074
875.494	21169
875.623	21154
875.751	20982
875.88	21157
876.008	21154
876.136	21264
876.265	21595
876.393	21660
876.521	21526
876.65	21633
876.778	21405
876.906	21424
877.034	21424
877.162	21462
877.29	21428
877.418	21583
877.546	21500
877.674	21378
877.802	21393
877.93	21519
878.058	21424
878.185	21283
878.313	21431
878.441	21420
878.568	21245
878.696	21325
878.824	21637
878.951	21439
879.079	21648
879.206	21667
879.333	21694
879.461	21576
879.588	21595
879.715	21679
879.842	21663
879.97	21485
880.097	21230
880.224	21313
880.351	21329
880.478	21370
880.605	21275
880.732	21355
880.859	21542
880.986	21310
881.112	21188
881.239	21043
881.366	21100
881.493	20941
881.619	20826
881.746	20910
881.872	20655
881.999	20918
882.125	20781
882.252	20952
882.378	20925
882.505	20994
882.631	20785
882.757	20625
882.883	20746
883.01	20644
883.136	20556
883.262	20476
883.388	20389
883.514	20629
883.64	20579
883.766	20587
883.892	20290
884.018	20507
884.143	20583
884.269	20644
884.395	20313
884.52	20172
884.646	20301
884.772	20218
884.897	20218
885.023	20320
885.148	20339
885.274	20381
885.399	20427
885.524	20240
885.65	20271
885.775	20229
885.9	20214
886.025	20476
886.15	20298
886.275	20214
886.4	20176
886.525	20199
886.65	20153
886.775	20225
886.9	20294
887.025	20518
887.149	20256
887.274	19959
887.399	19925
887.523	20027
887.648	20005
887.773	19871
887.897	20062
888.021	20039
888.146	19906
888.27	20065
888.395	20054
888.519	20046
888.643	20062
888.767	20020
888.891	19982
889.015	19837
889.139	19799
889.263	19803
889.387	19890
889.511	19856
889.635	19868
889.759	19799
889.883	19780
890.006	19868
890.13	19898
890.254	19689
890.377	19852
890.501	19453
890.624	19594
890.748	19639
890.871	19407
890.995	19407
891.118	19343
891.241	19388
891.364	19358
891.488	19537
891.611	19331
891.734	19426
891.857	19430
891.98	19419
892.103	19597
892.226	19441
892.349	19422
892.471	19156
892.594	19381
892.717	19384
892.839	19225
892.962	19278
893.085	19358
893.207	19324
893.33	19266
893.452	19244
893.575	19415
893.697	19331
893.819	19487
893.941	19639
894.064	19411
894.186	19289
894.308	19301
894.43	19510
894.552	19518
894.674	19392
894.796	19259
894.918	19259
895.04	19339
895.161	19392
895.283	19396
895.405	19316
895.526	19472
895.648	19251
895.769	19316
895.891	19354
896.012	19533
896.134	19343
896.255	19358
896.376	19324
896.498	19365
896.619	19544
896.74	19388
896.861	19426
896.982	19746
897.103	19913
897.224	19628
897.345	19674
897.466	19419
897.587	19613
897.708	19643
897.828	19556
897.949	19582
898.07	19487
898.19	19548
898.311	19639
898.431	19476
898.552	19537
898.672	19616
898.792	19601
898.913	19578
899.033	19438
899.153	19331
899.273	19209
899.393	19263
899.513	19354
899.633	19194
899.753	19183
899.873	19152
899.993	19343
900.113	19263
900.232	19244
900.352	19251
900.472	19247
900.591	19129
900.711	19202
900.83	18970
900.95	19114
901.069	19209
901.189	18909
901.308	18798
901.427	18597
901.546	18711
901.665	18730
901.784	18757
901.904	18608
902.023	18353
902.141	18262
902.26	18182
902.379	18235
902.498	18194
902.617	18102
902.735	18239
902.854	18190
902.973	18049
903.091	17927
903.21	17847
903.328	17878
903.446	17870
903.565	17627
903.683	17756
903.801	17509
903.919	17703
904.038	17649
904.156	17474
904.274	17562
904.392	17402
904.51	17452
904.627	17353
904.745	17471
904.863	17448
904.981	17265
905.098	17105
905.216	17147
905.334	17189
905.451	17162
905.569	17159
905.686	17231
905.803	17086
905.921	16881
906.038	16930
906.155	16889
906.272	16809
906.389	16824
906.506	16668
906.623	16729
906.74	16687
906.857	16603
906.974	16550
907.091	16683
907.208	16774
907.324	16679
907.441	16550
907.557	16375
907.674	16295
907.79	16303
907.907	16329
908.023	16367
908.139	16287
908.256	16230
908.372	16268
908.488	16211
908.604	16128
908.72	15922
908.836	15994
908.952	16006
909.068	16067
909.184	16078
909.3	15911
909.415	16025
909.531	16082
909.647	15755
909.762	15717
909.878	15663
909.993	15827
910.108	15629
910.224	15603
910.339	15739
910.454	15644
910.57	15549
910.685	15507
910.8	15663
910.915	15557
911.03	15549
911.145	15302
911.259	15287
911.374	15317
911.489	15287
911.604	15272
911.718	15154
911.833	14971
911.947	14906
912.062	14910
912.176	14967
912.291	15173
912.405	15005
912.519	15203
912.633	15252
912.748	15119
912.862	15085
912.976	14899
913.09	14720
913.204	14887
913.318	14826
913.431	14906
913.545	14948
913.659	14891
913.772	14853
913.886	14720
914	14682
914.113	14792
914.226	14765
914.34	14807
914.453	14629
914.566	14781
914.68	14560
914.793	14526
914.906	14362
915.019	14404
915.132	14267
915.245	14351
915.358	14454
915.47	14320
915.583	14347
915.696	14385
915.809	14431
915.921	14461
916.034	14313
916.146	14225
916.259	14218
916.371	14393
916.483	14298
916.595	14206
916.708	14187
916.82	14202
916.932	14077
917.044	14134
917.156	14164
917.268	13982
917.38	14054
917.491	13947
917.603	14043
917.715	14134
917.826	14123
917.938	13955
918.049	13818
918.161	13978
918.272	14115
918.384	14142
918.495	13879
918.606	13776
918.717	13757
918.828	13750
918.939	13890
919.05	13731
919.161	13753
919.272	13472
919.383	13731
919.494	13776
919.604	14012
919.715	13780
919.826	13586
919.936	13719
920.047	13784
920.157	13731
920.267	13917
920.378	13776
920.488	13605
920.598	13818
920.708	13986
920.818	13837
920.928	13906
921.038	14058
921.148	14039
921.258	13746
921.368	13597
921.477	13499
921.587	13430
921.697	13327
921.806	13487
921.916	13339
922.025	13137
922.134	13072
922.244	13099
922.353	13156
922.462	13042
922.571	12886
922.68	12776
922.789	12738
922.898	12726
923.007	12692
923.116	12806
923.224	12703
923.333	12711
923.442	12620
923.55	12521
923.659	12585
923.767	12703
923.876	12585
923.984	12589
924.092	12525
924.201	12566
924.309	12525
924.417	12597
924.525	12418
924.633	12509
924.741	13236
924.849	12285
924.956	12437
925.064	12232
925.172	12178
925.279	12197
925.387	12239
925.494	12205
925.602	12414
925.709	12224
925.816	12106
925.924	12171
926.031	12232
926.138	12159
926.245	12251
926.352	12079
926.459	12251
926.566	12133
926.673	12015
926.779	11908
926.886	11973
926.993	11813
927.099	11802
927.206	11775
927.312	11779
927.419	11828
927.525	11889
927.631	11863
927.737	11615
927.843	11657
927.95	11589
928.056	11653
928.162	11608
928.267	11672
928.373	12311
928.479	11726
928.585	11463
928.69	11566
928.796	11718
928.901	11471
929.007	11326
929.112	11486
929.218	11505
929.323	11425
929.428	11288
929.533	11448
929.638	11269
929.743	11322
929.848	11410
929.953	11364
930.058	11155
930.163	11033
930.267	11113
930.372	11197
930.477	10972
930.581	11193
930.685	11075
930.79	10949
930.894	10976
930.998	10923
931.103	11010
931.207	10683
931.311	10637
931.415	10466
931.519	10337
931.623	10318
