Data from test_V78500241_460.txt Node
Date: Fri Mar 25 15:13:03 CST 2022
User: usil
Spectrometer: V785-0024
Trigger mode: 0
Integration Time (sec): 4.000000E-1
Scans to average: 1
Nonlinearity correction enabled: false
Boxcar width: 0
Storing dark spectrum: false
XAxis mode: Wavelengths
Number of Pixels in Spectrum: 1024
>>>>>Begin Spectral Data<<<<<
801.071	27412
801.214	27237
801.356	27039
801.499	26940
801.641	26853
801.783	26857
801.926	26952
802.068	26834
802.211	26876
802.353	26682
802.496	26533
802.638	26469
802.78	26636
802.923	26522
803.065	26434
803.208	26442
803.35	26594
803.492	26625
803.635	26705
803.777	26617
803.919	26743
804.061	26842
804.204	26750
804.346	26594
804.488	26613
804.63	26587
804.773	26533
804.915	26473
805.057	26667
805.199	26655
805.341	26693
805.483	26686
805.626	26693
805.768	26613
805.91	26670
806.052	26861
806.194	26670
806.336	26925
806.478	26823
806.62	26785
806.762	26842
806.904	27001
807.046	27283
807.188	27348
807.33	27127
807.472	27150
807.614	27302
807.756	27058
807.898	26872
808.04	26921
808.182	27043
808.324	26982
808.465	27062
808.607	27241
808.749	27268
808.891	27504
809.033	27542
809.174	27485
809.316	27420
809.458	27374
809.6	27427
809.741	27450
809.883	27504
810.025	27675
810.166	27580
810.308	27728
810.45	27641
810.591	27610
810.733	27420
810.875	27435
811.016	27382
811.158	27211
811.299	27389
811.441	27614
811.582	27382
811.724	27264
811.865	27226
812.007	27397
812.148	27260
812.29	27515
812.431	27511
812.573	27648
812.714	27793
812.855	27816
812.997	27922
813.138	27998
813.279	28204
813.421	27861
813.562	27861
813.703	27690
813.845	27759
813.986	27165
814.127	27192
814.268	27074
814.41	27119
814.551	27009
814.692	26956
814.833	26971
814.974	27043
815.115	26990
815.256	26830
815.397	27150
815.539	27001
815.68	26777
815.821	26880
815.962	26796
816.103	26804
816.244	26617
816.385	26549
816.526	26594
816.666	26480
816.807	26419
816.948	26537
817.089	26396
817.23	26290
817.371	26275
817.512	26301
817.653	26343
817.793	26256
817.934	26389
818.075	26252
818.216	26423
818.356	26267
818.497	26221
818.638	26111
818.778	26084
818.919	26180
819.06	26119
819.2	26370
819.341	26256
819.481	26294
819.622	26507
819.762	26583
819.903	26545
820.043	26450
820.184	26549
820.324	26480
820.465	26575
820.605	26476
820.746	26518
820.886	26324
821.026	26453
821.167	26404
821.307	26575
821.447	26408
821.588	26191
821.728	26122
821.868	25852
822.008	25818
822.149	25856
822.289	25681
822.429	25544
822.569	25502
822.709	25514
822.849	25407
822.99	25388
823.13	25308
823.27	25251
823.41	25232
823.55	25107
823.69	25171
823.83	25206
823.97	25129
824.11	24852
824.25	24821
824.389	24875
824.529	25152
824.669	24924
824.809	25160
824.949	25156
825.089	25076
825.228	24943
825.368	24814
825.508	24829
825.648	24700
825.787	24719
825.927	24871
826.067	24757
826.206	24814
826.346	24749
826.485	24989
826.625	24776
826.765	24970
826.904	24806
827.044	24661
827.183	24623
827.323	24536
827.462	24517
827.601	24551
827.741	24585
827.88	24620
828.02	24342
828.159	24479
828.298	24585
828.437	24521
828.577	24585
828.716	24513
828.855	24327
828.994	24353
829.134	24308
829.273	24228
829.412	24258
829.551	24091
829.69	24289
829.829	24205
829.968	24220
830.107	24308
830.246	24140
830.385	24095
830.524	24106
830.663	24022
830.802	24079
830.941	23832
831.08	23904
831.219	23870
831.357	23942
831.496	24018
831.635	23912
831.774	23790
831.913	23710
832.051	23627
832.19	23600
832.329	23752
832.467	23547
832.606	23592
832.744	23471
832.883	23520
833.022	23463
833.16	23516
833.299	23619
833.437	23551
833.576	23592
833.714	23585
833.852	23516
833.991	23608
834.129	23680
834.267	23570
834.406	23722
834.544	23615
834.682	23604
834.821	23615
834.959	23623
835.097	23505
835.235	23611
835.373	23608
835.511	23592
835.65	23505
835.788	23528
835.926	23273
836.064	23315
836.202	23258
836.34	23429
836.478	23505
836.615	23554
836.753	23455
836.891	23482
837.029	23402
837.167	23334
837.305	23376
837.443	23417
837.58	23376
837.718	23455
837.856	23322
837.993	23299
838.131	23368
838.269	23140
838.406	23143
838.544	23094
838.681	23018
838.819	22862
838.956	22706
839.094	22729
839.231	22805
839.369	22946
839.506	23037
839.643	22976
839.781	22744
839.918	22641
840.055	22824
840.193	22790
840.33	22713
840.467	22694
840.604	22915
840.742	22942
840.879	22630
841.016	22565
841.153	22584
841.29	22828
841.427	22717
841.564	22694
841.701	22729
841.838	22664
841.975	22557
842.112	22531
842.249	22569
842.385	22432
842.522	22637
842.659	22531
842.796	22409
842.933	22436
843.069	22527
843.206	22398
843.343	22554
843.479	22508
843.616	22519
843.752	22246
843.889	22246
844.025	22344
844.162	22238
844.298	22432
844.435	22268
844.571	22246
844.708	22333
844.844	22261
844.98	22421
845.117	22333
845.253	22242
845.389	22162
845.525	22063
845.661	22078
845.798	22013
845.934	22036
846.07	21994
846.206	21930
846.342	22025
846.478	22006
846.614	21907
846.75	21751
846.886	21713
847.022	21686
847.158	21759
847.294	21583
847.429	21679
847.565	21682
847.701	21987
847.837	21439
847.972	21405
848.108	21466
848.244	21466
848.379	21416
848.515	21241
848.65	21268
848.786	21298
848.921	21336
849.057	21435
849.192	21329
849.328	21294
849.463	21218
849.598	21150
849.734	21119
849.869	21230
850.004	21096
850.14	21036
850.275	21154
850.41	21074
850.545	21066
850.68	21043
850.815	21146
850.95	21051
851.085	21207
851.22	21237
851.355	21104
851.49	20994
851.625	21028
851.76	21100
851.895	21036
852.03	20910
852.165	20986
852.299	21085
852.434	21146
852.569	21081
852.703	21100
852.838	21192
852.973	21192
853.107	21169
853.242	20998
853.376	20929
853.511	20750
853.645	20910
853.78	21058
853.914	20979
854.048	20811
854.183	20929
854.317	20880
854.451	21081
854.585	20891
854.72	20975
854.854	20982
854.988	20876
855.122	20925
855.256	20746
855.39	20914
855.524	20998
855.658	20941
855.792	20861
855.926	20914
856.06	20952
856.194	20963
856.327	20960
856.461	20899
856.595	20727
856.729	20891
856.862	20971
856.996	20883
857.13	20891
857.263	20944
857.397	21013
857.53	20731
857.664	20948
857.797	20967
857.931	20998
858.064	20979
858.197	20975
858.331	20826
858.464	20804
858.597	20796
858.731	20960
858.864	20823
858.997	20864
859.13	20880
859.263	20811
859.396	20914
859.529	20872
859.662	20914
859.795	20880
859.928	20792
860.061	20967
860.194	21146
860.327	20914
860.46	20804
860.592	20998
860.725	21119
860.858	21085
860.99	20895
861.123	20792
861.256	20796
861.388	20872
861.521	21583
861.653	20686
861.786	20651
861.918	20686
862.05	20731
862.183	20880
862.315	20857
862.447	20769
862.58	20834
862.712	20617
862.844	20594
862.976	20674
863.108	20781
863.24	21096
863.372	20560
863.504	20549
863.636	20594
863.768	20575
863.9	20564
864.032	20465
864.164	20705
864.296	20629
864.428	20667
864.559	20674
864.691	20644
864.823	20625
864.954	20663
865.086	20571
865.217	20480
865.349	20415
865.48	20522
865.612	20549
865.743	20640
865.875	20549
866.006	20415
866.137	20431
866.269	20518
866.4	20514
866.531	20480
866.662	20434
866.793	20495
866.924	20404
867.055	20400
867.186	20381
867.317	20461
867.448	20385
867.579	20465
867.71	20385
867.841	20495
867.972	20423
868.103	20370
868.233	20400
868.364	20434
868.495	20431
868.625	20708
868.756	20861
868.886	20663
869.017	20651
869.147	20731
869.278	20735
869.408	20769
869.539	20655
869.669	20693
869.799	20762
869.929	20826
870.06	20758
870.19	21081
870.32	20887
870.45	20982
870.58	21127
870.71	21157
870.84	21154
870.97	21218
871.1	21013
871.23	21165
871.36	21264
871.489	21207
871.619	21370
871.749	21188
871.879	21359
872.008	21393
872.138	21207
872.267	21359
872.397	21142
872.526	21188
872.656	21085
872.785	21131
872.915	21313
873.044	21233
873.173	21321
873.303	21344
873.432	21374
873.561	21378
873.69	21336
873.819	21302
873.948	21287
874.077	21332
874.206	21207
874.335	21260
874.464	21306
874.593	21580
874.722	21515
874.851	21614
874.979	21568
875.108	21469
875.237	21603
875.365	21348
875.494	21492
875.623	21667
875.751	21405
875.88	21561
876.008	21720
876.136	21793
876.265	21911
876.393	21964
876.521	22021
876.65	21903
876.778	21835
876.906	21884
877.034	21861
877.162	21926
877.29	21842
877.418	21804
877.546	21842
877.674	21884
877.802	21808
877.93	21922
878.058	21899
878.185	21759
878.313	21869
878.441	21713
878.568	21823
878.696	21797
878.824	21930
878.951	21915
879.079	22090
879.206	22200
879.333	22093
879.461	21930
879.588	21953
879.715	22059
879.842	22112
879.97	22097
880.097	21789
880.224	21709
880.351	21762
880.478	21736
880.605	21785
880.732	21850
880.859	22051
880.986	21663
881.112	21648
881.239	21564
881.366	21545
881.493	21348
881.619	21180
881.746	21401
881.872	21332
881.999	21302
882.125	21222
882.252	21424
882.378	21408
882.505	21287
882.631	21161
882.757	21032
882.883	21123
883.01	21077
883.136	20895
883.262	20906
883.388	20754
883.514	21043
883.64	21146
883.766	20834
883.892	20762
884.018	20746
884.143	20944
884.269	20998
884.395	20739
884.52	20594
884.646	20636
884.772	20533
884.897	20583
885.023	20503
885.148	20739
885.274	20735
885.399	20762
885.524	20621
885.65	20621
885.775	20682
885.9	20594
886.025	20663
886.15	20720
886.275	20640
886.4	20511
886.525	20564
886.65	20492
886.775	20526
886.9	20815
887.025	20830
887.149	20617
887.274	20511
887.399	20393
887.523	20385
887.648	20404
887.773	20187
887.897	20556
888.021	20484
888.146	20290
888.27	20492
888.395	20503
888.519	20480
888.643	20461
888.767	20396
888.891	20351
889.015	20240
889.139	20286
889.263	20229
889.387	20324
889.511	20412
889.635	20183
889.759	20199
889.883	20164
890.006	20252
890.13	20244
890.254	20168
890.377	20115
890.501	20005
890.624	19879
890.748	19909
890.871	19837
890.995	19719
891.118	19662
891.241	19731
891.364	19845
891.488	19883
891.611	19860
891.734	19742
891.857	19811
891.98	19750
892.103	19909
892.226	19742
892.349	19651
892.471	19556
892.594	19677
892.717	19708
892.839	19708
892.962	19830
893.085	19658
893.207	19632
893.33	19540
893.452	19628
893.575	19761
893.697	19685
893.819	19894
893.941	19890
894.064	19856
894.186	19651
894.308	19616
894.43	19784
894.552	19761
894.674	19715
894.796	19559
894.918	19681
895.04	19662
895.161	19738
895.283	19753
895.405	19559
895.526	19662
895.648	19719
895.769	19639
895.891	19750
896.012	19780
896.134	19738
896.255	19700
896.376	19639
896.498	19647
896.619	19746
896.74	19658
896.861	19742
896.982	20088
897.103	20221
897.224	19944
897.345	19947
897.466	19951
897.587	19849
897.708	20107
897.828	19883
897.949	19750
898.07	19708
898.19	19989
898.311	19986
898.431	20005
898.552	19925
898.672	19955
898.792	20073
898.913	19955
899.033	19784
899.153	19685
899.273	19586
899.393	19624
899.513	19734
899.633	19628
899.753	19693
899.873	19639
899.993	19685
900.113	19685
900.232	19544
900.352	19590
900.472	19594
900.591	19365
900.711	19525
900.83	19453
900.95	19586
901.069	19502
901.189	19331
901.308	19152
901.427	18920
901.546	19050
901.665	19046
901.784	19076
901.904	18867
902.023	18935
902.141	18673
902.26	18555
902.379	18616
902.498	18517
902.617	18555
902.735	18627
902.854	18528
902.973	18456
903.091	18323
903.21	18213
903.328	18224
903.446	18182
903.565	18098
903.683	18068
903.801	17969
903.919	17984
904.038	18034
904.156	17870
904.274	17969
904.392	17878
904.51	17741
904.627	17863
904.745	17870
904.863	17916
904.981	17516
905.098	17463
905.216	17486
905.334	17455
905.451	17535
905.569	17463
905.686	17558
905.803	17528
905.921	17277
906.038	17364
906.155	17372
906.272	17140
906.389	17261
906.506	17121
906.623	17109
906.74	16991
906.857	16866
906.974	17010
907.091	17121
907.208	17090
907.324	17014
907.441	16995
907.557	16885
907.674	16752
907.79	16577
907.907	16759
908.023	16858
908.139	16790
908.256	16603
908.372	16672
908.488	16577
908.604	16622
908.72	16428
908.836	16432
908.952	16474
909.068	16500
909.184	16588
909.3	16459
909.415	16474
909.531	16592
909.647	16284
909.762	16150
909.878	16238
909.993	16173
910.108	16204
910.224	16059
910.339	16196
910.454	16150
910.57	15983
910.685	15979
910.8	16226
910.915	16063
911.03	16059
911.145	15831
911.259	15850
911.374	15812
911.489	15793
911.604	15701
911.718	15450
911.833	15500
911.947	15405
912.062	15351
912.176	15580
912.291	15511
912.405	15469
912.519	15698
912.633	15800
912.748	15625
912.862	15450
912.976	15348
913.09	15275
913.204	15302
913.318	15374
913.431	15428
913.545	15386
913.659	15504
913.772	15188
913.886	15157
914	15188
914.113	15279
914.226	15351
914.34	15165
914.453	15108
914.566	15180
914.68	14982
914.793	15001
914.906	14941
915.019	14826
915.132	14758
915.245	14788
915.358	14883
915.47	14815
915.583	14868
915.696	14830
915.809	14845
915.921	14925
916.034	14727
916.146	14670
916.259	14674
916.371	14781
916.483	14762
916.595	14583
916.708	14682
916.82	14644
916.932	14613
917.044	14545
917.156	14484
917.268	14427
917.38	14450
917.491	14457
917.603	14465
917.715	14541
917.826	14476
917.938	14370
918.049	14252
918.161	14419
918.272	14564
918.384	14511
918.495	14366
918.606	14286
918.717	14290
918.828	14218
918.939	14244
919.05	14073
919.161	14195
919.272	13944
919.383	14107
919.494	14191
919.604	14309
919.715	14164
919.826	14088
919.936	14168
920.047	14168
920.157	14218
920.267	14385
920.378	14126
920.488	14123
920.598	14320
920.708	14442
920.818	14237
920.928	14347
921.038	14473
921.148	14537
921.258	14168
921.368	14027
921.477	13928
921.587	13814
921.697	13769
921.806	13936
921.916	13906
922.025	13651
922.134	13594
922.244	13544
922.353	13609
922.462	13514
922.571	13396
922.68	13236
922.789	13301
922.898	13198
923.007	13122
923.116	13217
923.224	13251
923.333	13126
923.442	13126
923.55	13053
923.659	13072
923.767	13065
923.876	13080
923.984	12985
924.092	12989
924.201	12951
924.309	12939
924.417	12970
924.525	12920
924.633	12939
924.741	13894
924.849	12703
924.956	12932
925.064	12715
925.172	12715
925.279	12662
925.387	12688
925.494	12715
925.602	12753
925.709	12741
925.816	12612
925.924	12585
926.031	12669
926.138	12547
926.245	12669
926.352	12494
926.459	12669
926.566	12646
926.673	12555
926.779	12426
926.886	12395
926.993	12300
927.099	12239
927.206	12262
927.312	12205
927.419	12254
927.525	12194
927.631	12262
927.737	12133
927.843	12129
927.95	11935
928.056	11996
928.162	12152
928.267	12182
928.373	12726
928.479	12178
928.585	11954
928.69	12011
928.796	12045
928.901	11874
929.007	11779
929.112	11935
929.218	11931
929.323	11893
929.428	11748
929.533	11988
929.638	11733
929.743	11764
929.848	11764
929.953	11874
930.058	11570
930.163	11482
930.267	11520
930.372	11627
930.477	11478
930.581	11703
930.685	11512
930.79	11311
930.894	11379
930.998	11364
931.103	11425
931.207	11117
931.311	11014
931.415	10965
931.519	10805
931.623	10710
