Data from test_V78500241_1648.txt Node
Date: Fri Mar 25 15:21:19 CST 2022
User: usil
Spectrometer: V785-0024
Trigger mode: 0
Integration Time (sec): 4.000000E-1
Scans to average: 1
Nonlinearity correction enabled: false
Boxcar width: 0
Storing dark spectrum: false
XAxis mode: Wavelengths
Number of Pixels in Spectrum: 1024
>>>>>Begin Spectral Data<<<<<
801.071	27911
801.214	27846
801.356	27850
801.499	27622
801.641	27401
801.783	27370
801.926	27526
802.068	27416
802.211	27412
802.353	27268
802.496	27184
802.638	27123
802.78	27100
802.923	27085
803.065	26948
803.208	27005
803.35	27017
803.492	27188
803.635	27260
803.777	27096
803.919	27157
804.061	27492
804.204	27237
804.346	27096
804.488	27264
804.63	27237
804.773	27055
804.915	27306
805.057	27427
805.199	27222
805.341	27412
805.483	27424
805.626	27393
805.768	27207
805.91	27340
806.052	27401
806.194	27260
806.336	27629
806.478	27412
806.62	27306
806.762	27515
806.904	27614
807.046	27831
807.188	27774
807.33	27789
807.472	27819
807.614	27766
807.756	27766
807.898	27682
808.04	27564
808.182	27538
808.324	27606
808.465	27827
808.607	27816
808.749	28070
808.891	27994
809.033	28093
809.174	27972
809.316	28002
809.458	27854
809.6	27968
809.741	28067
809.883	28120
810.025	28310
810.166	28230
810.308	28276
810.45	28120
810.591	28067
810.733	27979
810.875	27880
811.016	27842
811.158	27876
811.299	28196
811.441	28150
811.582	28219
811.724	27914
811.865	27937
812.007	28070
812.148	27922
812.29	27922
812.431	28295
812.573	28306
812.714	28447
812.855	28413
812.997	28634
813.138	28752
813.279	28618
813.421	28538
813.562	28474
813.703	28459
813.845	28226
813.986	28025
814.127	27869
814.268	27823
814.41	27694
814.551	27717
814.692	27755
814.833	27591
814.974	27656
815.115	27766
815.256	27389
815.397	27542
815.539	27591
815.68	27389
815.821	27424
815.962	27644
816.103	27431
816.244	27336
816.385	27188
816.526	27294
816.666	27165
816.807	26933
816.948	27127
817.089	27100
817.23	27024
817.371	26994
817.512	26979
817.653	26906
817.793	27039
817.934	27077
818.075	27036
818.216	26902
818.356	26861
818.497	26674
818.638	26712
818.778	26762
818.919	26796
819.06	26906
819.2	26872
819.341	27024
819.481	27062
819.622	27070
819.762	27344
819.903	27066
820.043	27207
820.184	27093
820.324	27074
820.465	27089
820.605	27096
820.746	27089
820.886	26910
821.026	27157
821.167	27081
821.307	27184
821.447	26998
821.588	26838
821.728	26731
821.868	26598
822.008	26457
822.149	26530
822.289	26495
822.429	26263
822.569	26103
822.709	26058
822.849	25970
822.99	25852
823.13	25997
823.27	25951
823.41	25860
823.55	25674
823.69	25822
823.83	25822
823.97	25681
824.11	25666
824.25	25441
824.389	25548
824.529	25609
824.669	25578
824.809	25731
824.949	25647
825.089	25567
825.228	25499
825.368	25499
825.508	25441
825.648	25422
825.787	25544
825.927	25544
826.067	25381
826.206	25445
826.346	25586
826.485	25514
826.625	25468
826.765	25495
826.904	25529
827.044	25244
827.183	25312
827.323	25152
827.462	25114
827.601	25148
827.741	25316
827.88	25164
828.02	25095
828.159	25202
828.298	25259
828.437	25133
828.577	25168
828.716	25187
828.855	25084
828.994	24943
829.134	24943
829.273	25061
829.412	24973
829.551	24772
829.69	24901
829.829	24970
829.968	24920
830.107	24996
830.246	24837
830.385	24825
830.524	24814
830.663	24684
830.802	24639
830.941	24505
831.08	24407
831.219	24654
831.357	24627
831.496	24730
831.635	24467
831.774	24448
831.913	24311
832.051	24369
832.19	24213
832.329	24289
832.467	24228
832.606	24148
832.744	23999
832.883	24110
833.022	24064
833.16	24144
833.299	24247
833.437	24232
833.576	24155
833.714	24304
833.852	24213
833.991	24319
834.129	24369
834.267	24197
834.406	24270
834.544	24213
834.682	24114
834.821	24155
834.959	24251
835.097	24194
835.235	24247
835.373	24296
835.511	24049
835.65	24064
835.788	23954
835.926	24060
836.064	23984
836.202	23893
836.34	24045
836.478	24136
836.615	24053
836.753	23961
836.891	24057
837.029	23935
837.167	23942
837.305	24064
837.443	23855
837.58	24003
837.718	24015
837.856	23866
837.993	23817
838.131	23809
838.269	23691
838.406	23748
838.544	23741
838.681	23604
838.819	23554
838.956	23436
839.094	23421
839.231	23341
839.369	23535
839.506	23786
839.643	23528
839.781	23395
839.918	23349
840.055	23315
840.193	23193
840.33	23334
840.467	23212
840.604	23364
840.742	23501
840.879	23143
841.016	23181
841.153	23166
841.29	23337
841.427	23220
841.564	23322
841.701	23273
841.838	23242
841.975	23102
842.112	23105
842.249	23136
842.385	23041
842.522	23242
842.659	23124
842.796	23090
842.933	22930
843.069	22866
843.206	22942
843.343	23067
843.479	23018
843.616	23048
843.752	22839
843.889	22854
844.025	22869
844.162	22812
844.298	22923
844.435	22812
844.571	22679
844.708	22805
844.844	22927
844.98	22889
845.117	22820
845.253	22710
845.389	22592
845.525	22713
845.661	22645
845.798	22535
845.934	22641
846.07	22519
846.206	22519
846.342	22557
846.478	22542
846.614	22265
846.75	22173
846.886	22230
847.022	22352
847.158	22318
847.294	22188
847.429	22284
847.565	22268
847.701	22440
847.837	21960
847.972	22082
848.108	22166
848.244	22105
848.379	21979
848.515	21838
848.65	21823
848.786	21842
848.921	21816
849.057	21953
849.192	21842
849.328	21766
849.463	21884
849.598	21808
849.734	21705
849.869	21747
850.004	21660
850.14	21637
850.275	21648
850.41	21599
850.545	21622
850.68	21679
850.815	21713
850.95	21618
851.085	21922
851.22	21720
851.355	21709
851.49	21641
851.625	21519
851.76	21447
851.895	21595
852.03	21428
852.165	21652
852.299	21717
852.434	21690
852.569	21644
852.703	21591
852.838	21667
852.973	21759
853.107	21728
853.242	21637
853.376	21549
853.511	21405
853.645	21454
853.78	21469
853.914	21439
854.048	21355
854.183	21477
854.317	21397
854.451	21610
854.585	21420
854.72	21443
854.854	21401
854.988	21359
855.122	21401
855.256	21332
855.39	21500
855.524	21538
855.658	21492
855.792	21473
855.926	21416
856.06	21515
856.194	21587
856.327	21450
856.461	21466
856.595	21355
856.729	21450
856.862	21500
856.996	21454
857.13	21477
857.263	21599
857.397	21580
857.53	21549
857.664	21389
857.797	21485
857.931	21564
858.064	21477
858.197	21504
858.331	21405
858.464	21405
858.597	21355
858.731	21500
858.864	21420
858.997	21332
859.13	21367
859.263	21439
859.396	21519
859.529	21428
859.662	21317
859.795	21351
859.928	21424
860.061	21648
860.194	21580
860.327	21500
860.46	21526
860.592	21538
860.725	21591
860.858	21511
860.99	21538
861.123	21321
861.256	21325
861.388	21424
861.521	22074
861.653	21256
861.786	21100
861.918	21218
862.05	21264
862.183	21332
862.315	21313
862.447	21477
862.58	21378
862.712	21237
862.844	21173
862.976	21218
863.108	21264
863.24	21374
863.372	21070
863.504	21218
863.636	21089
863.768	21211
863.9	21112
864.032	20971
864.164	21154
864.296	21157
864.428	21325
864.559	21188
864.691	21313
864.823	21085
864.954	21169
865.086	21112
865.217	21070
865.349	21005
865.48	21051
865.612	21100
865.743	21226
865.875	21116
866.006	20986
866.137	20956
866.269	20990
866.4	21039
866.531	21043
866.662	21001
866.793	20998
866.924	20971
867.055	21123
867.186	21055
867.317	20944
867.448	20880
867.579	21005
867.71	20876
867.841	20868
867.972	20929
868.103	21024
868.233	21043
868.364	20937
868.495	21116
868.625	21173
868.756	21302
868.886	21150
869.017	21173
869.147	21310
869.278	21256
869.408	21146
869.539	21272
869.669	21207
869.799	21226
869.929	21393
870.06	21249
870.19	21500
870.32	21393
870.45	21485
870.58	21599
870.71	21587
870.84	21736
870.97	21595
871.1	21732
871.23	21785
871.36	21724
871.489	21770
871.619	21785
871.749	21728
871.879	21827
872.008	21960
872.138	21941
872.267	21755
872.397	21682
872.526	21595
872.656	21610
872.785	21679
872.915	21755
873.044	21949
873.173	21804
873.303	21907
873.432	21850
873.561	21991
873.69	21865
873.819	21846
873.948	21918
874.077	21800
874.206	21766
874.335	21804
874.464	21922
874.593	21937
874.722	22032
874.851	21945
874.979	22059
875.108	21987
875.237	21994
875.365	21972
875.494	21934
875.623	22040
875.751	22048
875.88	21956
876.008	22097
876.136	22333
876.265	22421
876.393	22592
876.521	22516
876.65	22402
876.778	22474
876.906	22405
877.034	22481
877.162	22367
877.29	22295
877.418	22314
877.546	22470
877.674	22325
877.802	22280
877.93	22249
878.058	22402
878.185	22181
878.313	22440
878.441	22402
878.568	22185
878.696	22303
878.824	22402
878.951	22455
879.079	22470
879.206	22611
879.333	22504
879.461	22424
879.588	22538
879.715	22527
879.842	22698
879.97	22424
880.097	22242
880.224	22196
880.351	22261
880.478	22207
880.605	22177
880.732	22322
880.859	22523
880.986	22211
881.112	22211
881.239	22128
881.366	21907
881.493	21884
881.619	21888
881.746	21941
881.872	21812
881.999	21713
882.125	21720
882.252	21736
882.378	21701
882.505	21793
882.631	21698
882.757	21488
882.883	21530
883.01	21587
883.136	21431
883.262	21458
883.388	21283
883.514	21504
883.64	21447
883.766	21389
883.892	21260
884.018	21370
884.143	21412
884.269	21553
884.395	21165
884.52	21066
884.646	21100
884.772	21017
884.897	21009
885.023	21173
885.148	21058
885.274	21279
885.399	21203
885.524	21131
885.65	20952
885.775	21157
885.9	21108
886.025	21294
886.15	21249
886.275	21127
886.4	20982
886.525	21108
886.65	21070
886.775	21093
886.9	21112
887.025	21435
887.149	21195
887.274	20861
887.399	20918
887.523	20823
887.648	20830
887.773	20754
887.897	20895
888.021	20956
888.146	20914
888.27	21070
888.395	20956
888.519	20887
888.643	20880
888.767	21020
888.891	20796
889.015	20697
889.139	20804
889.263	20678
889.387	20724
889.511	20880
889.635	20872
889.759	20682
889.883	20861
890.006	20735
890.13	20906
890.254	20659
890.377	20564
890.501	20473
890.624	20393
890.748	20469
890.871	20278
890.995	20195
891.118	20271
891.241	20381
891.364	20275
891.488	20339
891.611	20237
891.734	20202
891.857	20317
891.98	20256
892.103	20317
892.226	20237
892.349	20172
892.471	20130
892.594	20115
892.717	20187
892.839	20103
892.962	20145
893.085	20172
893.207	20161
893.33	20084
893.452	20111
893.575	20168
893.697	20237
893.819	20271
893.941	20355
894.064	20282
894.186	20103
894.308	20153
894.43	20092
894.552	20225
894.674	20275
894.796	20073
894.918	20096
895.04	20138
895.161	20199
895.283	20271
895.405	20024
895.526	20164
895.648	20187
895.769	20130
895.891	20218
896.012	20218
896.134	20210
896.255	20130
896.376	20191
896.498	20214
896.619	20282
896.74	20122
896.861	20244
896.982	20530
897.103	20556
897.224	20454
897.345	20275
897.466	20339
897.587	20355
897.708	20484
897.828	20488
897.949	20332
898.07	20256
898.19	20343
898.311	20381
898.431	20248
898.552	20347
898.672	20457
898.792	20454
898.913	20324
899.033	20362
899.153	20248
899.273	20020
899.393	20157
899.513	20149
899.633	20145
899.753	20092
899.873	20016
899.993	20298
900.113	20008
900.232	20058
900.352	20065
900.472	19898
900.591	19887
900.711	20058
900.83	19974
900.95	19932
901.069	19928
901.189	19811
901.308	19578
901.427	19411
901.546	19609
901.665	19575
901.784	19426
901.904	19274
902.023	19194
902.141	19000
902.26	19107
902.379	18985
902.498	18932
902.617	18973
902.735	19000
902.854	18924
902.973	18989
903.091	18646
903.21	18700
903.328	18597
903.446	18639
903.565	18414
903.683	18494
903.801	18467
903.919	18460
904.038	18467
904.156	18277
904.274	18380
904.392	18266
904.51	18266
904.627	18182
904.745	18228
904.863	18330
904.981	17965
905.098	17984
905.216	17904
905.334	18003
905.451	17901
905.569	17832
905.686	18007
905.803	17882
905.921	17741
906.038	17790
906.155	17691
906.272	17600
906.389	17532
906.506	17493
906.623	17528
906.74	17497
906.857	17379
906.974	17330
907.091	17512
907.208	17520
907.324	17497
907.441	17360
907.557	17181
907.674	17208
907.79	17140
907.907	17102
908.023	17098
908.139	17223
908.256	17056
908.372	17060
908.488	17052
908.604	16946
908.72	16896
908.836	16881
908.952	16900
909.068	16862
909.184	16927
909.3	16759
909.415	17025
909.531	16923
909.647	16622
909.762	16641
909.878	16561
909.993	16679
910.108	16603
910.224	16508
910.339	16561
910.454	16516
910.57	16421
910.685	16367
910.8	16550
910.915	16504
911.03	16360
911.145	16223
911.259	16147
911.374	16177
911.489	16101
911.604	16090
911.718	15918
911.833	15975
911.947	15762
912.062	15739
912.176	15949
912.291	15895
912.405	15907
912.519	16093
912.633	16105
912.748	16021
912.862	15831
912.976	15671
913.09	15595
913.204	15732
913.318	15690
913.431	15846
913.545	15827
913.659	15846
913.772	15618
913.886	15698
914	15439
914.113	15549
914.226	15633
914.34	15538
914.453	15370
914.566	15534
914.68	15447
914.793	15526
914.906	15226
915.019	15142
915.132	15017
915.245	15169
915.358	15173
915.47	15108
915.583	15138
915.696	15165
915.809	15154
915.921	15192
916.034	15119
916.146	15123
916.259	15013
916.371	15066
916.483	15051
916.595	15013
916.708	14918
916.82	14937
916.932	14929
917.044	14937
917.156	14838
917.268	14777
917.38	14910
917.491	14640
917.603	14750
917.715	14918
917.826	14868
917.938	14682
918.049	14648
918.161	14682
918.272	14895
918.384	14815
918.495	14754
918.606	14583
918.717	14545
918.828	14556
918.939	14583
919.05	14514
919.161	14537
919.272	14290
919.383	14404
919.494	14651
919.604	14724
919.715	14507
919.826	14461
919.936	14598
920.047	14625
920.157	14495
920.267	14629
920.378	14514
920.488	14488
920.598	14705
920.708	14853
920.818	14682
920.928	14667
921.038	14754
921.148	14731
921.258	14530
921.368	14339
921.477	14259
921.587	14309
921.697	14111
921.806	14191
921.916	14138
922.025	13902
922.134	13951
922.244	13837
922.353	13970
922.462	13852
922.571	13689
922.68	13567
922.789	13533
922.898	13540
923.007	13460
923.116	13662
923.224	13563
923.333	13483
923.442	13312
923.55	13365
923.659	13411
923.767	13396
923.876	13327
923.984	13396
924.092	13259
924.201	13263
924.309	13266
924.417	13312
924.525	13209
924.633	13240
924.741	14210
924.849	12966
924.956	13164
925.064	13091
925.172	12977
925.279	12935
925.387	13000
925.494	13015
925.602	13088
925.709	13061
925.816	12909
925.924	12806
926.031	12989
926.138	12897
926.245	12783
926.352	12859
926.459	12958
926.566	13046
926.673	12859
926.779	12681
926.886	12669
926.993	12490
927.099	12551
927.206	12445
927.312	12460
927.419	12551
927.525	12479
927.631	12448
927.737	12384
927.843	12262
927.95	12258
928.056	12266
928.162	12281
928.267	12410
928.373	13023
928.479	12422
928.585	12209
928.69	12327
928.796	12315
928.901	12197
929.007	12064
929.112	12159
929.218	12178
929.323	12110
929.428	12091
929.533	12319
929.638	11984
929.743	11992
929.848	12022
929.953	12068
930.058	11859
930.163	11790
930.267	11729
930.372	11885
930.477	11703
930.581	11992
930.685	11824
930.79	11611
930.894	11691
930.998	11589
931.103	11729
931.207	11535
931.311	11231
931.415	11284
931.519	10957
931.623	10972
