Data from test_V78500241_819.txt Node
Date: Fri Mar 25 15:15:33 CST 2022
User: usil
Spectrometer: V785-0024
Trigger mode: 0
Integration Time (sec): 4.000000E-1
Scans to average: 1
Nonlinearity correction enabled: false
Boxcar width: 0
Storing dark spectrum: false
XAxis mode: Wavelengths
Number of Pixels in Spectrum: 1024
>>>>>Begin Spectral Data<<<<<
801.071	28360
801.214	28196
801.356	28105
801.499	27998
801.641	27911
801.783	27766
801.926	27930
802.068	27892
802.211	27816
802.353	27751
802.496	27454
802.638	27526
802.78	27549
802.923	27557
803.065	27561
803.208	27576
803.35	27519
803.492	27583
803.635	27705
803.777	27644
803.919	27694
804.061	28002
804.204	27728
804.346	27838
804.488	27648
804.63	27720
804.773	27564
804.915	27751
805.057	27865
805.199	27747
805.341	27781
805.483	27888
805.626	27880
805.768	27797
805.91	27770
806.052	27854
806.194	27930
806.336	28078
806.478	27827
806.62	27869
806.762	28055
806.904	27914
807.046	28405
807.188	28226
807.33	28382
807.472	28318
807.614	28200
807.756	28295
807.898	28226
808.04	28154
808.182	28082
808.324	28204
808.465	28192
808.607	28306
808.749	28504
808.891	28557
809.033	28748
809.174	28668
809.316	28584
809.458	28382
809.6	28508
809.741	28710
809.883	28611
810.025	28892
810.166	28805
810.308	28873
810.45	28797
810.591	28881
810.733	28592
810.875	28554
811.016	28508
811.158	28531
811.299	28577
811.441	28637
811.582	28649
811.724	28630
811.865	28512
812.007	28413
812.148	28527
812.29	28489
812.431	28603
812.573	28816
812.714	28892
812.855	29041
812.997	29200
813.138	29353
813.279	29296
813.421	28919
813.562	29193
813.703	28923
813.845	28710
813.986	28554
814.127	28382
814.268	28417
814.41	28299
814.551	28284
814.692	28299
814.833	28196
814.974	28185
815.115	28341
815.256	27998
815.397	28070
815.539	28268
815.68	27983
815.821	28169
815.962	28067
816.103	28070
816.244	27884
816.385	27827
816.526	27778
816.666	27781
816.807	27549
816.948	27599
817.089	27755
817.23	27663
817.371	27648
817.512	27717
817.653	27690
817.793	27488
817.934	27667
818.075	27694
818.216	27603
818.356	27568
818.497	27481
818.638	27256
818.778	27363
818.919	27370
819.06	27412
819.2	27420
819.341	27690
819.481	27515
819.622	27705
819.762	28055
819.903	27922
820.043	27838
820.184	27656
820.324	27633
820.465	27854
820.605	27580
820.746	27755
820.886	27557
821.026	27644
821.167	27728
821.307	27728
821.447	27660
821.588	27424
821.728	27511
821.868	27157
822.008	27116
822.149	27005
822.289	26956
822.429	26853
822.569	26804
822.709	26686
822.849	26636
822.99	26670
823.13	26495
823.27	26568
823.41	26336
823.55	26408
823.69	26347
823.83	26419
823.97	26286
824.11	26168
824.25	26187
824.389	26122
824.529	26339
824.669	26187
824.809	26473
824.949	26256
825.089	26282
825.228	26180
825.368	26088
825.508	26096
825.648	26149
825.787	26221
825.927	26218
826.067	26100
826.206	26149
826.346	25932
826.485	26153
826.625	26229
826.765	26206
826.904	26111
827.044	25833
827.183	25955
827.323	25822
827.462	25890
827.601	25849
827.741	25830
827.88	25845
828.02	25655
828.159	25765
828.298	25955
828.437	25959
828.577	25871
828.716	25860
828.855	25734
828.994	25609
829.134	25616
829.273	25521
829.412	25559
829.551	25495
829.69	25430
829.829	25339
829.968	25639
830.107	25639
830.246	25419
830.385	25502
830.524	25438
830.663	25301
830.802	25202
830.941	25072
831.08	25217
831.219	25209
831.357	25225
831.496	25308
831.635	25198
831.774	25027
831.913	25069
832.051	24905
832.19	24890
832.329	25023
832.467	24707
832.606	24768
832.744	24795
832.883	24730
833.022	24703
833.16	24848
833.299	24886
833.437	24791
833.576	24810
833.714	24848
833.852	24852
833.991	24901
834.129	24909
834.267	24878
834.406	24886
834.544	24882
834.682	24901
834.821	24913
834.959	24954
835.097	24741
835.235	24825
835.373	24833
835.511	24943
835.65	24673
835.788	24673
835.926	24551
836.064	24559
836.202	24410
836.34	24486
836.478	24677
836.615	24528
836.753	24623
836.891	24768
837.029	24620
837.167	24665
837.305	24399
837.443	24589
837.58	24513
837.718	24521
837.856	24563
837.993	24525
838.131	24601
838.269	24433
838.406	24471
838.544	24464
838.681	24174
838.819	24140
838.956	23897
839.094	23912
839.231	23950
839.369	24114
839.506	24304
839.643	24292
839.781	24015
839.918	23954
840.055	24041
840.193	23802
840.33	23794
840.467	23954
840.604	23859
840.742	24300
840.879	23676
841.016	23847
841.153	23745
841.29	24022
841.427	23908
841.564	23980
841.701	23851
841.838	23828
841.975	23760
842.112	23767
842.249	23733
842.385	23691
842.522	23885
842.659	23771
842.796	23627
842.933	23687
843.069	23627
843.206	23562
843.343	23722
843.479	23687
843.616	23543
843.752	23341
843.889	23490
844.025	23581
844.162	23490
844.298	23417
844.435	23478
844.571	23337
844.708	23528
844.844	23539
844.98	23615
845.117	23402
845.253	23337
845.389	23193
845.525	23368
845.661	23246
845.798	23071
845.934	23265
846.07	23102
846.206	23178
846.342	23269
846.478	23109
846.614	23018
846.75	22725
846.886	22801
847.022	22953
847.158	22915
847.294	22866
847.429	22889
847.565	22717
847.701	23128
847.837	22603
847.972	22656
848.108	22637
848.244	22698
848.379	22649
848.515	22440
848.65	22421
848.786	22546
848.921	22546
849.057	22527
849.192	22573
849.328	22500
849.463	22402
849.598	22409
849.734	22402
849.869	22261
850.004	22382
850.14	22291
850.275	22219
850.41	22166
850.545	22310
850.68	22211
850.815	22337
850.95	22158
851.085	22489
851.22	22268
851.355	22158
851.49	22230
851.625	22116
851.76	22112
851.895	22116
852.03	22181
852.165	22284
852.299	22234
852.434	22303
852.569	22200
852.703	22325
852.838	22310
852.973	22402
853.107	22344
853.242	22188
853.376	22006
853.511	21934
853.645	22051
853.78	22181
853.914	22154
854.048	22097
854.183	21975
854.317	22078
854.451	22219
854.585	22036
854.72	22059
854.854	22059
854.988	21964
855.122	22135
855.256	21998
855.39	22074
855.524	22036
855.658	21987
855.792	22048
855.926	22090
856.06	22006
856.194	22139
856.327	21998
856.461	21964
856.595	22002
856.729	22013
856.862	22040
856.996	22055
857.13	22090
857.263	22101
857.397	22109
857.53	22074
857.664	22059
857.797	22147
857.931	22078
858.064	22090
858.197	22211
858.331	22097
858.464	21972
858.597	21831
858.731	21873
858.864	21949
858.997	22101
859.13	21953
859.263	22128
859.396	22078
859.529	21979
859.662	22131
859.795	21960
859.928	22032
860.061	22226
860.194	22211
860.327	22017
860.46	22093
860.592	22242
860.725	22093
860.858	22188
860.99	22070
861.123	21949
861.256	21991
861.388	22101
861.521	22915
861.653	21899
861.786	21876
861.918	21903
862.05	21975
862.183	21937
862.315	22078
862.447	22040
862.58	21953
862.712	21686
862.844	21629
862.976	21838
863.108	21827
863.24	22166
863.372	21679
863.504	21720
863.636	21736
863.768	21728
863.9	21800
864.032	21675
864.164	21736
864.296	21690
864.428	21823
864.559	21831
864.691	21759
864.823	21766
864.954	21808
865.086	21713
865.217	21698
865.349	21545
865.48	21656
865.612	21519
865.743	21694
865.875	21755
866.006	21633
866.137	21572
866.269	21629
866.4	21599
866.531	21469
866.662	21416
866.793	21545
866.924	21618
867.055	21568
867.186	21534
867.317	21488
867.448	21481
867.579	21511
867.71	21481
867.841	21431
867.972	21466
868.103	21580
868.233	21629
868.364	21511
868.495	21580
868.625	21759
868.756	21884
868.886	21717
869.017	21660
869.147	21895
869.278	21941
869.408	21865
869.539	21781
869.669	21861
869.799	21755
869.929	21892
870.06	21827
870.19	22093
870.32	22101
870.45	22112
870.58	22280
870.71	22246
870.84	22173
870.97	22219
871.1	22101
871.23	22382
871.36	22219
871.489	22276
871.619	22314
871.749	22527
871.879	22310
872.008	22462
872.138	22421
872.267	22386
872.397	22162
872.526	22158
872.656	22234
872.785	22318
872.915	22386
873.044	22451
873.173	22367
873.303	22481
873.432	22402
873.561	22485
873.69	22405
873.819	22432
873.948	22478
874.077	22580
874.206	22325
874.335	22390
874.464	22436
874.593	22592
874.722	22603
874.851	22664
874.979	22641
875.108	22637
875.237	22626
875.365	22466
875.494	22497
875.623	22656
875.751	22554
875.88	22656
876.008	22713
876.136	22694
876.265	22911
876.393	23185
876.521	23006
876.65	22946
876.778	22980
876.906	22892
877.034	22915
877.162	22930
877.29	22854
877.418	23037
877.546	23003
877.674	22946
877.802	22987
877.93	22774
878.058	22866
878.185	22847
878.313	22869
878.441	22889
878.568	22828
878.696	22771
878.824	23037
878.951	23025
879.079	23033
879.206	23265
879.333	23067
879.461	23056
879.588	23025
879.715	23174
879.842	23208
879.97	22972
880.097	22755
880.224	22793
880.351	22801
880.478	22824
880.605	22816
880.732	22698
880.859	23056
880.986	22668
881.112	22691
881.239	22656
881.366	22478
881.493	22413
881.619	22356
881.746	22318
881.872	22405
881.999	22352
882.125	22280
882.252	22367
882.378	22249
882.505	22318
882.631	22154
882.757	22021
882.883	22105
883.01	22082
883.136	21979
883.262	21876
883.388	21991
883.514	22055
883.64	22044
883.766	22044
883.892	21873
884.018	21793
884.143	22021
884.269	22025
884.395	21770
884.52	21595
884.646	21637
884.772	21641
884.897	21660
885.023	21778
885.148	21812
885.274	21816
885.399	21747
885.524	21603
885.65	21580
885.775	21743
885.9	21625
886.025	21922
886.15	21686
886.275	21488
886.4	21595
886.525	21618
886.65	21595
886.775	21606
886.9	21892
887.025	21797
887.149	21561
887.274	21443
887.399	21401
887.523	21542
887.648	21386
887.773	21306
887.897	21504
888.021	21481
888.146	21405
888.27	21557
888.395	21515
888.519	21420
888.643	21492
888.767	21473
888.891	21321
889.015	21211
889.139	21249
889.263	21154
889.387	21348
889.511	21378
889.635	21359
889.759	21241
889.883	21260
890.006	21142
890.13	21245
890.254	21188
890.377	21123
890.501	21009
890.624	20921
890.748	20956
890.871	20914
890.995	20663
891.118	20678
891.241	20777
891.364	20746
891.488	20876
891.611	20845
891.734	20800
891.857	20811
891.98	20701
892.103	20712
892.226	20804
892.349	20743
892.471	20514
892.594	20830
892.717	20708
892.839	20598
892.962	20644
893.085	20670
893.207	20655
893.33	20655
893.452	20568
893.575	20819
893.697	20670
893.819	20849
893.941	20944
894.064	20845
894.186	20682
894.308	20587
894.43	20670
894.552	20781
894.674	20693
894.796	20571
894.918	20659
895.04	20533
895.161	20689
895.283	20743
895.405	20602
895.526	20670
895.648	20571
895.769	20697
895.891	20781
896.012	20632
896.134	20701
896.255	20583
896.376	20636
896.498	20644
896.619	20682
896.74	20594
896.861	20705
896.982	20902
897.103	21119
897.224	20918
897.345	20906
897.466	20823
897.587	20963
897.708	20971
897.828	20948
897.949	20834
898.07	20716
898.19	20640
898.311	21028
898.431	20792
898.552	20758
898.672	20929
898.792	20819
898.913	20861
899.033	20788
899.153	20602
899.273	20606
899.393	20640
899.513	20564
899.633	20594
899.753	20629
899.873	20492
899.993	20609
900.113	20556
900.232	20590
900.352	20480
900.472	20484
900.591	20267
900.711	20412
900.83	20267
900.95	20442
901.069	20454
901.189	20320
901.308	20218
901.427	19955
901.546	19986
901.665	19940
901.784	19989
901.904	19856
902.023	19742
902.141	19415
902.26	19445
902.379	19510
902.498	19514
902.617	19434
902.735	19544
902.854	19346
902.973	19438
903.091	19183
903.21	19114
903.328	19137
903.446	19088
903.565	19008
903.683	19027
903.801	18768
903.919	18871
904.038	18829
904.156	18722
904.274	18806
904.392	18635
904.51	18681
904.627	18677
904.745	18802
904.863	18806
904.981	18445
905.098	18353
905.216	18407
905.334	18372
905.451	18452
905.569	18186
905.686	18384
905.803	18372
905.921	18091
906.038	18258
906.155	18155
906.272	18140
906.389	18136
906.506	17790
906.623	17885
906.74	17847
906.857	17710
906.974	17786
907.091	17939
907.208	17946
907.324	17980
907.441	17874
907.557	17524
907.674	17646
907.79	17615
907.907	17463
908.023	17493
908.139	17672
908.256	17524
908.372	17478
908.488	17459
908.604	17337
908.72	17322
908.836	17379
908.952	17242
909.068	17288
909.184	17402
909.3	17254
909.415	17315
909.531	17277
909.647	17090
909.762	16946
909.878	17045
909.993	17010
910.108	17022
910.224	16972
910.339	16957
910.454	16828
910.57	16828
910.685	16679
910.8	16987
910.915	16904
911.03	16828
911.145	16538
911.259	16656
911.374	16634
911.489	16554
911.604	16436
911.718	16325
911.833	16367
911.947	16310
912.062	16200
912.176	16424
912.291	16276
912.405	16299
912.519	16493
912.633	16462
912.748	16352
912.862	16230
912.976	16093
913.09	16021
913.204	16181
913.318	16139
913.431	16261
913.545	16200
913.659	16196
913.772	15994
913.886	16120
914	15972
914.113	16048
914.226	16071
914.34	16067
914.453	15793
914.566	15991
914.68	15895
914.793	15770
914.906	15526
915.019	15492
915.132	15530
915.245	15462
915.358	15580
915.47	15610
915.583	15488
915.696	15641
915.809	15675
915.921	15660
916.034	15477
916.146	15564
916.259	15393
916.371	15420
916.483	15481
916.595	15447
916.708	15382
916.82	15367
916.932	15306
917.044	15230
917.156	15355
917.268	15176
917.38	15192
917.491	15146
917.603	15165
917.715	15218
917.826	15195
917.938	15116
918.049	15036
918.161	15093
918.272	15245
918.384	15233
918.495	15070
918.606	15005
918.717	14937
918.828	14975
918.939	14902
919.05	14804
919.161	14929
919.272	14739
919.383	14754
919.494	14971
919.604	15192
919.715	14952
919.826	14891
919.936	14765
920.047	14918
920.157	14925
920.267	14986
920.378	14883
920.488	14941
920.598	15020
920.708	15203
920.818	14994
920.928	15001
921.038	15039
921.148	15131
921.258	14739
921.368	14720
921.477	14632
921.587	14636
921.697	14507
921.806	14651
921.916	14431
922.025	14305
922.134	14256
922.244	14252
922.353	14218
922.462	14119
922.571	14100
922.68	13921
922.789	13883
922.898	13940
923.007	13837
923.116	13913
923.224	13845
923.333	13780
923.442	13738
923.55	13685
923.659	13750
923.767	13784
923.876	13620
923.984	13712
924.092	13628
924.201	13613
924.309	13655
924.417	13670
924.525	13483
924.633	13521
924.741	14389
924.849	13369
924.956	13480
925.064	13400
925.172	13160
925.279	13293
925.387	13312
925.494	13346
925.602	13343
925.709	13396
925.816	13278
925.924	13164
926.031	13381
926.138	13194
926.245	13221
926.352	13072
926.459	13304
926.566	13331
926.673	13088
926.779	12947
926.886	13118
926.993	12947
927.099	12795
927.206	12837
927.312	12821
927.419	12817
927.525	12909
927.631	12787
927.737	12715
927.843	12722
927.95	12563
928.056	12650
928.162	12631
928.267	12677
928.373	13282
928.479	12722
928.585	12418
928.69	12593
928.796	12681
928.901	12445
929.007	12391
929.112	12494
929.218	12437
929.323	12410
929.428	12376
929.533	12502
929.638	12319
929.743	12311
929.848	12338
929.953	12334
930.058	12182
930.163	12045
930.267	12019
930.372	12182
930.477	12064
930.581	12262
930.685	12038
930.79	11973
930.894	11931
930.998	11878
931.103	12068
931.207	11680
931.311	11638
931.415	11497
931.519	11284
931.623	11341
