Data from test_V78500241_2158.txt Node
Date: Fri Mar 25 15:24:53 CST 2022
User: usil
Spectrometer: V785-0024
Trigger mode: 0
Integration Time (sec): 4.000000E-1
Scans to average: 1
Nonlinearity correction enabled: false
Boxcar width: 0
Storing dark spectrum: false
XAxis mode: Wavelengths
Number of Pixels in Spectrum: 1024
>>>>>Begin Spectral Data<<<<<
801.071	27755
801.214	27614
801.356	27420
801.499	27329
801.641	27233
801.783	27146
801.926	27256
802.068	27233
802.211	27298
802.353	27169
802.496	26963
802.638	26845
802.78	26880
802.923	26746
803.065	26769
803.208	26746
803.35	26750
803.492	27074
803.635	27192
803.777	26933
803.919	27070
804.061	27405
804.204	27252
804.346	26899
804.488	26899
804.63	26967
804.773	27043
804.915	27005
805.057	27222
805.199	27173
805.341	27264
805.483	27108
805.626	27116
805.768	27112
805.91	27146
806.052	27287
806.194	27157
806.336	27256
806.478	27260
806.62	27161
806.762	27332
806.904	27530
807.046	27747
807.188	27576
807.33	27610
807.472	27614
807.614	27526
807.756	27728
807.898	27568
808.04	27435
808.182	27370
808.324	27572
808.465	27633
808.607	27717
808.749	27720
808.891	27934
809.033	28055
809.174	28044
809.316	27797
809.458	27686
809.6	27835
809.741	28006
809.883	27972
810.025	28074
810.166	28128
810.308	28078
810.45	28177
810.591	28078
810.733	27869
810.875	27831
811.016	27709
811.158	27709
811.299	27770
811.441	28044
811.582	28029
811.724	27823
811.865	27766
812.007	27823
812.148	27747
812.29	28013
812.431	27911
812.573	28158
812.714	28447
812.855	28325
812.997	28440
813.138	28561
813.279	28615
813.421	28348
813.562	28268
813.703	28143
813.845	28090
813.986	27835
814.127	27599
814.268	27679
814.41	27603
814.551	27660
814.692	27519
814.833	27534
814.974	27443
815.115	27515
815.256	27462
815.397	27545
815.539	27507
815.68	27207
815.821	27249
815.962	27264
816.103	27382
816.244	27142
816.385	27142
816.526	27233
816.666	26887
816.807	26933
816.948	26937
817.089	26804
817.23	26857
817.371	26762
817.512	26868
817.653	26861
817.793	26727
817.934	26777
818.075	26925
818.216	26792
818.356	26845
818.497	26632
818.638	26606
818.778	26480
818.919	26518
819.06	26629
819.2	26655
819.341	26880
819.481	26910
819.622	26857
819.762	27116
819.903	27055
820.043	26925
820.184	26960
820.324	26990
820.465	26963
820.605	26811
820.746	26861
820.886	26716
821.026	26967
821.167	26883
821.307	26998
821.447	26925
821.588	26838
821.728	26663
821.868	26453
822.008	26362
822.149	26256
822.289	26267
822.429	26111
822.569	26008
822.709	25852
822.849	25814
822.99	25906
823.13	25780
823.27	25750
823.41	25582
823.55	25620
823.69	25632
823.83	25384
823.97	25529
824.11	25381
824.25	25339
824.389	25453
824.529	25453
824.669	25266
824.809	25460
824.949	25457
825.089	25403
825.228	25415
825.368	25164
825.508	25194
825.648	25297
825.787	25301
825.927	25324
826.067	25274
826.206	25209
826.346	25419
826.485	25365
826.625	25190
826.765	25384
826.904	25293
827.044	25072
827.183	25080
827.323	24981
827.462	25008
827.601	25023
827.741	25061
827.88	25088
828.02	24745
828.159	24905
828.298	24985
828.437	25076
828.577	25019
828.716	25137
828.855	24894
828.994	24738
829.134	24684
829.273	24825
829.412	24700
829.551	24677
829.69	24696
829.829	24669
829.968	24745
830.107	24681
830.246	24837
830.385	24604
830.524	24623
830.663	24475
830.802	24410
830.941	24262
831.08	24266
831.219	24319
831.357	24304
831.496	24551
831.635	24186
831.774	24213
831.913	24270
832.051	24049
832.19	24224
832.329	24262
832.467	24049
832.606	23885
832.744	23946
832.883	23931
833.022	23840
833.16	23836
833.299	24095
833.437	24076
833.576	24076
833.714	24125
833.852	24038
833.991	24087
834.129	24136
834.267	24045
834.406	23946
834.544	24121
834.682	24102
834.821	23942
834.959	24129
835.097	24015
835.235	23961
835.373	24038
835.511	23931
835.65	23980
835.788	23908
835.926	23718
836.064	23596
836.202	23748
836.34	23805
836.478	23912
836.615	23939
836.753	23802
836.891	23923
837.029	23855
837.167	23707
837.305	23790
837.443	23634
837.58	23589
837.718	23741
837.856	23752
837.993	23672
838.131	23577
838.269	23493
838.406	23547
838.544	23551
838.681	23482
838.819	23376
838.956	23166
839.094	23079
839.231	23223
839.369	23303
839.506	23535
839.643	23395
839.781	23098
839.918	22927
840.055	23109
840.193	23227
840.33	23094
840.467	23102
840.604	23083
840.742	23307
840.879	22866
841.016	23018
841.153	23041
841.29	23067
841.427	23094
841.564	23155
841.701	22999
841.838	23029
841.975	22923
842.112	22889
842.249	22923
842.385	22725
842.522	22991
842.659	22812
842.796	22900
842.933	22790
843.069	22793
843.206	22729
843.343	22839
843.479	22869
843.616	22900
843.752	22481
843.889	22668
844.025	22748
844.162	22542
844.298	22630
844.435	22713
844.571	22523
844.708	22603
844.844	22691
844.98	22725
845.117	22679
845.253	22440
845.389	22489
845.525	22512
845.661	22428
845.798	22291
845.934	22386
846.07	22318
846.206	22436
846.342	22424
846.478	22215
846.614	22040
846.75	22048
846.886	22128
847.022	22162
847.158	22048
847.294	22078
847.429	22150
847.565	22166
847.701	22329
847.837	21755
847.972	21766
848.108	21918
848.244	21930
848.379	21652
848.515	21724
848.65	21591
848.786	21641
848.921	21648
849.057	21831
849.192	21747
849.328	21736
849.463	21629
849.598	21561
849.734	21637
849.869	21481
850.004	21386
850.14	21477
850.275	21564
850.41	21405
850.545	21428
850.68	21439
850.815	21515
850.95	21397
851.085	21576
851.22	21530
851.355	21416
851.49	21420
851.625	21348
851.76	21351
851.895	21340
852.03	21435
852.165	21443
852.299	21397
852.434	21542
852.569	21481
852.703	21500
852.838	21557
852.973	21473
853.107	21580
853.242	21367
853.376	21256
853.511	21116
853.645	21268
853.78	21473
853.914	21321
854.048	21226
854.183	21112
854.317	21256
854.451	21401
854.585	21104
854.72	21294
854.854	21359
854.988	21058
855.122	21386
855.256	21150
855.39	21199
855.524	21370
855.658	21408
855.792	21329
855.926	21142
856.06	21226
856.194	21252
856.327	21226
856.461	21237
856.595	21100
856.729	21211
856.862	21428
856.996	21279
857.13	21332
857.263	21370
857.397	21313
857.53	21195
857.664	21287
857.797	21249
857.931	21321
858.064	21264
858.197	21340
858.331	21249
858.464	21310
858.597	21260
858.731	21112
858.864	21222
858.997	21157
859.13	21188
859.263	21256
859.396	21302
859.529	21112
859.662	21180
859.795	21207
859.928	21245
860.061	21450
860.194	21431
860.327	21321
860.46	21192
860.592	21424
860.725	21363
860.858	21367
860.99	21264
861.123	21188
861.256	21135
861.388	21241
861.521	21949
861.653	21138
861.786	21081
861.918	21017
862.05	21108
862.183	21135
862.315	21131
862.447	21275
862.58	21203
862.712	20880
862.844	20868
862.976	21001
863.108	21108
863.24	21420
863.372	20819
863.504	20982
863.636	20918
863.768	21055
863.9	20906
864.032	20952
864.164	20857
864.296	21112
864.428	21070
864.559	20998
864.691	21119
864.823	21017
864.954	20895
865.086	20883
865.217	20785
865.349	20826
865.48	20845
865.612	20861
865.743	20967
865.875	20937
866.006	20819
866.137	20796
866.269	20857
866.4	20777
866.531	20777
866.662	20826
866.793	20743
866.924	20785
867.055	20731
867.186	20773
867.317	20716
867.448	20773
867.579	20811
867.71	20731
867.841	20663
867.972	20796
868.103	20754
868.233	20815
868.364	20857
868.495	20864
868.625	21005
868.756	21104
868.886	20906
869.017	20952
869.147	21176
869.278	21157
869.408	20952
869.539	20975
869.669	21131
869.799	21051
869.929	21233
870.06	21142
870.19	21302
870.32	21306
870.45	21363
870.58	21313
870.71	21519
870.84	21515
870.97	21416
871.1	21386
871.23	21511
871.36	21538
871.489	21408
871.619	21694
871.749	21633
871.879	21572
872.008	21759
872.138	21656
872.267	21633
872.397	21530
872.526	21344
872.656	21542
872.785	21386
872.915	21637
873.044	21663
873.173	21652
873.303	21667
873.432	21660
873.561	21759
873.69	21629
873.819	21671
873.948	21625
874.077	21576
874.206	21603
874.335	21542
874.464	21747
874.593	21747
874.722	21755
874.851	21816
874.979	21918
875.108	21903
875.237	21793
875.365	21739
875.494	21751
875.623	21968
875.751	21755
875.88	21869
876.008	21994
876.136	22025
876.265	22303
876.393	22333
876.521	22291
876.65	22337
876.778	22276
876.906	22257
877.034	22223
877.162	22287
877.29	22204
877.418	22166
877.546	22120
877.674	22059
877.802	22200
877.93	22268
878.058	22055
878.185	22002
878.313	22063
878.441	22219
878.568	22013
878.696	22013
878.824	22303
878.951	22261
879.079	22478
879.206	22497
879.333	22318
879.461	22135
879.588	22276
879.715	22424
879.842	22493
879.97	22265
880.097	21979
880.224	21994
880.351	22013
880.478	22067
880.605	21907
880.732	22093
880.859	22204
880.986	21968
881.112	22006
881.239	21941
881.366	21709
881.493	21701
881.619	21603
881.746	21675
881.872	21561
881.999	21580
882.125	21534
882.252	21587
882.378	21629
882.505	21705
882.631	21488
882.757	21298
882.883	21367
883.01	21298
883.136	21321
883.262	21245
883.388	21119
883.514	21256
883.64	21336
883.766	21169
883.892	21009
884.018	21100
884.143	21382
884.269	21374
884.395	21127
884.52	20823
884.646	20998
884.772	20960
884.897	20842
885.023	20929
885.148	21112
885.274	21070
885.399	21028
885.524	20857
885.65	20990
885.775	20887
885.9	20975
886.025	20967
886.15	21028
886.275	20918
886.4	20963
886.525	20906
886.65	20937
886.775	20796
886.9	20994
887.025	21127
887.149	20880
887.274	20743
887.399	20735
887.523	20693
887.648	20640
887.773	20621
887.897	20697
888.021	20705
888.146	20556
888.27	20712
888.395	20811
888.519	20876
888.643	20735
888.767	20796
888.891	20632
889.015	20400
889.139	20636
889.263	20575
889.387	20579
889.511	20769
889.635	20659
889.759	20537
889.883	20530
890.006	20575
890.13	20564
890.254	20298
890.377	20454
890.501	20218
890.624	20275
890.748	20385
890.871	20134
890.995	20035
891.118	19982
891.241	20077
891.364	20111
891.488	20191
891.611	20149
891.734	20065
891.857	20122
891.98	20077
892.103	20145
892.226	20134
892.349	20046
892.471	19818
892.594	19936
892.717	19986
892.839	20027
892.962	20001
893.085	20020
893.207	20054
893.33	19875
893.452	19947
893.575	20024
893.697	19951
893.819	20031
893.941	20225
894.064	20115
894.186	19814
894.308	19864
894.43	20054
894.552	20180
894.674	20035
894.796	19841
894.918	19967
895.04	20046
895.161	20134
895.283	19989
895.405	20020
895.526	20016
895.648	19993
895.769	20119
895.891	20008
896.012	20046
896.134	19967
896.255	20024
896.376	19917
896.498	20035
896.619	20050
896.74	20077
896.861	20088
896.982	20351
897.103	20427
897.224	20210
897.345	20164
897.466	20256
897.587	20259
897.708	20385
897.828	20324
897.949	20233
898.07	20199
898.19	20199
898.311	20214
898.431	20107
898.552	20126
898.672	20275
898.792	20278
898.913	20214
899.033	20145
899.153	19951
899.273	19902
899.393	19967
899.513	20016
899.633	20016
899.753	20008
899.873	19909
899.993	19932
900.113	19852
900.232	19883
900.352	19982
900.472	19753
900.591	19746
900.711	19799
900.83	19556
900.95	19822
901.069	19849
901.189	19609
901.308	19358
901.427	19232
901.546	19282
901.665	19453
901.784	19343
901.904	19126
902.023	19118
902.141	18871
902.26	18890
902.379	18920
902.498	18722
902.617	18757
902.735	18993
902.854	18939
902.973	18760
903.091	18589
903.21	18547
903.328	18509
903.446	18407
903.565	18456
903.683	18342
903.801	18136
903.919	18273
904.038	18323
904.156	18072
904.274	18087
904.392	18186
904.51	18102
904.627	17946
904.745	18019
904.863	18121
904.981	17897
905.098	17752
905.216	17710
905.334	17840
905.451	17760
905.569	17752
905.686	17756
905.803	17695
905.921	17596
906.038	17668
906.155	17623
906.272	17463
906.389	17551
906.506	17242
906.623	17254
906.74	17349
906.857	17223
906.974	17102
907.091	17398
907.208	17414
907.324	17261
907.441	17162
907.557	16957
907.674	16976
907.79	16965
907.907	16984
908.023	17064
908.139	17136
908.256	17003
908.372	16968
908.488	16938
908.604	16763
908.72	16653
908.836	16710
908.952	16717
909.068	16759
909.184	16740
909.3	16725
909.415	16782
909.531	16713
909.647	16500
909.762	16497
909.878	16405
909.993	16428
910.108	16382
910.224	16379
910.339	16348
910.454	16291
910.57	16253
910.685	16143
910.8	16436
910.915	16291
911.03	16238
911.145	16112
911.259	16067
911.374	16112
911.489	15956
911.604	15884
911.718	15743
911.833	15774
911.947	15675
912.062	15610
912.176	15865
912.291	15789
912.405	15694
912.519	15983
912.633	15861
912.748	15903
912.862	15739
912.976	15603
913.09	15511
913.204	15633
913.318	15656
913.431	15637
913.545	15705
913.659	15637
913.772	15542
913.886	15405
914	15492
914.113	15557
914.226	15580
914.34	15454
914.453	15264
914.566	15412
914.68	15279
914.793	15230
914.906	15097
915.019	15017
915.132	14956
915.245	15013
915.358	15081
915.47	14994
915.583	14994
915.696	15077
915.809	15093
915.921	15176
916.034	15028
916.146	14975
916.259	14800
916.371	14998
916.483	14960
916.595	14830
916.708	14899
916.82	14842
916.932	14765
917.044	14796
917.156	14735
917.268	14648
917.38	14663
917.491	14564
917.603	14693
917.715	14735
917.826	14826
917.938	14579
918.049	14438
918.161	14583
918.272	14697
918.384	14724
918.495	14560
918.606	14454
918.717	14377
918.828	14396
918.939	14393
919.05	14400
919.161	14419
919.272	14278
919.383	14206
919.494	14461
919.604	14568
919.715	14446
919.826	14240
919.936	14419
920.047	14545
920.157	14332
920.267	14636
920.378	14400
920.488	14355
920.598	14602
920.708	14727
920.818	14454
920.928	14610
921.038	14667
921.148	14640
921.258	14370
921.368	14221
921.477	14142
921.587	14221
921.697	14027
921.806	14027
921.916	13974
922.025	13769
922.134	13723
922.244	13704
922.353	13780
922.462	13597
922.571	13616
922.68	13476
922.789	13449
922.898	13396
923.007	13392
923.116	13457
923.224	13415
923.333	13297
923.442	13316
923.55	13244
923.659	13289
923.767	13339
923.876	13304
923.984	13384
924.092	13171
924.201	13209
924.309	13282
924.417	13141
924.525	13061
924.633	13057
924.741	13826
924.849	12867
924.956	12989
925.064	12882
925.172	12738
925.279	12852
925.387	12837
925.494	12871
925.602	12939
925.709	12844
925.816	12802
925.924	12802
926.031	12810
926.138	12707
926.245	12844
926.352	12642
926.459	12783
926.566	12882
926.673	12772
926.779	12650
926.886	12547
926.993	12502
927.099	12380
927.206	12422
927.312	12426
927.419	12452
927.525	12437
927.631	12494
927.737	12243
927.843	12201
927.95	12148
928.056	12270
928.162	12262
928.267	12300
928.373	12901
928.479	12281
928.585	12110
928.69	12106
928.796	12209
928.901	12038
929.007	11958
929.112	12087
929.218	12117
929.323	11916
929.428	12026
929.533	12034
929.638	11904
929.743	11901
929.848	11927
929.953	11939
930.058	11878
930.163	11570
930.267	11596
930.372	11817
930.477	11630
930.581	11786
930.685	11695
930.79	11535
930.894	11486
930.998	11482
931.103	11570
931.207	11258
931.311	11197
931.415	11071
931.519	10873
931.623	10934
