Data from test_V78500241_2602.txt Node
Date: Fri Mar 25 15:27:58 CST 2022
User: usil
Spectrometer: V785-0024
Trigger mode: 0
Integration Time (sec): 4.000000E-1
Scans to average: 1
Nonlinearity correction enabled: false
Boxcar width: 0
Storing dark spectrum: false
XAxis mode: Wavelengths
Number of Pixels in Spectrum: 1024
>>>>>Begin Spectral Data<<<<<
801.071	27100
801.214	27081
801.356	26895
801.499	26701
801.641	26636
801.783	26617
801.926	26716
802.068	26716
802.211	26556
802.353	26526
802.496	26381
802.638	26336
802.78	26259
802.923	26294
803.065	26225
803.208	26218
803.35	26336
803.492	26484
803.635	26453
803.777	26267
803.919	26560
804.061	26781
804.204	26408
804.346	26366
804.488	26469
804.63	26438
804.773	26393
804.915	26488
805.057	26579
805.199	26488
805.341	26693
805.483	26686
805.626	26530
805.768	26556
805.91	26667
806.052	26537
806.194	26404
806.336	26895
806.478	26568
806.62	26609
806.762	26705
806.904	26773
807.046	27013
807.188	26956
807.33	26986
807.472	26998
807.614	26902
807.756	26807
807.898	26823
808.04	26807
808.182	26853
808.324	26902
808.465	27028
808.607	27066
808.749	27195
808.891	27241
809.033	27374
809.174	27131
809.316	27127
809.458	27081
809.6	27173
809.741	27306
809.883	27287
810.025	27538
810.166	27454
810.308	27504
810.45	27485
810.591	27408
810.733	27150
810.875	27233
811.016	26998
811.158	27043
811.299	27275
811.441	27386
811.582	27401
811.724	27291
811.865	27032
812.007	27169
812.148	27100
812.29	27108
812.431	27260
812.573	27405
812.714	27576
812.855	27614
812.997	27819
813.138	27994
813.279	27667
813.421	27622
813.562	27652
813.703	27507
813.845	27317
813.986	27081
814.127	27058
814.268	26861
814.41	26765
814.551	26758
814.692	26838
814.833	26785
814.974	26621
815.115	26914
815.256	26579
815.397	26602
815.539	26758
815.68	26613
815.821	26606
815.962	26682
816.103	26667
816.244	26469
816.385	26332
816.526	26290
816.666	26191
816.807	26008
816.948	26115
817.089	26195
817.23	26069
817.371	26077
817.512	25997
817.653	26065
817.793	26077
817.934	26008
818.075	26073
818.216	26054
818.356	26103
818.497	26050
818.638	25936
818.778	25776
818.919	25883
819.06	25932
819.2	26035
819.341	26073
819.481	26062
819.622	26286
819.762	26431
819.903	26492
820.043	26176
820.184	26282
820.324	26176
820.465	26221
820.605	26233
820.746	26100
820.886	25925
821.026	26092
821.167	26050
821.307	26191
821.447	26092
821.588	26046
821.728	25871
821.868	25685
822.008	25472
822.149	25544
822.289	25525
822.429	25304
822.569	25240
822.709	25232
822.849	25126
822.99	25080
823.13	24989
823.27	24947
823.41	24859
823.55	24817
823.69	24913
823.83	24878
823.97	24913
824.11	24734
824.25	24604
824.389	24597
824.529	24791
824.669	24696
824.809	24700
824.949	24791
825.089	24745
825.228	24715
825.368	24452
825.508	24536
825.648	24540
825.787	24574
825.927	24684
826.067	24585
826.206	24505
826.346	24593
826.485	24627
826.625	24456
826.765	24730
826.904	24551
827.044	24190
827.183	24327
827.323	24414
827.462	24304
827.601	24235
827.741	24361
827.88	24327
828.02	24194
828.159	24365
828.298	24353
828.437	24095
828.577	24190
828.716	24323
828.855	24243
828.994	23999
829.134	24064
829.273	24140
829.412	23969
829.551	23931
829.69	24060
829.829	24030
829.968	24136
830.107	24155
830.246	24038
830.385	23999
830.524	23843
830.663	23790
830.802	23642
830.941	23611
831.08	23562
831.219	23581
831.357	23737
831.496	23847
831.635	23649
831.774	23398
831.913	23429
832.051	23368
832.19	23463
832.329	23368
832.467	23349
832.606	23307
832.744	23231
832.883	23162
833.022	23353
833.16	23315
833.299	23512
833.437	23368
833.576	23345
833.714	23379
833.852	23436
833.991	23448
834.129	23524
834.267	23315
834.406	23414
834.544	23330
834.682	23383
834.821	23341
834.959	23478
835.097	23235
835.235	23448
835.373	23284
835.511	23379
835.65	23235
835.788	23292
835.926	23064
836.064	22980
836.202	22946
836.34	23220
836.478	23296
836.615	23128
836.753	23223
836.891	23220
837.029	23166
837.167	23052
837.305	23044
837.443	23117
837.58	23052
837.718	23159
837.856	23018
837.993	23090
838.131	22934
838.269	23060
838.406	22995
838.544	22873
838.681	22752
838.819	22672
838.956	22656
839.094	22626
839.231	22656
839.369	22698
839.506	22820
839.643	22721
839.781	22462
839.918	22649
840.055	22459
840.193	22470
840.33	22523
840.467	22519
840.604	22523
840.742	22824
840.879	22390
841.016	22325
841.153	22402
841.29	22508
841.427	22493
841.564	22493
841.701	22424
841.838	22508
841.975	22390
842.112	22295
842.249	22322
842.385	22363
842.522	22565
842.659	22413
842.796	22246
842.933	22280
843.069	22147
843.206	22173
843.343	22303
843.479	22230
843.616	22360
843.752	22051
843.889	22124
844.025	22131
844.162	22006
844.298	22040
844.435	21979
844.571	22002
844.708	22143
844.844	22177
844.98	22082
845.117	21979
845.253	22032
845.389	21899
845.525	21991
845.661	21922
845.798	21800
845.934	21709
846.07	21850
846.206	21819
846.342	21819
846.478	21694
846.614	21519
846.75	21443
846.886	21435
847.022	21519
847.158	21549
847.294	21618
847.429	21591
847.565	21336
847.701	21781
847.837	21218
847.972	21150
848.108	21245
848.244	21355
848.379	21104
848.515	21058
848.65	21112
848.786	21047
848.921	21055
849.057	21108
849.192	21211
849.328	21070
849.463	21020
849.598	21093
849.734	20887
849.869	20883
850.004	20876
850.14	20781
850.275	20800
850.41	20708
850.545	20804
850.68	20845
850.815	20902
850.95	20861
851.085	21017
851.22	21013
851.355	20815
851.49	20887
851.625	20937
851.76	20906
851.895	20708
852.03	20872
852.165	20963
852.299	21009
852.434	20792
852.569	20880
852.703	20705
852.838	20826
852.973	21017
853.107	20933
853.242	20701
853.376	20651
853.511	20514
853.645	20724
853.78	20731
853.914	20686
854.048	20621
854.183	20606
854.317	20735
854.451	20880
854.585	20640
854.72	20686
854.854	20659
854.988	20533
855.122	20507
855.256	20568
855.39	20705
855.524	20735
855.658	20670
855.792	20705
855.926	20731
856.06	20670
856.194	20754
856.327	20727
856.461	20629
856.595	20625
856.729	20632
856.862	20697
856.996	20769
857.13	20910
857.263	20781
857.397	20750
857.53	20609
857.664	20701
857.797	20716
857.931	20762
858.064	20735
858.197	20785
858.331	20674
858.464	20758
858.597	20712
858.731	20613
858.864	20571
858.997	20587
859.13	20674
859.263	20682
859.396	20864
859.529	20617
859.662	20651
859.795	20678
859.928	20716
860.061	20807
860.194	20796
860.327	20754
860.46	20727
860.592	20777
860.725	20777
860.858	20765
860.99	20606
861.123	20606
861.256	20522
861.388	20693
861.521	21287
861.653	20613
861.786	20438
861.918	20514
862.05	20560
862.183	20568
862.315	20617
862.447	20659
862.58	20636
862.712	20377
862.844	20355
862.976	20473
863.108	20419
863.24	20800
863.372	20282
863.504	20419
863.636	20343
863.768	20328
863.9	20488
864.032	20301
864.164	20415
864.296	20347
864.428	20476
864.559	20370
864.691	20583
864.823	20434
864.954	20434
865.086	20427
865.217	20336
865.349	20282
865.48	20309
865.612	20339
865.743	20434
865.875	20263
866.006	20256
866.137	20199
866.269	20290
866.4	20237
866.531	20206
866.662	20214
866.793	20088
866.924	20202
867.055	20248
867.186	20355
867.317	20214
867.448	20054
867.579	20214
867.71	20233
867.841	20100
867.972	20259
868.103	20263
868.233	20259
868.364	20282
868.495	20332
868.625	20393
868.756	20575
868.886	20457
869.017	20434
869.147	20480
869.278	20674
869.408	20492
869.539	20423
869.669	20575
869.799	20522
869.929	20594
870.06	20499
870.19	20830
870.32	20708
870.45	20880
870.58	20807
870.71	21013
870.84	20994
870.97	20842
871.1	20872
871.23	20990
871.36	21127
871.489	20986
871.619	21150
871.749	21108
871.879	21241
872.008	21268
872.138	21123
872.267	21150
872.397	20811
872.526	20933
872.656	20899
872.785	20948
872.915	21157
873.044	21192
873.173	21039
873.303	21062
873.432	21135
873.561	21268
873.69	21032
873.819	21173
873.948	21150
874.077	21252
874.206	20986
874.335	21036
874.464	21203
874.593	21252
874.722	21378
874.851	21473
874.979	21359
875.108	21329
875.237	21264
875.365	21363
875.494	21241
875.623	21332
875.751	21397
875.88	21359
876.008	21507
876.136	21515
876.265	21637
876.393	21998
876.521	21755
876.65	21861
876.778	21800
876.906	21629
877.034	21686
877.162	21751
877.29	21644
877.418	21785
877.546	21781
877.674	21652
877.802	21701
877.93	21698
878.058	21641
878.185	21587
878.313	21656
878.441	21743
878.568	21507
878.696	21583
878.824	21743
878.951	21789
879.079	21903
879.206	22067
879.333	21842
879.461	21759
879.588	21804
879.715	21827
879.842	21941
879.97	21789
880.097	21416
880.224	21530
880.351	21595
880.478	21542
880.605	21401
880.732	21515
880.859	21766
880.986	21519
881.112	21591
881.239	21469
881.366	21203
881.493	21074
881.619	21070
881.746	21241
881.872	21028
881.999	21093
882.125	21207
882.252	21135
882.378	21123
882.505	21203
882.631	20914
882.757	20906
882.883	20944
883.01	20762
883.136	20754
883.262	20720
883.388	20667
883.514	20765
883.64	20956
883.766	20815
883.892	20583
884.018	20617
884.143	20678
884.269	20849
884.395	20530
884.52	20309
884.646	20427
884.772	20370
884.897	20396
885.023	20480
885.148	20526
885.274	20575
885.399	20560
885.524	20431
885.65	20526
885.775	20431
885.9	20355
886.025	20442
886.15	20552
886.275	20454
886.4	20309
886.525	20408
886.65	20412
886.775	20400
886.9	20678
887.025	20739
887.149	20476
887.274	20199
887.399	20256
887.523	20240
887.648	20107
887.773	20202
887.897	20351
888.021	20138
888.146	20172
888.27	20408
888.395	20434
888.519	20237
888.643	20275
888.767	20229
888.891	20161
889.015	20035
889.139	20035
889.263	20050
889.387	20210
889.511	20187
889.635	20183
889.759	19997
889.883	20069
890.006	19959
890.13	20180
890.254	19944
890.377	19871
890.501	19860
890.624	19670
890.748	19780
890.871	19635
890.995	19499
891.118	19681
891.241	19712
891.364	19571
891.488	19662
891.611	19613
891.734	19502
891.857	19647
891.98	19677
892.103	19635
892.226	19563
892.349	19662
892.471	19403
892.594	19601
892.717	19567
892.839	19548
892.962	19715
893.085	19487
893.207	19533
893.33	19407
893.452	19491
893.575	19441
893.697	19571
893.819	19666
893.941	19784
894.064	19582
894.186	19457
894.308	19449
894.43	19647
894.552	19620
894.674	19594
894.796	19335
894.918	19362
895.04	19567
895.161	19502
895.283	19624
895.405	19438
895.526	19510
895.648	19499
895.769	19495
895.891	19601
896.012	19647
896.134	19601
896.255	19529
896.376	19609
896.498	19472
896.619	19586
896.74	19521
896.861	19563
896.982	19845
897.103	19928
897.224	19772
897.345	19822
897.466	19753
897.587	19689
897.708	19860
897.828	19795
897.949	19864
898.07	19605
898.19	19830
898.311	19849
898.431	19700
898.552	19803
898.672	19871
898.792	19799
898.913	19731
899.033	19651
899.153	19601
899.273	19529
899.393	19438
899.513	19514
899.633	19514
899.753	19567
899.873	19487
899.993	19540
900.113	19601
900.232	19540
900.352	19358
900.472	19483
900.591	19339
900.711	19331
900.83	19244
900.95	19457
901.069	19419
901.189	19244
901.308	19053
901.427	18913
901.546	18897
901.665	18890
901.784	18939
901.904	18779
902.023	18688
902.141	18445
902.26	18433
902.379	18623
902.498	18452
902.617	18403
902.735	18391
902.854	18410
902.973	18311
903.091	18106
903.21	18220
903.328	18110
903.446	17973
903.565	17973
903.683	17885
903.801	17863
903.919	17798
904.038	17832
904.156	17802
904.274	17764
904.392	17558
904.51	17680
904.627	17627
904.745	17665
904.863	17672
904.981	17482
905.098	17360
905.216	17497
905.334	17337
905.451	17436
905.569	17334
905.686	17414
905.803	17376
905.921	17090
906.038	17254
906.155	17231
906.272	17006
906.389	16980
906.506	16877
906.623	16942
906.74	17010
906.857	16752
906.974	16805
907.091	16908
907.208	16843
907.324	16968
907.441	16839
907.557	16531
907.674	16675
907.79	16561
907.907	16584
908.023	16691
908.139	16519
908.256	16535
908.372	16493
908.488	16451
908.604	16337
908.72	16367
908.836	16421
908.952	16394
909.068	16344
909.184	16382
909.3	16363
909.415	16481
909.531	16341
909.647	16112
909.762	16040
909.878	16173
909.993	16086
910.108	16086
910.224	16029
910.339	16017
910.454	15964
910.57	15865
910.685	15762
910.8	16048
910.915	15945
911.03	15884
911.145	15717
911.259	15648
911.374	15629
911.489	15572
911.604	15633
911.718	15389
911.833	15401
911.947	15378
912.062	15317
912.176	15488
912.291	15458
912.405	15374
912.519	15766
912.633	15591
912.748	15416
912.862	15469
912.976	15203
913.09	15214
913.204	15268
913.318	15195
913.431	15291
913.545	15275
913.659	15252
913.772	15176
913.886	15104
914	15005
914.113	15154
914.226	15135
914.34	15108
914.453	14937
914.566	15112
914.68	15017
914.793	14853
914.906	14716
915.019	14648
915.132	14583
915.245	14590
915.358	14670
915.47	14708
915.583	14659
915.696	14598
915.809	14674
915.921	14815
916.034	14579
916.146	14564
916.259	14495
916.371	14667
916.483	14533
916.595	14454
916.708	14480
916.82	14492
916.932	14549
917.044	14442
917.156	14336
917.268	14339
917.38	14404
917.491	14336
917.603	14332
917.715	14431
917.826	14450
917.938	14221
918.049	14210
918.161	14294
918.272	14446
918.384	14442
918.495	14244
918.606	14233
918.717	14005
918.828	14138
918.939	14115
919.05	14020
919.161	14005
919.272	13944
919.383	13906
919.494	14065
919.604	14278
919.715	14153
919.826	13993
919.936	14020
920.047	14096
920.157	14001
920.267	14237
920.378	14008
920.488	13917
920.598	14191
920.708	14423
920.818	14206
920.928	14065
921.038	14362
921.148	14252
921.258	13963
921.368	13887
921.477	13860
921.587	13856
921.697	13670
921.806	13795
921.916	13712
922.025	13548
922.134	13502
922.244	13491
922.353	13601
922.462	13343
922.571	13274
922.68	13171
922.789	13145
922.898	13164
923.007	13053
923.116	13179
923.224	13076
923.333	13088
923.442	12966
923.55	12981
923.659	12966
923.767	13084
923.876	12817
923.984	12867
924.092	12821
924.201	12817
924.309	12916
924.417	12837
924.525	12772
924.633	12768
924.741	13753
924.849	12620
924.956	12741
925.064	12623
925.172	12525
925.279	12509
925.387	12654
925.494	12536
925.602	12612
925.709	12566
925.816	12395
925.924	12513
926.031	12654
926.138	12536
926.245	12540
926.352	12479
926.459	12563
926.566	12566
926.673	12403
926.779	12391
926.886	12292
926.993	12235
927.099	12144
927.206	12152
927.312	12144
927.419	12144
927.525	12072
927.631	12136
927.737	11980
927.843	11988
927.95	11882
928.056	11882
928.162	11908
928.267	12019
928.373	12513
928.479	12011
928.585	11851
928.69	11980
928.796	11855
928.901	11836
929.007	11726
929.112	11805
929.218	11859
929.323	11767
929.428	11661
929.533	11760
929.638	11665
929.743	11589
929.848	11657
929.953	11611
930.058	11505
930.163	11353
930.267	11337
930.372	11630
930.477	11315
930.581	11646
930.685	11551
930.79	11379
930.894	11299
930.998	11254
931.103	11410
931.207	11094
931.311	10972
931.415	10946
931.519	10687
931.623	10683
