Data from test_V78500241_2504.txt Node
Date: Fri Mar 25 15:27:17 CST 2022
User: usil
Spectrometer: V785-0024
Trigger mode: 0
Integration Time (sec): 4.000000E-1
Scans to average: 1
Nonlinearity correction enabled: false
Boxcar width: 0
Storing dark spectrum: false
XAxis mode: Wavelengths
Number of Pixels in Spectrum: 1024
>>>>>Begin Spectral Data<<<<<
801.071	27199
801.214	27032
801.356	26872
801.499	26929
801.641	26693
801.783	26693
801.926	26876
802.068	26613
802.211	26655
802.353	26613
802.496	26396
802.638	26412
802.78	26370
802.923	26237
803.065	26145
803.208	26199
803.35	26305
803.492	26473
803.635	26564
803.777	26374
803.919	26621
804.061	26823
804.204	26564
804.346	26488
804.488	26362
804.63	26568
804.773	26374
804.915	26476
805.057	26739
805.199	26526
805.341	26583
805.483	26708
805.626	26598
805.768	26488
805.91	26545
806.052	26560
806.194	26560
806.336	26701
806.478	26583
806.62	26670
806.762	26689
806.904	26921
807.046	27146
807.188	27005
807.33	26887
807.472	26952
807.614	27043
807.756	26975
807.898	26994
808.04	26750
808.182	26762
808.324	27047
808.465	26994
808.607	27028
808.749	27157
808.891	27435
809.033	27374
809.174	27363
809.316	27127
809.458	27241
809.6	27237
809.741	27317
809.883	27310
810.025	27507
810.166	27485
810.308	27553
810.45	27671
810.591	27408
810.733	27230
810.875	27279
811.016	27127
811.158	27256
811.299	27378
811.441	27473
811.582	27397
811.724	27211
811.865	27233
812.007	27066
812.148	27154
812.29	27203
812.431	27378
812.573	27488
812.714	27732
812.855	27622
812.997	27720
813.138	27994
813.279	27793
813.421	27751
813.562	27599
813.703	27599
813.845	27386
813.986	27123
814.127	26933
814.268	26910
814.41	26891
814.551	26796
814.692	27017
814.833	26743
814.974	26838
815.115	26785
815.256	26800
815.397	26598
815.539	26743
815.68	26708
815.821	26541
815.962	26575
816.103	26598
816.244	26629
816.385	26408
816.526	26336
816.666	26195
816.807	26168
816.948	26180
817.089	26290
817.23	26149
817.371	26092
817.512	26210
817.653	26176
817.793	26088
817.934	25993
818.075	26233
818.216	26145
818.356	26058
818.497	26001
818.638	25951
818.778	25841
818.919	25765
819.06	25902
819.2	26153
819.341	26008
819.481	26111
819.622	26191
819.762	26473
819.903	26526
820.043	26172
820.184	26244
820.324	26309
820.465	26358
820.605	26183
820.746	26100
820.886	26020
821.026	26195
821.167	26161
821.307	26210
821.447	26096
821.588	25944
821.728	25989
821.868	25845
822.008	25544
822.149	25502
822.289	25628
822.429	25285
822.569	25270
822.709	25381
822.849	25137
822.99	25217
823.13	25168
823.27	25103
823.41	25000
823.55	24837
823.69	24909
823.83	24905
823.97	24795
824.11	24757
824.25	24654
824.389	24623
824.529	24719
824.669	24738
824.809	24897
824.949	24806
825.089	24886
825.228	24764
825.368	24570
825.508	24601
825.648	24650
825.787	24635
825.927	24601
826.067	24517
826.206	24490
826.346	24669
826.485	24684
826.625	24604
826.765	24639
826.904	24658
827.044	24437
827.183	24296
827.323	24216
827.462	24422
827.601	24353
827.741	24315
827.88	24342
828.02	24243
828.159	24243
828.298	24391
828.437	24304
828.577	24167
828.716	24342
828.855	24232
828.994	24015
829.134	23901
829.273	23996
829.412	23893
829.551	24003
829.69	23939
829.829	24007
829.968	24007
830.107	24110
830.246	24106
830.385	23999
830.524	23840
830.663	23805
830.802	23718
830.941	23577
831.08	23611
831.219	23798
831.357	23581
831.496	23851
831.635	23657
831.774	23634
831.913	23551
832.051	23387
832.19	23433
832.329	23482
832.467	23414
832.606	23349
832.744	23337
832.883	23280
833.022	23250
833.16	23303
833.299	23497
833.437	23330
833.576	23402
833.714	23398
833.852	23398
833.991	23455
834.129	23433
834.267	23459
834.406	23372
834.544	23501
834.682	23520
834.821	23452
834.959	23501
835.097	23292
835.235	23463
835.373	23288
835.511	23296
835.65	23280
835.788	23189
835.926	23128
836.064	23086
836.202	23090
836.34	23090
836.478	23303
836.615	23212
836.753	23242
836.891	23242
837.029	23220
837.167	23124
837.305	23269
837.443	23109
837.58	23056
837.718	23010
837.856	23079
837.993	23086
838.131	23025
838.269	22991
838.406	23018
838.544	22934
838.681	22748
838.819	22706
838.956	22527
839.094	22504
839.231	22622
839.369	22786
839.506	23083
839.643	22831
839.781	22523
839.918	22466
840.055	22417
840.193	22508
840.33	22580
840.467	22535
840.604	22599
840.742	22820
840.879	22535
841.016	22341
841.153	22363
841.29	22584
841.427	22577
841.564	22489
841.701	22523
841.838	22443
841.975	22382
842.112	22371
842.249	22466
842.385	22402
842.522	22409
842.659	22333
842.796	22238
842.933	22261
843.069	22185
843.206	22257
843.343	22265
843.479	22291
843.616	22272
843.752	22017
843.889	22040
844.025	22272
844.162	22021
844.298	22238
844.435	22006
844.571	21998
844.708	22109
844.844	22169
844.98	22116
845.117	22276
845.253	21922
845.389	22051
845.525	21926
845.661	21823
845.798	21797
845.934	21739
846.07	21835
846.206	21880
846.342	21797
846.478	21717
846.614	21686
846.75	21500
846.886	21389
847.022	21576
847.158	21549
847.294	21523
847.429	21526
847.565	21386
847.701	21720
847.837	21169
847.972	21264
848.108	21405
848.244	21329
848.379	21180
848.515	21108
848.65	21135
848.786	21119
848.921	21066
849.057	21192
849.192	21142
849.328	21325
849.463	21161
849.598	21055
849.734	21036
849.869	20906
850.004	20857
850.14	20887
850.275	20788
850.41	20651
850.545	20750
850.68	20773
850.815	20849
850.95	20750
851.085	21066
851.22	20975
851.355	20975
851.49	20891
851.625	20819
851.76	20914
851.895	20800
852.03	20785
852.165	20906
852.299	20842
852.434	21020
852.569	20864
852.703	20868
852.838	20975
852.973	21085
853.107	20891
853.242	20743
853.376	20720
853.511	20693
853.645	20701
853.78	20804
853.914	20746
854.048	20560
854.183	20644
854.317	20876
854.451	20914
854.585	20826
854.72	20701
854.854	20826
854.988	20537
855.122	20689
855.256	20549
855.39	20765
855.524	20735
855.658	20785
855.792	20727
855.926	20632
856.06	20632
856.194	20727
856.327	20655
856.461	20712
856.595	20625
856.729	20670
856.862	20762
856.996	20621
857.13	20788
857.263	20781
857.397	20712
857.53	20682
857.664	20659
857.797	20845
857.931	20731
858.064	20823
858.197	20834
858.331	20648
858.464	20621
858.597	20568
858.731	20697
858.864	20644
858.997	20689
859.13	20568
859.263	20758
859.396	20716
859.529	20636
859.662	20758
859.795	20670
859.928	20678
860.061	20807
860.194	20925
860.327	20735
860.46	20762
860.592	20842
860.725	20804
860.858	20842
860.99	20644
861.123	20632
861.256	20560
861.388	20613
861.521	21298
861.653	20602
861.786	20484
861.918	20552
862.05	20492
862.183	20655
862.315	20682
862.447	20735
862.58	20640
862.712	20396
862.844	20484
862.976	20427
863.108	20480
863.24	20910
863.372	20404
863.504	20366
863.636	20415
863.768	20530
863.9	20442
864.032	20248
864.164	20461
864.296	20450
864.428	20461
864.559	20457
864.691	20473
864.823	20332
864.954	20343
865.086	20446
865.217	20263
865.349	20317
865.48	20324
865.612	20309
865.743	20476
865.875	20320
866.006	20290
866.137	20305
866.269	20263
866.4	20267
866.531	20202
866.662	20313
866.793	20202
866.924	20229
867.055	20286
867.186	20206
867.317	20252
867.448	20233
867.579	20317
867.71	20225
867.841	20225
867.972	20267
868.103	20237
868.233	20256
868.364	20290
868.495	20362
868.625	20514
868.756	20621
868.886	20484
869.017	20674
869.147	20541
869.278	20693
869.408	20442
869.539	20541
869.669	20484
869.799	20560
869.929	20545
870.06	20552
870.19	20781
870.32	20762
870.45	20910
870.58	20990
870.71	20952
870.84	20990
870.97	20975
871.1	20887
871.23	21112
871.36	21138
871.489	21100
871.619	21058
871.749	21146
871.879	21157
872.008	21237
872.138	21074
872.267	21116
872.397	20937
872.526	20876
872.656	21013
872.785	20910
872.915	20956
873.044	21241
873.173	21108
873.303	21077
873.432	21180
873.561	21169
873.69	21203
873.819	21135
873.948	21184
874.077	21173
874.206	21070
874.335	21157
874.464	21195
874.593	21325
874.722	21291
874.851	21340
874.979	21481
875.108	21443
875.237	21367
875.365	21199
875.494	21382
875.623	21416
875.751	21336
875.88	21389
876.008	21542
876.136	21618
876.265	21728
876.393	21918
876.521	21785
876.65	21854
876.778	21732
876.906	21747
877.034	21747
877.162	21857
877.29	21553
877.418	21732
877.546	21686
877.674	21724
877.802	21739
877.93	21694
878.058	21732
878.185	21530
878.313	21778
878.441	21637
878.568	21545
878.696	21648
878.824	21747
878.951	21789
879.079	21903
879.206	22002
879.333	21808
879.461	21766
879.588	21831
879.715	21789
879.842	21907
879.97	21778
880.097	21530
880.224	21519
880.351	21450
880.478	21610
880.605	21572
880.732	21583
880.859	21717
880.986	21580
881.112	21580
881.239	21408
881.366	21325
881.493	21214
881.619	21169
881.746	21146
881.872	21199
881.999	21161
882.125	20944
882.252	21176
882.378	21077
882.505	21233
882.631	20948
882.757	20785
882.883	20853
883.01	20880
883.136	20648
883.262	20762
883.388	20819
883.514	20853
883.64	20853
883.766	20796
883.892	20705
884.018	20667
884.143	20785
884.269	20804
884.395	20541
884.52	20503
884.646	20499
884.772	20351
884.897	20404
885.023	20488
885.148	20583
885.274	20583
885.399	20537
885.524	20465
885.65	20507
885.775	20419
885.9	20488
886.025	20621
886.15	20533
886.275	20434
886.4	20385
886.525	20514
886.65	20320
886.775	20385
886.9	20583
887.025	20636
887.149	20503
887.274	20320
887.399	20309
887.523	20328
887.648	20244
887.773	20206
887.897	20328
888.021	20286
888.146	20252
888.27	20298
888.395	20328
888.519	20343
888.643	20286
888.767	20324
888.891	20225
889.015	20096
889.139	20153
889.263	20065
889.387	20149
889.511	20385
889.635	20183
889.759	20035
889.883	20069
890.006	20126
890.13	20229
890.254	20020
890.377	20016
890.501	19772
890.624	19727
890.748	19860
890.871	19902
890.995	19575
891.118	19658
891.241	19731
891.364	19483
891.488	19791
891.611	19807
891.734	19628
891.857	19620
891.98	19643
892.103	19681
892.226	19685
892.349	19658
892.471	19426
892.594	19578
892.717	19616
892.839	19575
892.962	19620
893.085	19700
893.207	19419
893.33	19438
893.452	19487
893.575	19601
893.697	19521
893.819	19734
893.941	19795
894.064	19613
894.186	19449
894.308	19415
894.43	19693
894.552	19613
894.674	19624
894.796	19487
894.918	19464
895.04	19472
895.161	19719
895.283	19540
895.405	19506
895.526	19510
895.648	19635
895.769	19571
895.891	19567
896.012	19620
896.134	19548
896.255	19575
896.376	19533
896.498	19575
896.619	19578
896.74	19518
896.861	19559
896.982	19887
897.103	19978
897.224	19822
897.345	19750
897.466	19655
897.587	19704
897.708	19780
897.828	19784
897.949	19833
898.07	19616
898.19	19757
898.311	19776
898.431	19742
898.552	19696
898.672	19959
898.792	19830
898.913	19822
899.033	19655
899.153	19529
899.273	19540
899.393	19472
899.513	19628
899.633	19449
899.753	19556
899.873	19510
899.993	19559
900.113	19457
900.232	19449
900.352	19651
900.472	19430
900.591	19304
900.711	19384
900.83	19240
900.95	19373
901.069	19476
901.189	19141
901.308	19038
901.427	18901
901.546	18882
901.665	18897
901.784	18878
901.904	18696
902.023	18741
902.141	18429
902.26	18448
902.379	18566
902.498	18346
902.617	18464
902.735	18448
902.854	18429
902.973	18323
903.091	18171
903.21	17984
903.328	18034
903.446	17996
903.565	18011
903.683	17935
903.801	17802
903.919	17916
904.038	17847
904.156	17733
904.274	17843
904.392	17684
904.51	17592
904.627	17665
904.745	17748
904.863	17714
904.981	17334
905.098	17376
905.216	17296
905.334	17387
905.451	17395
905.569	17376
905.686	17395
905.803	17337
905.921	17132
906.038	17284
906.155	17239
906.272	17029
906.389	17151
906.506	17048
906.623	16961
906.74	16831
906.857	16797
906.974	16778
907.091	16938
907.208	17075
907.324	16900
907.441	16843
907.557	16599
907.674	16744
907.79	16634
907.907	16584
908.023	16561
908.139	16637
908.256	16675
908.372	16584
908.488	16577
908.604	16341
908.72	16386
908.836	16318
908.952	16394
909.068	16367
909.184	16470
909.3	16306
909.415	16390
909.531	16303
909.647	16192
909.762	16097
909.878	16010
909.993	16006
910.108	16021
910.224	16029
910.339	16055
910.454	15930
910.57	15895
910.685	15759
910.8	16040
910.915	16025
911.03	15755
911.145	15751
911.259	15713
911.374	15614
911.489	15675
911.604	15443
911.718	15401
911.833	15370
911.947	15370
912.062	15405
912.176	15530
912.291	15538
912.405	15428
912.519	15663
912.633	15637
912.748	15542
912.862	15458
912.976	15237
913.09	15188
913.204	15218
913.318	15272
913.431	15348
913.545	15389
913.659	15332
913.772	15116
913.886	15150
914	15066
914.113	15116
914.226	15112
914.34	15230
914.453	14944
914.566	15032
914.68	14986
914.793	14880
914.906	14804
915.019	14659
915.132	14617
915.245	14617
915.358	14697
915.47	14663
915.583	14674
915.696	14781
915.809	14838
915.921	14754
916.034	14617
916.146	14583
916.259	14533
916.371	14712
916.483	14659
916.595	14533
916.708	14549
916.82	14530
916.932	14571
917.044	14571
917.156	14396
917.268	14328
917.38	14389
917.491	14240
917.603	14465
917.715	14442
917.826	14381
917.938	14317
918.049	14149
918.161	14195
918.272	14457
918.384	14442
918.495	14339
918.606	14130
918.717	14149
918.828	14130
918.939	14119
919.05	14081
919.161	14043
919.272	13856
919.383	13993
919.494	14050
919.604	14278
919.715	14058
919.826	14008
919.936	14058
920.047	14248
920.157	14065
920.267	14237
920.378	14138
920.488	13997
920.598	14286
920.708	14355
920.818	14195
920.928	14237
921.038	14332
921.148	14180
921.258	13925
921.368	13936
921.477	13807
921.587	13822
921.697	13658
921.806	13845
921.916	13681
922.025	13537
922.134	13525
922.244	13453
922.353	13594
922.462	13464
922.571	13240
922.68	13160
922.789	13118
922.898	13091
923.007	13091
923.116	13168
923.224	13110
923.333	13091
923.442	12928
923.55	12894
923.659	12962
923.767	13004
923.876	12989
923.984	12981
924.092	12840
924.201	12973
924.309	12897
924.417	12890
924.525	12757
924.633	12802
924.741	13757
924.849	12620
924.956	12776
925.064	12498
925.172	12525
925.279	12483
925.387	12585
925.494	12578
925.602	12741
925.709	12635
925.816	12471
925.924	12422
926.031	12547
926.138	12509
926.245	12597
926.352	12448
926.459	12525
926.566	12582
926.673	12437
926.779	12350
926.886	12330
926.993	12220
927.099	12171
927.206	12060
927.312	12121
927.419	12163
927.525	12083
927.631	12155
927.737	11969
927.843	12015
927.95	11904
928.056	11912
928.162	12053
928.267	12007
928.373	12601
928.479	12026
928.585	11836
928.69	11878
928.796	11908
928.901	11855
929.007	11748
929.112	11832
929.218	11714
929.323	11878
929.428	11661
929.533	11855
929.638	11611
929.743	11646
929.848	11733
929.953	11634
930.058	11520
930.163	11482
930.267	11414
930.372	11551
930.477	11398
930.581	11611
930.685	11364
930.79	11273
930.894	11337
930.998	11299
931.103	11395
931.207	11071
931.311	10961
931.415	10790
931.519	10592
931.623	10656
