Data from test_V78500241_384.txt Node
Date: Fri Mar 25 15:12:32 CST 2022
User: usil
Spectrometer: V785-0024
Trigger mode: 0
Integration Time (sec): 4.000000E-1
Scans to average: 1
Nonlinearity correction enabled: false
Boxcar width: 0
Storing dark spectrum: false
XAxis mode: Wavelengths
Number of Pixels in Spectrum: 1024
>>>>>Begin Spectral Data<<<<<
801.071	26899
801.214	26899
801.356	26621
801.499	26674
801.641	26609
801.783	26579
801.926	26655
802.068	26560
802.211	26431
802.353	26332
802.496	26153
802.638	26161
802.78	26081
802.923	26176
803.065	26024
803.208	26050
803.35	26142
803.492	26225
803.635	26336
803.777	26149
803.919	26362
804.061	26632
804.204	26248
804.346	26202
804.488	26195
804.63	26358
804.773	26183
804.915	26157
805.057	26362
805.199	26377
805.341	26358
805.483	26332
805.626	26492
805.768	26206
805.91	26324
806.052	26434
806.194	26317
806.336	26453
806.478	26423
806.62	26423
806.762	26602
806.904	26731
807.046	26883
807.188	26746
807.33	26720
807.472	26994
807.614	26758
807.756	26815
807.898	26571
808.04	26480
808.182	26461
808.324	26629
808.465	26632
808.607	26853
808.749	26830
808.891	27112
809.033	27077
809.174	27020
809.316	26933
809.458	26948
809.6	26906
809.741	27005
809.883	26990
810.025	27233
810.166	27188
810.308	27195
810.45	27237
810.591	27386
810.733	26998
810.875	26940
811.016	26975
811.158	26872
811.299	26921
811.441	27043
811.582	27104
811.724	26937
811.865	26933
812.007	26956
812.148	26918
812.29	26918
812.431	27161
812.573	27374
812.714	27481
812.855	27466
812.997	27663
813.138	27629
813.279	27625
813.421	27481
813.562	27523
813.703	27195
813.845	27169
813.986	26933
814.127	26708
814.268	26644
814.41	26712
814.551	26541
814.692	26674
814.833	26598
814.974	26461
815.115	26541
815.256	26400
815.397	26404
815.539	26659
815.68	26499
815.821	26324
815.962	26358
816.103	26366
816.244	26244
816.385	26263
816.526	26164
816.666	25917
816.807	25887
816.948	25925
817.089	26008
817.23	25864
817.371	25909
817.512	25879
817.653	25978
817.793	25742
817.934	25841
818.075	25887
818.216	25925
818.356	25761
818.497	25746
818.638	25559
818.778	25632
818.919	25689
819.06	25780
819.2	25837
819.341	25837
819.481	25818
819.622	26016
819.762	26328
819.903	26069
820.043	25868
820.184	26005
820.324	25947
820.465	26065
820.605	25936
820.746	26138
820.886	25784
821.026	26005
821.167	25906
821.307	26077
821.447	25936
821.588	25784
821.728	25681
821.868	25407
822.008	25464
822.149	25240
822.289	25320
822.429	25198
822.569	25046
822.709	25046
822.849	24932
822.99	24772
823.13	24806
823.27	24787
823.41	24593
823.55	24551
823.69	24608
823.83	24513
823.97	24741
824.11	24452
824.25	24422
824.389	24505
824.529	24612
824.669	24513
824.809	24559
824.949	24661
825.089	24715
825.228	24608
825.368	24254
825.508	24342
825.648	24315
825.787	24350
825.927	24376
826.067	24410
826.206	24407
826.346	24327
826.485	24494
826.625	24384
826.765	24418
826.904	24399
827.044	24053
827.183	24224
827.323	24015
827.462	24064
827.601	24083
827.741	23950
827.88	24045
828.02	23927
828.159	23965
828.298	24174
828.437	24114
828.577	23965
828.716	24178
828.855	23996
828.994	23866
829.134	23817
829.273	23718
829.412	23783
829.551	23741
829.69	23813
829.829	23783
829.968	23771
830.107	23771
830.246	23722
830.385	23604
830.524	23821
830.663	23558
830.802	23455
830.941	23433
831.08	23417
831.219	23543
831.357	23566
831.496	23581
831.635	23516
831.774	23296
831.913	23280
832.051	23231
832.19	23242
832.329	23284
832.467	23181
832.606	23132
832.744	23155
832.883	23014
833.022	23044
833.16	23022
833.299	22972
833.437	22984
833.576	23254
833.714	23136
833.852	23193
833.991	23200
834.129	23227
834.267	23307
834.406	23136
834.544	23041
834.682	23170
834.821	23147
834.959	23242
835.097	23037
835.235	23079
835.373	23143
835.511	23102
835.65	23075
835.788	22987
835.926	22820
836.064	22839
836.202	22839
836.34	23033
836.478	23212
836.615	23014
836.753	23094
836.891	23006
837.029	23044
837.167	22976
837.305	22854
837.443	22919
837.58	22820
837.718	22957
837.856	22995
837.993	22797
838.131	22812
838.269	22767
838.406	22866
838.544	22565
838.681	22447
838.819	22459
838.956	22329
839.094	22447
839.231	22337
839.369	22508
839.506	22812
839.643	22497
839.781	22341
839.918	22314
840.055	22223
840.193	22352
840.33	22257
840.467	22249
840.604	22409
840.742	22470
840.879	22093
841.016	22204
841.153	22196
841.29	22474
841.427	22249
841.564	22276
841.701	22299
841.838	22291
841.975	22265
842.112	22166
842.249	22067
842.385	22070
842.522	22333
842.659	22169
842.796	22029
842.933	22070
843.069	22029
843.206	21922
843.343	22124
843.479	22070
843.616	21873
843.752	21778
843.889	21831
844.025	22067
844.162	21755
844.298	21884
844.435	21861
844.571	21861
844.708	21644
844.844	22025
844.98	21846
845.117	21911
845.253	21698
845.389	21660
845.525	21762
845.661	21538
845.798	21568
845.934	21587
846.07	21504
846.206	21534
846.342	21724
846.478	21473
846.614	21310
846.75	21272
846.886	21340
847.022	21306
847.158	21325
847.294	21306
847.429	21340
847.565	21131
847.701	21526
847.837	21100
847.972	21013
848.108	21070
848.244	21131
848.379	20929
848.515	20899
848.65	20826
848.786	21085
848.921	20834
849.057	21013
849.192	20910
849.328	20937
849.463	20834
849.598	20781
849.734	20819
849.869	20754
850.004	20819
850.14	20754
850.275	20674
850.41	20678
850.545	20568
850.68	20594
850.815	20754
850.95	20659
851.085	20815
851.22	20674
851.355	20743
851.49	20708
851.625	20629
851.76	20556
851.895	20587
852.03	20621
852.165	20606
852.299	20705
852.434	20663
852.569	20781
852.703	20667
852.838	20746
852.973	20807
853.107	20731
853.242	20648
853.376	20602
853.511	20385
853.645	20434
853.78	20617
853.914	20427
854.048	20530
854.183	20431
854.317	20579
854.451	20621
854.585	20518
854.72	20465
854.854	20533
854.988	20290
855.122	20587
855.256	20362
855.39	20484
855.524	20579
855.658	20514
855.792	20503
855.926	20625
856.06	20507
856.194	20556
856.327	20545
856.461	20377
856.595	20404
856.729	20412
856.862	20678
856.996	20427
857.13	20419
857.263	20503
857.397	20480
857.53	20454
857.664	20488
857.797	20583
857.931	20575
858.064	20526
858.197	20533
858.331	20328
858.464	20408
858.597	20366
858.731	20427
858.864	20457
858.997	20385
859.13	20484
859.263	20541
859.396	20583
859.529	20446
859.662	20393
859.795	20476
859.928	20343
860.061	20667
860.194	20583
860.327	20587
860.46	20457
860.592	20693
860.725	20773
860.858	20625
860.99	20461
861.123	20374
861.256	20431
861.388	20423
861.521	21081
861.653	20332
861.786	20347
861.918	20301
862.05	20259
862.183	20332
862.315	20355
862.447	20545
862.58	20480
862.712	20218
862.844	20199
862.976	20206
863.108	20275
863.24	20796
863.372	20145
863.504	20206
863.636	20191
863.768	20263
863.9	20157
864.032	20122
864.164	20180
864.296	20164
864.428	20298
864.559	20221
864.691	20286
864.823	20248
864.954	20180
865.086	20138
865.217	20134
865.349	20020
865.48	20084
865.612	20081
865.743	20233
865.875	20062
866.006	20119
866.137	20111
866.269	20134
866.4	20191
866.531	19909
866.662	19967
866.793	20027
866.924	19955
867.055	20031
867.186	20020
867.317	19986
867.448	20005
867.579	19993
867.71	19898
867.841	20024
867.972	20005
868.103	19982
868.233	20062
868.364	20103
868.495	20233
868.625	20259
868.756	20442
868.886	20172
869.017	20240
869.147	20389
869.278	20358
869.408	20355
869.539	20206
869.669	20400
869.799	20347
869.929	20476
870.06	20374
870.19	20556
870.32	20514
870.45	20602
870.58	20583
870.71	20781
870.84	20788
870.97	20629
871.1	20773
871.23	20899
871.36	20990
871.489	20857
871.619	20697
871.749	20887
871.879	20834
872.008	21017
872.138	20895
872.267	20811
872.397	20773
872.526	20823
872.656	20625
872.785	20838
872.915	20952
873.044	21013
873.173	21013
873.303	20929
873.432	20921
873.561	21024
873.69	20937
873.819	20899
873.948	20979
874.077	20895
874.206	20815
874.335	21043
874.464	21017
874.593	21116
874.722	21142
874.851	21230
874.979	21135
875.108	21218
875.237	21100
875.365	21256
875.494	21062
875.623	21329
875.751	21081
875.88	21150
876.008	21336
876.136	21294
876.265	21591
876.393	21743
876.521	21736
876.65	21675
876.778	21557
876.906	21450
877.034	21492
877.162	21583
877.29	21454
877.418	21526
877.546	21538
877.674	21523
877.802	21526
877.93	21462
878.058	21439
878.185	21428
878.313	21367
878.441	21485
878.568	21348
878.696	21389
878.824	21523
878.951	21633
879.079	21622
879.206	21812
879.333	21736
879.461	21553
879.588	21652
879.715	21644
879.842	21751
879.97	21587
880.097	21351
880.224	21336
880.351	21291
880.478	21344
880.605	21405
880.732	21252
880.859	21618
880.986	21370
881.112	21447
881.239	21077
881.366	21066
881.493	21028
881.619	20906
881.746	20967
881.872	20777
881.999	20849
882.125	20849
882.252	20948
882.378	20918
882.505	20971
882.631	20727
882.757	20648
882.883	20796
883.01	20518
883.136	20454
883.262	20400
883.388	20495
883.514	20609
883.64	20682
883.766	20560
883.892	20324
884.018	20514
884.143	20568
884.269	20625
884.395	20507
884.52	20286
884.646	20355
884.772	20145
884.897	20161
885.023	20438
885.148	20332
885.274	20484
885.399	20366
885.524	20366
885.65	20328
885.775	20180
885.9	20271
886.025	20370
886.15	20317
886.275	20199
886.4	20202
886.525	20332
886.65	20180
886.775	20180
886.9	20324
887.025	20507
887.149	20240
887.274	20149
887.399	20119
887.523	20157
887.648	20024
887.773	19944
887.897	20267
888.021	20142
888.146	20027
888.27	20149
888.395	20183
888.519	20096
888.643	20092
888.767	20088
888.891	19974
889.015	19845
889.139	19909
889.263	19833
889.387	20016
889.511	20084
889.635	20016
889.759	19788
889.883	19803
890.006	19970
890.13	19849
890.254	19727
890.377	19856
890.501	19715
890.624	19647
890.748	19780
890.871	19590
890.995	19381
891.118	19415
891.241	19506
891.364	19472
891.488	19559
891.611	19499
891.734	19415
891.857	19632
891.98	19438
892.103	19468
892.226	19480
892.349	19362
892.471	19400
892.594	19441
892.717	19354
892.839	19430
892.962	19457
893.085	19403
893.207	19293
893.33	19282
893.452	19365
893.575	19487
893.697	19449
893.819	19457
893.941	19552
894.064	19434
894.186	19263
894.308	19312
894.43	19457
894.552	19578
894.674	19468
894.796	19297
894.918	19350
895.04	19407
895.161	19396
895.283	19430
895.405	19388
895.526	19419
895.648	19278
895.769	19358
895.891	19354
896.012	19499
896.134	19449
896.255	19350
896.376	19278
896.498	19407
896.619	19388
896.74	19464
896.861	19403
896.982	19734
897.103	19818
897.224	19708
897.345	19670
897.466	19575
897.587	19708
897.708	19833
897.828	19628
897.949	19571
898.07	19453
898.19	19670
898.311	19696
898.431	19632
898.552	19594
898.672	19616
898.792	19685
898.913	19620
899.033	19495
899.153	19365
899.273	19255
899.393	19430
899.513	19438
899.633	19407
899.753	19434
899.873	19407
899.993	19445
900.113	19384
900.232	19434
900.352	19403
900.472	19244
900.591	19209
900.711	19194
900.83	19122
900.95	19407
901.069	19179
901.189	19129
901.308	18894
901.427	18711
901.546	18795
901.665	18730
901.784	18791
901.904	18646
902.023	18490
902.141	18277
902.26	18300
902.379	18308
902.498	18384
902.617	18182
902.735	18391
902.854	18277
902.973	18133
903.091	17889
903.21	18022
903.328	17912
903.446	17821
903.565	17771
903.683	17828
903.801	17680
903.919	17802
904.038	17661
904.156	17589
904.274	17657
904.392	17600
904.51	17421
904.627	17509
904.745	17520
904.863	17592
904.981	17315
905.098	17200
905.216	17193
905.334	17155
905.451	17315
905.569	17311
905.686	17303
905.803	17197
905.921	17041
906.038	17128
906.155	17045
906.272	16938
906.389	16949
906.506	16801
906.623	16839
906.74	16805
906.857	16733
906.974	16736
907.091	16805
907.208	16942
907.324	16736
907.441	16592
907.557	16447
907.674	16554
907.79	16394
907.907	16424
908.023	16569
908.139	16531
908.256	16474
908.372	16394
908.488	16280
908.604	16204
908.72	16192
908.836	16310
908.952	16181
909.068	16265
909.184	16360
909.3	16253
909.415	16329
909.531	16177
909.647	15983
909.762	15819
909.878	16010
909.993	15991
910.108	15915
910.224	15911
910.339	15918
910.454	15781
910.57	15766
910.685	15686
910.8	16048
910.915	15934
911.03	15800
911.145	15610
911.259	15572
911.374	15637
911.489	15526
911.604	15492
911.718	15317
911.833	15291
911.947	15184
912.062	15001
912.176	15268
912.291	15272
912.405	15264
912.519	15382
912.633	15424
912.748	15321
912.862	15173
912.976	15165
913.09	15017
913.204	15123
913.318	15116
913.431	15207
913.545	15207
913.659	15108
913.772	15104
913.886	14944
914	14967
914.113	15009
914.226	15116
914.34	14937
914.453	14887
914.566	14979
914.68	14872
914.793	14937
914.906	14606
915.019	14602
915.132	14549
915.245	14598
915.358	14659
915.47	14587
915.583	14511
915.696	14488
915.809	14708
915.921	14777
916.034	14431
916.146	14423
916.259	14564
916.371	14530
916.483	14568
916.595	14469
916.708	14454
916.82	14408
916.932	14366
917.044	14328
917.156	14324
917.268	14248
917.38	14195
917.491	14214
917.603	14298
917.715	14286
917.826	14328
917.938	14191
918.049	14134
918.161	14225
918.272	14317
918.384	14377
918.495	14240
918.606	13997
918.717	13898
918.828	14005
918.939	14001
919.05	13970
919.161	13913
919.272	13765
919.383	13830
919.494	14050
919.604	14180
919.715	13982
919.826	13928
919.936	13925
920.047	13947
920.157	14123
920.267	14107
920.378	14043
920.488	13947
920.598	14062
920.708	14225
920.818	14176
920.928	14043
921.038	14298
921.148	14214
921.258	13875
921.368	13833
921.477	13738
921.587	13712
921.697	13586
921.806	13769
921.916	13544
922.025	13354
922.134	13377
922.244	13339
922.353	13483
922.462	13354
922.571	13107
922.68	13034
922.789	13050
922.898	13046
923.007	12993
923.116	12875
923.224	12981
923.333	13000
923.442	12894
923.55	12798
923.659	12787
923.767	12890
923.876	12814
923.984	12825
924.092	12905
924.201	12760
924.309	12806
924.417	12753
924.525	12681
924.633	12768
924.741	13506
924.849	12570
924.956	12669
925.064	12464
925.172	12433
925.279	12445
925.387	12540
925.494	12486
925.602	12642
925.709	12563
925.816	12308
925.924	12547
926.031	12555
926.138	12464
926.245	12422
926.352	12285
926.459	12498
926.566	12471
926.673	12334
926.779	12197
926.886	12213
926.993	12060
927.099	12038
927.206	11942
927.312	12030
927.419	12110
927.525	12095
927.631	12064
927.737	11931
927.843	11912
927.95	11809
928.056	11878
928.162	11908
928.267	11942
928.373	12532
928.479	11927
928.585	11843
928.69	11817
928.796	11794
928.901	11790
929.007	11604
929.112	11707
929.218	11676
929.323	11642
929.428	11638
929.533	11726
929.638	11497
929.743	11627
929.848	11657
929.953	11608
930.058	11459
930.163	11356
930.267	11326
930.372	11406
930.477	11288
930.581	11589
930.685	11387
930.79	11261
930.894	11242
930.998	11128
931.103	11318
931.207	10896
931.311	10869
931.415	10797
931.519	10603
931.623	10611
