Data from test_V78500241_3040.txt Node
Date: Fri Mar 25 15:31:01 CST 2022
User: usil
Spectrometer: V785-0024
Trigger mode: 0
Integration Time (sec): 4.000000E-1
Scans to average: 1
Nonlinearity correction enabled: false
Boxcar width: 0
Storing dark spectrum: false
XAxis mode: Wavelengths
Number of Pixels in Spectrum: 1024
>>>>>Begin Spectral Data<<<<<
801.071	27180
801.214	27203
801.356	26720
801.499	26914
801.641	26853
801.783	26811
801.926	26785
802.068	26693
802.211	26693
802.353	26617
802.496	26583
802.638	26511
802.78	26434
802.923	26298
803.065	26320
803.208	26267
803.35	26404
803.492	26522
803.635	26480
803.777	26419
803.919	26575
804.061	26876
804.204	26648
804.346	26434
804.488	26385
804.63	26507
804.773	26351
804.915	26438
805.057	26609
805.199	26412
805.341	26655
805.483	26686
805.626	26758
805.768	26514
805.91	26587
806.052	26727
806.194	26495
806.336	26819
806.478	26564
806.62	26689
806.762	26708
806.904	27001
807.046	27165
807.188	27055
807.33	27116
807.472	27070
807.614	26876
807.756	26967
807.898	26975
808.04	26724
808.182	26796
808.324	26963
808.465	27001
808.607	27096
808.749	27279
808.891	27325
809.033	27416
809.174	27416
809.316	27256
809.458	27180
809.6	27291
809.741	27348
809.883	27439
810.025	27492
810.166	27557
810.308	27454
810.45	27500
810.591	27450
810.733	27302
810.875	27218
811.016	27211
811.158	27256
811.299	27473
811.441	27458
811.582	27374
811.724	27245
811.865	27359
812.007	27233
812.148	27306
812.29	27241
812.431	27401
812.573	27477
812.714	27641
812.855	27755
812.997	27816
813.138	28051
813.279	27873
813.421	27751
813.562	27667
813.703	27591
813.845	27481
813.986	27100
814.127	27058
814.268	26823
814.41	27058
814.551	26899
814.692	26918
814.833	26963
814.974	26910
815.115	26902
815.256	26876
815.397	26773
815.539	26800
815.68	26651
815.821	26587
815.962	26731
816.103	26621
816.244	26480
816.385	26583
816.526	26385
816.666	26305
816.807	26225
816.948	26240
817.089	26271
817.23	26081
817.371	26157
817.512	26084
817.653	26092
817.793	26100
817.934	26065
818.075	26214
818.216	26332
818.356	26043
818.497	26058
818.638	25959
818.778	25989
818.919	25807
819.06	26115
819.2	26103
819.341	26161
819.481	25997
819.622	26320
819.762	26313
819.903	26385
820.043	26282
820.184	26210
820.324	26332
820.465	26324
820.605	26195
820.746	26084
820.886	26062
821.026	26096
821.167	26278
821.307	26275
821.447	26240
821.588	26183
821.728	25925
821.868	25814
822.008	25704
822.149	25605
822.289	25616
822.429	25449
822.569	25339
822.709	25324
822.849	25232
822.99	25038
823.13	24943
823.27	25027
823.41	24943
823.55	24859
823.69	24932
823.83	25046
823.97	24886
824.11	24833
824.25	24749
824.389	24741
824.529	24715
824.669	24722
824.809	24844
824.949	24905
825.089	24886
825.228	24719
825.368	24563
825.508	24593
825.648	24639
825.787	24498
825.927	24749
826.067	24578
826.206	24574
826.346	24677
826.485	24597
826.625	24585
826.765	24749
826.904	24749
827.044	24479
827.183	24391
827.323	24308
827.462	24372
827.601	24494
827.741	24445
827.88	24319
828.02	24216
828.159	24228
828.298	24350
828.437	24490
828.577	24239
828.716	24304
828.855	24228
828.994	24003
829.134	24091
829.273	24015
829.412	24022
829.551	23897
829.69	23965
829.829	24041
829.968	24194
830.107	24076
830.246	24045
830.385	23916
830.524	23984
830.663	23851
830.802	23760
830.941	23634
831.08	23570
831.219	23714
831.357	23764
831.496	23802
831.635	23634
831.774	23558
831.913	23520
832.051	23581
832.19	23322
832.329	23330
832.467	23258
832.606	23349
832.744	23185
832.883	23265
833.022	23284
833.16	23337
833.299	23284
833.437	23372
833.576	23356
833.714	23402
833.852	23387
833.991	23490
834.129	23360
834.267	23372
834.406	23482
834.544	23360
834.682	23254
834.821	23277
834.959	23501
835.097	23368
835.235	23398
835.373	23429
835.511	23326
835.65	23159
835.788	23140
835.926	23086
836.064	23086
836.202	23083
836.34	23124
836.478	23368
836.615	23071
836.753	23174
836.891	23261
837.029	23315
837.167	23136
837.305	23094
837.443	23159
837.58	23010
837.718	23010
837.856	23083
837.993	23056
838.131	23018
838.269	22942
838.406	22896
838.544	22866
838.681	22752
838.819	22683
838.956	22417
839.094	22402
839.231	22599
839.369	22702
839.506	22968
839.643	22740
839.781	22569
839.918	22459
840.055	22630
840.193	22478
840.33	22402
840.467	22500
840.604	22436
840.742	22828
840.879	22276
841.016	22489
841.153	22360
841.29	22443
841.427	22500
841.564	22299
841.701	22485
841.838	22447
841.975	22348
842.112	22363
842.249	22337
842.385	22261
842.522	22527
842.659	22306
842.796	22162
842.933	22154
843.069	22261
843.206	22124
843.343	22128
843.479	22200
843.616	22185
843.752	21998
843.889	22036
844.025	22162
844.162	21998
844.298	22093
844.435	21998
844.571	21903
844.708	21937
844.844	22131
844.98	22082
845.117	22063
845.253	21884
845.389	21808
845.525	21766
845.661	21720
845.798	21652
845.934	21713
846.07	21766
846.206	21724
846.342	21956
846.478	21675
846.614	21538
846.75	21408
846.886	21439
847.022	21431
847.158	21378
847.294	21530
847.429	21603
847.565	21488
847.701	21644
847.837	21173
847.972	21165
848.108	21214
848.244	21116
848.379	21077
848.515	21013
848.65	20948
848.786	21096
848.921	20937
849.057	21226
849.192	21176
849.328	21131
849.463	21085
849.598	20948
849.734	21001
849.869	20956
850.004	20872
850.14	20872
850.275	20830
850.41	20754
850.545	20746
850.68	20788
850.815	20815
850.95	20743
851.085	20918
851.22	20937
851.355	20960
851.49	20804
851.625	20861
851.76	20796
851.895	20648
852.03	20765
852.165	20796
852.299	20746
852.434	20883
852.569	20807
852.703	20796
852.838	20849
852.973	20868
853.107	20937
853.242	20705
853.376	20571
853.511	20571
853.645	20682
853.78	20716
853.914	20708
854.048	20552
854.183	20644
854.317	20701
854.451	20750
854.585	20727
854.72	20644
854.854	20678
854.988	20606
855.122	20727
855.256	20594
855.39	20739
855.524	20811
855.658	20636
855.792	20720
855.926	20773
856.06	20678
856.194	20655
856.327	20632
856.461	20514
856.595	20678
856.729	20526
856.862	20823
856.996	20731
857.13	20739
857.263	20724
857.397	20746
857.53	20636
857.664	20705
857.797	20750
857.931	20743
858.064	20644
858.197	20689
858.331	20564
858.464	20571
858.597	20560
858.731	20568
858.864	20697
858.997	20571
859.13	20530
859.263	20701
859.396	20765
859.529	20568
859.662	20594
859.795	20568
859.928	20617
860.061	20705
860.194	20804
860.327	20648
860.46	20667
860.592	20743
860.725	20762
860.858	20693
860.99	20537
861.123	20617
861.256	20541
861.388	20609
861.521	21150
861.653	20541
861.786	20404
861.918	20480
862.05	20537
862.183	20629
862.315	20613
862.447	20617
862.58	20438
862.712	20366
862.844	20263
862.976	20530
863.108	20434
863.24	20811
863.372	20370
863.504	20389
863.636	20309
863.768	20339
863.9	20374
864.032	20400
864.164	20252
864.296	20419
864.428	20495
864.559	20404
864.691	20469
864.823	20206
864.954	20328
865.086	20347
865.217	20214
865.349	20119
865.48	20206
865.612	20100
865.743	20286
865.875	20195
866.006	20225
866.137	20214
866.269	20233
866.4	20206
866.531	20298
866.662	20183
866.793	20149
866.924	20164
867.055	20187
867.186	20126
867.317	20259
867.448	20115
867.579	20256
867.71	20168
867.841	20122
867.972	20191
868.103	20164
868.233	20218
868.364	20202
868.495	20358
868.625	20454
868.756	20511
868.886	20339
869.017	20370
869.147	20697
869.278	20587
869.408	20434
869.539	20476
869.669	20549
869.799	20541
869.929	20503
870.06	20427
870.19	20701
870.32	20773
870.45	20800
870.58	20754
870.71	21017
870.84	20895
870.97	20849
871.1	20731
871.23	21070
871.36	21077
871.489	20899
871.619	21096
871.749	21077
871.879	21047
872.008	21142
872.138	21062
872.267	21104
872.397	21028
872.526	20956
872.656	20834
872.785	20880
872.915	20994
873.044	21192
873.173	21032
873.303	21055
873.432	21096
873.561	21058
873.69	21093
873.819	20933
873.948	21123
874.077	21138
874.206	21017
874.335	21028
874.464	21173
874.593	21241
874.722	21233
874.851	21355
874.979	21317
875.108	21393
875.237	21233
875.365	21150
875.494	21272
875.623	21351
875.751	21169
875.88	21431
876.008	21530
876.136	21469
876.265	21564
876.393	21857
876.521	21736
876.65	21846
876.778	21888
876.906	21576
877.034	21736
877.162	21545
877.29	21526
877.418	21591
877.546	21629
877.674	21648
877.802	21679
877.93	21629
878.058	21660
878.185	21591
878.313	21648
878.441	21648
878.568	21530
878.696	21507
878.824	21625
878.951	21762
879.079	21865
879.206	21861
879.333	21888
879.461	21660
879.588	21774
879.715	21865
879.842	21945
879.97	21751
880.097	21496
880.224	21496
880.351	21492
880.478	21553
880.605	21564
880.732	21572
880.859	21755
880.986	21568
881.112	21469
881.239	21275
881.366	21252
881.493	21226
881.619	21043
881.746	21005
881.872	21089
881.999	21024
882.125	21032
882.252	21123
882.378	21081
882.505	21199
882.631	20944
882.757	20758
882.883	20876
883.01	20830
883.136	20617
883.262	20769
883.388	20693
883.514	20864
883.64	20872
883.766	20731
883.892	20674
884.018	20514
884.143	20807
884.269	20785
884.395	20648
884.52	20507
884.646	20389
884.772	20400
884.897	20301
885.023	20514
885.148	20545
885.274	20537
885.399	20484
885.524	20419
885.65	20457
885.775	20530
885.9	20347
886.025	20404
886.15	20473
886.275	20415
886.4	20313
886.525	20511
886.65	20358
886.775	20347
886.9	20526
887.025	20765
887.149	20427
887.274	20176
887.399	20233
887.523	20252
887.648	20168
887.773	20172
887.897	20259
888.021	20396
888.146	20069
888.27	20393
888.395	20240
888.519	20355
888.643	20111
888.767	20290
888.891	20153
889.015	20058
889.139	20024
889.263	19932
889.387	20096
889.511	20149
889.635	20237
889.759	19932
889.883	19883
890.006	20092
890.13	20043
890.254	19947
890.377	19993
890.501	19849
890.624	19765
890.748	19837
890.871	19738
890.995	19502
891.118	19487
891.241	19791
891.364	19693
891.488	19723
891.611	19635
891.734	19624
891.857	19662
891.98	19540
892.103	19643
892.226	19624
892.349	19639
892.471	19354
892.594	19605
892.717	19571
892.839	19491
892.962	19510
893.085	19476
893.207	19449
893.33	19480
893.452	19544
893.575	19540
893.697	19480
893.819	19620
893.941	19624
894.064	19677
894.186	19411
894.308	19377
894.43	19628
894.552	19609
894.674	19643
894.796	19354
894.918	19506
895.04	19377
895.161	19616
895.283	19635
895.405	19460
895.526	19662
895.648	19441
895.769	19590
895.891	19693
896.012	19624
896.134	19616
896.255	19514
896.376	19487
896.498	19495
896.619	19510
896.74	19483
896.861	19635
896.982	19875
897.103	20069
897.224	19677
897.345	19852
897.466	19761
897.587	19830
897.708	19887
897.828	19822
897.949	19670
898.07	19651
898.19	19643
898.311	19837
898.431	19655
898.552	19769
898.672	19784
898.792	19837
898.913	19788
899.033	19575
899.153	19563
899.273	19377
899.393	19491
899.513	19632
899.633	19559
899.753	19476
899.873	19521
899.993	19666
900.113	19419
900.232	19548
900.352	19403
900.472	19377
900.591	19343
900.711	19327
900.83	19247
900.95	19354
901.069	19377
901.189	19304
901.308	18901
901.427	18852
901.546	18844
901.665	18878
901.784	18776
901.904	18802
902.023	18730
902.141	18441
902.26	18464
902.379	18585
902.498	18384
902.617	18353
902.735	18475
902.854	18380
902.973	18353
903.091	18167
903.21	18171
903.328	18133
903.446	17965
903.565	17889
903.683	17992
903.801	17843
903.919	17870
904.038	17771
904.156	17703
904.274	17779
904.392	17680
904.51	17619
904.627	17539
904.745	17764
904.863	17779
904.981	17387
905.098	17307
905.216	17395
905.334	17353
905.451	17345
905.569	17261
905.686	17280
905.803	17334
905.921	17121
906.038	17204
906.155	17025
906.272	17117
906.389	17052
906.506	16965
906.623	16881
906.74	17003
906.857	16790
906.974	16679
907.091	16946
907.208	17064
907.324	16877
907.441	16763
907.557	16649
907.674	16675
907.79	16637
907.907	16698
908.023	16573
908.139	16538
908.256	16596
908.372	16478
908.488	16550
908.604	16352
908.72	16280
908.836	16303
908.952	16287
909.068	16455
909.184	16363
909.3	16386
909.415	16440
909.531	16310
909.647	16139
909.762	16067
909.878	16063
909.993	16097
910.108	16078
910.224	15949
910.339	15975
910.454	15869
910.57	15861
910.685	15816
910.8	16116
910.915	16021
911.03	15854
911.145	15580
911.259	15618
911.374	15652
911.489	15568
911.604	15557
911.718	15435
911.833	15519
911.947	15348
912.062	15241
912.176	15469
912.291	15363
912.405	15374
912.519	15606
912.633	15549
912.748	15447
912.862	15245
912.976	15287
913.09	15131
913.204	15146
913.318	15264
913.431	15367
913.545	15268
913.659	15344
913.772	15222
913.886	15024
914	15024
914.113	15131
914.226	15218
914.34	15070
914.453	14956
914.566	15062
914.68	14891
914.793	14876
914.906	14720
915.019	14670
915.132	14568
915.245	14648
915.358	14739
915.47	14693
915.583	14590
915.696	14667
915.809	14788
915.921	14743
916.034	14549
916.146	14579
916.259	14537
916.371	14598
916.483	14598
916.595	14488
916.708	14507
916.82	14389
916.932	14473
917.044	14461
917.156	14419
917.268	14301
917.38	14313
917.491	14282
917.603	14343
917.715	14347
917.826	14294
917.938	14256
918.049	14111
918.161	14305
918.272	14324
918.384	14389
918.495	14282
918.606	14130
918.717	14123
918.828	14111
918.939	14073
919.05	14024
919.161	14115
919.272	13944
919.383	13955
919.494	14054
919.604	14256
919.715	14119
919.826	13967
919.936	13978
920.047	14107
920.157	14115
920.267	14202
920.378	14130
920.488	14073
920.598	14233
920.708	14404
920.818	14195
920.928	14263
921.038	14343
921.148	14336
921.258	13974
921.368	13906
921.477	13928
921.587	13830
921.697	13636
921.806	13791
921.916	13704
922.025	13499
922.134	13445
922.244	13396
922.353	13483
922.462	13381
922.571	13335
922.68	13168
922.789	13126
922.898	13145
923.007	13076
923.116	13091
923.224	13126
923.333	13114
923.442	13042
923.55	12920
923.659	12939
923.767	13004
923.876	12890
923.984	12878
924.092	12856
924.201	12829
924.309	12871
924.417	12837
924.525	12810
924.633	12787
924.741	13753
924.849	12623
924.956	12730
925.064	12513
925.172	12509
925.279	12551
925.387	12593
925.494	12563
925.602	12631
925.709	12566
925.816	12532
925.924	12498
926.031	12544
926.138	12460
926.245	12540
926.352	12464
926.459	12483
926.566	12525
926.673	12410
926.779	12277
926.886	12209
926.993	12182
927.099	12171
927.206	12163
927.312	12068
927.419	12224
927.525	12125
927.631	12102
927.737	11939
927.843	11939
927.95	11904
928.056	11954
928.162	11977
928.267	12087
928.373	12555
928.479	12026
928.585	11779
928.69	11874
928.796	11882
928.901	11836
929.007	11707
929.112	11908
929.218	11786
929.323	11710
929.428	11577
929.533	11920
929.638	11554
929.743	11611
929.848	11733
929.953	11623
930.058	11452
930.163	11353
930.267	11425
930.372	11535
930.477	11296
930.581	11615
930.685	11482
930.79	11277
930.894	11292
930.998	11261
931.103	11376
931.207	11056
931.311	10987
931.415	10839
931.519	10618
931.623	10698
