Data from test_V78500241_510.txt Node
Date: Fri Mar 25 15:13:24 CST 2022
User: usil
Spectrometer: V785-0024
Trigger mode: 0
Integration Time (sec): 4.000000E-1
Scans to average: 1
Nonlinearity correction enabled: false
Boxcar width: 0
Storing dark spectrum: false
XAxis mode: Wavelengths
Number of Pixels in Spectrum: 1024
>>>>>Begin Spectral Data<<<<<
801.071	27427
801.214	27351
801.356	27104
801.499	27062
801.641	27051
801.783	26952
801.926	27066
802.068	26906
802.211	26872
802.353	26834
802.496	26739
802.638	26712
802.78	26697
802.923	26549
803.065	26495
803.208	26560
803.35	26648
803.492	26735
803.635	26845
803.777	26629
803.919	26864
804.061	27077
804.204	26682
804.346	26590
804.488	26739
804.63	26754
804.773	26621
804.915	26842
805.057	26891
805.199	26785
805.341	26834
805.483	26880
805.626	26823
805.768	26899
805.91	26902
806.052	26918
806.194	26731
806.336	26944
806.478	26910
806.62	26834
806.762	26990
806.904	27146
807.046	27363
807.188	27188
807.33	27260
807.472	27313
807.614	27203
807.756	27150
807.898	27047
808.04	27009
808.182	27104
808.324	27180
808.465	27291
808.607	27180
808.749	27481
808.891	27534
809.033	27557
809.174	27622
809.316	27553
809.458	27481
809.6	27268
809.741	27686
809.883	27526
810.025	27785
810.166	27762
810.308	27797
810.45	27903
810.591	27675
810.733	27530
810.875	27431
811.016	27359
811.158	27321
811.299	27603
811.441	27759
811.582	27625
811.724	27466
811.865	27466
812.007	27488
812.148	27507
812.29	27572
812.431	27671
812.573	27789
812.714	27903
812.855	28109
812.997	28040
813.138	28284
813.279	28234
813.421	28078
813.562	28025
813.703	27835
813.845	27633
813.986	27424
814.127	27336
814.268	27264
814.41	27150
814.551	27135
814.692	27233
814.833	27062
814.974	27104
815.115	27093
815.256	27047
815.397	27146
815.539	27142
815.68	27032
815.821	26883
815.962	27074
816.103	26872
816.244	26735
816.385	26754
816.526	26613
816.666	26507
816.807	26393
816.948	26438
817.089	26583
817.23	26507
817.371	26564
817.512	26423
817.653	26393
817.793	26480
817.934	26526
818.075	26381
818.216	26339
818.356	26431
818.497	26218
818.638	26252
818.778	26221
818.919	26275
819.06	26225
819.2	26278
819.341	26389
819.481	26374
819.622	26629
819.762	26663
819.903	26621
820.043	26651
820.184	26541
820.324	26518
820.465	26655
820.605	26556
820.746	26583
820.886	26412
821.026	26484
821.167	26427
821.307	26575
821.447	26461
821.588	26374
821.728	26366
821.868	26164
822.008	26046
822.149	25925
822.289	25875
822.429	25586
822.569	25575
822.709	25514
822.849	25422
822.99	25400
823.13	25285
823.27	25381
823.41	25194
823.55	25175
823.69	25202
823.83	25232
823.97	25084
824.11	25122
824.25	25027
824.389	25103
824.529	25206
824.669	25031
824.809	25034
824.949	25160
825.089	25019
825.228	24973
825.368	24821
825.508	24916
825.648	24932
825.787	25099
825.927	24992
826.067	24901
826.206	24901
826.346	24996
826.485	25034
826.625	24852
826.765	24947
826.904	24916
827.044	24726
827.183	24658
827.323	24563
827.462	24635
827.601	24620
827.741	24582
827.88	24612
828.02	24490
828.159	24525
828.298	24730
828.437	24783
828.577	24517
828.716	24658
828.855	24563
828.994	24380
829.134	24285
829.273	24353
829.412	24289
829.551	24369
829.69	24384
829.829	24277
829.968	24330
830.107	24365
830.246	24429
830.385	24239
830.524	24178
830.663	24296
830.802	24125
830.941	23977
831.08	23939
831.219	24026
831.357	23927
831.496	24106
831.635	23996
831.774	23973
831.913	23923
832.051	23939
832.19	23649
832.329	23824
832.467	23672
832.606	23608
832.744	23619
832.883	23710
833.022	23509
833.16	23661
833.299	23634
833.437	23729
833.576	23676
833.714	23623
833.852	23771
833.991	23767
834.129	23805
834.267	23703
834.406	23805
834.544	23684
834.682	23718
834.821	23756
834.959	23885
835.097	23585
835.235	23878
835.373	23585
835.511	23615
835.65	23623
835.788	23520
835.926	23482
836.064	23391
836.202	23299
836.34	23471
836.478	23695
836.615	23531
836.753	23505
836.891	23684
837.029	23524
837.167	23478
837.305	23471
837.443	23414
837.58	23353
837.718	23474
837.856	23516
837.993	23345
838.131	23334
838.269	23307
838.406	23197
838.544	23181
838.681	23048
838.819	23090
838.956	22938
839.094	22839
839.231	22820
839.369	23014
839.506	23140
839.643	23109
839.781	22919
839.918	22869
840.055	22801
840.193	22908
840.33	22630
840.467	22896
840.604	22733
840.742	23010
840.879	22668
841.016	22782
841.153	22641
841.29	22915
841.427	22774
841.564	22854
841.701	22752
841.838	22656
841.975	22641
842.112	22713
842.249	22573
842.385	22500
842.522	22774
842.659	22668
842.796	22588
842.933	22466
843.069	22546
843.206	22561
843.343	22588
843.479	22542
843.616	22588
843.752	22459
843.889	22333
844.025	22462
844.162	22207
844.298	22527
844.435	22428
844.571	22356
844.708	22325
844.844	22592
844.98	22325
845.117	22409
845.253	22215
845.389	22246
845.525	22215
845.661	22196
845.798	22097
845.934	22105
846.07	22040
846.206	22070
846.342	22166
846.478	22048
846.614	21907
846.75	21808
846.886	21823
847.022	21941
847.158	21869
847.294	21831
847.429	21812
847.565	21789
847.701	22017
847.837	21603
847.972	21428
848.108	21652
848.244	21572
848.379	21370
848.515	21424
848.65	21370
848.786	21431
848.921	21405
849.057	21485
849.192	21515
849.328	21447
849.463	21481
849.598	21329
849.734	21283
849.869	21408
850.004	21188
850.14	21154
850.275	21119
850.41	20998
850.545	21100
850.68	21157
850.815	21165
850.95	21184
851.085	21275
851.22	21230
851.355	21161
851.49	21222
851.625	21112
851.76	21104
851.895	21119
852.03	21020
852.165	21226
852.299	21275
852.434	21344
852.569	21146
852.703	21131
852.838	21222
852.973	21363
853.107	21199
853.242	20963
853.376	21043
853.511	20861
853.645	20998
853.78	21207
853.914	21100
854.048	20941
854.183	20941
854.317	20921
854.451	21184
854.585	20963
854.72	20975
854.854	21074
854.988	20781
855.122	21017
855.256	20872
855.39	20899
855.524	20933
855.658	20979
855.792	20979
855.926	21013
856.06	20994
856.194	21096
856.327	20944
856.461	20823
856.595	20899
856.729	20975
856.862	21108
856.996	20975
857.13	21089
857.263	21138
857.397	21036
857.53	20948
857.664	21020
857.797	21062
857.931	21077
858.064	20880
858.197	21051
858.331	20956
858.464	20899
858.597	20853
858.731	21032
858.864	21036
858.997	20891
859.13	20929
859.263	20956
859.396	21142
859.529	20982
859.662	20902
859.795	20880
859.928	20876
860.061	21066
860.194	21116
860.327	21081
860.46	20868
860.592	21020
860.725	21032
860.858	21180
860.99	20967
861.123	20914
861.256	20891
861.388	20883
861.521	21808
861.653	20933
861.786	20651
861.918	20838
862.05	20944
862.183	20883
862.315	20811
862.447	20963
862.58	20861
862.712	20697
862.844	20621
862.976	20712
863.108	20731
863.24	21184
863.372	20678
863.504	20743
863.636	20678
863.768	20648
863.9	20655
864.032	20754
864.164	20560
864.296	20720
864.428	20792
864.559	20765
864.691	20750
864.823	20682
864.954	20655
865.086	20678
865.217	20564
865.349	20419
865.48	20606
865.612	20655
865.743	20678
865.875	20682
866.006	20621
866.137	20549
866.269	20545
866.4	20594
866.531	20530
866.662	20404
866.793	20507
866.924	20552
867.055	20545
867.186	20590
867.317	20552
867.448	20408
867.579	20518
867.71	20469
867.841	20446
867.972	20434
868.103	20488
868.233	20571
868.364	20514
868.495	20678
868.625	20769
868.756	20861
868.886	20800
869.017	20712
869.147	20868
869.278	20887
869.408	20765
869.539	20739
869.669	20804
869.799	20823
869.929	20941
870.06	20853
870.19	21036
870.32	21043
870.45	21154
870.58	21222
870.71	21302
870.84	21211
870.97	21108
871.1	21283
871.23	21165
871.36	21405
871.489	21173
871.619	21279
871.749	21405
871.879	21386
872.008	21587
872.138	21428
872.267	21351
872.397	21218
872.526	21127
872.656	21180
872.785	21169
872.915	21416
873.044	21401
873.173	21291
873.303	21435
873.432	21405
873.561	21416
873.69	21405
873.819	21393
873.948	21420
874.077	21359
874.206	21298
874.335	21405
874.464	21511
874.593	21576
874.722	21557
874.851	21576
874.979	21599
875.108	21705
875.237	21660
875.365	21603
875.494	21606
875.623	21603
875.751	21694
875.88	21698
876.008	21800
876.136	21854
876.265	21956
876.393	22169
876.521	22093
876.65	22120
876.778	22074
876.906	21831
877.034	21911
877.162	21956
877.29	21949
877.418	22017
877.546	21994
877.674	22013
877.802	22025
877.93	21953
878.058	21994
878.185	21884
878.313	21945
878.441	21945
878.568	21873
878.696	21842
878.824	22040
878.951	22002
879.079	22185
879.206	22253
879.333	22162
879.461	21968
879.588	22109
879.715	22116
879.842	22333
879.97	21991
880.097	21873
880.224	21751
880.351	21873
880.478	21713
880.605	21690
880.732	21770
880.859	22067
880.986	21865
881.112	21838
881.239	21720
881.366	21515
881.493	21408
881.619	21306
881.746	21386
881.872	21416
881.999	21199
882.125	21374
882.252	21515
882.378	21275
882.505	21424
882.631	21184
882.757	21173
882.883	21081
883.01	21108
883.136	21123
883.262	20933
883.388	20941
883.514	21157
883.64	21096
883.766	20918
883.892	20895
884.018	20895
884.143	21085
884.269	21047
884.395	20800
884.52	20697
884.646	20781
884.772	20640
884.897	20678
885.023	20826
885.148	20826
885.274	20887
885.399	20800
885.524	20724
885.65	20632
885.775	20693
885.9	20781
886.025	20796
886.15	20667
886.275	20568
886.4	20667
886.525	20621
886.65	20629
886.775	20659
886.9	20777
887.025	20960
887.149	20735
887.274	20568
887.399	20507
887.523	20396
887.648	20480
887.773	20343
887.897	20549
888.021	20442
888.146	20408
888.27	20644
888.395	20564
888.519	20564
888.643	20552
888.767	20571
888.891	20374
889.015	20252
889.139	20370
889.263	20183
889.387	20355
889.511	20503
889.635	20461
889.759	20320
889.883	20210
890.006	20298
890.13	20381
890.254	20259
890.377	20267
890.501	20039
890.624	19944
890.748	20092
890.871	20005
890.995	19875
891.118	19894
891.241	19925
891.364	19902
891.488	19997
891.611	19841
891.734	19955
891.857	19921
891.98	19868
892.103	19837
892.226	19921
892.349	19955
892.471	19753
892.594	19734
892.717	19784
892.839	19818
892.962	19811
893.085	19803
893.207	19814
893.33	19643
893.452	19757
893.575	19833
893.697	19666
893.819	19883
893.941	19944
894.064	19856
894.186	19712
894.308	19689
894.43	19967
894.552	19909
894.674	19791
894.796	19620
894.918	19765
895.04	19689
895.161	19879
895.283	19898
895.405	19731
895.526	19761
895.648	19708
895.769	19902
895.891	19856
896.012	19932
896.134	19860
896.255	19757
896.376	19780
896.498	19932
896.619	19696
896.74	19750
896.861	19902
896.982	20039
897.103	20286
897.224	20058
897.345	20024
897.466	19982
897.587	20050
897.708	20145
897.828	20039
897.949	20020
898.07	19887
898.19	19986
898.311	20050
898.431	20016
898.552	20050
898.672	20183
898.792	20100
898.913	20073
899.033	19894
899.153	19841
899.273	19742
899.393	19685
899.513	19761
899.633	19830
899.753	19814
899.873	19696
899.993	19841
900.113	19738
900.232	19826
900.352	19693
900.472	19689
900.591	19575
900.711	19597
900.83	19544
900.95	19674
901.069	19670
901.189	19460
901.308	19278
901.427	19160
901.546	19209
901.665	19122
901.784	19126
901.904	19008
902.023	18977
902.141	18852
902.26	18753
902.379	18768
902.498	18730
902.617	18696
902.735	18673
902.854	18551
902.973	18593
903.091	18399
903.21	18372
903.328	18319
903.446	18247
903.565	18117
903.683	18121
903.801	18144
903.919	18015
904.038	18114
904.156	18045
904.274	18015
904.392	17847
904.51	17984
904.627	17901
904.745	18038
904.863	18041
904.981	17828
905.098	17562
905.216	17604
905.334	17535
905.451	17676
905.569	17505
905.686	17570
905.803	17474
905.921	17429
906.038	17524
906.155	17387
906.272	17220
906.389	17246
906.506	17166
906.623	17064
906.74	17159
906.857	16968
906.974	17189
907.091	17181
907.208	17235
907.324	17117
907.441	16946
907.557	16809
907.674	16854
907.79	16831
907.907	16828
908.023	16911
908.139	16991
908.256	16801
908.372	16816
908.488	16710
908.604	16573
908.72	16592
908.836	16660
908.952	16512
909.068	16596
909.184	16653
909.3	16542
909.415	16584
909.531	16527
909.647	16356
909.762	16291
909.878	16295
909.993	16234
910.108	16234
910.224	16299
910.339	16299
910.454	16044
910.57	16200
910.685	16029
910.8	16276
910.915	16337
911.03	16074
911.145	16006
911.259	15823
911.374	15953
911.489	15842
911.604	15690
911.718	15622
911.833	15625
911.947	15557
912.062	15428
912.176	15587
912.291	15648
912.405	15576
912.519	15774
912.633	15876
912.748	15713
912.862	15606
912.976	15416
913.09	15348
913.204	15454
913.318	15458
913.431	15603
913.545	15515
913.659	15545
913.772	15431
913.886	15313
914	15310
914.113	15393
914.226	15359
914.34	15431
914.453	15104
914.566	15340
914.68	15051
914.793	15043
914.906	14998
915.019	14845
915.132	14807
915.245	14842
915.358	14872
915.47	15001
915.583	14849
915.696	14845
915.809	14986
915.921	14956
916.034	14807
916.146	14823
916.259	14785
916.371	14857
916.483	14849
916.595	14659
916.708	14682
916.82	14701
916.932	14655
917.044	14590
917.156	14636
917.268	14507
917.38	14625
917.491	14495
917.603	14644
917.715	14667
917.826	14697
917.938	14469
918.049	14339
918.161	14503
918.272	14583
918.384	14514
918.495	14431
918.606	14389
918.717	14252
918.828	14370
918.939	14343
919.05	14267
919.161	14309
919.272	14103
919.383	14225
919.494	14290
919.604	14492
919.715	14267
919.826	14145
919.936	14370
920.047	14275
920.157	14290
920.267	14556
920.378	14309
920.488	14263
920.598	14480
920.708	14518
920.818	14366
920.928	14415
921.038	14488
921.148	14507
921.258	14214
921.368	14183
921.477	14039
921.587	14115
921.697	13890
921.806	14001
921.916	13917
922.025	13727
922.134	13715
922.244	13643
922.353	13811
922.462	13514
922.571	13495
922.68	13312
922.789	13282
922.898	13377
923.007	13320
923.116	13411
923.224	13251
923.333	13297
923.442	13198
923.55	13190
923.659	13190
923.767	13149
923.876	13103
923.984	13091
924.092	13031
924.201	12981
924.309	13118
924.417	13183
924.525	13004
924.633	12985
924.741	13852
924.849	12779
924.956	12947
925.064	12821
925.172	12646
925.279	12779
925.387	12764
925.494	12734
925.602	12852
925.709	12825
925.816	12620
925.924	12601
926.031	12810
926.138	12700
926.245	12745
926.352	12585
926.459	12764
926.566	12749
926.673	12616
926.779	12486
926.886	12525
926.993	12350
927.099	12262
927.206	12251
927.312	12235
927.419	12323
927.525	12327
927.631	12376
927.737	12201
927.843	12209
927.95	12068
928.056	12125
928.162	12129
928.267	12201
928.373	12639
928.479	12152
928.585	11946
928.69	12076
928.796	12167
928.901	11996
929.007	11836
929.112	12083
929.218	11992
929.323	11893
929.428	11935
929.533	11999
929.638	11809
929.743	11817
929.848	11790
929.953	11805
930.058	11680
930.163	11539
930.267	11596
930.372	11733
930.477	11581
930.581	11680
930.685	11661
930.79	11505
930.894	11471
930.998	11471
931.103	11638
931.207	11318
931.311	11178
931.415	11166
931.519	10869
931.623	10824
