Data from test_V78500241_2976.txt Node
Date: Fri Mar 25 15:30:34 CST 2022
User: usil
Spectrometer: V785-0024
Trigger mode: 0
Integration Time (sec): 4.000000E-1
Scans to average: 1
Nonlinearity correction enabled: false
Boxcar width: 0
Storing dark spectrum: false
XAxis mode: Wavelengths
Number of Pixels in Spectrum: 1024
>>>>>Begin Spectral Data<<<<<
801.071	27195
801.214	27135
801.356	26838
801.499	26864
801.641	26902
801.783	26670
801.926	26724
802.068	26686
802.211	26625
802.353	26667
802.496	26606
802.638	26278
802.78	26317
802.923	26221
803.065	26446
803.208	26244
803.35	26320
803.492	26355
803.635	26453
803.777	26355
803.919	26415
804.061	26842
804.204	26427
804.346	26450
804.488	26252
804.63	26450
804.773	26370
804.915	26511
805.057	26541
805.199	26309
805.341	26446
805.483	26613
805.626	26587
805.768	26366
805.91	26682
806.052	26564
806.194	26499
806.336	26705
806.478	26564
806.62	26450
806.762	26636
806.904	26724
807.046	27207
807.188	27055
807.33	27058
807.472	27066
807.614	26979
807.756	26910
807.898	26754
808.04	26849
808.182	26606
808.324	26853
808.465	26880
808.607	27116
808.749	27154
808.891	27363
809.033	27393
809.174	27233
809.316	27047
809.458	27256
809.6	27131
809.741	27218
809.883	27268
810.025	27507
810.166	27393
810.308	27439
810.45	27359
810.591	27397
810.733	27085
810.875	27287
811.016	27043
811.158	27150
811.299	27355
811.441	27268
811.582	27492
811.724	27214
811.865	27028
812.007	27176
812.148	27096
812.29	27230
812.431	27230
812.573	27485
812.714	27644
812.855	27739
812.997	27751
813.138	27823
813.279	27804
813.421	27606
813.562	27652
813.703	27431
813.845	27310
813.986	27146
814.127	26861
814.268	26861
814.41	26826
814.551	26826
814.692	26857
814.833	26804
814.974	26838
815.115	26872
815.256	26632
815.397	26785
815.539	26746
815.68	26625
815.821	26560
815.962	26636
816.103	26450
816.244	26389
816.385	26434
816.526	26187
816.666	26100
816.807	26138
816.948	26122
817.089	26252
817.23	26058
817.371	26134
817.512	26050
817.653	26126
817.793	26027
817.934	26096
818.075	26145
818.216	26164
818.356	26046
818.497	25860
818.638	25849
818.778	25677
818.919	25830
819.06	25875
819.2	26005
819.341	26016
819.481	25959
819.622	26210
819.762	26351
819.903	26385
820.043	26183
820.184	26130
820.324	26107
820.465	26271
820.605	26149
820.746	26149
820.886	26020
821.026	26218
821.167	26221
821.307	26168
821.447	26199
821.588	25898
821.728	25871
821.868	25639
822.008	25624
822.149	25548
822.289	25552
822.429	25236
822.569	25259
822.709	25221
822.849	25091
822.99	24928
823.13	24977
823.27	25023
823.41	24825
823.55	24776
823.69	24935
823.83	24787
823.97	24844
824.11	24730
824.25	24483
824.389	24730
824.529	24639
824.669	24650
824.809	24749
824.949	24700
825.089	24730
825.228	24646
825.368	24585
825.508	24475
825.648	24517
825.787	24429
825.927	24597
826.067	24597
826.206	24498
826.346	24536
826.485	24547
826.625	24475
826.765	24677
826.904	24608
827.044	24281
827.183	24346
827.323	24224
827.462	24209
827.601	24155
827.741	24197
827.88	24190
828.02	23999
828.159	24273
828.298	24174
828.437	24220
828.577	24106
828.716	24254
828.855	24110
828.994	23931
829.134	23821
829.273	23912
829.412	23855
829.551	23961
829.69	23866
829.829	23977
829.968	24026
830.107	24018
830.246	24030
830.385	23840
830.524	23817
830.663	23733
830.802	23630
830.941	23486
831.08	23516
831.219	23661
831.357	23752
831.496	23718
831.635	23531
831.774	23402
831.913	23425
832.051	23273
832.19	23265
832.329	23254
832.467	23071
832.606	23185
832.744	23212
832.883	23140
833.022	23147
833.16	23330
833.299	23227
833.437	23246
833.576	23280
833.714	23311
833.852	23280
833.991	23360
834.129	23337
834.267	23220
834.406	23212
834.544	23239
834.682	23216
834.821	23223
834.959	23444
835.097	23147
835.235	23398
835.373	23284
835.511	23265
835.65	23086
835.788	23102
835.926	22915
836.064	22972
836.202	22927
836.34	23128
836.478	23083
836.615	23029
836.753	23018
836.891	23121
837.029	23185
837.167	23162
837.305	22968
837.443	22980
837.58	22930
837.718	23037
837.856	22889
837.993	22980
838.131	22923
838.269	22687
838.406	22862
838.544	22755
838.681	22478
838.819	22561
838.956	22405
839.094	22352
839.231	22538
839.369	22573
839.506	22862
839.643	22683
839.781	22428
839.918	22466
840.055	22523
840.193	22394
840.33	22375
840.467	22318
840.604	22382
840.742	22607
840.879	22169
841.016	22272
841.153	22211
841.29	22466
841.427	22268
841.564	22421
841.701	22360
841.838	22249
841.975	22242
842.112	22329
842.249	22291
842.385	22124
842.522	22386
842.659	22246
842.796	22162
842.933	22051
843.069	22128
843.206	22074
843.343	22215
843.479	22105
843.616	22185
843.752	21907
843.889	21865
844.025	21937
844.162	21823
844.298	21926
844.435	21827
844.571	21778
844.708	21953
844.844	22002
844.98	21941
845.117	22055
845.253	21857
845.389	21603
845.525	21778
845.661	21739
845.798	21591
845.934	21675
846.07	21545
846.206	21660
846.342	21800
846.478	21576
846.614	21485
846.75	21294
846.886	21344
847.022	21329
847.158	21389
847.294	21336
847.429	21447
847.565	21268
847.701	21629
847.837	21104
847.972	21093
848.108	21188
848.244	21165
848.379	20994
848.515	20895
848.65	20990
848.786	21051
848.921	21036
849.057	21131
849.192	21013
849.328	20998
849.463	20960
849.598	20864
849.734	20826
849.869	20861
850.004	20735
850.14	20720
850.275	20659
850.41	20644
850.545	20655
850.68	20670
850.815	20773
850.95	20830
851.085	20800
851.22	20960
851.355	20708
851.49	20663
851.625	20663
851.76	20731
851.895	20693
852.03	20663
852.165	20476
852.299	20712
852.434	20769
852.569	20804
852.703	20769
852.838	20739
852.973	20845
853.107	20861
853.242	20674
853.376	20625
853.511	20609
853.645	20495
853.78	20590
853.914	20571
854.048	20488
854.183	20598
854.317	20530
854.451	20686
854.585	20648
854.72	20476
854.854	20632
854.988	20492
855.122	20590
855.256	20511
855.39	20488
855.524	20518
855.658	20670
855.792	20503
855.926	20590
856.06	20514
856.194	20598
856.327	20602
856.461	20549
856.595	20415
856.729	20530
856.862	20568
856.996	20518
857.13	20552
857.263	20655
857.397	20590
857.53	20499
857.664	20549
857.797	20568
857.931	20629
858.064	20537
858.197	20594
858.331	20469
858.464	20473
858.597	20358
858.731	20514
858.864	20404
858.997	20518
859.13	20526
859.263	20598
859.396	20556
859.529	20526
859.662	20457
859.795	20465
859.928	20602
860.061	20697
860.194	20735
860.327	20492
860.46	20571
860.592	20667
860.725	20701
860.858	20674
860.99	20568
861.123	20400
861.256	20480
861.388	20473
861.521	21138
861.653	20385
861.786	20248
861.918	20339
862.05	20499
862.183	20522
862.315	20552
862.447	20560
862.58	20530
862.712	20317
862.844	20263
862.976	20305
863.108	20259
863.24	20807
863.372	20145
863.504	20393
863.636	20286
863.768	20332
863.9	20252
864.032	20153
864.164	20256
864.296	20263
864.428	20400
864.559	20343
864.691	20385
864.823	20355
864.954	20180
865.086	20240
865.217	20218
865.349	20092
865.48	20153
865.612	20062
865.743	20202
865.875	20168
866.006	20077
866.137	20153
866.269	20157
866.4	20157
866.531	20149
866.662	19982
866.793	20024
866.924	20031
867.055	20062
867.186	19974
867.317	20065
867.448	19989
867.579	20005
867.71	20020
867.841	20081
867.972	20103
868.103	20065
868.233	20092
868.364	20225
868.495	20206
868.625	20252
868.756	20442
868.886	20317
869.017	20347
869.147	20442
869.278	20377
869.408	20415
869.539	20271
869.669	20465
869.799	20362
869.929	20396
870.06	20457
870.19	20590
870.32	20693
870.45	20678
870.58	20796
870.71	20708
870.84	20800
870.97	20716
871.1	20788
871.23	21024
871.36	20948
871.489	20933
871.619	20845
871.749	20883
871.879	20861
872.008	20990
872.138	20982
872.267	20883
872.397	20769
872.526	20830
872.656	20762
872.785	20697
872.915	20963
873.044	21055
873.173	21047
873.303	21066
873.432	20998
873.561	21081
873.69	21009
873.819	21074
873.948	20941
874.077	21005
874.206	20853
874.335	21043
874.464	21062
874.593	21233
874.722	21252
874.851	21226
874.979	21237
875.108	21199
875.237	21180
875.365	20952
875.494	21241
875.623	21264
875.751	21199
875.88	21287
876.008	21272
876.136	21412
876.265	21663
876.393	21538
876.521	21720
876.65	21709
876.778	21671
876.906	21553
877.034	21523
877.162	21599
877.29	21534
877.418	21511
877.546	21682
877.674	21557
877.802	21583
877.93	21523
878.058	21534
878.185	21462
878.313	21545
878.441	21481
878.568	21302
878.696	21488
878.824	21511
878.951	21663
879.079	21770
879.206	21743
879.333	21705
879.461	21739
879.588	21705
879.715	21797
879.842	21804
879.97	21583
880.097	21458
880.224	21439
880.351	21477
880.478	21344
880.605	21370
880.732	21291
880.859	21492
880.986	21454
881.112	21462
881.239	21336
881.366	21070
881.493	21108
881.619	20948
881.746	21123
881.872	20967
881.999	20998
882.125	20918
882.252	20933
882.378	20895
882.505	21066
882.631	20929
882.757	20617
882.883	20674
883.01	20602
883.136	20667
883.262	20629
883.388	20484
883.514	20587
883.64	20686
883.766	20530
883.892	20476
884.018	20412
884.143	20571
884.269	20788
884.395	20438
884.52	20256
884.646	20339
884.772	20419
884.897	20172
885.023	20317
885.148	20404
885.274	20552
885.399	20431
885.524	20343
885.65	20419
885.775	20324
885.9	20218
886.025	20434
886.15	20343
886.275	20374
886.4	20267
886.525	20309
886.65	20259
886.775	20149
886.9	20336
887.025	20530
887.149	20286
887.274	20130
887.399	20016
887.523	20016
887.648	20043
887.773	19989
887.897	20210
888.021	20062
888.146	20062
888.27	20252
888.395	20176
888.519	20157
888.643	20168
888.767	20149
888.891	20012
889.015	19932
889.139	20005
889.263	19928
889.387	20096
889.511	20035
889.635	19913
889.759	19909
889.883	19860
890.006	19997
890.13	19970
890.254	19822
890.377	19936
890.501	19727
890.624	19620
890.748	19750
890.871	19616
890.995	19525
891.118	19468
891.241	19559
891.364	19499
891.488	19677
891.611	19400
891.734	19521
891.857	19533
891.98	19438
892.103	19590
892.226	19441
892.349	19506
892.471	19274
892.594	19282
892.717	19525
892.839	19441
892.962	19377
893.085	19491
893.207	19293
893.33	19259
893.452	19304
893.575	19460
893.697	19419
893.819	19499
893.941	19521
894.064	19556
894.186	19324
894.308	19460
894.43	19464
894.552	19601
894.674	19491
894.796	19358
894.918	19308
895.04	19415
895.161	19396
895.283	19518
895.405	19426
895.526	19384
895.648	19282
895.769	19476
895.891	19407
896.012	19426
896.134	19510
896.255	19362
896.376	19400
896.498	19457
896.619	19362
896.74	19468
896.861	19480
896.982	19788
897.103	19887
897.224	19651
897.345	19586
897.466	19571
897.587	19628
897.708	19780
897.828	19750
897.949	19635
898.07	19616
898.19	19609
898.311	19704
898.431	19624
898.552	19571
898.672	19734
898.792	19803
898.913	19582
899.033	19666
899.153	19525
899.273	19331
899.393	19377
899.513	19396
899.633	19510
899.753	19521
899.873	19236
899.993	19377
900.113	19282
900.232	19434
900.352	19403
900.472	19244
900.591	19202
900.711	19324
900.83	19198
900.95	19308
901.069	19282
901.189	19168
901.308	19031
901.427	18890
901.546	18875
901.665	18856
901.784	18825
901.904	18772
902.023	18631
902.141	18490
902.26	18330
902.379	18498
902.498	18361
902.617	18433
902.735	18323
902.854	18350
902.973	18155
903.091	18079
903.21	17939
903.328	17988
903.446	17908
903.565	17748
903.683	17805
903.801	17733
903.919	17798
904.038	17824
904.156	17627
904.274	17570
904.392	17649
904.51	17592
904.627	17440
904.745	17570
904.863	17577
904.981	17478
905.098	17227
905.216	17265
905.334	17364
905.451	17296
905.569	17235
905.686	17269
905.803	17174
905.921	17025
906.038	17227
906.155	17128
906.272	16892
906.389	16987
906.506	16824
906.623	16824
906.74	16687
906.857	16626
906.974	16698
907.091	16755
907.208	16995
907.324	16850
907.441	16675
907.557	16538
907.674	16504
907.79	16516
907.907	16481
908.023	16542
908.139	16561
908.256	16565
908.372	16481
908.488	16363
908.604	16249
908.72	16303
908.836	16265
908.952	16185
909.068	16234
909.184	16337
909.3	16257
909.415	16291
909.531	16128
909.647	16044
909.762	15968
909.878	15941
909.993	15972
910.108	15922
910.224	15907
910.339	15861
910.454	15857
910.57	15827
910.685	15739
910.8	15949
910.915	15842
911.03	15739
911.145	15641
911.259	15492
911.374	15618
911.489	15534
911.604	15542
911.718	15363
911.833	15367
911.947	15348
912.062	15150
912.176	15321
912.291	15355
912.405	15397
912.519	15595
912.633	15466
912.748	15336
912.862	15306
912.976	15165
913.09	15039
913.204	15138
913.318	15135
913.431	15272
913.545	15211
913.659	15222
913.772	15058
913.886	14899
914	15028
914.113	15020
914.226	14952
914.34	15047
914.453	14914
914.566	15032
914.68	14758
914.793	14868
914.906	14575
915.019	14480
915.132	14434
915.245	14514
915.358	14571
915.47	14590
915.583	14590
915.696	14587
915.809	14651
915.921	14678
916.034	14511
916.146	14469
916.259	14507
916.371	14655
916.483	14587
916.595	14305
916.708	14446
916.82	14423
916.932	14351
917.044	14328
917.156	14385
917.268	14263
917.38	14374
917.491	14191
917.603	14267
917.715	14282
917.826	14324
917.938	14195
918.049	14058
918.161	14248
918.272	14408
918.384	14358
918.495	14164
918.606	14054
918.717	13875
918.828	14035
918.939	14035
919.05	14008
919.161	13932
919.272	13742
919.383	13856
919.494	14050
919.604	14176
919.715	14043
919.826	13936
919.936	13913
920.047	14126
920.157	14027
920.267	14111
920.378	14012
920.488	13913
920.598	14149
920.708	14301
920.818	14164
920.928	14134
921.038	14282
921.148	14282
921.258	13921
921.368	13856
921.477	13704
921.587	13746
921.697	13548
921.806	13681
921.916	13510
922.025	13460
922.134	13339
922.244	13251
922.353	13407
922.462	13301
922.571	13103
922.68	13122
922.789	13023
922.898	13095
923.007	13004
923.116	13133
923.224	12977
923.333	13031
923.442	12848
923.55	12863
923.659	12882
923.767	12985
923.876	12859
923.984	12859
924.092	12783
924.201	12810
924.309	12840
924.417	12814
924.525	12825
924.633	12738
924.741	13403
924.849	12642
924.956	12684
925.064	12593
925.172	12460
925.279	12448
925.387	12536
925.494	12414
925.602	12631
925.709	12578
925.816	12445
925.924	12403
926.031	12486
926.138	12441
926.245	12551
926.352	12346
926.459	12399
926.566	12475
926.673	12254
926.779	12277
926.886	12213
926.993	12125
927.099	12038
927.206	12072
927.312	12015
927.419	12114
927.525	11996
927.631	12144
927.737	12019
927.843	11870
927.95	11756
928.056	11859
928.162	11885
928.267	11935
928.373	12532
928.479	11999
928.585	11710
928.69	11741
928.796	11901
928.901	11790
929.007	11714
929.112	11794
929.218	11760
929.323	11684
929.428	11611
929.533	11760
929.638	11566
929.743	11566
929.848	11737
929.953	11596
930.058	11474
930.163	11353
930.267	11341
930.372	11448
930.477	11330
930.581	11554
930.685	11364
930.79	11280
930.894	11292
930.998	11254
931.103	11364
931.207	10946
931.311	10923
931.415	10774
931.519	10634
931.623	10554
