Data from test_V78500241_2648.txt Node
Date: Fri Mar 25 15:28:17 CST 2022
User: usil
Spectrometer: V785-0024
Trigger mode: 0
Integration Time (sec): 4.000000E-1
Scans to average: 1
Nonlinearity correction enabled: false
Boxcar width: 0
Storing dark spectrum: false
XAxis mode: Wavelengths
Number of Pixels in Spectrum: 1024
>>>>>Begin Spectral Data<<<<<
801.071	27081
801.214	26982
801.356	26982
801.499	26781
801.641	26560
801.783	26579
801.926	26853
802.068	26625
802.211	26541
802.353	26423
802.496	26309
802.638	26218
802.78	26282
802.923	26050
803.065	26096
803.208	26145
803.35	26195
803.492	26400
803.635	26431
803.777	26332
803.919	26343
804.061	26724
804.204	26507
804.346	26408
804.488	26358
804.63	26385
804.773	26305
804.915	26492
805.057	26617
805.199	26313
805.341	26587
805.483	26564
805.626	26549
805.768	26473
805.91	26480
806.052	26480
806.194	26636
806.336	26594
806.478	26499
806.62	26621
806.762	26564
806.904	26792
807.046	26906
807.188	26857
807.33	26994
807.472	26956
807.614	26921
807.756	26834
807.898	26697
808.04	26724
808.182	26788
808.324	26834
808.465	26823
808.607	26887
808.749	27043
808.891	27157
809.033	27199
809.174	27169
809.316	27058
809.458	27199
809.6	26982
809.741	27138
809.883	27275
810.025	27249
810.166	27325
810.308	27302
810.45	27367
810.591	27252
810.733	27081
810.875	27180
811.016	27051
811.158	27066
811.299	27119
811.441	27188
811.582	27332
811.724	27180
811.865	27055
812.007	26967
812.148	27062
812.29	27112
812.431	27294
812.573	27321
812.714	27507
812.855	27606
812.997	27743
813.138	27895
813.279	27545
813.421	27507
813.562	27523
813.703	27389
813.845	27211
813.986	27020
814.127	26853
814.268	26659
814.41	26648
814.551	26750
814.692	26891
814.833	26716
814.974	26629
815.115	26758
815.256	26480
815.397	26625
815.539	26549
815.68	26415
815.821	26244
815.962	26499
816.103	26533
816.244	26366
816.385	26343
816.526	26233
816.666	26248
816.807	26016
816.948	26107
817.089	26149
817.23	26027
817.371	26001
817.512	25986
817.653	25864
817.793	25959
817.934	25913
818.075	26119
818.216	25963
818.356	25963
818.497	25909
818.638	25685
818.778	25803
818.919	25849
819.06	25799
819.2	25986
819.341	25944
819.481	26073
819.622	26046
819.762	26282
819.903	26263
820.043	26206
820.184	26054
820.324	26134
820.465	26172
820.605	26122
820.746	25989
820.886	25955
821.026	26122
821.167	26005
821.307	26081
821.447	25959
821.588	25887
821.728	25753
821.868	25731
822.008	25441
822.149	25499
822.289	25525
822.429	25232
822.569	25126
822.709	25148
822.849	24894
822.99	24867
823.13	24875
823.27	24916
823.41	24821
823.55	24665
823.69	24795
823.83	24901
823.97	24711
824.11	24700
824.25	24483
824.389	24563
824.529	24696
824.669	24566
824.809	24684
824.949	24612
825.089	24620
825.228	24677
825.368	24456
825.508	24334
825.648	24471
825.787	24521
825.927	24521
826.067	24426
826.206	24467
826.346	24490
826.485	24426
826.625	24414
826.765	24658
826.904	24528
827.044	24228
827.183	24304
827.323	24159
827.462	24136
827.601	24018
827.741	24228
827.88	24186
828.02	23996
828.159	24098
828.298	24079
828.437	24232
828.577	24129
828.716	24182
828.855	24152
828.994	23897
829.134	23798
829.273	23859
829.412	23794
829.551	23729
829.69	23802
829.829	23874
829.968	23996
830.107	23942
830.246	23813
830.385	23790
830.524	23710
830.663	23733
830.802	23665
830.941	23592
831.08	23493
831.219	23611
831.357	23558
831.496	23729
831.635	23509
831.774	23395
831.913	23433
832.051	23258
832.19	23284
832.329	23311
832.467	23121
832.606	23303
832.744	23067
832.883	23174
833.022	23037
833.16	23124
833.299	23124
833.437	23159
833.576	23204
833.714	23292
833.852	23417
833.991	23318
834.129	23436
834.267	23349
834.406	23227
834.544	23261
834.682	23364
834.821	23147
834.959	23410
835.097	23231
835.235	23360
835.373	23147
835.511	23193
835.65	23044
835.788	23071
835.926	22915
836.064	22885
836.202	22904
836.34	23098
836.478	23136
836.615	23056
836.753	23025
836.891	23117
837.029	23151
837.167	22987
837.305	22938
837.443	22972
837.58	22812
837.718	23033
837.856	23060
837.993	22972
838.131	22843
838.269	22740
838.406	22843
838.544	22755
838.681	22687
838.819	22630
838.956	22531
839.094	22341
839.231	22535
839.369	22622
839.506	22915
839.643	22573
839.781	22500
839.918	22451
840.055	22375
840.193	22390
840.33	22284
840.467	22230
840.604	22341
840.742	22565
840.879	22147
841.016	22280
841.153	22215
841.29	22455
841.427	22310
841.564	22516
841.701	22352
841.838	22299
841.975	22280
842.112	22310
842.249	22295
842.385	22226
842.522	22386
842.659	22230
842.796	22234
842.933	22162
843.069	22078
843.206	22082
843.343	22093
843.479	22135
843.616	22040
843.752	21880
843.889	21934
844.025	22017
844.162	21873
844.298	21998
844.435	21808
844.571	21937
844.708	21861
844.844	22112
844.98	22059
845.117	22036
845.253	21800
845.389	21827
845.525	21755
845.661	21774
845.798	21606
845.934	21694
846.07	21641
846.206	21671
846.342	21698
846.478	21576
846.614	21393
846.75	21412
846.886	21188
847.022	21355
847.158	21389
847.294	21416
847.429	21408
847.565	21348
847.701	21576
847.837	21081
847.972	21058
848.108	21173
848.244	21146
848.379	21005
848.515	20937
848.65	20880
848.786	20960
848.921	20963
849.057	21020
849.192	20990
849.328	21096
849.463	21077
849.598	20921
849.734	20918
849.869	20792
850.004	20686
850.14	20674
850.275	20663
850.41	20602
850.545	20674
850.68	20735
850.815	20739
850.95	20606
851.085	20815
851.22	20906
851.355	20663
851.49	20552
851.625	20678
851.76	20659
851.895	20541
852.03	20689
852.165	20708
852.299	20708
852.434	20807
852.569	20678
852.703	20701
852.838	20689
852.973	20659
853.107	20842
853.242	20667
853.376	20522
853.511	20362
853.645	20568
853.78	20636
853.914	20579
854.048	20587
854.183	20446
854.317	20617
854.451	20804
854.585	20518
854.72	20598
854.854	20697
854.988	20522
855.122	20499
855.256	20465
855.39	20549
855.524	20712
855.658	20541
855.792	20503
855.926	20594
856.06	20560
856.194	20686
856.327	20648
856.461	20450
856.595	20564
856.729	20476
856.862	20735
856.996	20499
857.13	20705
857.263	20697
857.397	20609
857.53	20408
857.664	20480
857.797	20705
857.931	20682
858.064	20545
858.197	20716
858.331	20564
858.464	20549
858.597	20362
858.731	20533
858.864	20514
858.997	20461
859.13	20518
859.263	20587
859.396	20701
859.529	20469
859.662	20442
859.795	20518
859.928	20473
860.061	20712
860.194	20739
860.327	20625
860.46	20499
860.592	20686
860.725	20754
860.858	20659
860.99	20636
861.123	20495
861.256	20473
861.388	20541
861.521	21180
861.653	20419
861.786	20240
861.918	20320
862.05	20450
862.183	20454
862.315	20415
862.447	20492
862.58	20457
862.712	20229
862.844	20187
862.976	20225
863.108	20320
863.24	20777
863.372	20191
863.504	20282
863.636	20240
863.768	20396
863.9	20195
864.032	20180
864.164	20263
864.296	20294
864.428	20381
864.559	20294
864.691	20328
864.823	20229
864.954	20176
865.086	20290
865.217	20187
865.349	20008
865.48	20149
865.612	20218
865.743	20290
865.875	20290
866.006	20069
866.137	20111
866.269	20187
866.4	20183
866.531	20168
866.662	20077
866.793	20096
866.924	20050
867.055	20088
867.186	20130
867.317	20088
867.448	19925
867.579	20103
867.71	20088
867.841	19989
867.972	20252
868.103	20122
868.233	20035
868.364	20305
868.495	20172
868.625	20233
868.756	20499
868.886	20415
869.017	20347
869.147	20457
869.278	20385
869.408	20495
869.539	20317
869.669	20381
869.799	20374
869.929	20476
870.06	20438
870.19	20575
870.32	20655
870.45	20773
870.58	20796
870.71	20906
870.84	20834
870.97	20785
871.1	20724
871.23	20895
871.36	20891
871.489	20807
871.619	20933
871.749	20941
871.879	21070
872.008	21093
872.138	20857
872.267	21013
872.397	20986
872.526	20670
872.656	20743
872.785	20773
872.915	20910
873.044	21104
873.173	20963
873.303	20906
873.432	20982
873.561	21009
873.69	21051
873.819	20933
873.948	21039
874.077	20982
874.206	20861
874.335	20929
874.464	21161
874.593	21058
874.722	21066
874.851	21104
874.979	21211
875.108	21348
875.237	21123
875.365	21154
875.494	21157
875.623	21252
875.751	21180
875.88	21226
876.008	21374
876.136	21469
876.265	21629
876.393	21720
876.521	21648
876.65	21694
876.778	21553
876.906	21481
877.034	21583
877.162	21553
877.29	21504
877.418	21648
877.546	21614
877.674	21583
877.802	21606
877.93	21515
878.058	21496
878.185	21473
878.313	21523
878.441	21530
878.568	21245
878.696	21542
878.824	21568
878.951	21690
879.079	21671
879.206	21884
879.333	21728
879.461	21526
879.588	21576
879.715	21705
879.842	21774
879.97	21637
880.097	21450
880.224	21450
880.351	21363
880.478	21359
880.605	21329
880.732	21367
880.859	21572
880.986	21447
881.112	21344
881.239	21199
881.366	21127
881.493	21123
881.619	20948
881.746	21013
881.872	21058
881.999	21005
882.125	20921
882.252	20906
882.378	20937
882.505	21077
882.631	20819
882.757	20705
882.883	20861
883.01	20644
883.136	20632
883.262	20590
883.388	20427
883.514	20632
883.64	20705
883.766	20617
883.892	20556
884.018	20507
884.143	20678
884.269	20743
884.395	20492
884.52	20313
884.646	20267
884.772	20229
884.897	20248
885.023	20180
885.148	20351
885.274	20545
885.399	20457
885.524	20309
885.65	20385
885.775	20309
885.9	20324
886.025	20377
886.15	20438
886.275	20320
886.4	20385
886.525	20370
886.65	20263
886.775	20221
886.9	20450
887.025	20583
887.149	20290
887.274	20202
887.399	20142
887.523	20073
887.648	20092
887.773	19989
887.897	20191
888.021	20107
888.146	20069
888.27	20168
888.395	20237
888.519	20145
888.643	20138
888.767	20225
888.891	19978
889.015	20065
889.139	20001
889.263	19940
889.387	20008
889.511	20134
889.635	20046
889.759	19803
889.883	19791
890.006	20024
890.13	19970
890.254	19837
890.377	19841
890.501	19674
890.624	19689
890.748	19704
890.871	19613
890.995	19400
891.118	19403
891.241	19525
891.364	19464
891.488	19677
891.611	19438
891.734	19495
891.857	19548
891.98	19487
892.103	19563
892.226	19472
892.349	19514
892.471	19289
892.594	19411
892.717	19476
892.839	19476
892.962	19514
893.085	19525
893.207	19411
893.33	19312
893.452	19377
893.575	19350
893.697	19407
893.819	19582
893.941	19662
894.064	19609
894.186	19308
894.308	19335
894.43	19563
894.552	19605
894.674	19483
894.796	19202
894.918	19464
895.04	19392
895.161	19537
895.283	19487
895.405	19274
895.526	19384
895.648	19339
895.769	19400
895.891	19426
896.012	19540
896.134	19388
896.255	19358
896.376	19426
896.498	19453
896.619	19464
896.74	19476
896.861	19422
896.982	19772
897.103	19845
897.224	19689
897.345	19582
897.466	19624
897.587	19681
897.708	19670
897.828	19841
897.949	19605
898.07	19548
898.19	19666
898.311	19666
898.431	19715
898.552	19655
898.672	19750
898.792	19670
898.913	19693
899.033	19571
899.153	19457
899.273	19373
899.393	19483
899.513	19430
899.633	19468
899.753	19400
899.873	19297
899.993	19502
900.113	19308
900.232	19472
900.352	19320
900.472	19259
900.591	19042
900.711	19228
900.83	19244
900.95	19285
901.069	19236
901.189	19091
901.308	18795
901.427	18844
901.546	18814
901.665	18882
901.784	18783
901.904	18639
902.023	18608
902.141	18494
902.26	18384
902.379	18445
902.498	18285
902.617	18209
902.735	18350
902.854	18350
902.973	18342
903.091	18007
903.21	17958
903.328	18106
903.446	17923
903.565	17824
903.683	17741
903.801	17691
903.919	17748
904.038	17687
904.156	17592
904.274	17672
904.392	17543
904.51	17562
904.627	17436
904.745	17680
904.863	17627
904.981	17398
905.098	17216
905.216	17239
905.334	17250
905.451	17212
905.569	17250
905.686	17322
905.803	17216
905.921	17071
906.038	17269
906.155	17071
906.272	16927
906.389	17041
906.506	16767
906.623	16828
906.74	16767
906.857	16706
906.974	16660
907.091	16790
907.208	16828
907.324	16824
907.441	16672
907.557	16535
907.674	16478
907.79	16497
907.907	16440
908.023	16603
908.139	16611
908.256	16489
908.372	16519
908.488	16428
908.604	16287
908.72	16257
908.836	16291
908.952	16223
909.068	16268
909.184	16295
909.3	16352
909.415	16234
909.531	16242
909.647	15953
909.762	15998
909.878	15941
909.993	15945
910.108	15892
910.224	15945
910.339	15884
910.454	15854
910.57	15797
910.685	15648
910.8	15888
910.915	15994
911.03	15698
911.145	15549
911.259	15595
911.374	15618
911.489	15534
911.604	15488
911.718	15405
911.833	15279
911.947	15233
912.062	15218
912.176	15313
912.291	15302
912.405	15408
912.519	15492
912.633	15500
912.748	15351
912.862	15249
912.976	15165
913.09	15005
913.204	15055
913.318	15165
913.431	15157
913.545	15203
913.659	15260
913.772	15112
913.886	15001
914	14910
914.113	15123
914.226	15085
914.34	15013
914.453	14849
914.566	14963
914.68	14861
914.793	14807
914.906	14602
915.019	14507
915.132	14541
915.245	14560
915.358	14587
915.47	14644
915.583	14606
915.696	14583
915.809	14754
915.921	14678
916.034	14533
916.146	14480
916.259	14434
916.371	14545
916.483	14575
916.595	14408
916.708	14332
916.82	14571
916.932	14275
917.044	14328
917.156	14267
917.268	14157
917.38	14229
917.491	14111
917.603	14210
917.715	14332
917.826	14309
917.938	14233
918.049	14115
918.161	14191
918.272	14381
918.384	14229
918.495	14153
918.606	14039
918.717	13997
918.828	14027
918.939	14073
919.05	13947
919.161	14012
919.272	13833
919.383	13906
919.494	13936
919.604	14149
919.715	14020
919.826	14008
919.936	13932
920.047	14035
920.157	13947
920.267	14191
920.378	13982
920.488	13986
920.598	14142
920.708	14324
920.818	14138
920.928	14065
921.038	14286
921.148	14168
921.258	13936
921.368	13788
921.477	13784
921.587	13693
921.697	13651
921.806	13753
921.916	13597
922.025	13449
922.134	13480
922.244	13327
922.353	13533
922.462	13213
922.571	13221
922.68	13129
922.789	13004
922.898	13038
923.007	13061
923.116	13126
923.224	13004
923.333	12947
923.442	13012
923.55	12833
923.659	12947
923.767	12894
923.876	12734
923.984	12859
924.092	12852
924.201	12821
924.309	12749
924.417	12810
924.525	12681
924.633	12692
924.741	13563
924.849	12490
924.956	12688
925.064	12464
925.172	12494
925.279	12483
925.387	12479
925.494	12388
925.602	12612
925.709	12528
925.816	12407
925.924	12437
926.031	12544
926.138	12506
926.245	12490
926.352	12357
926.459	12407
926.566	12532
926.673	12338
926.779	12319
926.886	12144
926.993	12167
927.099	12045
927.206	12015
927.312	11996
927.419	12114
927.525	12076
927.631	12060
927.737	11920
927.843	11912
927.95	11843
928.056	11733
928.162	11859
928.267	11958
928.373	12441
928.479	11999
928.585	11756
928.69	11855
928.796	11828
928.901	11824
929.007	11551
929.112	11722
929.218	11760
929.323	11672
929.428	11577
929.533	11703
929.638	11589
929.743	11581
929.848	11657
929.953	11554
930.058	11452
930.163	11261
930.267	11311
930.372	11414
930.477	11356
930.581	11547
930.685	11387
930.79	11254
930.894	11208
930.998	11132
931.103	11258
931.207	11018
931.311	10957
931.415	10778
931.519	10626
931.623	10645
