Data from test_V78500241_3299.txt Node
Date: Fri Mar 25 15:32:50 CST 2022
User: usil
Spectrometer: V785-0024
Trigger mode: 0
Integration Time (sec): 4.000000E-1
Scans to average: 1
Nonlinearity correction enabled: false
Boxcar width: 0
Storing dark spectrum: false
XAxis mode: Wavelengths
Number of Pixels in Spectrum: 1024
>>>>>Begin Spectral Data<<<<<
801.071	27424
801.214	27313
801.356	27192
801.499	26967
801.641	26849
801.783	26994
801.926	27020
802.068	26861
802.211	26948
802.353	26724
802.496	26720
802.638	26670
802.78	26480
802.923	26362
803.065	26556
803.208	26457
803.35	26518
803.492	26636
803.635	26746
803.777	26587
803.919	26712
804.061	26944
804.204	26746
804.346	26575
804.488	26689
804.63	26651
804.773	26636
804.915	26686
805.057	26838
805.199	26648
805.341	26804
805.483	26769
805.626	26708
805.768	26876
805.91	26948
806.052	26876
806.194	26883
806.336	27009
806.478	26842
806.62	26845
806.762	26925
806.904	27058
807.046	27245
807.188	27214
807.33	27325
807.472	27329
807.614	27199
807.756	27150
807.898	27058
808.04	26925
808.182	26960
808.324	26940
808.465	27325
808.607	27351
808.749	27408
808.891	27660
809.033	27652
809.174	27542
809.316	27439
809.458	27329
809.6	27283
809.741	27416
809.883	27534
810.025	27595
810.166	27576
810.308	27793
810.45	27656
810.591	27671
810.733	27538
810.875	27386
811.016	27310
811.158	27424
811.299	27545
811.441	27587
811.582	27599
811.724	27477
811.865	27367
812.007	27412
812.148	27329
812.29	27325
812.431	27599
812.573	27816
812.714	27736
812.855	27907
812.997	27983
813.138	28036
813.279	28025
813.421	27979
813.562	27819
813.703	27770
813.845	27583
813.986	27378
814.127	27032
814.268	27207
814.41	27157
814.551	26994
814.692	26986
814.833	27020
814.974	26956
815.115	27039
815.256	26952
815.397	26899
815.539	27020
815.68	26842
815.821	26815
815.962	26750
816.103	26823
816.244	26773
816.385	26530
816.526	26602
816.666	26556
816.807	26233
816.948	26453
817.089	26434
817.23	26248
817.371	26328
817.512	26385
817.653	26396
817.793	26157
817.934	26202
818.075	26366
818.216	26446
818.356	26278
818.497	26153
818.638	25970
818.778	25997
818.919	26172
819.06	26248
819.2	26419
819.341	26290
819.481	26324
819.622	26393
819.762	26636
819.903	26484
820.043	26590
820.184	26488
820.324	26488
820.465	26518
820.605	26484
820.746	26408
820.886	26317
821.026	26412
821.167	26419
821.307	26431
821.447	26351
821.588	26358
821.728	26187
821.868	25963
822.008	25951
822.149	25715
822.289	25704
822.429	25514
822.569	25514
822.709	25460
822.849	25354
822.99	25327
823.13	25251
823.27	25263
823.41	25122
823.55	25118
823.69	25270
823.83	25114
823.97	25038
824.11	25019
824.25	24913
824.389	25023
824.529	25015
824.669	24833
824.809	25050
824.949	25015
825.089	24916
825.228	24939
825.368	24798
825.508	24696
825.648	24878
825.787	24954
825.927	24867
826.067	24726
826.206	24768
826.346	24844
826.485	24837
826.625	24798
826.765	24825
826.904	25031
827.044	24597
827.183	24688
827.323	24505
827.462	24681
827.601	24525
827.741	24448
827.88	24585
828.02	24540
828.159	24464
828.298	24582
828.437	24635
828.577	24486
828.716	24620
828.855	24448
828.994	24209
829.134	24300
829.273	24292
829.412	24224
829.551	24216
829.69	24232
829.829	24205
829.968	24410
830.107	24403
830.246	24270
830.385	24152
830.524	24194
830.663	24011
830.802	23942
830.941	23874
831.08	23908
831.219	23980
831.357	23965
831.496	24049
831.635	23927
831.774	23874
831.913	23821
832.051	23653
832.19	23745
832.329	23859
832.467	23505
832.606	23600
832.744	23714
832.883	23539
833.022	23501
833.16	23585
833.299	23570
833.437	23745
833.576	23668
833.714	23703
833.852	23672
833.991	23623
834.129	23699
834.267	23767
834.406	23611
834.544	23722
834.682	23611
834.821	23562
834.959	23786
835.097	23627
835.235	23718
835.373	23543
835.511	23577
835.65	23505
835.788	23463
835.926	23341
836.064	23246
836.202	23322
836.34	23429
836.478	23672
836.615	23379
836.753	23406
836.891	23558
837.029	23535
837.167	23398
837.305	23406
837.443	23269
837.58	23318
837.718	23429
837.856	23315
837.993	23421
838.131	23311
838.269	23200
838.406	23254
838.544	23159
838.681	22930
838.819	23086
838.956	22862
839.094	22881
839.231	22854
839.369	23109
839.506	23204
839.643	23056
839.781	22786
839.918	22812
840.055	22866
840.193	22805
840.33	22782
840.467	22854
840.604	22809
840.742	22995
840.879	22656
841.016	22850
841.153	22660
841.29	22980
841.427	22771
841.564	22771
841.701	22752
841.838	22542
841.975	22649
842.112	22725
842.249	22672
842.385	22607
842.522	22755
842.659	22687
842.796	22535
842.933	22424
843.069	22618
843.206	22398
843.343	22592
843.479	22557
843.616	22409
843.752	22230
843.889	22367
844.025	22394
844.162	22265
844.298	22284
844.435	22360
844.571	22306
844.708	22280
844.844	22363
844.98	22363
845.117	22386
845.253	22242
845.389	22162
845.525	22185
845.661	22135
845.798	21937
845.934	22070
846.07	22029
846.206	22067
846.342	22131
846.478	22025
846.614	21819
846.75	21679
846.886	21770
847.022	21869
847.158	21759
847.294	21755
847.429	21823
847.565	21823
847.701	21922
847.837	21542
847.972	21408
848.108	21485
848.244	21591
848.379	21466
848.515	21393
848.65	21329
848.786	21393
848.921	21428
849.057	21439
849.192	21382
849.328	21443
849.463	21336
849.598	21302
849.734	21329
849.869	21180
850.004	21192
850.14	21161
850.275	21142
850.41	21089
850.545	21047
850.68	21055
850.815	21188
850.95	21116
851.085	21306
851.22	21173
851.355	21169
851.49	21062
851.625	21131
851.76	21138
851.895	21154
852.03	21176
852.165	21100
852.299	21214
852.434	21176
852.569	21165
852.703	21100
852.838	21154
852.973	21184
853.107	21169
853.242	20948
853.376	20910
853.511	20826
853.645	20872
853.78	21138
853.914	20960
854.048	20872
854.183	20902
854.317	21024
854.451	21135
854.585	20746
854.72	20960
854.854	20998
854.988	20967
855.122	21020
855.256	20788
855.39	21119
855.524	20971
855.658	21013
855.792	20979
855.926	20971
856.06	20998
856.194	20963
856.327	20895
856.461	20773
856.595	20800
856.729	20933
856.862	20933
856.996	20982
857.13	20990
857.263	21112
857.397	21005
857.53	21081
857.664	20944
857.797	20948
857.931	21062
858.064	20902
858.197	21055
858.331	20944
858.464	20952
858.597	20811
858.731	20948
858.864	20971
858.997	20887
859.13	20944
859.263	20986
859.396	21039
859.529	20762
859.662	20899
859.795	20986
859.928	20986
860.061	21165
860.194	21093
860.327	21028
860.46	20998
860.592	21005
860.725	21013
860.858	21039
860.99	20948
861.123	20823
861.256	20921
861.388	20933
861.521	21530
861.653	20899
861.786	20678
861.918	20674
862.05	20819
862.183	20830
862.315	20944
862.447	20994
862.58	20857
862.712	20629
862.844	20545
862.976	20670
863.108	20743
863.24	21009
863.372	20609
863.504	20655
863.636	20674
863.768	20762
863.9	20625
864.032	20579
864.164	20575
864.296	20727
864.428	20769
864.559	20739
864.691	20708
864.823	20701
864.954	20564
865.086	20568
865.217	20518
865.349	20507
865.48	20484
865.612	20499
865.743	20579
865.875	20461
866.006	20594
866.137	20598
866.269	20545
866.4	20522
866.531	20492
866.662	20442
866.793	20514
866.924	20393
867.055	20442
867.186	20454
867.317	20400
867.448	20305
867.579	20438
867.71	20419
867.841	20324
867.972	20537
868.103	20541
868.233	20503
868.364	20545
868.495	20549
868.625	20788
868.756	20800
868.886	20609
869.017	20663
869.147	20781
869.278	20921
869.408	20701
869.539	20644
869.669	20743
869.799	20781
869.929	20777
870.06	20765
870.19	20960
870.32	21074
870.45	21116
870.58	21131
870.71	21192
870.84	21256
870.97	21058
871.1	20979
871.23	21397
871.36	21275
871.489	21287
871.619	21256
871.749	21287
871.879	21382
872.008	21416
872.138	21340
872.267	21344
872.397	21214
872.526	21154
872.656	21184
872.785	21294
872.915	21306
873.044	21313
873.173	21294
873.303	21386
873.432	21416
873.561	21344
873.69	21256
873.819	21252
873.948	21424
874.077	21321
874.206	21279
874.335	21279
874.464	21428
874.593	21576
874.722	21538
874.851	21667
874.979	21557
875.108	21545
875.237	21450
875.365	21656
875.494	21595
875.623	21641
875.751	21622
875.88	21641
876.008	21831
876.136	21686
876.265	21968
876.393	22055
876.521	22128
876.65	22147
876.778	22021
876.906	21968
877.034	21945
877.162	21930
877.29	21922
877.418	21972
877.546	22021
877.674	21945
877.802	21953
877.93	21960
878.058	21888
878.185	21797
878.313	21823
878.441	21937
878.568	21800
878.696	21842
878.824	21941
878.951	22067
879.079	22051
879.206	22181
879.333	22048
879.461	21907
879.588	22131
879.715	21998
879.842	22192
879.97	22002
880.097	21800
880.224	21797
880.351	21823
880.478	21751
880.605	21694
880.732	21850
880.859	21949
880.986	21781
881.112	21724
881.239	21545
881.366	21530
881.493	21348
881.619	21412
881.746	21401
881.872	21313
881.999	21359
882.125	21119
882.252	21374
882.378	21291
882.505	21252
882.631	21264
882.757	21146
882.883	21161
883.01	21138
883.136	20990
883.262	20933
883.388	20929
883.514	21013
883.64	21142
883.766	20998
883.892	20941
884.018	20914
884.143	21009
884.269	21108
884.395	20792
884.52	20785
884.646	20686
884.772	20590
884.897	20514
885.023	20640
885.148	20823
885.274	20849
885.399	20872
885.524	20735
885.65	20716
885.775	20769
885.9	20670
886.025	20800
886.15	20796
886.275	20727
886.4	20583
886.525	20568
886.65	20552
886.775	20689
886.9	20727
887.025	20921
887.149	20644
887.274	20419
887.399	20530
887.523	20511
887.648	20408
887.773	20370
887.897	20503
888.021	20533
888.146	20355
888.27	20545
888.395	20457
888.519	20461
888.643	20423
888.767	20560
888.891	20309
889.015	20233
889.139	20396
889.263	20252
889.387	20366
889.511	20434
889.635	20385
889.759	20218
889.883	20278
890.006	20278
890.13	20259
890.254	20237
890.377	20183
890.501	20062
890.624	19932
890.748	20046
890.871	19921
890.995	19868
891.118	19731
891.241	19856
891.364	19875
891.488	19887
891.611	19803
891.734	19860
891.857	19791
891.98	19852
892.103	19871
892.226	19814
892.349	19887
892.471	19578
892.594	19765
892.717	19814
892.839	19616
892.962	19727
893.085	19887
893.207	19723
893.33	19605
893.452	19689
893.575	19849
893.697	19734
893.819	19944
893.941	20020
894.064	19909
894.186	19715
894.308	19723
894.43	19879
894.552	19890
894.674	19776
894.796	19712
894.918	19803
895.04	19681
895.161	19628
895.283	19875
895.405	19639
895.526	19780
895.648	19830
895.769	19753
895.891	19795
896.012	19731
896.134	19761
896.255	19780
896.376	19830
896.498	19723
896.619	19970
896.74	19769
896.861	19765
896.982	20088
897.103	20336
897.224	20065
897.345	19989
897.466	19852
897.587	20046
897.708	20073
897.828	20077
897.949	19830
898.07	19932
898.19	19913
898.311	19997
898.431	19928
898.552	19898
898.672	20039
898.792	20027
898.913	19993
899.033	19890
899.153	19803
899.273	19635
899.393	19715
899.513	19780
899.633	19757
899.753	19609
899.873	19685
899.993	19811
900.113	19670
900.232	19715
900.352	19666
900.472	19597
900.591	19449
900.711	19540
900.83	19460
900.95	19601
901.069	19518
901.189	19384
901.308	19179
901.427	19095
901.546	19099
901.665	19206
901.784	19023
901.904	18996
902.023	18935
902.141	18779
902.26	18612
902.379	18806
902.498	18658
902.617	18513
902.735	18661
902.854	18582
902.973	18452
903.091	18300
903.21	18289
903.328	18254
903.446	18224
903.565	18026
903.683	18163
903.801	18072
903.919	18064
904.038	18060
904.156	18011
904.274	17882
904.392	17942
904.51	17946
904.627	17710
904.745	17878
904.863	17916
904.981	17573
905.098	17505
905.216	17512
905.334	17638
905.451	17448
905.569	17425
905.686	17619
905.803	17524
905.921	17341
906.038	17490
906.155	17220
906.272	17143
906.389	17223
906.506	17159
906.623	17151
906.74	17090
906.857	16980
906.974	17067
907.091	17143
907.208	17273
907.324	17041
907.441	16927
907.557	16831
907.674	16869
907.79	16748
907.907	16771
908.023	16831
908.139	16862
908.256	16767
908.372	16649
908.488	16687
908.604	16618
908.72	16432
908.836	16554
908.952	16489
909.068	16512
909.184	16664
909.3	16504
909.415	16447
909.531	16531
909.647	16348
909.762	16234
909.878	16204
909.993	16284
910.108	16204
910.224	16188
910.339	16337
910.454	16116
910.57	16051
910.685	15907
910.8	16242
910.915	16150
911.03	15960
911.145	15800
911.259	15899
911.374	15899
911.489	15770
911.604	15720
911.718	15618
911.833	15584
911.947	15576
912.062	15515
912.176	15732
912.291	15701
912.405	15652
912.519	15816
912.633	15850
912.748	15595
912.862	15549
912.976	15431
913.09	15321
913.204	15332
913.318	15488
913.431	15488
913.545	15507
913.659	15420
913.772	15283
913.886	15340
914	15226
914.113	15226
914.226	15298
914.34	15230
914.453	15138
914.566	15157
914.68	15047
914.793	15070
914.906	14941
915.019	14868
915.132	14724
915.245	14823
915.358	14788
915.47	14811
915.583	14872
915.696	14861
915.809	14960
915.921	14902
916.034	14727
916.146	14674
916.259	14651
916.371	14792
916.483	14735
916.595	14659
916.708	14670
916.82	14731
916.932	14541
917.044	14613
917.156	14503
917.268	14419
917.38	14461
917.491	14495
917.603	14507
917.715	14621
917.826	14541
917.938	14484
918.049	14332
918.161	14465
918.272	14602
918.384	14503
918.495	14415
918.606	14259
918.717	14142
918.828	14332
918.939	14214
919.05	14237
919.161	14252
919.272	14035
919.383	14119
919.494	14176
919.604	14374
919.715	14267
919.826	14168
919.936	14286
920.047	14195
920.157	14301
920.267	14389
920.378	14218
920.488	14172
920.598	14404
920.708	14465
920.818	14385
920.928	14305
921.038	14552
921.148	14473
921.258	14172
921.368	14027
921.477	13978
921.587	13982
921.697	13887
921.806	14024
921.916	13906
922.025	13734
922.134	13533
922.244	13472
922.353	13613
922.462	13483
922.571	13514
922.68	13278
922.789	13304
922.898	13247
923.007	13240
923.116	13312
923.224	13293
923.333	13129
923.442	13179
923.55	13015
923.659	13141
923.767	13156
923.876	13061
923.984	13137
924.092	12951
924.201	13012
924.309	12920
924.417	13008
924.525	12989
924.633	12909
924.741	13807
924.849	12734
924.956	12939
925.064	12772
925.172	12681
925.279	12692
925.387	12730
925.494	12635
925.602	12829
925.709	12741
925.816	12502
925.924	12745
926.031	12688
926.138	12623
926.245	12658
926.352	12521
926.459	12741
926.566	12730
926.673	12604
926.779	12391
926.886	12414
926.993	12239
927.099	12216
927.206	12232
927.312	12163
927.419	12319
927.525	12167
927.631	12300
927.737	12038
927.843	12057
927.95	11965
928.056	12041
928.162	12136
928.267	12148
928.373	12673
928.479	12171
928.585	11969
928.69	12022
928.796	12053
928.901	11969
929.007	11847
929.112	11961
929.218	11923
929.323	11866
929.428	11786
929.533	11954
929.638	11714
929.743	11855
929.848	11828
929.953	11779
930.058	11771
930.163	11547
930.267	11547
930.372	11611
930.477	11497
930.581	11649
930.685	11570
930.79	11440
930.894	11463
930.998	11349
931.103	11532
931.207	11071
931.311	11064
931.415	11003
931.519	10839
931.623	10847
