Data from test_V78500241_84.txt Node
Date: Fri Mar 25 15:10:26 CST 2022
User: usil
Spectrometer: V785-0024
Trigger mode: 0
Integration Time (sec): 4.000000E-1
Scans to average: 1
Nonlinearity correction enabled: false
Boxcar width: 0
Storing dark spectrum: false
XAxis mode: Wavelengths
Number of Pixels in Spectrum: 1024
>>>>>Begin Spectral Data<<<<<
801.071	28580
801.214	28527
801.356	28421
801.499	28322
801.641	28207
801.783	28139
801.926	28230
802.068	28067
802.211	28116
802.353	28070
802.496	27827
802.638	27793
802.78	27816
802.923	27743
803.065	27587
803.208	27720
803.35	27759
803.492	28010
803.635	27960
803.777	27854
803.919	27903
804.061	28276
804.204	27831
804.346	27785
804.488	27671
804.63	27713
804.773	27724
804.915	27804
805.057	27846
805.199	27747
805.341	27854
805.483	27922
805.626	27922
805.768	27774
805.91	27781
806.052	27934
806.194	27930
806.336	28017
806.478	27960
806.62	28101
806.762	28017
806.904	28128
807.046	28375
807.188	28280
807.33	28421
807.472	28181
807.614	28150
807.756	28135
807.898	28063
808.04	28078
808.182	28185
808.324	28055
808.465	28051
808.607	28295
808.749	28333
808.891	28481
809.033	28721
809.174	28455
809.316	28470
809.458	28535
809.6	28386
809.741	28611
809.883	28489
810.025	28596
810.166	28630
810.308	28592
810.45	28755
810.591	28542
810.733	28386
810.875	28466
811.016	28284
811.158	28318
811.299	28474
811.441	28493
811.582	28512
811.724	28417
811.865	28318
812.007	28512
812.148	28386
812.29	28390
812.431	28516
812.573	28698
812.714	28839
812.855	28858
812.997	29075
813.138	29022
813.279	29018
813.421	28748
813.562	28858
813.703	28634
813.845	28653
813.986	28287
814.127	28109
814.268	27911
814.41	27968
814.551	27899
814.692	28051
814.833	27964
814.974	27846
815.115	27991
815.256	27838
815.397	27800
815.539	27618
815.68	27728
815.821	27641
815.962	27732
816.103	27739
816.244	27576
816.385	27610
816.526	27458
816.666	27176
816.807	27146
816.948	27157
817.089	27146
817.23	27096
817.371	27077
817.512	27100
817.653	27116
817.793	27043
817.934	27100
818.075	27093
818.216	27287
818.356	27081
818.497	27104
818.638	26842
818.778	26758
818.919	26823
819.06	26872
819.2	27093
819.341	26967
819.481	27074
819.622	27043
819.762	27272
819.903	27279
820.043	27127
820.184	27131
820.324	27047
820.465	27127
820.605	27062
820.746	26971
820.886	26975
821.026	27039
821.167	27028
821.307	27104
821.447	27093
821.588	26811
821.728	26834
821.868	26568
822.008	26465
822.149	26541
822.289	26434
822.429	26252
822.569	26126
822.709	26031
822.849	25841
822.99	25959
823.13	25814
823.27	25944
823.41	25784
823.55	25624
823.69	25833
823.83	25742
823.97	25681
824.11	25582
824.25	25392
824.389	25510
824.529	25514
824.669	25483
824.809	25761
824.949	25563
825.089	25567
825.228	25559
825.368	25453
825.508	25259
825.648	25502
825.787	25320
825.927	25502
826.067	25381
826.206	25320
826.346	25289
826.485	25228
826.625	25419
826.765	25396
826.904	25289
827.044	25031
827.183	25110
827.323	24962
827.462	25129
827.601	25008
827.741	24844
827.88	24996
828.02	24909
828.159	24897
828.298	24829
828.437	24856
828.577	24829
828.716	25046
828.855	24859
828.994	24707
829.134	24719
829.273	24681
829.412	24616
829.551	24566
829.69	24696
829.829	24730
829.968	24795
830.107	24700
830.246	24612
830.385	24544
830.524	24433
830.663	24426
830.802	24254
830.941	24194
831.08	24178
831.219	24209
831.357	24201
831.496	24315
831.635	24205
831.774	24178
831.913	23961
832.051	23927
832.19	23920
832.329	23942
832.467	23889
832.606	23733
832.744	23802
832.883	23729
833.022	23908
833.16	23828
833.299	23760
833.437	23695
833.576	23923
833.714	23920
833.852	23931
833.991	23897
834.129	23965
834.267	23870
834.406	23874
834.544	23889
834.682	23824
834.821	23737
834.959	24060
835.097	23665
835.235	23821
835.373	23855
835.511	23676
835.65	23623
835.788	23767
835.926	23520
836.064	23440
836.202	23433
836.34	23695
836.478	23707
836.615	23699
836.753	23619
836.891	23748
837.029	23642
837.167	23642
837.305	23520
837.443	23573
837.58	23429
837.718	23665
837.856	23558
837.993	23364
838.131	23444
838.269	23417
838.406	23318
838.544	23292
838.681	23086
838.819	23105
838.956	22991
839.094	22763
839.231	22915
839.369	23132
839.506	23452
839.643	23178
839.781	22889
839.918	22736
840.055	22927
840.193	22824
840.33	22900
840.467	22786
840.604	22748
840.742	23044
840.879	22687
841.016	22850
841.153	22569
841.29	22900
841.427	22656
841.564	22847
841.701	22736
841.838	22782
841.975	22660
842.112	22641
842.249	22691
842.385	22500
842.522	22668
842.659	22573
842.796	22371
842.933	22447
843.069	22417
843.206	22424
843.343	22519
843.479	22375
843.616	22531
843.752	22291
843.889	22268
844.025	22306
844.162	22211
844.298	22341
844.435	22284
844.571	22154
844.708	22219
844.844	22322
844.98	22344
845.117	22242
845.253	22158
845.389	22032
845.525	22101
845.661	22166
845.798	22017
845.934	21964
846.07	21869
846.206	22086
846.342	22010
846.478	21956
846.614	21625
846.75	21576
846.886	21519
847.022	21778
847.158	21622
847.294	21705
847.429	21865
847.565	21553
847.701	21854
847.837	21332
847.972	21359
848.108	21564
848.244	21542
848.379	21116
848.515	21272
848.65	21142
848.786	21268
848.921	21275
849.057	21241
849.192	21294
849.328	21260
849.463	21096
849.598	21135
849.734	21135
849.869	21036
850.004	20982
850.14	20937
850.275	20948
850.41	20960
850.545	20910
850.68	20925
850.815	20971
850.95	20902
851.085	21119
851.22	20967
851.355	20872
851.49	20834
851.625	21028
851.76	20887
851.895	20868
852.03	20868
852.165	20925
852.299	20967
852.434	20956
852.569	20933
852.703	20979
852.838	20971
852.973	21055
853.107	21085
853.242	20895
853.376	20823
853.511	20708
853.645	20815
853.78	20861
853.914	20796
854.048	20750
854.183	20792
854.317	20823
854.451	20963
854.585	20864
854.72	20754
854.854	20754
854.988	20716
855.122	20765
855.256	20667
855.39	20842
855.524	20834
855.658	20693
855.792	20845
855.926	20819
856.06	20792
856.194	20864
856.327	20735
856.461	20819
856.595	20606
856.729	20701
856.862	20899
856.996	20705
857.13	20838
857.263	20895
857.397	20823
857.53	20705
857.664	20708
857.797	20724
857.931	20819
858.064	20727
858.197	20807
858.331	20693
858.464	20724
858.597	20526
858.731	20667
858.864	20678
858.997	20579
859.13	20636
859.263	20560
859.396	20883
859.529	20602
859.662	20594
859.795	20686
859.928	20568
860.061	20746
860.194	20785
860.327	20754
860.46	20674
860.592	20731
860.725	20754
860.858	20769
860.99	20716
861.123	20579
861.256	20560
861.388	20651
861.521	21329
861.653	20587
861.786	20598
861.918	20598
862.05	20697
862.183	20682
862.315	20667
862.447	20819
862.58	20625
862.712	20518
862.844	20381
862.976	20545
863.108	20450
863.24	20849
863.372	20347
863.504	20309
863.636	20305
863.768	20419
863.9	20366
864.032	20339
864.164	20362
864.296	20434
864.428	20492
864.559	20454
864.691	20374
864.823	20358
864.954	20320
865.086	20343
865.217	20271
865.349	20252
865.48	20237
865.612	20221
865.743	20492
865.875	20267
866.006	20195
866.137	20320
866.269	20389
866.4	20172
866.531	20237
866.662	20126
866.793	20278
866.924	20176
867.055	20183
867.186	20119
867.317	20259
867.448	20149
867.579	20183
867.71	20096
867.841	19978
867.972	20130
868.103	20202
868.233	20259
868.364	20221
868.495	20286
868.625	20389
868.756	20495
868.886	20282
869.017	20351
869.147	20689
869.278	20507
869.408	20415
869.539	20389
869.669	20503
869.799	20537
869.929	20465
870.06	20526
870.19	20823
870.32	20632
870.45	20765
870.58	20769
870.71	20937
870.84	20880
870.97	20758
871.1	20796
871.23	21009
871.36	20960
871.489	20864
871.619	21024
871.749	21047
871.879	21043
872.008	21089
872.138	21043
872.267	20952
872.397	20815
872.526	20948
872.656	20975
872.785	20883
872.915	20933
873.044	21135
873.173	21074
873.303	21112
873.432	21146
873.561	21131
873.69	21180
873.819	21036
873.948	21207
874.077	21062
874.206	21074
874.335	21005
874.464	21195
874.593	21306
874.722	21104
874.851	21363
874.979	21340
875.108	21431
875.237	21203
875.365	21085
875.494	21233
875.623	21329
875.751	21272
875.88	21279
876.008	21397
876.136	21454
876.265	21701
876.393	21747
876.521	21728
876.65	21644
876.778	21705
876.906	21629
877.034	21694
877.162	21622
877.29	21534
877.418	21747
877.546	21656
877.674	21667
877.802	21523
877.93	21610
878.058	21583
878.185	21428
878.313	21694
878.441	21599
878.568	21450
878.696	21629
878.824	21781
878.951	21717
879.079	21861
879.206	21888
879.333	21857
879.461	21633
879.588	21641
879.715	21835
879.842	21835
879.97	21709
880.097	21549
880.224	21553
880.351	21466
880.478	21386
880.605	21439
880.732	21481
880.859	21622
880.986	21454
881.112	21466
881.239	21249
881.366	21161
881.493	21173
881.619	21123
881.746	21051
881.872	21104
881.999	20963
882.125	20986
882.252	21017
882.378	21001
882.505	21165
882.631	20986
882.757	20864
882.883	20849
883.01	20891
883.136	20689
883.262	20674
883.388	20735
883.514	20811
883.64	20819
883.766	20640
883.892	20476
884.018	20533
884.143	20670
884.269	20754
884.395	20552
884.52	20442
884.646	20473
884.772	20351
884.897	20389
885.023	20438
885.148	20465
885.274	20537
885.399	20606
885.524	20492
885.65	20374
885.775	20442
885.9	20381
886.025	20412
886.15	20514
886.275	20427
886.4	20256
886.525	20294
886.65	20343
886.775	20313
886.9	20454
887.025	20617
887.149	20298
887.274	20229
887.399	20050
887.523	20149
887.648	20100
887.773	19993
887.897	20271
888.021	20122
888.146	20005
888.27	20240
888.395	20313
888.519	20267
888.643	20142
888.767	20351
888.891	20130
889.015	20005
889.139	20126
889.263	19921
889.387	19936
889.511	20050
889.635	19959
889.759	19944
889.883	19909
890.006	19909
890.13	20054
890.254	19860
890.377	19826
890.501	19731
890.624	19590
890.748	19769
890.871	19548
890.995	19419
891.118	19533
891.241	19575
891.364	19571
891.488	19670
891.611	19609
891.734	19502
891.857	19578
891.98	19571
892.103	19510
892.226	19563
892.349	19358
892.471	19289
892.594	19426
892.717	19491
892.839	19411
892.962	19510
893.085	19571
893.207	19438
893.33	19403
893.452	19335
893.575	19400
893.697	19369
893.819	19674
893.941	19689
894.064	19628
894.186	19365
894.308	19263
894.43	19445
894.552	19510
894.674	19529
894.796	19377
894.918	19362
895.04	19403
895.161	19407
895.283	19510
895.405	19331
895.526	19487
895.648	19483
895.769	19457
895.891	19666
896.012	19575
896.134	19544
896.255	19422
896.376	19460
896.498	19422
896.619	19506
896.74	19571
896.861	19582
896.982	19776
897.103	19951
897.224	19757
897.345	19894
897.466	19780
897.587	19689
897.708	19833
897.828	19734
897.949	19635
898.07	19578
898.19	19632
898.311	19826
898.431	19715
898.552	19689
898.672	19738
898.792	19814
898.913	19712
899.033	19533
899.153	19438
899.273	19339
899.393	19460
899.513	19327
899.633	19472
899.753	19384
899.873	19434
899.993	19362
900.113	19221
900.232	19362
900.352	19434
900.472	19244
900.591	19209
900.711	19194
900.83	19198
900.95	19495
901.069	19373
901.189	19156
901.308	18916
901.427	18825
901.546	18909
901.665	18867
901.784	18871
901.904	18669
902.023	18677
902.141	18365
902.26	18289
902.379	18365
902.498	18426
902.617	18319
902.735	18327
902.854	18167
902.973	18232
903.091	17973
903.21	18015
903.328	17889
903.446	17901
903.565	17745
903.683	17824
903.801	17695
903.919	17836
904.038	17733
904.156	17551
904.274	17672
904.392	17551
904.51	17516
904.627	17596
904.745	17558
904.863	17604
904.981	17341
905.098	17208
905.216	17223
905.334	17330
905.451	17235
905.569	17189
905.686	17254
905.803	17189
905.921	17056
906.038	17079
906.155	17037
906.272	16934
906.389	16778
906.506	16778
906.623	16736
906.74	16706
906.857	16618
906.974	16717
907.091	16927
907.208	16900
907.324	16790
907.441	16698
907.557	16432
907.674	16516
907.79	16405
907.907	16451
908.023	16531
908.139	16436
908.256	16337
908.372	16333
908.488	16238
908.604	16276
908.72	16162
908.836	16223
908.952	16086
909.068	16139
909.184	16272
909.3	16074
909.415	16215
909.531	16055
909.647	15865
909.762	15895
909.878	15793
909.993	15861
910.108	15713
910.224	15804
910.339	15808
910.454	15785
910.57	15705
910.685	15622
910.8	15808
910.915	15713
911.03	15580
911.145	15447
911.259	15500
911.374	15386
911.489	15264
911.604	15332
911.718	15188
911.833	15097
911.947	15036
912.062	14971
912.176	15108
912.291	15195
912.405	15188
912.519	15351
912.633	15233
912.748	15123
912.862	15199
912.976	14960
913.09	14815
913.204	14902
913.318	15062
913.431	15077
913.545	14990
913.659	15013
913.772	14960
913.886	14743
914	14807
914.113	14864
914.226	14975
914.34	14868
914.453	14807
914.566	14708
914.68	14746
914.793	14712
914.906	14511
915.019	14503
915.132	14320
915.245	14366
915.358	14476
915.47	14465
915.583	14492
915.696	14461
915.809	14590
915.921	14613
916.034	14252
916.146	14275
916.259	14240
916.371	14419
916.483	14377
916.595	14267
916.708	14259
916.82	14214
916.932	14381
917.044	14202
917.156	14191
917.268	14123
917.38	14084
917.491	14073
917.603	14157
917.715	14248
917.826	14161
917.938	14027
918.049	13940
918.161	14054
918.272	14218
918.384	14183
918.495	13989
918.606	13917
918.717	13803
918.828	13807
918.939	13909
919.05	13780
919.161	13791
919.272	13639
919.383	13708
919.494	13837
919.604	14035
919.715	13902
919.826	13818
919.936	13731
920.047	13852
920.157	13852
920.267	13982
920.378	13830
920.488	13776
920.598	13967
920.708	14084
920.818	13909
920.928	13807
921.038	14180
921.148	14043
921.258	13715
921.368	13575
921.477	13548
921.587	13578
921.697	13381
921.806	13533
921.916	13487
922.025	13358
922.134	13225
922.244	13061
922.353	13228
922.462	13088
922.571	12985
922.68	12886
922.789	12829
922.898	12863
923.007	12749
923.116	12829
923.224	12772
923.333	12848
923.442	12677
923.55	12597
923.659	12620
923.767	12738
923.876	12620
923.984	12722
924.092	12570
924.201	12658
924.309	12642
924.417	12578
924.525	12456
924.633	12585
924.741	13301
924.849	12308
924.956	12513
925.064	12254
925.172	12216
925.279	12266
925.387	12308
925.494	12308
925.602	12418
925.709	12319
925.816	12167
925.924	12285
926.031	12357
926.138	12243
926.245	12338
926.352	12041
926.459	12296
926.566	12338
926.673	12148
926.779	12053
926.886	12026
926.993	11908
927.099	11874
927.206	11870
927.312	11882
927.419	11885
927.525	11893
927.631	11893
927.737	11824
927.843	11722
927.95	11630
928.056	11817
928.162	11668
928.267	11771
928.373	12235
928.479	11859
928.585	11524
928.69	11638
928.796	11680
928.901	11562
929.007	11376
929.112	11615
929.218	11570
929.323	11452
929.428	11436
929.533	11566
929.638	11414
929.743	11303
929.848	11459
929.953	11383
930.058	11322
930.163	11136
930.267	11151
930.372	11246
930.477	11143
930.581	11353
930.685	11254
930.79	11029
930.894	10968
930.998	11121
931.103	11136
931.207	10801
931.311	10710
931.415	10592
931.519	10443
931.623	10428
