Data from test_V78500241_1212.txt Node
Date: Fri Mar 25 15:18:17 CST 2022
User: usil
Spectrometer: V785-0024
Trigger mode: 0
Integration Time (sec): 4.000000E-1
Scans to average: 1
Nonlinearity correction enabled: false
Boxcar width: 0
Storing dark spectrum: false
XAxis mode: Wavelengths
Number of Pixels in Spectrum: 1024
>>>>>Begin Spectral Data<<<<<
801.071	28226
801.214	28173
801.356	27922
801.499	27831
801.641	27759
801.783	27675
801.926	27797
802.068	27690
802.211	27747
802.353	27599
802.496	27420
802.638	27340
802.78	27336
802.923	27340
803.065	27359
803.208	27264
803.35	27473
803.492	27450
803.635	27507
803.777	27511
803.919	27576
804.061	27838
804.204	27644
804.346	27572
804.488	27500
804.63	27530
804.773	27424
804.915	27656
805.057	27667
805.199	27766
805.341	27679
805.483	27762
805.626	27751
805.768	27561
805.91	27625
806.052	27686
806.194	27622
806.336	27968
806.478	27732
806.62	27774
806.762	27831
806.904	27979
807.046	28306
807.188	28147
807.33	28173
807.472	28249
807.614	28124
807.756	28169
807.898	27945
808.04	27972
808.182	28055
808.324	27972
808.465	28036
808.607	28154
808.749	28333
808.891	28360
809.033	28557
809.174	28485
809.316	28451
809.458	28375
809.6	28299
809.741	28535
809.883	28531
810.025	28721
810.166	28691
810.308	28782
810.45	28634
810.591	28557
810.733	28443
810.875	28356
811.016	28253
811.158	28371
811.299	28527
811.441	28466
811.582	28546
811.724	28421
811.865	28371
812.007	28394
812.148	28356
812.29	28443
812.431	28470
812.573	28622
812.714	28892
812.855	28847
812.997	28961
813.138	29212
813.279	28949
813.421	29029
813.562	28915
813.703	28771
813.845	28809
813.986	28459
814.127	28284
814.268	28120
814.41	28036
814.551	28124
814.692	28154
814.833	28036
814.974	28109
815.115	28223
815.256	27914
815.397	27972
815.539	27850
815.68	27918
815.821	27781
815.962	27972
816.103	27987
816.244	27869
816.385	27633
816.526	27743
816.666	27500
816.807	27348
816.948	27534
817.089	27511
817.23	27329
817.371	27519
817.512	27382
817.653	27466
817.793	27469
817.934	27397
818.075	27401
818.216	27340
818.356	27313
818.497	27252
818.638	27138
818.778	27161
818.919	27199
819.06	27268
819.2	27367
819.341	27477
819.481	27454
819.622	27526
819.762	27827
819.903	27625
820.043	27614
820.184	27504
820.324	27420
820.465	27473
820.605	27511
820.746	27599
820.886	27355
821.026	27469
821.167	27447
821.307	27572
821.447	27332
821.588	27283
821.728	27077
821.868	26990
822.008	26914
822.149	26857
822.289	26773
822.429	26678
822.569	26644
822.709	26530
822.849	26412
822.99	26480
823.13	26332
823.27	26351
823.41	26103
823.55	26096
823.69	26218
823.83	26294
823.97	26130
824.11	25966
824.25	25974
824.389	26001
824.529	26195
824.669	26115
824.809	26172
824.949	26054
825.089	26138
825.228	26100
825.368	25959
825.508	25898
825.648	26024
825.787	25974
825.927	26111
826.067	25951
826.206	25875
826.346	26001
826.485	25883
826.625	26031
826.765	26100
826.904	25993
827.044	25696
827.183	25753
827.323	25586
827.462	25746
827.601	25632
827.741	25548
827.88	25586
828.02	25491
828.159	25632
828.298	25723
828.437	25738
828.577	25712
828.716	25723
828.855	25628
828.994	25396
829.134	25377
829.273	25479
829.412	25312
829.551	25362
829.69	25346
829.829	25514
829.968	25453
830.107	25411
830.246	25339
830.385	25343
830.524	25179
830.663	25129
830.802	25099
830.941	25000
831.08	24951
831.219	24996
831.357	25171
831.496	25137
831.635	24977
831.774	24913
831.913	24844
832.051	24776
832.19	24700
832.329	24795
832.467	24650
832.606	24627
832.744	24498
832.883	24654
833.022	24654
833.16	24631
833.299	24916
833.437	24703
833.576	24700
833.714	24745
833.852	24749
833.991	24814
834.129	24810
834.267	24916
834.406	24616
834.544	24772
834.682	24661
834.821	24601
834.959	24867
835.097	24616
835.235	24829
835.373	24768
835.511	24745
835.65	24604
835.788	24570
835.926	24483
836.064	24334
836.202	24361
836.34	24540
836.478	24722
836.615	24582
836.753	24589
836.891	24521
837.029	24486
837.167	24445
837.305	24669
837.443	24494
837.58	24414
837.718	24448
837.856	24353
837.993	24338
838.131	24448
838.269	24201
838.406	24254
838.544	24125
838.681	24057
838.819	24144
838.956	23980
839.094	23866
839.231	23821
839.369	23961
839.506	24311
839.643	24018
839.781	23942
839.918	23710
840.055	23920
840.193	23908
840.33	23714
840.467	23779
840.604	23786
840.742	24049
840.879	23478
841.016	23745
841.153	23672
841.29	23893
841.427	23741
841.564	23863
841.701	23855
841.838	23665
841.975	23638
842.112	23615
842.249	23596
842.385	23467
842.522	23767
842.659	23707
842.796	23535
842.933	23421
843.069	23417
843.206	23543
843.343	23512
843.479	23611
843.616	23524
843.752	23444
843.889	23269
844.025	23429
844.162	23235
844.298	23395
844.435	23341
844.571	23349
844.708	23330
844.844	23433
844.98	23425
845.117	23505
845.253	23288
845.389	23227
845.525	23105
845.661	23170
845.798	23029
845.934	23132
846.07	22930
846.206	23025
846.342	23147
846.478	22957
846.614	22850
846.75	22767
846.886	22797
847.022	22957
847.158	22805
847.294	22809
847.429	22896
847.565	22729
847.701	22927
847.837	22455
847.972	22519
848.108	22504
848.244	22531
848.379	22436
848.515	22310
848.65	22314
848.786	22303
848.921	22360
849.057	22481
849.192	22455
849.328	22272
849.463	22246
849.598	22333
849.734	22272
849.869	22268
850.004	22135
850.14	22204
850.275	22116
850.41	22013
850.545	22143
850.68	22131
850.815	22090
850.95	22177
851.085	22192
851.22	22200
851.355	22158
851.49	22067
851.625	22067
851.76	22013
851.895	21972
852.03	22032
852.165	22139
852.299	22135
852.434	22215
852.569	22219
852.703	22192
852.838	22242
852.973	22158
853.107	22325
853.242	22143
853.376	21941
853.511	21895
853.645	21812
853.78	22010
853.914	21854
854.048	21907
854.183	21964
854.317	21907
854.451	22105
854.585	21880
854.72	22029
854.854	21975
854.988	21911
855.122	21903
855.256	21838
855.39	21903
855.524	22044
855.658	21934
855.792	21926
855.926	21846
856.06	21918
856.194	21975
856.327	21941
856.461	21778
856.595	21880
856.729	21838
856.862	22105
856.996	21918
857.13	22070
857.263	22040
857.397	21987
857.53	22040
857.664	21949
857.797	22093
857.931	22067
858.064	21922
858.197	21987
858.331	21880
858.464	22025
858.597	21861
858.731	21793
858.864	21956
858.997	21873
859.13	21953
859.263	21907
859.396	22021
859.529	21911
859.662	21941
859.795	21778
859.928	21968
860.061	22143
860.194	22158
860.327	22040
860.46	22036
860.592	22086
860.725	22082
860.858	22029
860.99	21987
861.123	21899
861.256	21873
861.388	22010
861.521	22645
861.653	21785
861.786	21755
861.918	21915
862.05	21915
862.183	21842
862.315	21861
862.447	21945
862.58	21911
862.712	21671
862.844	21614
862.976	21876
863.108	21808
863.24	22048
863.372	21660
863.504	21610
863.636	21580
863.768	21610
863.9	21614
864.032	21622
864.164	21724
864.296	21652
864.428	21713
864.559	21717
864.691	21698
864.823	21610
864.954	21660
865.086	21682
865.217	21682
865.349	21397
865.48	21462
865.612	21504
865.743	21743
865.875	21568
866.006	21477
866.137	21469
866.269	21481
866.4	21587
866.531	21519
866.662	21462
866.793	21405
866.924	21420
867.055	21572
867.186	21496
867.317	21435
867.448	21367
867.579	21439
867.71	21397
867.841	21401
867.972	21538
868.103	21530
868.233	21439
868.364	21515
868.495	21614
868.625	21797
868.756	21789
868.886	21690
869.017	21625
869.147	21751
869.278	21774
869.408	21865
869.539	21766
869.669	21781
869.799	21759
869.929	21842
870.06	21679
870.19	22021
870.32	22048
870.45	21956
870.58	22082
870.71	22211
870.84	22173
870.97	22017
871.1	22124
871.23	22196
871.36	22230
871.489	22200
871.619	22204
871.749	22272
871.879	22291
872.008	22299
872.138	22230
872.267	22112
872.397	22173
872.526	22105
872.656	22154
872.785	22143
872.915	22272
873.044	22382
873.173	22379
873.303	22276
873.432	22375
873.561	22291
873.69	22375
873.819	22230
873.948	22382
874.077	22371
874.206	22223
874.335	22265
874.464	22470
874.593	22592
874.722	22512
874.851	22527
874.979	22443
875.108	22664
875.237	22489
875.365	22527
875.494	22485
875.623	22653
875.751	22569
875.88	22489
876.008	22618
876.136	22793
876.265	22927
876.393	23155
876.521	23006
876.65	23083
876.778	22919
876.906	22919
877.034	22892
877.162	22919
877.29	22900
877.418	22862
877.546	22911
877.674	22892
877.802	22892
877.93	22790
878.058	22713
878.185	22797
878.313	22824
878.441	22957
878.568	22668
878.696	22873
878.824	22786
878.951	22957
879.079	23075
879.206	23086
879.333	23025
879.461	22889
879.588	22927
879.715	23071
879.842	23185
879.97	22858
880.097	22626
880.224	22672
880.351	22664
880.478	22717
880.605	22679
880.732	22675
880.859	22858
880.986	22771
881.112	22675
881.239	22577
881.366	22497
881.493	22402
881.619	22230
881.746	22265
881.872	22284
881.999	22265
882.125	22109
882.252	22246
882.378	22226
882.505	22360
882.631	22124
882.757	22006
882.883	21991
883.01	21922
883.136	21899
883.262	21751
883.388	21861
883.514	22044
883.64	21972
883.766	21964
883.892	21690
884.018	21724
884.143	21876
884.269	21865
884.395	21701
884.52	21614
884.646	21663
884.772	21496
884.897	21534
885.023	21511
885.148	21561
885.274	21686
885.399	21557
885.524	21545
885.65	21610
885.775	21694
885.9	21587
886.025	21629
886.15	21671
886.275	21504
886.4	21504
886.525	21644
886.65	21458
886.775	21504
886.9	21755
887.025	21797
887.149	21561
887.274	21435
887.399	21443
887.523	21378
887.648	21302
887.773	21237
887.897	21496
888.021	21572
888.146	21458
888.27	21477
888.395	21500
888.519	21336
888.643	21389
888.767	21447
888.891	21291
889.015	21169
889.139	21211
889.263	21089
889.387	21249
889.511	21393
889.635	21313
889.759	21085
889.883	21066
890.006	21119
890.13	21332
890.254	21119
890.377	21066
890.501	20845
890.624	20804
890.748	21039
890.871	20754
890.995	20762
891.118	20648
891.241	20868
891.364	20686
891.488	20804
891.611	20644
891.734	20792
891.857	20735
891.98	20716
892.103	20743
892.226	20712
892.349	20746
892.471	20476
892.594	20556
892.717	20667
892.839	20693
892.962	20518
893.085	20819
893.207	20579
893.33	20469
893.452	20606
893.575	20686
893.697	20541
893.819	20697
893.941	20762
894.064	20716
894.186	20450
894.308	20434
894.43	20655
894.552	20815
894.674	20545
894.796	20514
894.918	20613
895.04	20370
895.161	20678
895.283	20587
895.405	20545
895.526	20697
895.648	20583
895.769	20568
895.891	20598
896.012	20701
896.134	20560
896.255	20682
896.376	20442
896.498	20708
896.619	20617
896.74	20583
896.861	20655
896.982	20944
897.103	21009
897.224	20910
897.345	20804
897.466	20644
897.587	20724
897.708	20838
897.828	20765
897.949	20731
898.07	20552
898.19	20674
898.311	20857
898.431	20716
898.552	20731
898.672	20914
898.792	20921
898.913	20800
899.033	20659
899.153	20640
899.273	20400
899.393	20465
899.513	20613
899.633	20571
899.753	20530
899.873	20492
899.993	20514
900.113	20446
900.232	20552
900.352	20393
900.472	20358
900.591	20298
900.711	20366
900.83	20237
900.95	20381
901.069	20332
901.189	20199
901.308	19974
901.427	19883
901.546	19868
901.665	19818
901.784	19890
901.904	19693
902.023	19655
902.141	19480
902.26	19472
902.379	19430
902.498	19350
902.617	19297
902.735	19453
902.854	19232
902.973	19297
903.091	19012
903.21	19080
903.328	18985
903.446	18878
903.565	18802
903.683	18814
903.801	18779
903.919	18844
904.038	18779
904.156	18555
904.274	18745
904.392	18570
904.51	18604
904.627	18661
904.745	18559
904.863	18650
904.981	18437
905.098	18308
905.216	18247
905.334	18266
905.451	18258
905.569	18220
905.686	18342
905.803	18266
905.921	18167
906.038	18159
906.155	18178
906.272	18057
906.389	18041
906.506	17771
906.623	17832
906.74	17748
906.857	17710
906.974	17634
907.091	17748
907.208	17904
907.324	17878
907.441	17657
907.557	17608
907.674	17528
907.79	17414
907.907	17459
908.023	17524
908.139	17512
908.256	17391
908.372	17318
908.488	17349
908.604	17231
908.72	17246
908.836	17280
908.952	17162
909.068	17277
909.184	17208
909.3	17204
909.415	17246
909.531	17239
909.647	16915
909.762	16942
909.878	16980
909.993	17010
910.108	16927
910.224	16889
910.339	16965
910.454	16816
910.57	16717
910.685	16649
910.8	16946
910.915	16919
911.03	16710
911.145	16660
911.259	16497
911.374	16611
911.489	16417
911.604	16360
911.718	16226
911.833	16234
911.947	16105
912.062	16055
912.176	16249
912.291	16257
912.405	16215
912.519	16466
912.633	16390
912.748	16421
912.862	16192
912.976	16006
913.09	15903
913.204	16048
913.318	16105
913.431	16143
913.545	16071
913.659	16200
913.772	16002
913.886	15861
914	15930
914.113	15945
914.226	16101
914.34	15979
914.453	15717
914.566	15842
914.68	15701
914.793	15648
914.906	15641
915.019	15469
915.132	15443
915.245	15469
915.358	15530
915.47	15519
915.583	15477
915.696	15614
915.809	15633
915.921	15504
916.034	15367
916.146	15329
916.259	15279
916.371	15401
916.483	15458
916.595	15325
916.708	15264
916.82	15298
916.932	15203
917.044	15275
917.156	15142
917.268	15119
917.38	15093
917.491	15062
917.603	15135
917.715	15211
917.826	15176
917.938	15039
918.049	14872
918.161	15081
918.272	15157
918.384	15138
918.495	15070
918.606	14941
918.717	14800
918.828	14845
918.939	14899
919.05	14765
919.161	14823
919.272	14663
919.383	14716
919.494	14906
919.604	14982
919.715	14902
919.826	14769
919.936	14788
920.047	14857
920.157	14838
920.267	14910
920.378	14773
920.488	14686
920.598	14963
920.708	15070
920.818	14967
920.928	14971
921.038	15043
921.148	15005
921.258	14853
921.368	14667
921.477	14568
921.587	14450
921.697	14381
921.806	14587
921.916	14377
922.025	14248
922.134	14233
922.244	14119
922.353	14237
922.462	14054
922.571	14001
922.68	13879
922.789	13761
922.898	13822
923.007	13761
923.116	13944
923.224	13875
923.333	13784
923.442	13700
923.55	13624
923.659	13677
923.767	13788
923.876	13586
923.984	13658
924.092	13502
924.201	13605
924.309	13597
924.417	13563
924.525	13426
924.633	13521
924.741	14271
924.849	13339
924.956	13320
925.064	13320
925.172	13122
925.279	13236
925.387	13236
925.494	13255
925.602	13297
925.709	13270
925.816	13118
925.924	13156
926.031	13209
926.138	13171
926.245	13168
926.352	13038
926.459	13217
926.566	13156
926.673	13099
926.779	12924
926.886	13027
926.993	12886
927.099	12856
927.206	12620
927.312	12700
927.419	12814
927.525	12688
927.631	12852
927.737	12692
927.843	12604
927.95	12544
928.056	12574
928.162	12635
928.267	12650
928.373	13091
928.479	12665
928.585	12429
928.69	12544
928.796	12578
928.901	12502
929.007	12258
929.112	12422
929.218	12369
929.323	12315
929.428	12308
929.533	12475
929.638	12247
929.743	12361
929.848	12289
929.953	12327
930.058	12197
930.163	11942
930.267	12007
930.372	12057
930.477	11969
930.581	12163
930.685	12072
930.79	11824
930.894	11916
930.998	11813
931.103	12019
931.207	11543
931.311	11554
931.415	11467
931.519	11208
931.623	11242
