Data from test_V78500241_3374.txt Node
Date: Fri Mar 25 15:33:21 CST 2022
User: usil
Spectrometer: V785-0024
Trigger mode: 0
Integration Time (sec): 4.000000E-1
Scans to average: 1
Nonlinearity correction enabled: false
Boxcar width: 0
Storing dark spectrum: false
XAxis mode: Wavelengths
Number of Pixels in Spectrum: 1024
>>>>>Begin Spectral Data<<<<<
801.071	27306
801.214	27146
801.356	26967
801.499	26796
801.641	26777
801.783	26746
801.926	26800
802.068	26811
802.211	26743
802.353	26689
802.496	26564
802.638	26484
802.78	26248
802.923	26298
803.065	26237
803.208	26267
803.35	26400
803.492	26480
803.635	26511
803.777	26351
803.919	26431
804.061	26804
804.204	26606
804.346	26522
804.488	26393
804.63	26522
804.773	26537
804.915	26560
805.057	26689
805.199	26492
805.341	26556
805.483	26511
805.626	26594
805.768	26655
805.91	26739
806.052	26625
806.194	26556
806.336	26746
806.478	26552
806.62	26583
806.762	26804
806.904	26925
807.046	27169
807.188	27017
807.33	27203
807.472	27161
807.614	27062
807.756	27036
807.898	26929
808.04	26811
808.182	26739
808.324	27085
808.465	26929
808.607	27146
808.749	27214
808.891	27245
809.033	27427
809.174	27450
809.316	27173
809.458	27218
809.6	27146
809.741	27336
809.883	27443
810.025	27507
810.166	27576
810.308	27530
810.45	27496
810.591	27481
810.733	27321
810.875	27233
811.016	27211
811.158	27043
811.299	27325
811.441	27313
811.582	27393
811.724	27123
811.865	27264
812.007	27252
812.148	27237
812.29	27237
812.431	27256
812.573	27473
812.714	27709
812.855	27686
812.997	27759
813.138	28025
813.279	27968
813.421	27736
813.562	27682
813.703	27424
813.845	27523
813.986	27077
814.127	26956
814.268	26845
814.41	26956
814.551	26883
814.692	27074
814.833	26735
814.974	26826
815.115	26864
815.256	26693
815.397	26746
815.539	26781
815.68	26670
815.821	26613
815.962	26659
816.103	26617
816.244	26541
816.385	26480
816.526	26355
816.666	26263
816.807	26187
816.948	26233
817.089	26180
817.23	26210
817.371	26206
817.512	26046
817.653	26016
817.793	26225
817.934	26134
818.075	26111
818.216	26240
818.356	26031
818.497	25925
818.638	25906
818.778	25871
818.919	25913
819.06	25959
819.2	26065
819.341	26122
819.481	26210
819.622	26278
819.762	26389
819.903	26438
820.043	26328
820.184	26259
820.324	26275
820.465	26389
820.605	26225
820.746	26191
820.886	25913
821.026	26180
821.167	26100
821.307	26252
821.447	26164
821.588	26065
821.728	25921
821.868	25795
822.008	25727
822.149	25696
822.289	25639
822.429	25350
822.569	25251
822.709	25316
822.849	25107
822.99	25164
823.13	25069
823.27	25042
823.41	24966
823.55	24821
823.69	24951
823.83	25012
823.97	24890
824.11	24798
824.25	24665
824.389	24825
824.529	24894
824.669	24890
824.809	24821
824.949	24798
825.089	24760
825.228	24677
825.368	24601
825.508	24532
825.648	24627
825.787	24700
825.927	24517
826.067	24551
826.206	24460
826.346	24585
826.485	24665
826.625	24616
826.765	24711
826.904	24646
827.044	24429
827.183	24330
827.323	24254
827.462	24311
827.601	24350
827.741	24426
827.88	24235
828.02	24178
828.159	24323
828.298	24323
828.437	24327
828.577	24239
828.716	24372
828.855	24254
828.994	24045
829.134	24003
829.273	24224
829.412	24038
829.551	24079
829.69	23935
829.829	24038
829.968	24163
830.107	24194
830.246	24125
830.385	23980
830.524	23805
830.663	23840
830.802	23703
830.941	23630
831.08	23684
831.219	23745
831.357	23676
831.496	23813
831.635	23657
831.774	23535
831.913	23467
832.051	23490
832.19	23467
832.329	23398
832.467	23376
832.606	23254
832.744	23326
832.883	23395
833.022	23448
833.16	23254
833.299	23299
833.437	23372
833.576	23345
833.714	23406
833.852	23444
833.991	23539
834.129	23611
834.267	23611
834.406	23459
834.544	23387
834.682	23372
834.821	23341
834.959	23554
835.097	23417
835.235	23497
835.373	23341
835.511	23421
835.65	23379
835.788	23383
835.926	23098
836.064	23052
836.202	23128
836.34	23292
836.478	23368
836.615	23326
836.753	23269
836.891	23250
837.029	23128
837.167	23159
837.305	23185
837.443	23079
837.58	23025
837.718	23178
837.856	23086
837.993	23075
838.131	23056
838.269	22972
838.406	23094
838.544	22953
838.681	22858
838.819	22698
838.956	22710
839.094	22607
839.231	22717
839.369	22801
839.506	22896
839.643	22778
839.781	22615
839.918	22497
840.055	22618
840.193	22596
840.33	22466
840.467	22535
840.604	22592
840.742	22752
840.879	22493
841.016	22462
841.153	22542
841.29	22599
841.427	22546
841.564	22535
841.701	22386
841.838	22519
841.975	22310
842.112	22489
842.249	22329
842.385	22318
842.522	22508
842.659	22272
842.796	22287
842.933	22363
843.069	22230
843.206	22314
843.343	22341
843.479	22299
843.616	22223
843.752	22204
843.889	22051
844.025	22253
844.162	22063
844.298	22112
844.435	22025
844.571	22059
844.708	22181
844.844	22314
844.98	22234
845.117	22154
845.253	21968
845.389	21987
845.525	21972
845.661	21937
845.798	21865
845.934	21964
846.07	21800
846.206	21827
846.342	21964
846.478	21888
846.614	21485
846.75	21389
846.886	21561
847.022	21648
847.158	21561
847.294	21511
847.429	21511
847.565	21637
847.701	21785
847.837	21355
847.972	21291
848.108	21329
848.244	21302
848.379	21135
848.515	21017
848.65	21135
848.786	21142
848.921	21146
849.057	21214
849.192	21291
849.328	21131
849.463	21058
849.598	20998
849.734	20998
849.869	20952
850.004	20929
850.14	20914
850.275	20891
850.41	20864
850.545	20948
850.68	20914
850.815	20830
850.95	20830
851.085	21043
851.22	20921
851.355	20914
851.49	20880
851.625	20895
851.76	20895
851.895	20868
852.03	20872
852.165	20868
852.299	20929
852.434	20929
852.569	20929
852.703	20864
852.838	21032
852.973	21058
853.107	21074
853.242	20895
853.376	20777
853.511	20545
853.645	20689
853.78	20823
853.914	20724
854.048	20720
854.183	20712
854.317	20781
854.451	20899
854.585	20739
854.72	20678
854.854	20727
854.988	20659
855.122	20762
855.256	20590
855.39	20739
855.524	20727
855.658	20788
855.792	20842
855.926	20826
856.06	20701
856.194	20830
856.327	20727
856.461	20609
856.595	20602
856.729	20621
856.862	20762
856.996	20724
857.13	20689
857.263	20838
857.397	20849
857.53	20590
857.664	20777
857.797	20811
857.931	20731
858.064	20746
858.197	20735
858.331	20701
858.464	20598
858.597	20724
858.731	20571
858.864	20682
858.997	20746
859.13	20686
859.263	20693
859.396	20838
859.529	20686
859.662	20769
859.795	20655
859.928	20743
860.061	20921
860.194	20994
860.327	20762
860.46	20716
860.592	20902
860.725	20899
860.858	20941
860.99	20727
861.123	20507
861.256	20693
861.388	20796
861.521	21450
861.653	20708
861.786	20484
861.918	20514
862.05	20594
862.183	20708
862.315	20693
862.447	20682
862.58	20667
862.712	20560
862.844	20385
862.976	20537
863.108	20606
863.24	20800
863.372	20393
863.504	20396
863.636	20431
863.768	20461
863.9	20366
864.032	20442
864.164	20476
864.296	20358
864.428	20495
864.559	20556
864.691	20473
864.823	20423
864.954	20343
865.086	20450
865.217	20298
865.349	20210
865.48	20240
865.612	20336
865.743	20355
865.875	20355
866.006	20362
866.137	20313
866.269	20393
866.4	20259
866.531	20313
866.662	20252
866.793	20187
866.924	20244
867.055	20332
867.186	20324
867.317	20282
867.448	20301
867.579	20237
867.71	20286
867.841	20187
867.972	20252
868.103	20282
868.233	20145
868.364	20355
868.495	20332
868.625	20499
868.756	20602
868.886	20389
869.017	20507
869.147	20602
869.278	20705
869.408	20533
869.539	20514
869.669	20724
869.799	20552
869.929	20617
870.06	20621
870.19	20826
870.32	20788
870.45	20785
870.58	20918
870.71	20906
870.84	20960
870.97	20861
871.1	20960
871.23	21058
871.36	21176
871.489	20967
871.619	21157
871.749	21062
871.879	21070
872.008	21332
872.138	21066
872.267	20944
872.397	21066
872.526	20906
872.656	20895
872.785	20880
872.915	21123
873.044	21264
873.173	21100
873.303	21218
873.432	21218
873.561	21180
873.69	21203
873.819	21077
873.948	21222
874.077	21256
874.206	20994
874.335	21150
874.464	21279
874.593	21401
874.722	21458
874.851	21485
874.979	21462
875.108	21447
875.237	21325
875.365	21287
875.494	21302
875.623	21424
875.751	21279
875.88	21367
876.008	21599
876.136	21724
876.265	21876
876.393	21937
876.521	21857
876.65	21915
876.778	21728
876.906	21774
877.034	21580
877.162	21656
877.29	21781
877.418	21789
877.546	21690
877.674	21720
877.802	21663
877.93	21698
878.058	21816
878.185	21542
878.313	21705
878.441	21713
878.568	21576
878.696	21698
878.824	21709
878.951	21918
879.079	21736
879.206	22074
879.333	21895
879.461	21781
879.588	21865
879.715	21907
879.842	21941
879.97	21743
880.097	21583
880.224	21561
880.351	21675
880.478	21633
880.605	21515
880.732	21583
880.859	21808
880.986	21595
881.112	21542
881.239	21420
881.366	21363
881.493	21211
881.619	21119
881.746	21195
881.872	21100
881.999	21184
882.125	21028
882.252	21116
882.378	21123
882.505	21310
882.631	20921
882.757	20823
882.883	20902
883.01	20902
883.136	20750
883.262	20834
883.388	20743
883.514	20883
883.64	20921
883.766	20883
883.892	20545
884.018	20621
884.143	20815
884.269	20906
884.395	20587
884.52	20552
884.646	20594
884.772	20442
884.897	20412
885.023	20590
885.148	20564
885.274	20568
885.399	20693
885.524	20526
885.65	20499
885.775	20469
885.9	20495
886.025	20739
886.15	20644
886.275	20556
886.4	20461
886.525	20438
886.65	20495
886.775	20446
886.9	20648
887.025	20708
887.149	20412
887.274	20294
887.399	20366
887.523	20385
887.648	20244
887.773	20191
887.897	20282
888.021	20355
888.146	20248
888.27	20415
888.395	20415
888.519	20343
888.643	20317
888.767	20305
888.891	20149
889.015	20050
889.139	20126
889.263	20039
889.387	20092
889.511	20206
889.635	20225
889.759	20145
889.883	20115
890.006	20176
890.13	20111
890.254	20016
890.377	20027
890.501	19898
890.624	19860
890.748	19814
890.871	19719
890.995	19662
891.118	19628
891.241	19757
891.364	19620
891.488	19689
891.611	19559
891.734	19757
891.857	19784
891.98	19708
892.103	19761
892.226	19727
892.349	19613
892.471	19491
892.594	19548
892.717	19499
892.839	19578
892.962	19674
893.085	19677
893.207	19567
893.33	19441
893.452	19457
893.575	19605
893.697	19552
893.819	19715
893.941	19864
894.064	19772
894.186	19468
894.308	19502
894.43	19658
894.552	19655
894.674	19738
894.796	19377
894.918	19540
895.04	19586
895.161	19609
895.283	19647
895.405	19510
895.526	19613
895.648	19559
895.769	19571
895.891	19704
896.012	19677
896.134	19635
896.255	19643
896.376	19628
896.498	19616
896.619	19704
896.74	19563
896.861	19681
896.982	19864
897.103	20065
897.224	19803
897.345	19833
897.466	19814
897.587	19860
897.708	19947
897.828	19906
897.949	19753
898.07	19674
898.19	19734
898.311	19898
898.431	19830
898.552	19909
898.672	19940
898.792	19837
898.913	19833
899.033	19750
899.153	19635
899.273	19575
899.393	19544
899.513	19567
899.633	19590
899.753	19681
899.873	19392
899.993	19594
900.113	19533
900.232	19525
900.352	19453
900.472	19480
900.591	19339
900.711	19343
900.83	19266
900.95	19445
901.069	19457
901.189	19247
901.308	19110
901.427	18905
901.546	19019
901.665	18916
901.784	19012
901.904	18833
902.023	18760
902.141	18528
902.26	18574
902.379	18559
902.498	18460
902.617	18369
902.735	18365
902.854	18346
902.973	18357
903.091	18091
903.21	18174
903.328	18072
903.446	18087
903.565	17999
903.683	18030
903.801	17889
903.919	18022
904.038	17897
904.156	17665
904.274	17824
904.392	17794
904.51	17790
904.627	17657
904.745	17665
904.863	17733
904.981	17539
905.098	17421
905.216	17406
905.334	17455
905.451	17433
905.569	17334
905.686	17379
905.803	17452
905.921	17212
906.038	17128
906.155	17220
906.272	17041
906.389	17181
906.506	16946
906.623	16957
906.74	16995
906.857	16767
906.974	16824
907.091	17025
907.208	17003
907.324	17014
907.441	16862
907.557	16672
907.674	16702
907.79	16618
907.907	16630
908.023	16672
908.139	16615
908.256	16558
908.372	16550
908.488	16565
908.604	16432
908.72	16265
908.836	16382
908.952	16382
909.068	16443
909.184	16569
909.3	16409
909.415	16413
909.531	16413
909.647	16097
909.762	16196
909.878	16010
909.993	16101
910.108	16090
910.224	16090
910.339	16093
910.454	15937
910.57	15880
910.685	15774
910.8	16109
910.915	16078
911.03	15987
911.145	15648
911.259	15614
911.374	15717
911.489	15663
911.604	15584
911.718	15496
911.833	15443
911.947	15298
912.062	15363
912.176	15466
912.291	15428
912.405	15431
912.519	15595
912.633	15606
912.748	15424
912.862	15405
912.976	15310
913.09	15169
913.204	15241
913.318	15268
913.431	15389
913.545	15329
913.659	15344
913.772	15256
913.886	15123
914	15051
914.113	15070
914.226	15252
914.34	15119
914.453	14979
914.566	15013
914.68	14933
914.793	14960
914.906	14762
915.019	14785
915.132	14705
915.245	14678
915.358	14632
915.47	14697
915.583	14758
915.696	14663
915.809	14735
915.921	14800
916.034	14689
916.146	14575
916.259	14648
916.371	14667
916.483	14564
916.595	14495
916.708	14492
916.82	14518
916.932	14549
917.044	14442
917.156	14522
917.268	14362
917.38	14400
917.491	14343
917.603	14457
917.715	14476
917.826	14366
917.938	14240
918.049	14294
918.161	14271
918.272	14396
918.384	14351
918.495	14347
918.606	14248
918.717	14031
918.828	14134
918.939	14134
919.05	14073
919.161	14123
919.272	13902
919.383	14035
919.494	14206
919.604	14252
919.715	14100
919.826	13993
919.936	14054
920.047	14225
920.157	14096
920.267	14206
920.378	14039
920.488	14164
920.598	14199
920.708	14434
920.818	14229
920.928	14161
921.038	14374
921.148	14431
921.258	14088
921.368	14008
921.477	13826
921.587	13852
921.697	13731
921.806	13811
921.916	13696
922.025	13499
922.134	13556
922.244	13506
922.353	13483
922.462	13430
922.571	13346
922.68	13190
922.789	13183
922.898	13202
923.007	13095
923.116	13137
923.224	13118
923.333	13122
923.442	12973
923.55	12993
923.659	12920
923.767	12973
923.876	12947
923.984	13008
924.092	12852
924.201	12897
924.309	12882
924.417	12833
924.525	12882
924.633	12772
924.741	13670
924.849	12585
924.956	12795
925.064	12646
925.172	12502
925.279	12517
925.387	12608
925.494	12578
925.602	12703
925.709	12612
925.816	12601
925.924	12574
926.031	12627
926.138	12513
926.245	12490
926.352	12403
926.459	12616
926.566	12574
926.673	12452
926.779	12391
926.886	12327
926.993	12285
927.099	12152
927.206	12228
927.312	12129
927.419	12228
927.525	12155
927.631	12182
927.737	12072
927.843	12003
927.95	11897
928.056	11958
928.162	11999
928.267	12015
928.373	12620
928.479	12106
928.585	11821
928.69	11897
928.796	11965
928.901	11824
929.007	11752
929.112	11904
929.218	11847
929.323	11680
929.428	11783
929.533	11843
929.638	11691
929.743	11668
929.848	11668
929.953	11737
930.058	11630
930.163	11444
930.267	11577
930.372	11608
930.477	11425
930.581	11596
930.685	11535
930.79	11372
930.894	11376
930.998	11360
931.103	11406
931.207	11075
931.311	11064
931.415	10942
931.519	10767
931.623	10835
