Data from test_V78500241_1254.txt Node
Date: Fri Mar 25 15:18:35 CST 2022
User: usil
Spectrometer: V785-0024
Trigger mode: 0
Integration Time (sec): 4.000000E-1
Scans to average: 1
Nonlinearity correction enabled: false
Boxcar width: 0
Storing dark spectrum: false
XAxis mode: Wavelengths
Number of Pixels in Spectrum: 1024
>>>>>Begin Spectral Data<<<<<
801.071	27876
801.214	27945
801.356	27580
801.499	27610
801.641	27534
801.783	27454
801.926	27469
802.068	27515
802.211	27507
802.353	27249
802.496	27176
802.638	27176
802.78	27028
802.923	27119
803.065	27051
803.208	27074
803.35	27066
803.492	27275
803.635	27386
803.777	27173
803.919	27355
804.061	27709
804.204	27340
804.346	27256
804.488	27241
804.63	27302
804.773	27252
804.915	27310
805.057	27462
805.199	27230
805.341	27534
805.483	27572
805.626	27344
805.768	27405
805.91	27393
806.052	27507
806.194	27359
806.336	27713
806.478	27530
806.62	27511
806.762	27595
806.904	27808
807.046	28002
807.188	27819
807.33	27956
807.472	27800
807.614	27899
807.756	27911
807.898	27854
808.04	27762
808.182	27701
808.324	27774
808.465	27850
808.607	27998
808.749	28074
808.891	28211
809.033	28329
809.174	28082
809.316	28063
809.458	28124
809.6	28067
809.741	28143
809.883	28147
810.025	28310
810.166	28325
810.308	28459
810.45	28253
810.591	28348
810.733	28200
810.875	28063
811.016	27994
811.158	28017
811.299	28188
811.441	28162
811.582	28276
811.724	28139
811.865	28219
812.007	28109
812.148	28185
812.29	28223
812.431	28265
812.573	28542
812.714	28470
812.855	28535
812.997	28683
813.138	28938
813.279	28717
813.421	28740
813.562	28653
813.703	28478
813.845	28356
813.986	28097
814.127	28082
814.268	27736
814.41	27854
814.551	27736
814.692	27941
814.833	27747
814.974	27751
815.115	27922
815.256	27698
815.397	27701
815.539	27816
815.68	27629
815.821	27538
815.962	27576
816.103	27576
816.244	27435
816.385	27462
816.526	27469
816.666	27184
816.807	27108
816.948	27146
817.089	27161
817.23	27154
817.371	27138
817.512	27039
817.653	27093
817.793	27070
817.934	27123
818.075	27184
818.216	27199
818.356	27119
818.497	27047
818.638	26933
818.778	26754
818.919	26952
819.06	26948
819.2	27024
819.341	27131
819.481	27192
819.622	27306
819.762	27454
819.903	27344
820.043	27378
820.184	27173
820.324	27287
820.465	27329
820.605	27195
820.746	27199
820.886	27207
821.026	27268
821.167	27298
821.307	27268
821.447	27039
821.588	26990
821.728	27020
821.868	26674
822.008	26705
822.149	26568
822.289	26453
822.429	26374
822.569	26339
822.709	26259
822.849	26210
822.99	26031
823.13	26157
823.27	26130
823.41	25936
823.55	25864
823.69	25868
823.83	25890
823.97	25913
824.11	25674
824.25	25731
824.389	25807
824.529	25799
824.669	25814
824.809	25875
824.949	25776
825.089	25826
825.228	25849
825.368	25525
825.508	25483
825.648	25658
825.787	25556
825.927	25734
826.067	25434
826.206	25601
826.346	25658
826.485	25685
826.625	25639
826.765	25689
826.904	25616
827.044	25460
827.183	25320
827.323	25278
827.462	25362
827.601	25445
827.741	25225
827.88	25301
828.02	25430
828.159	25240
828.298	25297
828.437	25457
828.577	25354
828.716	25487
828.855	25255
828.994	25031
829.134	25004
829.273	25088
829.412	24897
829.551	25027
829.69	25042
829.829	25118
829.968	25091
830.107	25099
830.246	25034
830.385	24966
830.524	24981
830.663	24954
830.802	24719
830.941	24692
831.08	24563
831.219	24753
831.357	24821
831.496	24856
831.635	24601
831.774	24517
831.913	24566
832.051	24509
832.19	24399
832.329	24483
832.467	24429
832.606	24350
832.744	24243
832.883	24338
833.022	24281
833.16	24338
833.299	24407
833.437	24365
833.576	24247
833.714	24410
833.852	24403
833.991	24498
834.129	24384
834.267	24395
834.406	24384
834.544	24433
834.682	24334
834.821	24433
834.959	24547
835.097	24433
835.235	24426
835.373	24273
835.511	24361
835.65	24186
835.788	24270
835.926	24030
836.064	24007
836.202	24057
836.34	24289
836.478	24270
836.615	24308
836.753	24254
836.891	24205
837.029	24254
837.167	24159
837.305	24152
837.443	24186
837.58	24034
837.718	24022
837.856	24197
837.993	24049
838.131	23988
838.269	23908
838.406	23980
838.544	23779
838.681	23828
838.819	23691
838.956	23665
839.094	23554
839.231	23596
839.369	23752
839.506	23950
839.643	23786
839.781	23589
839.918	23501
840.055	23509
840.193	23684
840.33	23307
840.467	23398
840.604	23505
840.742	23752
840.879	23212
841.016	23433
841.153	23391
841.29	23615
841.427	23558
841.564	23463
841.701	23406
841.838	23471
841.975	23360
842.112	23284
842.249	23273
842.385	23220
842.522	23318
842.659	23200
842.796	23098
842.933	23212
843.069	23071
843.206	23197
843.343	23231
843.479	23174
843.616	23197
843.752	22957
843.889	22984
844.025	23086
844.162	22908
844.298	23117
844.435	22980
844.571	22980
844.708	23060
844.844	23113
844.98	23220
845.117	23254
845.253	22904
845.389	22889
845.525	22946
845.661	22904
845.798	22603
845.934	22771
846.07	22702
846.206	22744
846.342	22866
846.478	22679
846.614	22546
846.75	22436
846.886	22466
847.022	22565
847.158	22523
847.294	22485
847.429	22466
847.565	22405
847.701	22630
847.837	22086
847.972	22230
848.108	22246
848.244	22306
848.379	22188
848.515	22051
848.65	21968
848.786	22082
848.921	22032
849.057	22139
849.192	22150
849.328	22097
849.463	22036
849.598	21987
849.734	21922
849.869	21895
850.004	21838
850.14	21762
850.275	21804
850.41	21728
850.545	21698
850.68	21781
850.815	21781
850.95	21915
851.085	22070
851.22	21876
851.355	21797
851.49	21907
851.625	21781
851.76	21869
851.895	21789
852.03	21675
852.165	21861
852.299	21892
852.434	21778
852.569	21759
852.703	21819
852.838	21793
852.973	21827
853.107	21903
853.242	21686
853.376	21690
853.511	21500
853.645	21568
853.78	21732
853.914	21789
854.048	21583
854.183	21526
854.317	21739
854.451	21827
854.585	21679
854.72	21679
854.854	21667
854.988	21488
855.122	21614
855.256	21583
855.39	21568
855.524	21785
855.658	21625
855.792	21652
855.926	21572
856.06	21660
856.194	21675
856.327	21652
856.461	21648
856.595	21553
856.729	21462
856.862	21762
856.996	21656
857.13	21641
857.263	21899
857.397	21690
857.53	21561
857.664	21572
857.797	21622
857.931	21717
858.064	21705
858.197	21770
858.331	21595
858.464	21663
858.597	21481
858.731	21603
858.864	21469
858.997	21557
859.13	21568
859.263	21610
859.396	21698
859.529	21580
859.662	21572
859.795	21473
859.928	21652
860.061	21762
860.194	21831
860.327	21652
860.46	21629
860.592	21728
860.725	21800
860.858	21781
860.99	21561
861.123	21614
861.256	21523
861.388	21656
861.521	22200
861.653	21549
861.786	21344
861.918	21538
862.05	21424
862.183	21496
862.315	21389
862.447	21568
862.58	21568
862.712	21321
862.844	21302
862.976	21382
863.108	21447
863.24	21736
863.372	21256
863.504	21416
863.636	21340
863.768	21363
863.9	21435
864.032	21306
864.164	21310
864.296	21443
864.428	21500
864.559	21458
864.691	21443
864.823	21348
864.954	21359
865.086	21348
865.217	21226
865.349	21116
865.48	21176
865.612	21321
865.743	21374
865.875	21264
866.006	21241
866.137	21237
866.269	21192
866.4	21142
866.531	21226
866.662	21108
866.793	21150
866.924	21237
867.055	21180
867.186	21127
867.317	21039
867.448	21062
867.579	21081
867.71	21138
867.841	20960
867.972	21241
868.103	21138
868.233	21161
868.364	21119
868.495	21237
868.625	21382
868.756	21416
868.886	21397
869.017	21412
869.147	21644
869.278	21526
869.408	21443
869.539	21450
869.669	21473
869.799	21511
869.929	21492
870.06	21431
870.19	21720
870.32	21599
870.45	21766
870.58	21739
870.71	21857
870.84	21907
870.97	21838
871.1	21846
871.23	21926
871.36	22013
871.489	21983
871.619	21892
871.749	22002
871.879	22086
872.008	22074
872.138	22002
872.267	22036
872.397	21705
872.526	21778
872.656	21922
872.785	21880
872.915	21972
873.044	21991
873.173	22074
873.303	22048
873.432	22044
873.561	22188
873.69	21895
873.819	21953
873.948	22093
874.077	22051
874.206	21945
874.335	21949
874.464	22017
874.593	22268
874.722	22097
874.851	22356
874.979	22382
875.108	22333
875.237	22158
875.365	22112
875.494	22109
875.623	22226
875.751	22158
875.88	22291
876.008	22375
876.136	22382
876.265	22584
876.393	22702
876.521	22649
876.65	22660
876.778	22592
876.906	22523
877.034	22413
877.162	22561
877.29	22615
877.418	22485
877.546	22603
877.674	22569
877.802	22637
877.93	22504
878.058	22409
878.185	22405
878.313	22615
878.441	22573
878.568	22436
878.696	22607
878.824	22577
878.951	22664
879.079	22672
879.206	22877
879.333	22824
879.461	22554
879.588	22649
879.715	22805
879.842	22828
879.97	22672
880.097	22405
880.224	22462
880.351	22356
880.478	22569
880.605	22329
880.732	22375
880.859	22588
880.986	22413
881.112	22421
881.239	22215
881.366	22139
881.493	22101
881.619	22002
881.746	21869
881.872	22078
881.999	21937
882.125	21895
882.252	21934
882.378	21873
882.505	22074
882.631	21819
882.757	21724
882.883	21808
883.01	21660
883.136	21656
883.262	21557
883.388	21504
883.514	21739
883.64	21686
883.766	21515
883.892	21329
884.018	21431
884.143	21629
884.269	21671
884.395	21416
884.52	21374
884.646	21462
884.772	21294
884.897	21245
885.023	21249
885.148	21424
885.274	21435
885.399	21424
885.524	21275
885.65	21249
885.775	21340
885.9	21268
886.025	21363
886.15	21496
886.275	21256
886.4	21165
886.525	21317
886.65	21218
886.775	21142
886.9	21424
887.025	21454
887.149	21214
887.274	21039
887.399	21104
887.523	21135
887.648	20956
887.773	20925
887.897	21176
888.021	21188
888.146	21028
888.27	21165
888.395	21272
888.519	20963
888.643	21017
888.767	21051
888.891	20933
889.015	20834
889.139	20819
889.263	20883
889.387	20902
889.511	21089
889.635	20933
889.759	20815
889.883	20963
890.006	20933
890.13	20857
890.254	20708
890.377	20697
890.501	20644
890.624	20579
890.748	20727
890.871	20503
890.995	20446
891.118	20328
891.241	20446
891.364	20339
891.488	20533
891.611	20442
891.734	20412
891.857	20389
891.98	20442
892.103	20480
892.226	20385
892.349	20355
892.471	20240
892.594	20355
892.717	20259
892.839	20248
892.962	20408
893.085	20431
893.207	20301
893.33	20210
893.452	20305
893.575	20404
893.697	20328
893.819	20556
893.941	20564
894.064	20522
894.186	20210
894.308	20225
894.43	20461
894.552	20434
894.674	20385
894.796	20172
894.918	20328
895.04	20317
895.161	20370
895.283	20343
895.405	20183
895.526	20412
895.648	20298
895.769	20393
895.891	20237
896.012	20332
896.134	20313
896.255	20267
896.376	20271
896.498	20286
896.619	20446
896.74	20263
896.861	20347
896.982	20621
897.103	20750
897.224	20518
897.345	20693
897.466	20492
897.587	20568
897.708	20552
897.828	20587
897.949	20518
898.07	20374
898.19	20438
898.311	20568
898.431	20412
898.552	20499
898.672	20476
898.792	20564
898.913	20564
899.033	20370
899.153	20317
899.273	20282
899.393	20248
899.513	20309
899.633	20351
899.753	20305
899.873	20126
899.993	20206
900.113	20259
900.232	20199
900.352	20187
900.472	20214
900.591	19982
900.711	20134
900.83	19963
900.95	20195
901.069	20168
901.189	19928
901.308	19605
901.427	19693
901.546	19590
901.665	19655
901.784	19655
901.904	19422
902.023	19400
902.141	19141
902.26	19263
902.379	19202
902.498	19206
902.617	19008
902.735	19266
902.854	19156
902.973	19110
903.091	18848
903.21	18798
903.328	18764
903.446	18753
903.565	18623
903.683	18623
903.801	18498
903.919	18578
904.038	18620
904.156	18372
904.274	18372
904.392	18346
904.51	18330
904.627	18327
904.745	18270
904.863	18369
904.981	18334
905.098	18007
905.216	18057
905.334	18201
905.451	18079
905.569	17961
905.686	18098
905.803	18038
905.921	17870
906.038	17885
906.155	17882
906.272	17703
906.389	17680
906.506	17589
906.623	17543
906.74	17532
906.857	17539
906.974	17520
907.091	17592
907.208	17691
907.324	17600
907.441	17524
907.557	17372
907.674	17273
907.79	17239
907.907	17292
908.023	17311
908.139	17288
908.256	17258
908.372	17132
908.488	17071
908.604	17143
908.72	17018
908.836	16949
908.952	17086
909.068	17090
909.184	17147
909.3	17052
909.415	16972
909.531	17041
909.647	16809
909.762	16607
909.878	16645
909.993	16668
910.108	16500
910.224	16683
910.339	16691
910.454	16500
910.57	16577
910.685	16474
910.8	16736
910.915	16694
911.03	16421
911.145	16337
911.259	16234
911.374	16329
911.489	16299
911.604	16230
911.718	16105
911.833	16055
911.947	15922
912.062	15842
912.176	16048
912.291	16086
912.405	16013
912.519	16150
912.633	16219
912.748	16112
912.862	15975
912.976	15888
913.09	15759
913.204	15949
913.318	15816
913.431	15972
913.545	15857
913.659	15895
913.772	15857
913.886	15770
914	15606
914.113	15724
914.226	15755
914.34	15728
914.453	15519
914.566	15717
914.68	15545
914.793	15534
914.906	15329
915.019	15230
915.132	15264
915.245	15275
915.358	15332
915.47	15272
915.583	15260
915.696	15310
915.809	15412
915.921	15447
916.034	15176
916.146	15127
916.259	15188
916.371	15256
916.483	15233
916.595	15104
916.708	15077
916.82	15127
916.932	15097
917.044	14990
917.156	15032
917.268	14895
917.38	14914
917.491	14921
917.603	14967
917.715	15032
917.826	15036
917.938	14925
918.049	14686
918.161	14967
918.272	15017
918.384	14967
918.495	14880
918.606	14663
918.717	14575
918.828	14632
918.939	14651
919.05	14556
919.161	14587
919.272	14442
919.383	14526
919.494	14689
919.604	14838
919.715	14743
919.826	14552
919.936	14530
920.047	14724
920.157	14655
920.267	14777
920.378	14701
920.488	14659
920.598	14910
920.708	15001
920.818	14731
920.928	14621
921.038	14948
921.148	14796
921.258	14590
921.368	14583
921.477	14427
921.587	14290
921.697	14218
921.806	14362
921.916	14275
922.025	14024
922.134	13959
922.244	13959
922.353	14020
922.462	13860
922.571	13772
922.68	13693
922.789	13529
922.898	13613
923.007	13643
923.116	13693
923.224	13521
923.333	13616
923.442	13556
923.55	13441
923.659	13487
923.767	13460
923.876	13430
923.984	13407
924.092	13354
924.201	13438
924.309	13373
924.417	13308
924.525	13255
924.633	13346
924.741	14123
924.849	13091
924.956	13244
925.064	13046
925.172	13038
925.279	12993
925.387	12981
925.494	12981
925.602	13137
925.709	13133
925.816	12985
925.924	12993
926.031	13080
926.138	13000
926.245	13091
926.352	12932
926.459	13053
926.566	13023
926.673	12939
926.779	12856
926.886	12821
926.993	12597
927.099	12578
927.206	12517
927.312	12601
927.419	12665
927.525	12631
927.631	12623
927.737	12528
927.843	12380
927.95	12277
928.056	12391
928.162	12441
928.267	12528
928.373	13061
928.479	12467
928.585	12239
928.69	12350
928.796	12464
928.901	12296
929.007	12136
929.112	12224
929.218	12076
929.323	12209
929.428	12186
929.533	12285
929.638	12072
929.743	12144
929.848	12087
929.953	12129
930.058	11954
930.163	11836
930.267	11870
930.372	11996
930.477	11748
930.581	12060
930.685	11824
930.79	11764
930.894	11756
930.998	11680
931.103	11855
931.207	11459
931.311	11406
931.415	11231
931.519	11102
931.623	11117
