Data from test_V78500241_3041.txt Node
Date: Fri Mar 25 15:31:02 CST 2022
User: usil
Spectrometer: V785-0024
Trigger mode: 0
Integration Time (sec): 4.000000E-1
Scans to average: 1
Nonlinearity correction enabled: false
Boxcar width: 0
Storing dark spectrum: false
XAxis mode: Wavelengths
Number of Pixels in Spectrum: 1024
>>>>>Begin Spectral Data<<<<<
801.071	27184
801.214	27036
801.356	26857
801.499	26804
801.641	26743
801.783	26773
801.926	26785
802.068	26560
802.211	26522
802.353	26617
802.496	26317
802.638	26374
802.78	26400
802.923	26210
803.065	26161
803.208	26153
803.35	26320
803.492	26412
803.635	26461
803.777	26271
803.919	26560
804.061	26705
804.204	26549
804.346	26461
804.488	26320
804.63	26438
804.773	26385
804.915	26461
805.057	26625
805.199	26473
805.341	26469
805.483	26678
805.626	26526
805.768	26522
805.91	26495
806.052	26514
806.194	26336
806.336	26716
806.478	26602
806.62	26514
806.762	26731
806.904	26777
807.046	26918
807.188	26902
807.33	27001
807.472	27005
807.614	26887
807.756	26967
807.898	26769
808.04	26777
808.182	26781
808.324	26743
808.465	26777
808.607	26994
808.749	27093
808.891	27024
809.033	27279
809.174	27260
809.316	27214
809.458	27184
809.6	27085
809.741	27249
809.883	27363
810.025	27443
810.166	27386
810.308	27420
810.45	27287
810.591	27439
810.733	27332
810.875	27165
811.016	27123
811.158	26967
811.299	27424
811.441	27389
811.582	27214
811.724	27089
811.865	27142
812.007	27036
812.148	27157
812.29	27207
812.431	27279
812.573	27488
812.714	27443
812.855	27477
812.997	27660
813.138	27911
813.279	27755
813.421	27545
813.562	27580
813.703	27496
813.845	27302
813.986	27009
814.127	26906
814.268	26933
814.41	26895
814.551	26724
814.692	26872
814.833	26872
814.974	26788
815.115	26773
815.256	26606
815.397	26697
815.539	26682
815.68	26556
815.821	26450
815.962	26492
816.103	26575
816.244	26393
816.385	26351
816.526	26450
816.666	26134
816.807	26027
816.948	26206
817.089	26164
817.23	26309
817.371	26031
817.512	25982
817.653	26005
817.793	26035
817.934	26035
818.075	25978
818.216	25978
818.356	26065
818.497	25966
818.638	25799
818.778	25670
818.919	25833
819.06	25803
819.2	25925
819.341	26027
819.481	26142
819.622	26107
819.762	26423
819.903	26271
820.043	26191
820.184	26229
820.324	26206
820.465	26195
820.605	26313
820.746	26206
820.886	25955
821.026	26069
821.167	26069
821.307	26043
821.447	26107
821.588	25925
821.728	25871
821.868	25674
822.008	25430
822.149	25518
822.289	25502
822.429	25118
822.569	25247
822.709	25084
822.849	25015
822.99	25012
823.13	25080
823.27	24882
823.41	24833
823.55	24719
823.69	24837
823.83	24825
823.97	24684
824.11	24555
824.25	24551
824.389	24707
824.529	24692
824.669	24593
824.809	24859
824.949	24582
825.089	24635
825.228	24654
825.368	24483
825.508	24479
825.648	24665
825.787	24521
825.927	24547
826.067	24414
826.206	24456
826.346	24505
826.485	24372
826.625	24547
826.765	24559
826.904	24490
827.044	24247
827.183	24273
827.323	24159
827.462	24216
827.601	24178
827.741	24330
827.88	24289
828.02	24076
828.159	24125
828.298	24251
828.437	24258
828.577	24167
828.716	24281
828.855	24133
828.994	23912
829.134	23870
829.273	23889
829.412	23889
829.551	23794
829.69	23817
829.829	23923
829.968	23969
830.107	24076
830.246	23912
830.385	23870
830.524	23718
830.663	23733
830.802	23661
830.941	23493
831.08	23653
831.219	23478
831.357	23512
831.496	23608
831.635	23478
831.774	23505
831.913	23372
832.051	23318
832.19	23376
832.329	23387
832.467	23284
832.606	23170
832.744	23174
832.883	23239
833.022	23147
833.16	23117
833.299	23250
833.437	23311
833.576	23296
833.714	23311
833.852	23288
833.991	23212
834.129	23250
834.267	23425
834.406	23284
834.544	23136
834.682	23254
834.821	23246
834.959	23410
835.097	23189
835.235	23341
835.373	23292
835.511	23318
835.65	23143
835.788	23086
835.926	23079
836.064	22972
836.202	22923
836.34	23102
836.478	23174
836.615	23056
836.753	23037
836.891	23128
837.029	23132
837.167	23094
837.305	23067
837.443	22961
837.58	22847
837.718	23071
837.856	23025
837.993	22949
838.131	22934
838.269	22767
838.406	22915
838.544	22771
838.681	22577
838.819	22542
838.956	22413
839.094	22360
839.231	22424
839.369	22443
839.506	22801
839.643	22645
839.781	22417
839.918	22485
840.055	22333
840.193	22436
840.33	22371
840.467	22443
840.604	22428
840.742	22588
840.879	22204
841.016	22341
841.153	22181
841.29	22443
841.427	22276
841.564	22337
841.701	22352
841.838	22200
841.975	22143
842.112	22322
842.249	22188
842.385	22173
842.522	22352
842.659	22120
842.796	22128
842.933	22044
843.069	22055
843.206	22032
843.343	22173
843.479	22173
843.616	22112
843.752	21892
843.889	21838
844.025	21937
844.162	21846
844.298	21953
844.435	21793
844.571	21800
844.708	21873
844.844	21926
844.98	21975
845.117	21926
845.253	21724
845.389	21854
845.525	21842
845.661	21812
845.798	21591
845.934	21614
846.07	21622
846.206	21618
846.342	21751
846.478	21622
846.614	21488
846.75	21397
846.886	21294
847.022	21443
847.158	21401
847.294	21313
847.429	21393
847.565	21458
847.701	21644
847.837	21100
847.972	20990
848.108	21226
848.244	21058
848.379	20986
848.515	20998
848.65	20743
848.786	20960
848.921	20906
849.057	21051
849.192	21100
849.328	20956
849.463	21020
849.598	20872
849.734	20872
849.869	20739
850.004	20724
850.14	20754
850.275	20811
850.41	20522
850.545	20693
850.68	20693
850.815	20663
850.95	20583
851.085	20887
851.22	20781
851.355	20811
851.49	20705
851.625	20659
851.76	20678
851.895	20606
852.03	20731
852.165	20724
852.299	20720
852.434	20804
852.569	20701
852.703	20632
852.838	20792
852.973	20845
853.107	20857
853.242	20651
853.376	20404
853.511	20484
853.645	20530
853.78	20613
853.914	20514
854.048	20434
854.183	20514
854.317	20674
854.451	20811
854.585	20583
854.72	20564
854.854	20537
854.988	20465
855.122	20545
855.256	20282
855.39	20518
855.524	20644
855.658	20514
855.792	20564
855.926	20583
856.06	20602
856.194	20644
856.327	20473
856.461	20442
856.595	20480
856.729	20560
856.862	20606
856.996	20526
857.13	20556
857.263	20583
857.397	20670
857.53	20583
857.664	20594
857.797	20484
857.931	20678
858.064	20556
858.197	20530
858.331	20473
858.464	20434
858.597	20427
858.731	20537
858.864	20488
858.997	20488
859.13	20583
859.263	20552
859.396	20579
859.529	20514
859.662	20385
859.795	20560
859.928	20514
860.061	20579
860.194	20720
860.327	20609
860.46	20689
860.592	20568
860.725	20758
860.858	20663
860.99	20533
861.123	20518
861.256	20454
861.388	20480
861.521	21112
861.653	20412
861.786	20396
861.918	20446
862.05	20389
862.183	20488
862.315	20522
862.447	20549
862.58	20412
862.712	20427
862.844	20271
862.976	20377
863.108	20324
863.24	20575
863.372	20267
863.504	20214
863.636	20320
863.768	20389
863.9	20298
864.032	20142
864.164	20119
864.296	20355
864.428	20309
864.559	20309
864.691	20339
864.823	20172
864.954	20351
865.086	20225
865.217	20161
865.349	20153
865.48	20145
865.612	20100
865.743	20328
865.875	20199
866.006	20024
866.137	20157
866.269	20183
866.4	20153
866.531	20183
866.662	20035
866.793	20027
866.924	20164
867.055	20225
867.186	20259
867.317	20012
867.448	20008
867.579	19986
867.71	20001
867.841	19989
867.972	20111
868.103	20088
868.233	20126
868.364	20142
868.495	20153
868.625	20320
868.756	20454
868.886	20267
869.017	20290
869.147	20514
869.278	20454
869.408	20309
869.539	20412
869.669	20484
869.799	20423
869.929	20465
870.06	20412
870.19	20689
870.32	20606
870.45	20526
870.58	20819
870.71	20845
870.84	20838
870.97	20708
871.1	20708
871.23	20883
871.36	20921
871.489	20765
871.619	20948
871.749	20868
871.879	20975
872.008	21036
872.138	20929
872.267	20952
872.397	20788
872.526	20849
872.656	20693
872.785	20735
872.915	20880
873.044	21081
873.173	20826
873.303	20914
873.432	21020
873.561	21241
873.69	20979
873.819	21013
873.948	21157
874.077	21009
874.206	20944
874.335	20979
874.464	21039
874.593	21214
874.722	21199
874.851	21272
874.979	21085
875.108	21294
875.237	21146
875.365	20925
875.494	21245
875.623	21283
875.751	21218
875.88	21199
876.008	21355
876.136	21431
876.265	21538
876.393	21747
876.521	21701
876.65	21717
876.778	21724
876.906	21603
877.034	21412
877.162	21538
877.29	21393
877.418	21450
877.546	21603
877.674	21519
877.802	21553
877.93	21637
878.058	21504
878.185	21515
878.313	21572
878.441	21633
878.568	21458
878.696	21504
878.824	21637
878.951	21595
879.079	21755
879.206	21850
879.333	21797
879.461	21682
879.588	21694
879.715	21816
879.842	21873
879.97	21717
880.097	21466
880.224	21317
880.351	21325
880.478	21401
880.605	21386
880.732	21306
880.859	21618
880.986	21515
881.112	21496
881.239	21321
881.366	21211
881.493	21089
881.619	21024
881.746	21077
881.872	21100
881.999	21058
882.125	20967
882.252	21089
882.378	20998
882.505	21093
882.631	20807
882.757	20659
882.883	20785
883.01	20686
883.136	20670
883.262	20598
883.388	20560
883.514	20712
883.64	20648
883.766	20689
883.892	20450
884.018	20583
884.143	20720
884.269	20758
884.395	20313
884.52	20324
884.646	20377
884.772	20305
884.897	20221
885.023	20320
885.148	20488
885.274	20526
885.399	20507
885.524	20442
885.65	20412
885.775	20377
885.9	20355
886.025	20454
886.15	20431
886.275	20339
886.4	20218
886.525	20423
886.65	20256
886.775	20240
886.9	20530
887.025	20469
887.149	20507
887.274	20096
887.399	20054
887.523	20100
887.648	20130
887.773	19944
887.897	20161
888.021	20153
888.146	20092
888.27	20271
888.395	20191
888.519	20267
888.643	20115
888.767	20126
888.891	20126
889.015	19826
889.139	20043
889.263	19928
889.387	20126
889.511	20229
889.635	20077
889.759	20001
889.883	19860
890.006	19830
890.13	20046
890.254	19875
890.377	19875
890.501	19662
890.624	19628
890.748	19719
890.871	19700
890.995	19518
891.118	19369
891.241	19571
891.364	19685
891.488	19616
891.611	19556
891.734	19502
891.857	19655
891.98	19658
892.103	19635
892.226	19559
892.349	19586
892.471	19285
892.594	19434
892.717	19476
892.839	19476
892.962	19419
893.085	19556
893.207	19464
893.33	19297
893.452	19247
893.575	19468
893.697	19426
893.819	19613
893.941	19460
894.064	19426
894.186	19362
894.308	19339
894.43	19495
894.552	19609
894.674	19624
894.796	19430
894.918	19358
895.04	19407
895.161	19544
895.283	19407
895.405	19403
895.526	19449
895.648	19537
895.769	19540
895.891	19422
896.012	19548
896.134	19499
896.255	19464
896.376	19400
896.498	19449
896.619	19487
896.74	19381
896.861	19639
896.982	19769
897.103	19860
897.224	19818
897.345	19704
897.466	19658
897.587	19708
897.708	19898
897.828	19746
897.949	19613
898.07	19578
898.19	19643
898.311	19746
898.431	19738
898.552	19689
898.672	19791
898.792	19772
898.913	19738
899.033	19632
899.153	19483
899.273	19438
899.393	19426
899.513	19575
899.633	19487
899.753	19434
899.873	19499
899.993	19590
900.113	19415
900.232	19434
900.352	19350
900.472	19255
900.591	19320
900.711	19282
900.83	19198
900.95	19225
901.069	19301
901.189	19076
901.308	18962
901.427	18829
901.546	18932
901.665	18981
901.784	18905
901.904	18688
902.023	18601
902.141	18494
902.26	18365
902.379	18467
902.498	18437
902.617	18285
902.735	18456
902.854	18395
902.973	18270
903.091	18026
903.21	18171
903.328	18057
903.446	17885
903.565	17954
903.683	17920
903.801	17840
903.919	17756
904.038	17775
904.156	17566
904.274	17729
904.392	17676
904.51	17608
904.627	17661
904.745	17691
904.863	17615
904.981	17433
905.098	17254
905.216	17349
905.334	17246
905.451	17353
905.569	17307
905.686	17254
905.803	17284
905.921	17105
906.038	17185
906.155	17117
906.272	17045
906.389	16999
906.506	16889
906.623	16805
906.74	16847
906.857	16687
906.974	16812
907.091	16877
907.208	16927
907.324	16904
907.441	16793
907.557	16504
907.674	16516
907.79	16561
907.907	16504
908.023	16535
908.139	16512
908.256	16481
908.372	16516
908.488	16417
908.604	16379
908.72	16265
908.836	16314
908.952	16147
909.068	16432
909.184	16386
909.3	16276
909.415	16306
909.531	16303
909.647	16029
909.762	15972
909.878	15949
909.993	15975
910.108	15911
910.224	15968
910.339	15915
910.454	15884
910.57	15804
910.685	15743
910.8	16044
910.915	15937
911.03	15865
911.145	15690
911.259	15553
911.374	15504
911.489	15545
911.604	15450
911.718	15374
911.833	15363
911.947	15272
912.062	15241
912.176	15382
912.291	15412
912.405	15416
912.519	15549
912.633	15591
912.748	15458
912.862	15241
912.976	15222
913.09	15112
913.204	15142
913.318	15283
913.431	15237
913.545	15199
913.659	15294
913.772	15127
913.886	14925
914	14910
914.113	14979
914.226	15043
914.34	15051
914.453	14853
914.566	15013
914.68	14811
914.793	14902
914.906	14587
915.019	14670
915.132	14590
915.245	14549
915.358	14587
915.47	14606
915.583	14564
915.696	14579
915.809	14716
915.921	14655
916.034	14644
916.146	14499
916.259	14362
916.371	14632
916.483	14552
916.595	14537
916.708	14469
916.82	14450
916.932	14469
917.044	14362
917.156	14343
917.268	14282
917.38	14244
917.491	14278
917.603	14301
917.715	14385
917.826	14370
917.938	14233
918.049	14088
918.161	14142
918.272	14366
918.384	14358
918.495	14100
918.606	14096
918.717	13852
918.828	14062
918.939	14039
919.05	13955
919.161	14069
919.272	13921
919.383	13868
919.494	14069
919.604	14286
919.715	14077
919.826	13913
919.936	13932
920.047	13978
920.157	14126
920.267	14153
920.378	14050
920.488	13917
920.598	14069
920.708	14206
920.818	14050
920.928	14142
921.038	14275
921.148	14157
921.258	13917
921.368	13906
921.477	13868
921.587	13765
921.697	13693
921.806	13795
921.916	13571
922.025	13449
922.134	13384
922.244	13487
922.353	13472
922.462	13244
922.571	13308
922.68	13099
922.789	13133
922.898	13057
923.007	12920
923.116	13061
923.224	13019
923.333	12993
923.442	12932
923.55	13019
923.659	12840
923.767	12935
923.876	12738
923.984	12897
924.092	12772
924.201	12954
924.309	12760
924.417	12776
924.525	12707
924.633	12798
924.741	13674
924.849	12479
924.956	12650
925.064	12513
925.172	12509
925.279	12494
925.387	12494
925.494	12498
925.602	12719
925.709	12582
925.816	12315
925.924	12414
926.031	12498
926.138	12414
926.245	12517
926.352	12559
926.459	12528
926.566	12551
926.673	12395
926.779	12247
926.886	12209
926.993	12098
927.099	12057
927.206	12053
927.312	11980
927.419	12110
927.525	12121
927.631	12125
927.737	11965
927.843	11954
927.95	11840
928.056	11923
928.162	11923
928.267	11965
928.373	12593
928.479	12079
928.585	11710
928.69	11901
928.796	11939
928.901	11821
929.007	11665
929.112	11798
929.218	11710
929.323	11756
929.428	11661
929.533	11824
929.638	11592
929.743	11638
929.848	11707
929.953	11611
930.058	11562
930.163	11322
930.267	11391
930.372	11467
930.477	11269
930.581	11497
930.685	11379
930.79	11239
930.894	11273
930.998	11193
931.103	11364
931.207	10957
931.311	10915
931.415	10847
931.519	10630
931.623	10660
