Data from test_V78500241_110.txt Node
Date: Fri Mar 25 15:10:37 CST 2022
User: usil
Spectrometer: V785-0024
Trigger mode: 0
Integration Time (sec): 4.000000E-1
Scans to average: 1
Nonlinearity correction enabled: false
Boxcar width: 0
Storing dark spectrum: false
XAxis mode: Wavelengths
Number of Pixels in Spectrum: 1024
>>>>>Begin Spectral Data<<<<<
801.071	28025
801.214	28112
801.356	27789
801.499	27873
801.641	27652
801.783	27622
801.926	27736
802.068	27549
802.211	27469
802.353	27439
802.496	27466
802.638	27199
802.78	27184
802.923	27161
803.065	27161
803.208	27169
803.35	27154
803.492	27443
803.635	27321
803.777	27245
803.919	27283
804.061	27610
804.204	27431
804.346	27249
804.488	27279
804.63	27283
804.773	27112
804.915	27199
805.057	27310
805.199	27176
805.341	27325
805.483	27351
805.626	27249
805.768	27291
805.91	27405
806.052	27447
806.194	27268
806.336	27416
806.478	27485
806.62	27249
806.762	27340
806.904	27538
807.046	27701
807.188	27629
807.33	27861
807.472	27781
807.614	27580
807.756	27633
807.898	27515
808.04	27382
808.182	27466
808.324	27606
808.465	27549
808.607	27690
808.749	27793
808.891	27899
809.033	28105
809.174	27945
809.316	27899
809.458	27945
809.6	27823
809.741	27953
809.883	27781
810.025	28006
810.166	28006
810.308	28143
810.45	27998
810.591	27743
810.733	27804
810.875	27835
811.016	27755
811.158	27804
811.299	27781
811.441	27983
811.582	27842
811.724	27876
811.865	27618
812.007	27667
812.148	27766
812.29	27724
812.431	27968
812.573	28067
812.714	28196
812.855	28200
812.997	28280
813.138	28599
813.279	28462
813.421	28310
813.562	28097
813.703	28086
813.845	28040
813.986	27644
814.127	27656
814.268	27344
814.41	27313
814.551	27389
814.692	27538
814.833	27279
814.974	27214
815.115	27363
815.256	27272
815.397	27226
815.539	27302
815.68	27112
815.821	27005
815.962	27123
816.103	27173
816.244	26906
816.385	26819
816.526	26990
816.666	26636
816.807	26636
816.948	26663
817.089	26617
817.23	26469
817.371	26507
817.512	26583
817.653	26492
817.793	26400
817.934	26552
818.075	26522
818.216	26545
818.356	26434
818.497	26453
818.638	26199
818.778	26355
818.919	26358
819.06	26294
819.2	26423
819.341	26434
819.481	26450
819.622	26617
819.762	26819
819.903	26655
820.043	26594
820.184	26590
820.324	26640
820.465	26705
820.605	26514
820.746	26568
820.886	26374
821.026	26355
821.167	26545
821.307	26590
821.447	26575
821.588	26324
821.728	26256
821.868	26225
822.008	25868
822.149	25940
822.289	25909
822.429	25613
822.569	25571
822.709	25533
822.849	25407
822.99	25331
823.13	25339
823.27	25308
823.41	25190
823.55	25168
823.69	25152
823.83	25225
823.97	25202
824.11	24935
824.25	24947
824.389	25015
824.529	25065
824.669	24817
824.809	25038
824.949	25057
825.089	25080
825.228	24913
825.368	24810
825.508	24859
825.648	24901
825.787	24867
825.927	24848
826.067	24848
826.206	24703
826.346	24817
826.485	24757
826.625	24802
826.765	24791
826.904	24871
827.044	24521
827.183	24551
827.323	24395
827.462	24471
827.601	24452
827.741	24471
827.88	24460
828.02	24403
828.159	24220
828.298	24574
828.437	24471
828.577	24422
828.716	24460
828.855	24445
828.994	24053
829.134	24178
829.273	24167
829.412	24049
829.551	24041
829.69	24121
829.829	24197
829.968	24133
830.107	24186
830.246	24049
830.385	24015
830.524	24072
830.663	23950
830.802	23863
830.941	23703
831.08	23741
831.219	23748
831.357	23767
831.496	23916
831.635	23661
831.774	23615
831.913	23604
832.051	23436
832.19	23497
832.329	23452
832.467	23425
832.606	23387
832.744	23216
832.883	23379
833.022	23398
833.16	23307
833.299	23414
833.437	23334
833.576	23303
833.714	23398
833.852	23516
833.991	23516
834.129	23467
834.267	23379
834.406	23296
834.544	23459
834.682	23345
834.821	23246
834.959	23444
835.097	23406
835.235	23299
835.373	23345
835.511	23288
835.65	23273
835.788	23258
835.926	23075
836.064	22923
836.202	23204
836.34	23261
836.478	23254
836.615	23227
836.753	23273
836.891	23200
837.029	23181
837.167	23075
837.305	22927
837.443	23121
837.58	23181
837.718	23136
837.856	23064
837.993	23041
838.131	23052
838.269	22908
838.406	22866
838.544	22847
838.681	22790
838.819	22717
838.956	22478
839.094	22436
839.231	22538
839.369	22535
839.506	22778
839.643	22793
839.781	22485
839.918	22455
840.055	22382
840.193	22329
840.33	22478
840.467	22333
840.604	22451
840.742	22554
840.879	22204
841.016	22386
841.153	22226
841.29	22474
841.427	22405
841.564	22352
841.701	22314
841.838	22295
841.975	22265
842.112	22276
842.249	22078
842.385	22128
842.522	22200
842.659	22158
842.796	21846
842.933	22109
843.069	22116
843.206	22051
843.343	22230
843.479	22090
843.616	22093
843.752	21835
843.889	21778
844.025	21941
844.162	21823
844.298	21918
844.435	21979
844.571	21800
844.708	21800
844.844	21998
844.98	22029
845.117	21880
845.253	21686
845.389	21686
845.525	21819
845.661	21675
845.798	21591
845.934	21682
846.07	21519
846.206	21568
846.342	21652
846.478	21515
846.614	21279
846.75	21237
846.886	21199
847.022	21321
847.158	21336
847.294	21218
847.429	21192
847.565	21150
847.701	21561
847.837	21009
847.972	20948
848.108	21024
848.244	21123
848.379	20842
848.515	20910
848.65	20880
848.786	20823
848.921	20765
849.057	20830
849.192	20849
849.328	20830
849.463	20807
849.598	20750
849.734	20659
849.869	20613
850.004	20476
850.14	20670
850.275	20670
850.41	20507
850.545	20632
850.68	20549
850.815	20389
850.95	20503
851.085	20754
851.22	20644
851.355	20575
851.49	20495
851.625	20503
851.76	20499
851.895	20362
852.03	20438
852.165	20457
852.299	20450
852.434	20507
852.569	20575
852.703	20602
852.838	20522
852.973	20716
853.107	20629
853.242	20457
853.376	20415
853.511	20206
853.645	20404
853.78	20526
853.914	20294
854.048	20286
854.183	20385
854.317	20252
854.451	20499
854.585	20358
854.72	20339
854.854	20450
854.988	20267
855.122	20377
855.256	20290
855.39	20434
855.524	20469
855.658	20358
855.792	20248
855.926	20381
856.06	20305
856.194	20461
856.327	20355
856.461	20263
856.595	20278
856.729	20248
856.862	20358
856.996	20362
857.13	20343
857.263	20370
857.397	20450
857.53	20381
857.664	20374
857.797	20412
857.931	20488
858.064	20377
858.197	20385
858.331	20320
858.464	20157
858.597	20138
858.731	20351
858.864	20202
858.997	20138
859.13	20244
859.263	20324
859.396	20412
859.529	20229
859.662	20168
859.795	20180
859.928	20202
860.061	20473
860.194	20419
860.327	20324
860.46	20286
860.592	20404
860.725	20358
860.858	20454
860.99	20339
861.123	20199
861.256	20176
861.388	20240
861.521	20842
861.653	20096
861.786	20054
861.918	20100
862.05	20206
862.183	20332
862.315	20377
862.447	20347
862.58	20328
862.712	20050
862.844	20005
862.976	20027
863.108	20016
863.24	20514
863.372	19921
863.504	20046
863.636	20027
863.768	19982
863.9	20046
864.032	19974
864.164	19917
864.296	19917
864.428	20058
864.559	20077
864.691	20054
864.823	20024
864.954	20012
865.086	19986
865.217	19860
865.349	19784
865.48	19909
865.612	19928
865.743	20126
865.875	19959
866.006	19925
866.137	19955
866.269	19879
866.4	19830
866.531	19989
866.662	19780
866.793	19795
866.924	19868
867.055	19951
867.186	19849
867.317	19788
867.448	19719
867.579	19814
867.71	19700
867.841	19662
867.972	19803
868.103	19830
868.233	19940
868.364	19894
868.495	19932
868.625	20054
868.756	20119
868.886	19986
869.017	19993
869.147	20225
869.278	20263
869.408	19963
869.539	20016
869.669	20221
869.799	20020
869.929	20199
870.06	20168
870.19	20419
870.32	20328
870.45	20381
870.58	20404
870.71	20518
870.84	20541
870.97	20408
871.1	20473
871.23	20556
871.36	20765
871.489	20480
871.619	20625
871.749	20571
871.879	20689
872.008	20811
872.138	20648
872.267	20602
872.397	20499
872.526	20514
872.656	20476
872.785	20400
872.915	20552
873.044	20670
873.173	20598
873.303	20686
873.432	20716
873.561	20887
873.69	20750
873.819	20750
873.948	20697
874.077	20579
874.206	20537
874.335	20636
874.464	20872
874.593	20941
874.722	20975
874.851	20994
874.979	20948
875.108	20933
875.237	20944
875.365	20727
875.494	20811
875.623	20937
875.751	20891
875.88	20906
876.008	21218
876.136	21108
876.265	21329
876.393	21431
876.521	21287
876.65	21405
876.778	21526
876.906	21226
877.034	21230
877.162	21260
877.29	21272
877.418	21355
877.546	21336
877.674	21203
877.802	21351
877.93	21329
878.058	21252
878.185	21131
878.313	21260
878.441	21264
878.568	21150
878.696	21165
878.824	21363
878.951	21374
879.079	21538
879.206	21633
879.333	21405
879.461	21412
879.588	21447
879.715	21401
879.842	21614
879.97	21272
880.097	21199
880.224	21013
880.351	21013
880.478	21154
880.605	21138
880.732	20937
880.859	21378
880.986	21017
881.112	21112
881.239	20982
881.366	20941
881.493	20788
881.619	20788
881.746	20724
881.872	20602
881.999	20655
882.125	20568
882.252	20735
882.378	20876
882.505	20743
882.631	20602
882.757	20495
882.883	20526
883.01	20518
883.136	20282
883.262	20328
883.388	20275
883.514	20385
883.64	20606
883.766	20282
883.892	20214
884.018	20290
884.143	20396
884.269	20465
884.395	20130
884.52	20115
884.646	20103
884.772	20046
884.897	20062
885.023	19940
885.148	20081
885.274	20229
885.399	20214
885.524	20138
885.65	20069
885.775	20172
885.9	20187
886.025	20149
886.15	20058
886.275	20183
886.4	19978
886.525	20027
886.65	19894
886.775	19974
886.9	20225
887.025	20336
887.149	20103
887.274	19860
887.399	19864
887.523	19841
887.648	19860
887.773	19723
887.897	19871
888.021	19849
888.146	19761
888.27	19978
888.395	19845
888.519	19936
888.643	19947
888.767	19807
888.891	19715
889.015	19662
889.139	19715
889.263	19647
889.387	19837
889.511	19871
889.635	19731
889.759	19635
889.883	19586
890.006	19601
890.13	19742
890.254	19506
890.377	19601
890.501	19400
890.624	19308
890.748	19369
890.871	19304
890.995	19308
891.118	19046
891.241	19156
891.364	19270
891.488	19327
891.611	19160
891.734	19255
891.857	19301
891.98	19209
892.103	19354
892.226	19202
892.349	19213
892.471	18901
892.594	19126
892.717	19206
892.839	19031
892.962	19183
893.085	19137
893.207	19084
893.33	18939
893.452	19099
893.575	19263
893.697	19080
893.819	19225
893.941	19350
894.064	19107
894.186	18989
894.308	19072
894.43	19145
894.552	19247
894.674	19187
894.796	19194
894.918	19110
895.04	19076
895.161	19126
895.283	19194
895.405	19012
895.526	19141
895.648	19065
895.769	19198
895.891	19217
896.012	19244
896.134	19274
896.255	19194
896.376	19213
896.498	19183
896.619	19183
896.74	19240
896.861	19175
896.982	19514
897.103	19666
897.224	19514
897.345	19369
897.466	19316
897.587	19411
897.708	19449
897.828	19419
897.949	19422
898.07	19293
898.19	19282
898.311	19506
898.431	19373
898.552	19320
898.672	19312
898.792	19457
898.913	19343
899.033	19236
899.153	19164
899.273	19118
899.393	19042
899.513	19133
899.633	19202
899.753	19061
899.873	19114
899.993	19080
900.113	19034
900.232	19129
900.352	19171
900.472	18825
900.591	18859
900.711	18966
900.83	18840
900.95	19061
901.069	18958
901.189	18795
901.308	18726
901.427	18570
901.546	18555
901.665	18688
901.784	18547
901.904	18407
902.023	18258
902.141	18174
902.26	18003
902.379	18117
902.498	18019
902.617	17954
902.735	18030
902.854	18015
902.973	17965
903.091	17741
903.21	17756
903.328	17813
903.446	17573
903.565	17444
903.683	17467
903.801	17387
903.919	17539
904.038	17414
904.156	17376
904.274	17471
904.392	17223
904.51	17345
904.627	17242
904.745	17318
904.863	17482
904.981	17052
905.098	17003
905.216	16938
905.334	16972
905.451	16877
905.569	16915
905.686	16968
905.803	16923
905.921	16809
906.038	16881
906.155	16797
906.272	16683
906.389	16645
906.506	16554
906.623	16538
906.74	16637
906.857	16386
906.974	16451
907.091	16554
907.208	16653
907.324	16451
907.441	16360
907.557	16207
907.674	16188
907.79	16158
907.907	16181
908.023	16257
908.139	16154
908.256	16181
908.372	16021
908.488	16002
908.604	15945
908.72	15895
908.836	15987
908.952	15846
909.068	15949
909.184	15991
909.3	15800
909.415	15949
909.531	15812
909.647	15614
909.762	15568
909.878	15625
909.993	15561
910.108	15606
910.224	15519
910.339	15557
910.454	15454
910.57	15458
910.685	15302
910.8	15610
910.915	15599
911.03	15428
911.145	15272
911.259	15249
911.374	15154
911.489	15051
911.604	15108
911.718	14906
911.833	15001
911.947	14807
912.062	14724
912.176	14804
912.291	14929
912.405	14925
912.519	15097
912.633	15150
912.748	14944
912.862	14887
912.976	14800
913.09	14571
913.204	14712
913.318	14724
913.431	14720
913.545	14830
913.659	14883
913.772	14697
913.886	14640
914	14533
914.113	14606
914.226	14705
914.34	14686
914.453	14446
914.566	14568
914.68	14423
914.793	14454
914.906	14286
915.019	14233
915.132	14176
915.245	14168
915.358	14199
915.47	14229
915.583	14180
915.696	14229
915.809	14351
915.921	14294
916.034	14172
916.146	14069
916.259	14092
916.371	14199
916.483	14142
916.595	14096
916.708	14153
916.82	14069
916.932	14065
917.044	14024
917.156	13982
917.268	13925
917.38	13871
917.491	13799
917.603	13898
917.715	14024
917.826	13967
917.938	13917
918.049	13818
918.161	13871
918.272	14035
918.384	13989
918.495	13856
918.606	13651
918.717	13548
918.828	13662
918.939	13738
919.05	13525
919.161	13632
919.272	13480
919.383	13472
919.494	13605
919.604	13761
919.715	13620
919.826	13533
919.936	13624
920.047	13685
920.157	13662
920.267	13902
920.378	13670
920.488	13605
920.598	13852
920.708	13947
920.818	13704
920.928	13731
921.038	13986
921.148	13868
921.258	13586
921.368	13533
921.477	13392
921.587	13312
921.697	13247
921.806	13259
921.916	13228
922.025	13069
922.134	12954
922.244	12886
922.353	13133
922.462	12909
922.571	12779
922.68	12700
922.789	12673
922.898	12669
923.007	12490
923.116	12635
923.224	12681
923.333	12589
923.442	12532
923.55	12433
923.659	12639
923.767	12597
923.876	12532
923.984	12536
924.092	12380
924.201	12395
924.309	12460
924.417	12395
924.525	12395
924.633	12296
924.741	13133
924.849	12121
924.956	12292
925.064	12167
925.172	12110
925.279	12190
925.387	12152
925.494	12197
925.602	12205
925.709	12178
925.816	12155
925.924	12022
926.031	12159
926.138	12064
926.245	12178
926.352	11984
926.459	12121
926.566	12110
926.673	12019
926.779	11855
926.886	11828
926.993	11809
927.099	11729
927.206	11558
927.312	11722
927.419	11714
927.525	11703
927.631	11680
927.737	11551
927.843	11524
927.95	11463
928.056	11554
928.162	11547
928.267	11676
928.373	12098
928.479	11657
928.585	11387
928.69	11535
928.796	11528
928.901	11414
929.007	11250
929.112	11391
929.218	11326
929.323	11303
929.428	11273
929.533	11448
929.638	11178
929.743	11223
929.848	11235
929.953	11235
930.058	11109
930.163	11006
930.267	11006
930.372	11117
930.477	10904
930.581	11178
930.685	11041
930.79	10866
930.894	10850
930.998	10889
931.103	10949
931.207	10672
931.311	10550
931.415	10527
931.519	10322
931.623	10341
