Data from test_V78500241_858.txt Node
Date: Fri Mar 25 15:15:49 CST 2022
User: usil
Spectrometer: V785-0024
Trigger mode: 0
Integration Time (sec): 4.000000E-1
Scans to average: 1
Nonlinearity correction enabled: false
Boxcar width: 0
Storing dark spectrum: false
XAxis mode: Wavelengths
Number of Pixels in Spectrum: 1024
>>>>>Begin Spectral Data<<<<<
801.071	28257
801.214	28131
801.356	27899
801.499	27743
801.641	27701
801.783	27739
801.926	27770
802.068	27682
802.211	27637
802.353	27637
802.496	27427
802.638	27313
802.78	27344
802.923	27447
803.065	27408
803.208	27393
803.35	27534
803.492	27336
803.635	27595
803.777	27401
803.919	27583
804.061	27865
804.204	27587
804.346	27462
804.488	27473
804.63	27625
804.773	27492
804.915	27694
805.057	27751
805.199	27587
805.341	27606
805.483	27884
805.626	27679
805.768	27591
805.91	27542
806.052	27679
806.194	27591
806.336	27835
806.478	27816
806.62	27625
806.762	27972
806.904	27979
807.046	28318
807.188	28131
807.33	28097
807.472	28158
807.614	28116
807.756	28112
807.898	27949
808.04	27953
808.182	27991
808.324	28006
808.465	28021
808.607	28299
808.749	28459
808.891	28432
809.033	28546
809.174	28299
809.316	28394
809.458	28481
809.6	28390
809.741	28497
809.883	28577
810.025	28630
810.166	28691
810.308	28755
810.45	28588
810.591	28611
810.733	28443
810.875	28527
811.016	28337
811.158	28325
811.299	28443
811.441	28485
811.582	28691
811.724	28401
811.865	28394
812.007	28341
812.148	28363
812.29	28348
812.431	28615
812.573	28653
812.714	28904
812.855	28980
812.997	29094
813.138	29105
813.279	29261
813.421	29014
813.562	28930
813.703	28835
813.845	28599
813.986	28295
814.127	28116
814.268	28078
814.41	28310
814.551	28204
814.692	28150
814.833	28021
814.974	28124
815.115	28196
815.256	27907
815.397	28040
815.539	27991
815.68	27895
815.821	27930
815.962	27968
816.103	27964
816.244	27892
816.385	27766
816.526	27595
816.666	27587
816.807	27401
816.948	27542
817.089	27393
817.23	27473
817.371	27454
817.512	27393
817.653	27530
817.793	27336
817.934	27469
818.075	27420
818.216	27466
818.356	27405
818.497	27344
818.638	27089
818.778	27154
818.919	27146
819.06	27283
819.2	27093
819.341	27348
819.481	27507
819.622	27603
819.762	27804
819.903	27743
820.043	27686
820.184	27622
820.324	27629
820.465	27473
820.605	27603
820.746	27462
820.886	27378
821.026	27618
821.167	27382
821.307	27580
821.447	27378
821.588	27321
821.728	27214
821.868	27070
822.008	26929
822.149	26906
822.289	26937
822.429	26651
822.569	26621
822.709	26438
822.849	26374
822.99	26366
823.13	26408
823.27	26332
823.41	26305
823.55	26088
823.69	26336
823.83	26214
823.97	26180
824.11	26111
824.25	25989
824.389	26050
824.529	26092
824.669	26012
824.809	26180
824.949	25989
825.089	26149
825.228	26039
825.368	25966
825.508	25849
825.648	25898
825.787	25871
825.927	26046
826.067	25940
826.206	25970
826.346	26039
826.485	25970
826.625	25986
826.765	25940
826.904	25845
827.044	25510
827.183	25635
827.323	25708
827.462	25685
827.601	25548
827.741	25685
827.88	25635
828.02	25700
828.159	25658
828.298	25620
828.437	25693
828.577	25635
828.716	25772
828.855	25571
828.994	25381
829.134	25487
829.273	25362
829.412	25403
829.551	25362
829.69	25335
829.829	25343
829.968	25411
830.107	25434
830.246	25312
830.385	25190
830.524	25270
830.663	25304
830.802	25065
830.941	25076
831.08	24947
831.219	25091
831.357	24954
831.496	25152
831.635	24985
831.774	24837
831.913	24764
832.051	24848
832.19	24776
832.329	24833
832.467	24722
832.606	24559
832.744	24509
832.883	24601
833.022	24688
833.16	24642
833.299	24738
833.437	24730
833.576	24920
833.714	24722
833.852	24722
833.991	24821
834.129	24620
834.267	24779
834.406	24760
834.544	24669
834.682	24779
834.821	24787
834.959	24802
835.097	24566
835.235	24726
835.373	24589
835.511	24719
835.65	24661
835.788	24593
835.926	24407
836.064	24285
836.202	24414
836.34	24669
836.478	24604
836.615	24513
836.753	24513
836.891	24582
837.029	24540
837.167	24490
837.305	24372
837.443	24365
837.58	24433
837.718	24517
837.856	24388
837.993	24262
838.131	24338
838.269	24216
838.406	24254
838.544	24144
838.681	24011
838.819	24060
838.956	23859
839.094	23901
839.231	23912
839.369	23935
839.506	24167
839.643	24060
839.781	23851
839.918	23634
840.055	23779
840.193	23703
840.33	23657
840.467	23798
840.604	23741
840.742	24034
840.879	23649
841.016	23573
841.153	23573
841.29	23794
841.427	23832
841.564	23802
841.701	23710
841.838	23676
841.975	23547
842.112	23570
842.249	23547
842.385	23512
842.522	23646
842.659	23497
842.796	23501
842.933	23444
843.069	23505
843.206	23433
843.343	23687
843.479	23444
843.616	23493
843.752	23292
843.889	23478
844.025	23398
844.162	23254
844.298	23425
844.435	23277
844.571	23132
844.708	23360
844.844	23520
844.98	23254
845.117	23337
845.253	23174
845.389	23170
845.525	23227
845.661	23090
845.798	22946
845.934	23098
846.07	22949
846.206	23071
846.342	23117
846.478	22972
846.614	22824
846.75	22649
846.886	22725
847.022	22759
847.158	22767
847.294	22679
847.429	22615
847.565	22702
847.701	22930
847.837	22592
847.972	22390
848.108	22557
848.244	22417
848.379	22390
848.515	22257
848.65	22204
848.786	22261
848.921	22481
849.057	22470
849.192	22440
849.328	22398
849.463	22337
849.598	22196
849.734	22143
849.869	22219
850.004	22143
850.14	22192
850.275	22101
850.41	21964
850.545	22036
850.68	21926
850.815	22150
850.95	22150
851.085	22219
851.22	22173
851.355	22116
851.49	22093
851.625	22109
851.76	22059
851.895	21991
852.03	22044
852.165	22044
852.299	22109
852.434	22109
852.569	22025
852.703	22013
852.838	22188
852.973	22120
853.107	22147
853.242	21991
853.376	21895
853.511	21892
853.645	21823
853.78	22051
853.914	21964
854.048	21869
854.183	21918
854.317	21941
854.451	22147
854.585	21907
854.72	21926
854.854	21960
854.988	21819
855.122	21926
855.256	21759
855.39	21911
855.524	21949
855.658	21819
855.792	21903
855.926	21937
856.06	21854
856.194	21945
856.327	21812
856.461	21907
856.595	21838
856.729	21861
856.862	21956
856.996	21869
857.13	21994
857.263	21960
857.397	22010
857.53	21831
857.664	21964
857.797	21915
857.931	22036
858.064	21968
858.197	21949
858.331	21911
858.464	21869
858.597	21808
858.731	21846
858.864	21808
858.997	21804
859.13	21857
859.263	21907
859.396	21892
859.529	21793
859.662	21854
859.795	21899
859.928	21865
860.061	22078
860.194	21983
860.327	22017
860.46	21911
860.592	22040
860.725	21991
860.858	22139
860.99	21922
861.123	21751
861.256	21899
861.388	21892
861.521	22793
861.653	21880
861.786	21686
861.918	21759
862.05	21679
862.183	21755
862.315	21945
862.447	21865
862.58	21774
862.712	21625
862.844	21614
862.976	21713
863.108	21755
863.24	22112
863.372	21473
863.504	21523
863.636	21675
863.768	21549
863.9	21545
864.032	21507
864.164	21542
864.296	21595
864.428	21644
864.559	21656
864.691	21789
864.823	21698
864.954	21606
865.086	21496
865.217	21690
865.349	21511
865.48	21477
865.612	21443
865.743	21542
865.875	21458
866.006	21454
866.137	21488
866.269	21458
866.4	21481
866.531	21260
866.662	21370
866.793	21401
866.924	21363
867.055	21367
867.186	21405
867.317	21416
867.448	21378
867.579	21431
867.71	21344
867.841	21306
867.972	21462
868.103	21481
868.233	21393
868.364	21397
868.495	21526
868.625	21660
868.756	21732
868.886	21652
869.017	21663
869.147	21789
869.278	21728
869.408	21671
869.539	21652
869.669	21713
869.799	21770
869.929	21804
870.06	21728
870.19	21865
870.32	21937
870.45	22006
870.58	22051
870.71	22166
870.84	22143
870.97	22048
871.1	22097
871.23	22177
871.36	22147
871.489	22116
871.619	22223
871.749	22329
871.879	22341
872.008	22382
872.138	22185
872.267	22344
872.397	22143
872.526	22086
872.656	21979
872.785	22078
872.915	22238
873.044	22443
873.173	22188
873.303	22325
873.432	22230
873.561	22318
873.69	22341
873.819	22249
873.948	22409
874.077	22200
874.206	22135
874.335	22367
874.464	22394
874.593	22451
874.722	22474
874.851	22573
874.979	22512
875.108	22527
875.237	22459
875.365	22478
875.494	22447
875.623	22713
875.751	22440
875.88	22432
876.008	22698
876.136	22755
876.265	22938
876.393	22972
876.521	22835
876.65	22824
876.778	22919
876.906	22854
877.034	22824
877.162	22736
877.29	22850
877.418	22797
877.546	22740
877.674	22839
877.802	22869
877.93	22881
878.058	22771
878.185	22725
878.313	22782
878.441	22873
878.568	22641
878.696	22744
878.824	22805
878.951	22949
879.079	23025
879.206	23060
879.333	22972
879.461	22889
879.588	23052
879.715	22953
879.842	23174
879.97	22850
880.097	22721
880.224	22649
880.351	22710
880.478	22683
880.605	22656
880.732	22603
880.859	22889
880.986	22637
881.112	22653
881.239	22455
881.366	22295
881.493	22398
881.619	22257
881.746	22276
881.872	22177
881.999	22215
882.125	22128
882.252	22215
882.378	22253
882.505	22299
882.631	22112
882.757	21956
882.883	21956
883.01	21964
883.136	21838
883.262	21770
883.388	21641
883.514	21968
883.64	21911
883.766	21774
883.892	21724
884.018	21606
884.143	21873
884.269	22044
884.395	21538
884.52	21511
884.646	21610
884.772	21485
884.897	21374
885.023	21549
885.148	21557
885.274	21751
885.399	21553
885.524	21656
885.65	21587
885.775	21572
885.9	21462
886.025	21610
886.15	21481
886.275	21469
886.4	21389
886.525	21526
886.65	21435
886.775	21462
886.9	21667
887.025	21751
887.149	21496
887.274	21199
887.399	21374
887.523	21283
887.648	21226
887.773	21321
887.897	21306
888.021	21378
888.146	21131
888.27	21420
888.395	21355
888.519	21294
888.643	21378
888.767	21329
888.891	21211
889.015	21131
889.139	21104
889.263	21074
889.387	21154
889.511	21310
889.635	21180
889.759	21161
889.883	20994
890.006	21112
890.13	21184
890.254	20823
890.377	20979
890.501	20944
890.624	20754
890.748	20796
890.871	20823
890.995	20632
891.118	20530
891.241	20632
891.364	20667
891.488	20678
891.611	20648
891.734	20636
891.857	20746
891.98	20575
892.103	20636
892.226	20617
892.349	20579
892.471	20328
892.594	20552
892.717	20632
892.839	20511
892.962	20560
893.085	20617
893.207	20499
893.33	20507
893.452	20579
893.575	20514
893.697	20484
893.819	20514
893.941	20807
894.064	20651
894.186	20587
894.308	20473
894.43	20556
894.552	20765
894.674	20629
894.796	20495
894.918	20648
895.04	20499
895.161	20568
895.283	20537
895.405	20484
895.526	20560
895.648	20473
895.769	20602
895.891	20518
896.012	20541
896.134	20625
896.255	20579
896.376	20461
896.498	20530
896.619	20511
896.74	20518
896.861	20587
896.982	20746
897.103	20937
897.224	20914
897.345	20693
897.466	20663
897.587	20693
897.708	20891
897.828	20777
897.949	20625
898.07	20613
898.19	20785
898.311	20800
898.431	20750
898.552	20838
898.672	20838
898.792	20792
898.913	20785
899.033	20587
899.153	20583
899.273	20514
899.393	20507
899.513	20556
899.633	20484
899.753	20484
899.873	20412
899.993	20522
900.113	20431
900.232	20381
900.352	20427
900.472	20286
900.591	20252
900.711	20233
900.83	20267
900.95	20237
901.069	20263
901.189	20161
901.308	19906
901.427	19708
901.546	19883
901.665	19822
901.784	19776
901.904	19734
902.023	19658
902.141	19392
902.26	19407
902.379	19430
902.498	19339
902.617	19320
902.735	19441
902.854	19343
902.973	19365
903.091	19099
903.21	19031
903.328	18973
903.446	18920
903.565	18783
903.683	18757
903.801	18726
903.919	18772
904.038	18878
904.156	18593
904.274	18654
904.392	18479
904.51	18517
904.627	18684
904.745	18650
904.863	18654
904.981	18464
905.098	18239
905.216	18304
905.334	18220
905.451	18300
905.569	18300
905.686	18273
905.803	18247
905.921	17992
906.038	18163
906.155	18022
906.272	18030
906.389	17992
906.506	17821
906.623	17764
906.74	17691
906.857	17668
906.974	17684
907.091	17828
907.208	17935
907.324	17764
907.441	17707
907.557	17589
907.674	17524
907.79	17497
907.907	17406
908.023	17528
908.139	17532
908.256	17474
908.372	17376
908.488	17303
908.604	17242
908.72	17117
908.836	17261
908.952	17227
909.068	17159
909.184	17337
909.3	17258
909.415	17250
909.531	17242
909.647	16976
909.762	16900
909.878	16896
909.993	16991
910.108	16938
910.224	16881
910.339	16869
910.454	16725
910.57	16679
910.685	16584
910.8	16934
910.915	16873
911.03	16637
911.145	16462
911.259	16443
911.374	16508
911.489	16443
911.604	16314
911.718	16341
911.833	16226
911.947	16059
912.062	16101
912.176	16131
912.291	16207
912.405	16272
912.519	16421
912.633	16303
912.748	16185
912.862	16169
912.976	16059
913.09	15956
913.204	15987
913.318	16048
913.431	16207
913.545	16078
913.659	16173
913.772	15975
913.886	15907
914	15827
914.113	15979
914.226	15979
914.34	15983
914.453	15831
914.566	15785
914.68	15755
914.793	15720
914.906	15523
915.019	15439
915.132	15420
915.245	15488
915.358	15439
915.47	15397
915.583	15355
915.696	15416
915.809	15553
915.921	15580
916.034	15344
916.146	15450
916.259	15279
916.371	15306
916.483	15424
916.595	15302
916.708	15283
916.82	15184
916.932	15211
917.044	15188
917.156	15169
917.268	15135
917.38	15165
917.491	15097
917.603	15047
917.715	15150
917.826	15100
917.938	15039
918.049	14883
918.161	15085
918.272	15131
918.384	15104
918.495	15005
918.606	14880
918.717	14758
918.828	14899
918.939	14967
919.05	14705
919.161	14918
919.272	14606
919.383	14651
919.494	14906
919.604	14994
919.715	14826
919.826	14765
919.936	14788
920.047	14811
920.157	14796
920.267	14902
920.378	14834
920.488	14861
920.598	14960
920.708	15081
920.818	14906
920.928	15017
921.038	15131
921.148	15036
921.258	14693
921.368	14522
921.477	14533
921.587	14545
921.697	14374
921.806	14556
921.916	14385
922.025	14248
922.134	14145
922.244	14134
922.353	14225
922.462	14046
922.571	13963
922.68	13868
922.789	13890
922.898	13765
923.007	13674
923.116	13780
923.224	13772
923.333	13772
923.442	13628
923.55	13712
923.659	13651
923.767	13666
923.876	13563
923.984	13647
924.092	13525
924.201	13559
924.309	13575
924.417	13563
924.525	13449
924.633	13457
924.741	14172
924.849	13282
924.956	13388
925.064	13312
925.172	13175
925.279	13251
925.387	13244
925.494	13304
925.602	13346
925.709	13297
925.816	13053
925.924	13110
926.031	13255
926.138	13141
926.245	13209
926.352	13095
926.459	13263
926.566	13141
926.673	13004
926.779	12977
926.886	12897
926.993	12795
927.099	12798
927.206	12696
927.312	12734
927.419	12817
927.525	12829
927.631	12810
927.737	12681
927.843	12540
927.95	12452
928.056	12517
928.162	12601
928.267	12578
928.373	13129
928.479	12692
928.585	12475
928.69	12540
928.796	12490
928.901	12464
929.007	12247
929.112	12471
929.218	12369
929.323	12338
929.428	12285
929.533	12395
929.638	12159
929.743	12190
929.848	12311
929.953	12190
930.058	12148
930.163	11931
930.267	12034
930.372	12121
930.477	11977
930.581	12114
930.685	11923
930.79	11817
930.894	11805
930.998	11885
931.103	11874
931.207	11585
931.311	11459
931.415	11421
931.519	11265
931.623	11242
