Data from test_V78500241_822.txt Node
Date: Fri Mar 25 15:15:34 CST 2022
User: usil
Spectrometer: V785-0024
Trigger mode: 0
Integration Time (sec): 4.000000E-1
Scans to average: 1
Nonlinearity correction enabled: false
Boxcar width: 0
Storing dark spectrum: false
XAxis mode: Wavelengths
Number of Pixels in Spectrum: 1024
>>>>>Begin Spectral Data<<<<<
801.071	28322
801.214	28268
801.356	28040
801.499	28040
801.641	27835
801.783	27865
801.926	27941
802.068	27812
802.211	27800
802.353	27690
802.496	27625
802.638	27641
802.78	27583
802.923	27469
803.065	27424
803.208	27587
803.35	27492
803.492	27583
803.635	27819
803.777	27523
803.919	27717
804.061	28154
804.204	27743
804.346	27778
804.488	27671
804.63	27785
804.773	27625
804.915	27823
805.057	27846
805.199	27789
805.341	27876
805.483	27956
805.626	27823
805.768	27739
805.91	27876
806.052	27865
806.194	27781
806.336	28196
806.478	28032
806.62	27835
806.762	28029
806.904	28181
807.046	28322
807.188	28409
807.33	28417
807.472	28276
807.614	28261
807.756	28249
807.898	28166
808.04	28265
808.182	28226
808.324	28105
808.465	28219
808.607	28371
808.749	28504
808.891	28569
809.033	28797
809.174	28592
809.316	28622
809.458	28634
809.6	28538
809.741	28778
809.883	28615
810.025	28828
810.166	28911
810.308	28938
810.45	28774
810.591	28755
810.733	28584
810.875	28561
811.016	28516
811.158	28527
811.299	28603
811.441	28725
811.582	28816
811.724	28607
811.865	28554
812.007	28573
812.148	28550
812.29	28531
812.431	28725
812.573	28934
812.714	29075
812.855	29185
812.997	29124
813.138	29520
813.279	29353
813.421	29239
813.562	29200
813.703	28953
813.845	28911
813.986	28424
814.127	28508
814.268	28306
814.41	28424
814.551	28303
814.692	28424
814.833	28207
814.974	28143
815.115	28284
815.256	28219
815.397	28246
815.539	28238
815.68	28238
815.821	28063
815.962	28147
816.103	28059
816.244	28032
816.385	27953
816.526	27865
816.666	27793
816.807	27447
816.948	27720
817.089	27793
817.23	27641
817.371	27545
817.512	27641
817.653	27743
817.793	27538
817.934	27827
818.075	27618
818.216	27656
818.356	27656
818.497	27580
818.638	27450
818.778	27363
818.919	27283
819.06	27469
819.2	27523
819.341	27561
819.481	27603
819.622	27770
819.762	27869
819.903	27873
820.043	27888
820.184	27789
820.324	27644
820.465	27785
820.605	27671
820.746	27652
820.886	27507
821.026	27576
821.167	27675
821.307	27800
821.447	27705
821.588	27485
821.728	27389
821.868	27207
822.008	27005
822.149	27142
822.289	27089
822.429	26785
822.569	26758
822.709	26811
822.849	26613
822.99	26533
823.13	26545
823.27	26492
823.41	26385
823.55	26275
823.69	26339
823.83	26434
823.97	26370
824.11	26103
824.25	26183
824.389	26225
824.529	26400
824.669	26214
824.809	26473
824.949	26408
825.089	26343
825.228	26309
825.368	26142
825.508	26134
825.648	26206
825.787	26187
825.927	26309
826.067	25963
826.206	26088
826.346	26142
826.485	26180
826.625	26199
826.765	26263
826.904	26176
827.044	25963
827.183	25959
827.323	25837
827.462	25909
827.601	25989
827.741	25860
827.88	25811
828.02	25685
828.159	25841
828.298	25826
828.437	25906
828.577	25753
828.716	25879
828.855	25906
828.994	25635
829.134	25518
829.273	25460
829.412	25597
829.551	25582
829.69	25521
829.829	25491
829.968	25696
830.107	25552
830.246	25552
830.385	25586
830.524	25259
830.663	25457
830.802	25209
830.941	25145
831.08	25076
831.219	25194
831.357	25053
831.496	25324
831.635	25103
831.774	25027
831.913	25061
832.051	24989
832.19	24970
832.329	24905
832.467	24886
832.606	24894
832.744	24825
832.883	24776
833.022	24901
833.16	24837
833.299	24901
833.437	24859
833.576	24943
833.714	24875
833.852	24867
833.991	24985
834.129	25057
834.267	24962
834.406	24852
834.544	24932
834.682	24825
834.821	24913
834.959	25061
835.097	24856
835.235	24958
835.373	24954
835.511	24802
835.65	24757
835.788	24658
835.926	24597
836.064	24448
836.202	24566
836.34	24646
836.478	24707
836.615	24665
836.753	24532
836.891	24947
837.029	24726
837.167	24757
837.305	24593
837.443	24620
837.58	24525
837.718	24627
837.856	24639
837.993	24433
838.131	24483
838.269	24323
838.406	24448
838.544	24311
838.681	24155
838.819	24064
838.956	24015
839.094	23927
839.231	24121
839.369	24251
839.506	24445
839.643	24136
839.781	23980
839.918	23935
840.055	24117
840.193	23992
840.33	23889
840.467	23920
840.604	23954
840.742	24197
840.879	23786
841.016	23942
841.153	23748
841.29	24026
841.427	23878
841.564	23893
841.701	23855
841.838	23923
841.975	23897
842.112	23695
842.249	23722
842.385	23703
842.522	23889
842.659	23756
842.796	23668
842.933	23638
843.069	23493
843.206	23600
843.343	23722
843.479	23767
843.616	23676
843.752	23448
843.889	23455
844.025	23585
844.162	23501
844.298	23455
844.435	23303
844.571	23455
844.708	23463
844.844	23604
844.98	23592
845.117	23558
845.253	23402
845.389	23315
845.525	23391
845.661	23368
845.798	23261
845.934	23258
846.07	23132
846.206	23140
846.342	23315
846.478	23124
846.614	23086
846.75	22938
846.886	22706
847.022	22771
847.158	22995
847.294	22862
847.429	23029
847.565	22965
847.701	23140
847.837	22717
847.972	22569
848.108	22710
848.244	22710
848.379	22519
848.515	22436
848.65	22466
848.786	22554
848.921	22447
849.057	22710
849.192	22508
849.328	22470
849.463	22504
849.598	22493
849.734	22371
849.869	22272
850.004	22246
850.14	22249
850.275	22253
850.41	22150
850.545	22150
850.68	22226
850.815	22226
850.95	22287
851.085	22436
851.22	22447
851.355	22215
851.49	22086
851.625	22211
851.76	22226
851.895	22109
852.03	22230
852.165	22287
852.299	22238
852.434	22219
852.569	22314
852.703	22257
852.838	22318
852.973	22356
853.107	22341
853.242	22276
853.376	22105
853.511	22025
853.645	22002
853.78	22135
853.914	21975
854.048	22044
854.183	22135
854.317	22105
854.451	22223
854.585	22055
854.72	22131
854.854	22101
854.988	21953
855.122	22135
855.256	21812
855.39	22090
855.524	22010
855.658	22150
855.792	21987
855.926	22120
856.06	22048
856.194	22211
856.327	22105
856.461	22051
856.595	22051
856.729	22013
856.862	22067
856.996	21960
857.13	22116
857.263	22112
857.397	22169
857.53	21903
857.664	22093
857.797	22116
857.931	22226
858.064	22025
858.197	22116
858.331	22048
858.464	21918
858.597	21991
858.731	22002
858.864	22021
858.997	22017
859.13	22048
859.263	22017
859.396	22135
859.529	22082
859.662	21941
859.795	22051
859.928	22093
860.061	22173
860.194	22265
860.327	22120
860.46	22082
860.592	22109
860.725	22181
860.858	22211
860.99	22135
861.123	22006
861.256	22112
861.388	22139
861.521	22892
861.653	21911
861.786	21831
861.918	21968
862.05	21926
862.183	21953
862.315	21987
862.447	21949
862.58	21998
862.712	21865
862.844	21682
862.976	21903
863.108	21903
863.24	22086
863.372	21774
863.504	21675
863.636	21888
863.768	21850
863.9	21842
864.032	21587
864.164	21557
864.296	21751
864.428	21759
864.559	21876
864.691	21781
864.823	21774
864.954	21732
865.086	21789
865.217	21679
865.349	21545
865.48	21561
865.612	21739
865.743	21975
865.875	21686
866.006	21736
866.137	21682
866.269	21629
866.4	21644
866.531	21595
866.662	21523
866.793	21701
866.924	21572
867.055	21599
867.186	21534
867.317	21568
867.448	21370
867.579	21580
867.71	21435
867.841	21473
867.972	21682
868.103	21641
868.233	21519
868.364	21564
868.495	21682
868.625	21804
868.756	21823
868.886	21732
869.017	21762
869.147	21793
869.278	21930
869.408	21873
869.539	21846
869.669	21907
869.799	21842
869.929	21922
870.06	21873
870.19	22093
870.32	22154
870.45	22109
870.58	22097
870.71	22257
870.84	22185
870.97	22207
871.1	22166
871.23	22493
871.36	22402
871.489	22341
871.619	22287
871.749	22379
871.879	22386
872.008	22550
872.138	22447
872.267	22261
872.397	22268
872.526	22181
872.656	22284
872.785	22226
872.915	22310
873.044	22500
873.173	22436
873.303	22466
873.432	22398
873.561	22462
873.69	22363
873.819	22417
873.948	22481
874.077	22379
874.206	22386
874.335	22409
874.464	22706
874.593	22592
874.722	22542
874.851	22744
874.979	22660
875.108	22645
875.237	22618
875.365	22489
875.494	22634
875.623	22656
875.751	22557
875.88	22622
876.008	22660
876.136	22733
876.265	22995
876.393	23117
876.521	23162
876.65	23258
876.778	23060
876.906	22927
877.034	23041
877.162	23010
877.29	22797
877.418	22881
877.546	23056
877.674	22919
877.802	23006
877.93	22839
878.058	22930
878.185	22866
878.313	22999
878.441	22850
878.568	22862
878.696	22934
878.824	23022
878.951	22949
879.079	23044
879.206	23159
879.333	23117
879.461	23029
879.588	23102
879.715	23022
879.842	23288
879.97	23071
880.097	22820
880.224	22793
880.351	22892
880.478	22740
880.605	22706
880.732	22759
880.859	23037
880.986	22930
881.112	22767
881.239	22694
881.366	22470
881.493	22459
881.619	22246
881.746	22394
881.872	22291
881.999	22344
882.125	22261
882.252	22337
882.378	22398
882.505	22322
882.631	22173
882.757	22158
882.883	22120
883.01	21953
883.136	22013
883.262	21907
883.388	21888
883.514	22006
883.64	22044
883.766	22051
883.892	21797
884.018	21850
884.143	21895
884.269	22029
884.395	21675
884.52	21690
884.646	21656
884.772	21701
884.897	21519
885.023	21747
885.148	21762
885.274	21644
885.399	21846
885.524	21610
885.65	21713
885.775	21819
885.9	21633
886.025	21739
886.15	21713
886.275	21641
886.4	21511
886.525	21648
886.65	21534
886.775	21679
886.9	21698
887.025	21793
887.149	21648
887.274	21538
887.399	21344
887.523	21469
887.648	21306
887.773	21439
887.897	21420
888.021	21454
888.146	21313
888.27	21523
888.395	21485
888.519	21545
888.643	21511
888.767	21545
888.891	21370
889.015	21142
889.139	21336
889.263	21123
889.387	21336
889.511	21378
889.635	21435
889.759	21237
889.883	21184
890.006	21298
890.13	21298
890.254	21169
890.377	21256
890.501	20975
890.624	20891
890.748	20971
890.871	20868
890.995	20746
891.118	20769
891.241	20777
891.364	20807
891.488	20937
891.611	20773
891.734	20842
891.857	20727
891.98	20724
892.103	20819
892.226	20670
892.349	20781
892.471	20545
892.594	20693
892.717	20796
892.839	20697
892.962	20731
893.085	20727
893.207	20705
893.33	20564
893.452	20625
893.575	20754
893.697	20629
893.819	20845
893.941	20815
894.064	20887
894.186	20598
894.308	20655
894.43	20655
894.552	20849
894.674	20640
894.796	20674
894.918	20674
895.04	20663
895.161	20765
895.283	20636
895.405	20545
895.526	20667
895.648	20788
895.769	20769
895.891	20678
896.012	20705
896.134	20712
896.255	20629
896.376	20556
896.498	20613
896.619	20617
896.74	20533
896.861	20670
896.982	21070
897.103	21199
897.224	20952
897.345	20807
897.466	20910
897.587	20864
897.708	20956
897.828	20838
897.949	20785
898.07	20785
898.19	20765
898.311	20906
898.431	20796
898.552	20883
898.672	20937
898.792	20849
898.913	20895
899.033	20701
899.153	20602
899.273	20621
899.393	20564
899.513	20765
899.633	20571
899.753	20590
899.873	20606
899.993	20678
900.113	20571
900.232	20613
900.352	20492
900.472	20377
900.591	20396
900.711	20278
900.83	20347
900.95	20549
901.069	20351
901.189	20377
901.308	20012
901.427	19974
901.546	19894
901.665	19788
901.784	19947
901.904	19822
902.023	19693
902.141	19453
902.26	19495
902.379	19601
902.498	19495
902.617	19415
902.735	19521
902.854	19415
902.973	19354
903.091	19099
903.21	19156
903.328	19072
903.446	18985
903.565	19000
903.683	19088
903.801	18764
903.919	18859
904.038	18890
904.156	18840
904.274	18719
904.392	18669
904.51	18673
904.627	18585
904.745	18665
904.863	18825
904.981	18486
905.098	18395
905.216	18353
905.334	18429
905.451	18506
905.569	18319
905.686	18365
905.803	18369
905.921	18228
906.038	18167
906.155	18213
906.272	17988
906.389	18098
906.506	17866
906.623	17954
906.74	17916
906.857	17798
906.974	17802
907.091	17920
907.208	17916
907.324	17954
907.441	17745
907.557	17581
907.674	17634
907.79	17551
907.907	17452
908.023	17585
908.139	17543
908.256	17570
908.372	17627
908.488	17520
908.604	17391
908.72	17315
908.836	17452
908.952	17345
909.068	17315
909.184	17493
909.3	17379
909.415	17307
909.531	17296
909.647	17025
909.762	17071
909.878	16991
909.993	17060
910.108	16984
910.224	17029
910.339	16984
910.454	16919
910.57	16824
910.685	16702
910.8	16938
910.915	16946
911.03	16828
911.145	16653
911.259	16622
911.374	16577
911.489	16596
911.604	16489
911.718	16352
911.833	16386
911.947	16230
912.062	16223
912.176	16379
912.291	16375
912.405	16333
912.519	16451
912.633	16538
912.748	16554
912.862	16265
912.976	16162
913.09	16135
913.204	16147
913.318	16204
913.431	16268
913.545	16223
913.659	16234
913.772	16048
913.886	16006
914	16021
914.113	16063
914.226	16071
914.34	16021
914.453	15857
914.566	15941
914.68	15850
914.793	15759
914.906	15690
915.019	15526
915.132	15545
915.245	15576
915.358	15652
915.47	15644
915.583	15549
915.696	15591
915.809	15656
915.921	15644
916.034	15500
916.146	15386
916.259	15416
916.371	15469
916.483	15458
916.595	15462
916.708	15351
916.82	15340
916.932	15298
917.044	15275
917.156	15374
917.268	15157
917.38	15275
917.491	15211
917.603	15226
917.715	15222
917.826	15332
917.938	15184
918.049	15024
918.161	15161
918.272	15241
918.384	15199
918.495	15230
918.606	14956
918.717	14834
918.828	14925
918.939	14895
919.05	14815
919.161	14838
919.272	14731
919.383	14708
919.494	15001
919.604	15024
919.715	14910
919.826	14750
919.936	14876
920.047	15005
920.157	14883
920.267	15100
920.378	14914
920.488	14933
920.598	15108
920.708	15146
920.818	15036
920.928	14998
921.038	15127
921.148	15024
921.258	14838
921.368	14735
921.477	14670
921.587	14640
921.697	14495
921.806	14689
921.916	14408
922.025	14370
922.134	14267
922.244	14161
922.353	14183
922.462	14176
922.571	14012
922.68	13944
922.789	13913
922.898	13890
923.007	13811
923.116	13963
923.224	13769
923.333	13913
923.442	13719
923.55	13632
923.659	13715
923.767	13852
923.876	13696
923.984	13655
924.092	13636
924.201	13677
924.309	13609
924.417	13624
924.525	13499
924.633	13636
924.741	14309
924.849	13384
924.956	13464
925.064	13282
925.172	13206
925.279	13282
925.387	13377
925.494	13244
925.602	13457
925.709	13301
925.816	13202
925.924	13232
926.031	13270
926.138	13194
926.245	13255
926.352	13194
926.459	13266
926.566	13293
926.673	13160
926.779	13019
926.886	13012
926.993	12871
927.099	12890
927.206	12810
927.312	12783
927.419	12863
927.525	12909
927.631	12825
927.737	12700
927.843	12700
927.95	12612
928.056	12696
928.162	12715
928.267	12631
928.373	13285
928.479	12741
928.585	12471
928.69	12681
928.796	12627
928.901	12574
929.007	12407
929.112	12528
929.218	12433
929.323	12376
929.428	12380
929.533	12536
929.638	12342
929.743	12197
929.848	12353
929.953	12251
930.058	12205
930.163	12045
930.267	12106
930.372	12209
930.477	11980
930.581	12235
930.685	12041
930.79	11996
930.894	11882
930.998	11870
931.103	12068
931.207	11665
931.311	11505
931.415	11608
931.519	11436
931.623	11258
