Data from test_V78500241_2415.txt Node
Date: Fri Mar 25 15:26:40 CST 2022
User: usil
Spectrometer: V785-0024
Trigger mode: 0
Integration Time (sec): 4.000000E-1
Scans to average: 1
Nonlinearity correction enabled: false
Boxcar width: 0
Storing dark spectrum: false
XAxis mode: Wavelengths
Number of Pixels in Spectrum: 1024
>>>>>Begin Spectral Data<<<<<
801.071	27169
801.214	27058
801.356	26902
801.499	26929
801.641	26659
801.783	26716
801.926	26739
802.068	26651
802.211	26659
802.353	26499
802.496	26385
802.638	26339
802.78	26332
802.923	26237
803.065	26157
803.208	26309
803.35	26206
803.492	26404
803.635	26613
803.777	26362
803.919	26495
804.061	26925
804.204	26541
804.346	26457
804.488	26328
804.63	26541
804.773	26385
804.915	26473
805.057	26621
805.199	26564
805.341	26537
805.483	26644
805.626	26625
805.768	26518
805.91	26556
806.052	26712
806.194	26488
806.336	26621
806.478	26621
806.62	26636
806.762	26648
806.904	26891
807.046	27150
807.188	26963
807.33	26842
807.472	27077
807.614	26960
807.756	26952
807.898	26792
808.04	26819
808.182	26651
808.324	26845
808.465	27043
808.607	27108
808.749	27222
808.891	27321
809.033	27382
809.174	27268
809.316	27176
809.458	27135
809.6	27176
809.741	27260
809.883	27447
810.025	27511
810.166	27439
810.308	27481
810.45	27439
810.591	27348
810.733	27233
810.875	27081
811.016	26986
811.158	27051
811.299	27306
811.441	27351
811.582	27397
811.724	27146
811.865	27199
812.007	27077
812.148	27112
812.29	27119
812.431	27397
812.573	27610
812.714	27553
812.855	27736
812.997	27785
813.138	27972
813.279	27953
813.421	27633
813.562	27629
813.703	27488
813.845	27393
813.986	27207
814.127	27100
814.268	26845
814.41	26895
814.551	26807
814.692	26902
814.833	26914
814.974	26853
815.115	26883
815.256	26807
815.397	26720
815.539	26739
815.68	26705
815.821	26587
815.962	26686
816.103	26613
816.244	26495
816.385	26431
816.526	26328
816.666	26286
816.807	26244
816.948	26294
817.089	26240
817.23	26263
817.371	26138
817.512	26157
817.653	26050
817.793	26111
817.934	26092
818.075	26157
818.216	26199
818.356	26115
818.497	26039
818.638	25811
818.778	25856
818.919	25902
819.06	25951
819.2	26115
819.341	26164
819.481	26100
819.622	26172
819.762	26545
819.903	26305
820.043	26396
820.184	26263
820.324	26199
820.465	26271
820.605	26240
820.746	26187
820.886	26081
821.026	26229
821.167	26214
821.307	26294
821.447	26130
821.588	26062
821.728	25814
821.868	25734
822.008	25567
822.149	25734
822.289	25590
822.429	25308
822.569	25320
822.709	25384
822.849	25247
822.99	25076
823.13	25057
823.27	24947
823.41	24886
823.55	24692
823.69	24951
823.83	24821
823.97	24848
824.11	24658
824.25	24665
824.389	24783
824.529	24798
824.669	24715
824.809	24890
824.949	24779
825.089	24760
825.228	24726
825.368	24707
825.508	24486
825.648	24582
825.787	24707
825.927	24635
826.067	24517
826.206	24566
826.346	24623
826.485	24551
826.625	24665
826.765	24681
826.904	24768
827.044	24521
827.183	24338
827.323	24311
827.462	24384
827.601	24186
827.741	24285
827.88	24429
828.02	24186
828.159	24296
828.298	24289
828.437	24456
828.577	24228
828.716	24357
828.855	24190
828.994	23927
829.134	23893
829.273	23996
829.412	24072
829.551	24011
829.69	23927
829.829	24038
829.968	24022
830.107	24018
830.246	24216
830.385	23927
830.524	23847
830.663	23878
830.802	23680
830.941	23608
831.08	23646
831.219	23649
831.357	23604
831.496	23851
831.635	23573
831.774	23524
831.913	23551
832.051	23505
832.19	23372
832.329	23474
832.467	23239
832.606	23258
832.744	23292
832.883	23250
833.022	23299
833.16	23288
833.299	23455
833.437	23360
833.576	23387
833.714	23356
833.852	23307
833.991	23155
834.129	23421
834.267	23398
834.406	23280
834.544	23383
834.682	23299
834.821	23330
834.959	23600
835.097	23284
835.235	23433
835.373	23414
835.511	23368
835.65	23189
835.788	23296
835.926	23098
836.064	23136
836.202	23109
836.34	23242
836.478	23269
836.615	23204
836.753	23140
836.891	23258
837.029	23220
837.167	23136
837.305	23223
837.443	23124
837.58	23006
837.718	23162
837.856	23094
837.993	22915
838.131	22976
838.269	22946
838.406	23113
838.544	22820
838.681	22710
838.819	22744
838.956	22516
839.094	22611
839.231	22645
839.369	22706
839.506	22930
839.643	22850
839.781	22455
839.918	22512
840.055	22561
840.193	22542
840.33	22436
840.467	22596
840.604	22451
840.742	22729
840.879	22303
841.016	22360
841.153	22284
841.29	22474
841.427	22497
841.564	22538
841.701	22588
841.838	22371
841.975	22375
842.112	22310
842.249	22295
842.385	22200
842.522	22352
842.659	22276
842.796	22090
842.933	22341
843.069	22131
843.206	22086
843.343	22295
843.479	22246
843.616	22337
843.752	22013
843.889	22070
844.025	22093
844.162	22010
844.298	22074
844.435	21998
844.571	21903
844.708	22116
844.844	22097
844.98	22147
845.117	22215
845.253	21842
845.389	21800
845.525	21907
845.661	21835
845.798	21808
845.934	21789
846.07	21701
846.206	21816
846.342	21888
846.478	21732
846.614	21622
846.75	21386
846.886	21542
847.022	21561
847.158	21618
847.294	21542
847.429	21519
847.565	21450
847.701	21701
847.837	21116
847.972	21123
848.108	21351
848.244	21355
848.379	21184
848.515	21032
848.65	21032
848.786	21070
848.921	21146
849.057	21176
849.192	21207
849.328	21089
849.463	21005
849.598	21017
849.734	20948
849.869	20956
850.004	20872
850.14	20823
850.275	20933
850.41	20823
850.545	20826
850.68	20902
850.815	20921
850.95	20796
851.085	21093
851.22	21036
851.355	20979
851.49	20872
851.625	20823
851.76	20804
851.895	20796
852.03	20754
852.165	20815
852.299	20830
852.434	20895
852.569	20853
852.703	20849
852.838	20864
852.973	20990
853.107	20876
853.242	20807
853.376	20682
853.511	20549
853.645	20651
853.78	20686
853.914	20735
854.048	20602
854.183	20632
854.317	20613
854.451	20842
854.585	20651
854.72	20708
854.854	20716
854.988	20598
855.122	20640
855.256	20530
855.39	20632
855.524	20777
855.658	20678
855.792	20754
855.926	20754
856.06	20708
856.194	20746
856.327	20632
856.461	20549
856.595	20583
856.729	20564
856.862	20735
856.996	20705
857.13	20617
857.263	20815
857.397	20804
857.53	20663
857.664	20708
857.797	20758
857.931	20644
858.064	20678
858.197	20807
858.331	20697
858.464	20617
858.597	20396
858.731	20640
858.864	20560
858.997	20670
859.13	20697
859.263	20697
859.396	20758
859.529	20632
859.662	20655
859.795	20682
859.928	20689
860.061	20720
860.194	20777
860.327	20716
860.46	20857
860.592	20762
860.725	20830
860.858	20807
860.99	20579
861.123	20587
861.256	20609
861.388	20682
861.521	21184
861.653	20530
861.786	20450
861.918	20518
862.05	20625
862.183	20564
862.315	20518
862.447	20682
862.58	20454
862.712	20499
862.844	20343
862.976	20400
863.108	20499
863.24	20720
863.372	20351
863.504	20320
863.636	20408
863.768	20492
863.9	20393
864.032	20328
864.164	20381
864.296	20408
864.428	20393
864.559	20488
864.691	20484
864.823	20275
864.954	20339
865.086	20385
865.217	20339
865.349	20183
865.48	20259
865.612	20278
865.743	20347
865.875	20248
866.006	20259
866.137	20286
866.269	20229
866.4	20294
866.531	20263
866.662	20153
866.793	20252
866.924	20214
867.055	20237
867.186	20199
867.317	20320
867.448	20107
867.579	20298
867.71	20134
867.841	20161
867.972	20153
868.103	20210
868.233	20176
868.364	20275
868.495	20225
868.625	20503
868.756	20484
868.886	20454
869.017	20427
869.147	20552
869.278	20606
869.408	20339
869.539	20408
869.669	20537
869.799	20537
869.929	20587
870.06	20549
870.19	20655
870.32	20705
870.45	20735
870.58	20819
870.71	20929
870.84	21001
870.97	20777
871.1	20872
871.23	21077
871.36	21077
871.489	20994
871.619	20994
871.749	21112
871.879	21085
872.008	21062
872.138	21032
872.267	20971
872.397	21058
872.526	20891
872.656	20880
872.785	20872
872.915	21135
873.044	21211
873.173	21062
873.303	21096
873.432	21192
873.561	21256
873.69	21074
873.819	21070
873.948	21188
874.077	21043
874.206	21085
874.335	21058
874.464	21291
874.593	21405
874.722	21218
874.851	21412
874.979	21203
875.108	21431
875.237	21382
875.365	21222
875.494	21298
875.623	21310
875.751	21275
875.88	21325
876.008	21633
876.136	21603
876.265	21717
876.393	21907
876.521	21770
876.65	21819
876.778	21770
876.906	21515
877.034	21732
877.162	21652
877.29	21682
877.418	21819
877.546	21675
877.674	21583
877.802	21568
877.93	21816
878.058	21652
878.185	21625
878.313	21660
878.441	21606
878.568	21561
878.696	21542
878.824	21774
878.951	21838
879.079	21842
879.206	21991
879.333	21934
879.461	21762
879.588	21857
879.715	21842
879.842	22097
879.97	21804
880.097	21473
880.224	21515
880.351	21595
880.478	21622
880.605	21572
880.732	21405
880.859	21739
880.986	21686
881.112	21587
881.239	21405
881.366	21214
881.493	21214
881.619	21127
881.746	21138
881.872	21096
881.999	21154
882.125	21036
882.252	21154
882.378	20994
882.505	21260
882.631	20986
882.757	20731
882.883	20918
883.01	20861
883.136	20750
883.262	20655
883.388	20625
883.514	20883
883.64	20868
883.766	20762
883.892	20602
884.018	20636
884.143	20834
884.269	20925
884.395	20488
884.52	20442
884.646	20511
884.772	20408
884.897	20309
885.023	20446
885.148	20598
885.274	20457
885.399	20602
885.524	20450
885.65	20423
885.775	20347
885.9	20492
886.025	20518
886.15	20518
886.275	20381
886.4	20473
886.525	20431
886.65	20393
886.775	20408
886.9	20526
887.025	20625
887.149	20446
887.274	20240
887.399	20176
887.523	20218
887.648	20161
887.773	20081
887.897	20419
888.021	20332
888.146	20161
888.27	20370
888.395	20461
888.519	20233
888.643	20233
888.767	20267
888.891	20077
889.015	20084
889.139	20107
889.263	19970
889.387	20058
889.511	20252
889.635	20050
889.759	19936
889.883	19978
890.006	19940
890.13	20005
890.254	20039
890.377	19982
890.501	19833
890.624	19795
890.748	19791
890.871	19670
890.995	19677
891.118	19506
891.241	19590
891.364	19655
891.488	19772
891.611	19628
891.734	19601
891.857	19670
891.98	19605
892.103	19696
892.226	19674
892.349	19537
892.471	19460
892.594	19476
892.717	19483
892.839	19586
892.962	19510
893.085	19552
893.207	19457
893.33	19362
893.452	19480
893.575	19445
893.697	19487
893.819	19700
893.941	19753
894.064	19594
894.186	19483
894.308	19480
894.43	19624
894.552	19643
894.674	19620
894.796	19472
894.918	19514
895.04	19411
895.161	19643
895.283	19548
895.405	19483
895.526	19434
895.648	19441
895.769	19586
895.891	19468
896.012	19594
896.134	19616
896.255	19552
896.376	19472
896.498	19483
896.619	19506
896.74	19495
896.861	19487
896.982	19799
897.103	19970
897.224	19822
897.345	19780
897.466	19655
897.587	19662
897.708	19826
897.828	19879
897.949	19765
898.07	19590
898.19	19681
898.311	19883
898.431	19674
898.552	19723
898.672	19772
898.792	19795
898.913	19765
899.033	19677
899.153	19567
899.273	19419
899.393	19510
899.513	19578
899.633	19499
899.753	19472
899.873	19441
899.993	19635
900.113	19468
900.232	19499
900.352	19350
900.472	19312
900.591	19194
900.711	19335
900.83	19308
900.95	19358
901.069	19228
901.189	19240
901.308	18935
901.427	18817
901.546	19019
901.665	18981
901.784	18844
901.904	18726
902.023	18616
902.141	18384
902.26	18369
902.379	18620
902.498	18464
902.617	18452
902.735	18388
902.854	18346
902.973	18289
903.091	18182
903.21	18064
903.328	18060
903.446	17927
903.565	17977
903.683	17935
903.801	17737
903.919	17889
904.038	17794
904.156	17741
904.274	17745
904.392	17684
904.51	17608
904.627	17672
904.745	17722
904.863	17710
904.981	17509
905.098	17398
905.216	17337
905.334	17330
905.451	17402
905.569	17269
905.686	17326
905.803	17277
905.921	17143
906.038	17223
906.155	17056
906.272	17056
906.389	17067
906.506	16961
906.623	16839
906.74	16858
906.857	16755
906.974	16793
907.091	16797
907.208	16972
907.324	16877
907.441	16801
907.557	16641
907.674	16561
907.79	16622
907.907	16542
908.023	16687
908.139	16588
908.256	16481
908.372	16519
908.488	16413
908.604	16375
908.72	16166
908.836	16226
908.952	16299
909.068	16276
909.184	16500
909.3	16253
909.415	16306
909.531	16333
909.647	16093
909.762	16010
909.878	16082
909.993	16101
910.108	15949
910.224	15968
910.339	15953
910.454	15998
910.57	15819
910.685	15698
910.8	16097
910.915	16063
911.03	15831
911.145	15667
911.259	15660
911.374	15671
911.489	15587
911.604	15428
911.718	15382
911.833	15336
911.947	15397
912.062	15161
912.176	15344
912.291	15336
912.405	15241
912.519	15576
912.633	15557
912.748	15469
912.862	15397
912.976	15188
913.09	15104
913.204	15237
913.318	15199
913.431	15291
913.545	15412
913.659	15283
913.772	15138
913.886	15055
914	15070
914.113	15074
914.226	15119
914.34	15077
914.453	14937
914.566	15112
914.68	14948
914.793	14876
914.906	14773
915.019	14712
915.132	14427
915.245	14686
915.358	14697
915.47	14590
915.583	14663
915.696	14632
915.809	14667
915.921	14777
916.034	14568
916.146	14644
916.259	14495
916.371	14644
916.483	14613
916.595	14568
916.708	14404
916.82	14461
916.932	14393
917.044	14347
917.156	14396
917.268	14328
917.38	14434
917.491	14328
917.603	14294
917.715	14419
917.826	14442
917.938	14271
918.049	14199
918.161	14244
918.272	14434
918.384	14412
918.495	14290
918.606	14069
918.717	14073
918.828	14149
918.939	14123
919.05	13883
919.161	14084
919.272	13906
919.383	13963
919.494	14123
919.604	14202
919.715	14100
919.826	13959
919.936	14020
920.047	14119
920.157	13997
920.267	14252
920.378	14096
920.488	13959
920.598	14111
920.708	14362
920.818	14199
920.928	14199
921.038	14351
921.148	14294
921.258	14001
921.368	13822
921.477	13746
921.587	13807
921.697	13704
921.806	13807
921.916	13670
922.025	13453
922.134	13460
922.244	13365
922.353	13502
922.462	13365
922.571	13213
922.68	13107
922.789	12962
922.898	13129
923.007	13122
923.116	13168
923.224	13019
923.333	13034
923.442	13053
923.55	12943
923.659	12943
923.767	13004
923.876	12962
923.984	12905
924.092	12821
924.201	12863
924.309	12833
924.417	12837
924.525	12821
924.633	12817
924.741	13719
924.849	12585
924.956	12726
925.064	12509
925.172	12498
925.279	12578
925.387	12681
925.494	12521
925.602	12688
925.709	12604
925.816	12441
925.924	12437
926.031	12662
926.138	12483
926.245	12521
926.352	12372
926.459	12642
926.566	12627
926.673	12464
926.779	12254
926.886	12285
926.993	12144
927.099	12114
927.206	12072
927.312	12102
927.419	12129
927.525	12083
927.631	12121
927.737	12030
927.843	11999
927.95	11817
928.056	11939
928.162	12030
928.267	12038
928.373	12547
928.479	12038
928.585	11775
928.69	11954
928.796	11897
928.901	11790
929.007	11661
929.112	11771
929.218	11764
929.323	11714
929.428	11729
929.533	11748
929.638	11649
929.743	11653
929.848	11657
929.953	11680
930.058	11577
930.163	11414
930.267	11345
930.372	11551
930.477	11284
930.581	11539
930.685	11356
930.79	11303
930.894	11269
930.998	11265
931.103	11368
931.207	11006
931.311	10892
931.415	10816
931.519	10744
931.623	10729
