Data from test_V78500241_3481.txt Node
Date: Fri Mar 25 15:34:05 CST 2022
User: usil
Spectrometer: V785-0024
Trigger mode: 0
Integration Time (sec): 4.000000E-1
Scans to average: 1
Nonlinearity correction enabled: false
Boxcar width: 0
Storing dark spectrum: false
XAxis mode: Wavelengths
Number of Pixels in Spectrum: 1024
>>>>>Begin Spectral Data<<<<<
801.071	27332
801.214	27241
801.356	27058
801.499	26940
801.641	26944
801.783	26906
801.926	26952
802.068	26929
802.211	26689
802.353	26762
802.496	26693
802.638	26549
802.78	26530
802.923	26465
803.065	26381
803.208	26267
803.35	26526
803.492	26727
803.635	26686
803.777	26686
803.919	26712
804.061	26804
804.204	26743
804.346	26621
804.488	26518
804.63	26663
804.773	26617
804.915	26689
805.057	26712
805.199	26701
805.341	26781
805.483	26769
805.626	26796
805.768	26739
805.91	26724
806.052	26743
806.194	26754
806.336	27009
806.478	26800
806.62	26716
806.762	26868
806.904	27009
807.046	27195
807.188	27157
807.33	27138
807.472	27176
807.614	27112
807.756	27138
807.898	26986
808.04	26906
808.182	27074
808.324	27096
808.465	27176
808.607	27203
808.749	27454
808.891	27496
809.033	27526
809.174	27427
809.316	27424
809.458	27348
809.6	27291
809.741	27557
809.883	27420
810.025	27595
810.166	27606
810.308	27675
810.45	27637
810.591	27679
810.733	27507
810.875	27329
811.016	27226
811.158	27306
811.299	27504
811.441	27545
811.582	27606
811.724	27382
811.865	27393
812.007	27363
812.148	27325
812.29	27454
812.431	27492
812.573	27728
812.714	27660
812.855	27937
812.997	27953
813.138	28112
813.279	28082
813.421	27876
813.562	27914
813.703	27679
813.845	27583
813.986	27214
814.127	27055
814.268	27001
814.41	27055
814.551	26914
814.692	27116
814.833	27032
814.974	26963
815.115	27096
815.256	26785
815.397	26925
815.539	26925
815.68	26701
815.821	26758
815.962	26743
816.103	26842
816.244	26686
816.385	26674
816.526	26606
816.666	26427
816.807	26317
816.948	26267
817.089	26374
817.23	26419
817.371	26282
817.512	26199
817.653	26199
817.793	26259
817.934	26240
818.075	26453
818.216	26275
818.356	26199
818.497	26119
818.638	26035
818.778	25936
818.919	26138
819.06	26122
819.2	26286
819.341	26164
819.481	26161
819.622	26442
819.762	26682
819.903	26594
820.043	26370
820.184	26393
820.324	26389
820.465	26438
820.605	26412
820.746	26389
820.886	26172
821.026	26320
821.167	26377
821.307	26377
821.447	26320
821.588	26191
821.728	26100
821.868	25803
822.008	25700
822.149	25776
822.289	25769
822.429	25529
822.569	25335
822.709	25438
822.849	25175
822.99	25285
823.13	25183
823.27	25069
823.41	25122
823.55	25000
823.69	25042
823.83	25145
823.97	24935
824.11	24863
824.25	24837
824.389	24875
824.529	24920
824.669	24897
824.809	24962
824.949	25072
825.089	24947
825.228	24802
825.368	24665
825.508	24726
825.648	24715
825.787	24749
825.927	24791
826.067	24798
826.206	24970
826.346	24722
826.485	24935
826.625	24886
826.765	24840
826.904	24817
827.044	24540
827.183	24604
827.323	24513
827.462	24467
827.601	24426
827.741	24353
827.88	24456
828.02	24296
828.159	24407
828.298	24456
828.437	24380
828.577	24475
828.716	24692
828.855	24448
828.994	24216
829.134	24136
829.273	24304
829.412	24155
829.551	24125
829.69	24182
829.829	24308
829.968	24319
830.107	24216
830.246	24334
830.385	24190
830.524	24178
830.663	23984
830.802	24026
830.941	23992
831.08	23665
831.219	23893
831.357	23920
831.496	23984
831.635	23855
831.774	23714
831.913	23665
832.051	23558
832.19	23608
832.329	23608
832.467	23471
832.606	23436
832.744	23436
832.883	23398
833.022	23512
833.16	23516
833.299	23410
833.437	23535
833.576	23634
833.714	23581
833.852	23573
833.991	23668
834.129	23710
834.267	23649
834.406	23512
834.544	23646
834.682	23592
834.821	23570
834.959	23783
835.097	23661
835.235	23661
835.373	23695
835.511	23551
835.65	23436
835.788	23364
835.926	23398
836.064	23064
836.202	23258
836.34	23429
836.478	23459
836.615	23379
836.753	23246
836.891	23493
837.029	23349
837.167	23288
837.305	23353
837.443	23315
837.58	23200
837.718	23223
837.856	23330
837.993	23117
838.131	23299
838.269	23128
838.406	23117
838.544	23208
838.681	22900
838.819	22858
838.956	22854
839.094	22668
839.231	22869
839.369	22915
839.506	23094
839.643	23014
839.781	22801
839.918	22790
840.055	22694
840.193	22664
840.33	22713
840.467	22637
840.604	22793
840.742	22946
840.879	22519
841.016	22561
841.153	22573
841.29	22736
841.427	22592
841.564	22755
841.701	22698
841.838	22653
841.975	22615
842.112	22637
842.249	22527
842.385	22519
842.522	22805
842.659	22455
842.796	22504
842.933	22557
843.069	22402
843.206	22329
843.343	22542
843.479	22500
843.616	22497
843.752	22192
843.889	22166
844.025	22394
844.162	22162
844.298	22367
844.435	22200
844.571	22101
844.708	22253
844.844	22356
844.98	22375
845.117	22310
845.253	22048
845.389	22181
845.525	22131
845.661	22070
845.798	21998
845.934	21926
846.07	21918
846.206	21949
846.342	21968
846.478	21854
846.614	21644
846.75	21747
846.886	21701
847.022	21732
847.158	21694
847.294	21785
847.429	21751
847.565	21705
847.701	21895
847.837	21458
847.972	21325
848.108	21485
848.244	21420
848.379	21256
848.515	21207
848.65	21157
848.786	21355
848.921	21256
849.057	21256
849.192	21336
849.328	21294
849.463	21237
849.598	21169
849.734	21146
849.869	21142
850.004	21104
850.14	21020
850.275	21085
850.41	21100
850.545	20960
850.68	21039
850.815	21123
850.95	21070
851.085	21188
851.22	21116
851.355	20975
851.49	21062
851.625	20994
851.76	21032
851.895	20906
852.03	21058
852.165	21024
852.299	21104
852.434	21157
852.569	21119
852.703	21005
852.838	21009
852.973	21241
853.107	21135
853.242	20944
853.376	20944
853.511	20785
853.645	20811
853.78	21017
853.914	20948
854.048	20811
854.183	20864
854.317	20830
854.451	21051
854.585	20941
854.72	20842
854.854	20963
854.988	20754
855.122	20800
855.256	20735
855.39	20804
855.524	20979
855.658	20933
855.792	20868
855.926	20796
856.06	20948
856.194	20895
856.327	20708
856.461	20895
856.595	20750
856.729	20868
856.862	20914
856.996	20876
857.13	20929
857.263	21066
857.397	20899
857.53	20891
857.664	21013
857.797	20910
857.931	20967
858.064	20823
858.197	21028
858.331	20899
858.464	20902
858.597	20819
858.731	20788
858.864	20868
858.997	20899
859.13	20769
859.263	20811
859.396	20975
859.529	20880
859.662	20849
859.795	20838
859.928	20994
860.061	20925
860.194	21066
860.327	20975
860.46	20883
860.592	21085
860.725	20994
860.858	20902
860.99	20933
861.123	20819
861.256	20830
861.388	20849
861.521	21599
861.653	20697
861.786	20590
861.918	20564
862.05	20727
862.183	20781
862.315	20781
862.447	20815
862.58	20788
862.712	20663
862.844	20480
862.976	20606
863.108	20667
863.24	20956
863.372	20541
863.504	20530
863.636	20606
863.768	20499
863.9	20533
864.032	20522
864.164	20492
864.296	20590
864.428	20514
864.559	20560
864.691	20724
864.823	20575
864.954	20514
865.086	20625
865.217	20560
865.349	20442
865.48	20434
865.612	20552
865.743	20568
865.875	20480
866.006	20419
866.137	20499
866.269	20465
866.4	20385
866.531	20423
866.662	20469
866.793	20412
866.924	20434
867.055	20423
867.186	20400
867.317	20385
867.448	20282
867.579	20476
867.71	20248
867.841	20374
867.972	20480
868.103	20461
868.233	20514
868.364	20313
868.495	20568
868.625	20598
868.756	20788
868.886	20632
869.017	20564
869.147	20674
869.278	20667
869.408	20750
869.539	20720
869.669	20625
869.799	20590
869.929	20849
870.06	20655
870.19	20929
870.32	20975
870.45	20979
870.58	21058
870.71	21146
870.84	21146
870.97	21009
871.1	20944
871.23	21260
871.36	21207
871.489	21195
871.619	21199
871.749	21214
871.879	21344
872.008	21344
872.138	21298
872.267	21374
872.397	21024
872.526	21169
872.656	21062
872.785	21036
872.915	21393
873.044	21275
873.173	21275
873.303	21176
873.432	21332
873.561	21397
873.69	21420
873.819	21256
873.948	21359
874.077	21237
874.206	21222
874.335	21279
874.464	21412
874.593	21450
874.722	21485
874.851	21462
874.979	21393
875.108	21762
875.237	21488
875.365	21454
875.494	21454
875.623	21561
875.751	21435
875.88	21538
876.008	21553
876.136	21759
876.265	21960
876.393	22078
876.521	21941
876.65	22025
876.778	21892
876.906	21854
877.034	21888
877.162	21888
877.29	21838
877.418	21838
877.546	21915
877.674	21972
877.802	21816
877.93	21918
878.058	21838
878.185	21842
878.313	21827
878.441	21846
878.568	21816
878.696	21743
878.824	21895
878.951	22010
879.079	22036
879.206	22048
879.333	21968
879.461	21892
879.588	21846
879.715	22025
879.842	22173
879.97	21850
880.097	21759
880.224	21625
880.351	21679
880.478	21694
880.605	21690
880.732	21736
880.859	21884
880.986	21660
881.112	21751
881.239	21603
881.366	21466
881.493	21344
881.619	21310
881.746	21256
881.872	21351
881.999	21211
882.125	21154
882.252	21184
882.378	21203
882.505	21283
882.631	21119
882.757	21123
882.883	21108
883.01	20933
883.136	20918
883.262	20876
883.388	20762
883.514	20986
883.64	21009
883.766	20880
883.892	20830
884.018	20796
884.143	21001
884.269	20994
884.395	20659
884.52	20621
884.646	20724
884.772	20800
884.897	20511
885.023	20693
885.148	20670
885.274	20769
885.399	20629
885.524	20609
885.65	20648
885.775	20579
885.9	20537
886.025	20743
886.15	20689
886.275	20556
886.4	20571
886.525	20537
886.65	20511
886.775	20522
886.9	20697
887.025	20883
887.149	20530
887.274	20454
887.399	20396
887.523	20431
887.648	20309
887.773	20286
887.897	20450
888.021	20336
888.146	20286
888.27	20450
888.395	20438
888.519	20419
888.643	20434
888.767	20457
888.891	20366
889.015	20122
889.139	20309
889.263	20180
889.387	20252
889.511	20434
889.635	20294
889.759	20252
889.883	20138
890.006	20218
890.13	20370
890.254	20035
890.377	20092
890.501	20008
890.624	19947
890.748	20122
890.871	19883
890.995	19632
891.118	19746
891.241	19791
891.364	19898
891.488	19860
891.611	19769
891.734	19932
891.857	19906
891.98	19830
892.103	19902
892.226	19803
892.349	19780
892.471	19693
892.594	19727
892.717	19727
892.839	19635
892.962	19833
893.085	19742
893.207	19715
893.33	19715
893.452	19597
893.575	19582
893.697	19601
893.819	19807
893.941	19845
894.064	19814
894.186	19666
894.308	19552
894.43	19814
894.552	19860
894.674	19784
894.796	19624
894.918	19643
895.04	19635
895.161	19811
895.283	19715
895.405	19658
895.526	19788
895.648	19761
895.769	19712
895.891	19811
896.012	19784
896.134	19624
896.255	19670
896.376	19582
896.498	19578
896.619	19723
896.74	19734
896.861	19765
896.982	20069
897.103	20077
897.224	19963
897.345	19811
897.466	19887
897.587	19814
897.708	20035
897.828	19967
897.949	19864
898.07	19772
898.19	19780
898.311	19978
898.431	19875
898.552	19963
898.672	20001
898.792	19989
898.913	20039
899.033	19799
899.153	19826
899.273	19571
899.393	19605
899.513	19685
899.633	19708
899.753	19685
899.873	19655
899.993	19662
900.113	19590
900.232	19666
900.352	19677
900.472	19491
900.591	19403
900.711	19506
900.83	19476
900.95	19422
901.069	19483
901.189	19308
901.308	19206
901.427	19000
901.546	19050
901.665	18977
901.784	19031
901.904	18970
902.023	18909
902.141	18627
902.26	18597
902.379	18658
902.498	18547
902.617	18448
902.735	18585
902.854	18502
902.973	18414
903.091	18334
903.21	18239
903.328	18334
903.446	18148
903.565	18068
903.683	18049
903.801	17904
903.919	18003
904.038	18019
904.156	17828
904.274	17840
904.392	17824
904.51	17863
904.627	17745
904.745	17878
904.863	17809
904.981	17589
905.098	17497
905.216	17452
905.334	17436
905.451	17486
905.569	17520
905.686	17482
905.803	17482
905.921	17239
906.038	17364
906.155	17326
906.272	17170
906.389	17086
906.506	17010
906.623	17075
906.74	17102
906.857	16946
906.974	16961
907.091	16980
907.208	17147
907.324	16957
907.441	16908
907.557	16797
907.674	16725
907.79	16615
907.907	16725
908.023	16767
908.139	16740
908.256	16675
908.372	16634
908.488	16618
908.604	16462
908.72	16462
908.836	16523
908.952	16538
909.068	16489
909.184	16611
909.3	16466
909.415	16466
909.531	16424
909.647	16276
909.762	16192
909.878	16169
909.993	16215
910.108	16139
910.224	16086
910.339	16154
910.454	16109
910.57	16071
910.685	15873
910.8	16249
910.915	16158
911.03	15945
911.145	15804
911.259	15785
911.374	15823
911.489	15778
911.604	15736
911.718	15606
911.833	15595
911.947	15416
912.062	15355
912.176	15564
912.291	15625
912.405	15511
912.519	15720
912.633	15755
912.748	15481
912.862	15603
912.976	15332
913.09	15237
913.204	15374
913.318	15283
913.431	15340
913.545	15485
913.659	15523
913.772	15340
913.886	15146
914	15093
914.113	15214
914.226	15351
914.34	15218
914.453	15020
914.566	15176
914.68	15024
914.793	15055
914.906	14853
915.019	14773
915.132	14716
915.245	14762
915.358	14727
915.47	14750
915.583	14800
915.696	14777
915.809	14845
915.921	14925
916.034	14667
916.146	14659
916.259	14560
916.371	14765
916.483	14739
916.595	14693
916.708	14678
916.82	14682
916.932	14632
917.044	14651
917.156	14552
917.268	14415
917.38	14450
917.491	14431
917.603	14507
917.715	14514
917.826	14469
917.938	14404
918.049	14275
918.161	14347
918.272	14495
918.384	14587
918.495	14355
918.606	14301
918.717	14153
918.828	14286
918.939	14313
919.05	14126
919.161	14218
919.272	13982
919.383	14054
919.494	14206
919.604	14412
919.715	14191
919.826	14130
919.936	14058
920.047	14176
920.157	14252
920.267	14419
920.378	14252
920.488	14115
920.598	14317
920.708	14552
920.818	14362
920.928	14320
921.038	14419
921.148	14400
921.258	14149
921.368	13986
921.477	13951
921.587	13906
921.697	13784
921.806	13932
921.916	13818
922.025	13563
922.134	13540
922.244	13540
922.353	13544
922.462	13483
922.571	13358
922.68	13282
922.789	13221
922.898	13221
923.007	13160
923.116	13232
923.224	13171
923.333	13175
923.442	13099
923.55	13038
923.659	13076
923.767	13076
923.876	13057
923.984	13042
924.092	12962
924.201	13008
924.309	13004
924.417	12913
924.525	12882
924.633	12894
924.741	13639
924.849	12700
924.956	12939
925.064	12646
925.172	12608
925.279	12642
925.387	12700
925.494	12700
925.602	12791
925.709	12627
925.816	12494
925.924	12627
926.031	12623
926.138	12570
926.245	12593
926.352	12528
926.459	12616
926.566	12688
926.673	12517
926.779	12452
926.886	12391
926.993	12228
927.099	12216
927.206	12224
927.312	12232
927.419	12232
927.525	12243
927.631	12258
927.737	12053
927.843	12038
927.95	11980
928.056	12083
928.162	12026
928.267	12038
928.373	12631
928.479	12152
928.585	11954
928.69	12041
928.796	12049
928.901	11916
929.007	11741
929.112	11832
929.218	11847
929.323	11866
929.428	11733
929.533	11939
929.638	11718
929.743	11756
929.848	11908
929.953	11737
930.058	11619
930.163	11463
930.267	11448
930.372	11562
930.477	11425
930.581	11653
930.685	11638
930.79	11311
930.894	11368
930.998	11334
931.103	11535
931.207	11105
931.311	11143
931.415	10953
931.519	10786
931.623	10774
