Data from test_V78500241_12.txt Node
Date: Fri Mar 25 15:09:56 CST 2022
User: usil
Spectrometer: V785-0024
Trigger mode: 0
Integration Time (sec): 4.000000E-1
Scans to average: 1
Nonlinearity correction enabled: false
Boxcar width: 0
Storing dark spectrum: false
XAxis mode: Wavelengths
Number of Pixels in Spectrum: 1024
>>>>>Begin Spectral Data<<<<<
801.071	27793
801.214	27633
801.356	27389
801.499	27272
801.641	27199
801.783	27176
801.926	27173
802.068	27104
802.211	26990
802.353	26910
802.496	26902
802.638	26777
802.78	26815
802.923	26621
803.065	26667
803.208	26602
803.35	26602
803.492	26834
803.635	26659
803.777	26659
803.919	26781
804.061	27119
804.204	26724
804.346	26735
804.488	26575
804.63	26693
804.773	26606
804.915	26762
805.057	26880
805.199	26625
805.341	26663
805.483	26819
805.626	26689
805.768	26617
805.91	26800
806.052	26838
806.194	26674
806.336	26872
806.478	26857
806.62	26773
806.762	26891
806.904	26994
807.046	27211
807.188	27043
807.33	27119
807.472	27336
807.614	27039
807.756	27020
807.898	27005
808.04	26906
808.182	26933
808.324	26796
808.465	26800
808.607	26963
808.749	27066
808.891	27279
809.033	27454
809.174	27142
809.316	27020
809.458	27123
809.6	27074
809.741	27199
809.883	27211
810.025	27412
810.166	27469
810.308	27526
810.45	27355
810.591	27226
810.733	27096
810.875	27077
811.016	27043
811.158	26857
811.299	27039
811.441	27264
811.582	27157
811.724	27001
811.865	26933
812.007	26937
812.148	27001
812.29	27100
812.431	27112
812.573	27325
812.714	27294
812.855	27610
812.997	27583
813.138	27823
813.279	27861
813.421	27534
813.562	27473
813.703	27378
813.845	27157
813.986	26944
814.127	26655
814.268	26686
814.41	26682
814.551	26701
814.692	26849
814.833	26427
814.974	26526
815.115	26636
815.256	26507
815.397	26450
815.539	26374
815.68	26275
815.821	26317
815.962	26374
816.103	26240
816.244	26157
816.385	26100
816.526	26039
816.666	25776
816.807	25818
816.948	25753
817.089	25879
817.23	25750
817.371	25635
817.512	25662
817.653	25624
817.793	25609
817.934	25639
818.075	25578
818.216	25624
818.356	25594
818.497	25468
818.638	25190
818.778	25369
818.919	25438
819.06	25483
819.2	25468
819.341	25518
819.481	25548
819.622	25582
819.762	25966
819.903	25837
820.043	25632
820.184	25597
820.324	25575
820.465	25696
820.605	25772
820.746	25704
820.886	25666
821.026	25643
821.167	25597
821.307	25601
821.447	25651
821.588	25403
821.728	25388
821.868	25187
822.008	24958
822.149	24992
822.289	24977
822.429	24722
822.569	24677
822.709	24730
822.849	24555
822.99	24479
823.13	24471
823.27	24330
823.41	24323
823.55	24273
823.69	24429
823.83	24273
823.97	24277
824.11	24098
824.25	23958
824.389	24034
824.529	24136
824.669	24038
824.809	24155
824.949	24106
825.089	24167
825.228	24038
825.368	23863
825.508	23847
825.648	23828
825.787	23946
825.927	23866
826.067	23741
826.206	23729
826.346	23889
826.485	23897
826.625	23809
826.765	23931
826.904	23885
827.044	23623
827.183	23611
827.323	23406
827.462	23646
827.601	23471
827.741	23554
827.88	23455
828.02	23395
828.159	23471
828.298	23520
828.437	23531
828.577	23395
828.716	23520
828.855	23417
828.994	23128
829.134	23090
829.273	23254
829.412	23094
829.551	23212
829.69	23246
829.829	23117
829.968	23151
830.107	23231
830.246	23052
830.385	23025
830.524	23071
830.663	22946
830.802	22812
830.941	22752
831.08	22710
831.219	22877
831.357	22755
831.496	22896
831.635	22706
831.774	22584
831.913	22557
832.051	22379
832.19	22538
832.329	22542
832.467	22200
832.606	22272
832.744	22230
832.883	22409
833.022	22284
833.16	22310
833.299	22314
833.437	22440
833.576	22329
833.714	22291
833.852	22379
833.991	22402
834.129	22409
834.267	22398
834.406	22341
834.544	22413
834.682	22306
834.821	22162
834.959	22569
835.097	22272
835.235	22276
835.373	22325
835.511	22409
835.65	22318
835.788	22086
835.926	21926
836.064	21968
836.202	21949
836.34	22215
836.478	22181
836.615	22242
836.753	22173
836.891	22303
837.029	22238
837.167	22032
837.305	22059
837.443	21960
837.58	21949
837.718	22078
837.856	22059
837.993	21968
838.131	21895
838.269	22010
838.406	21945
838.544	21819
838.681	21675
838.819	21698
838.956	21534
839.094	21431
839.231	21530
839.369	21629
839.506	21728
839.643	21789
839.781	21408
839.918	21370
840.055	21488
840.193	21332
840.33	21306
840.467	21351
840.604	21408
840.742	21736
840.879	21104
841.016	21237
841.153	21256
841.29	21405
841.427	21386
841.564	21382
841.701	21416
841.838	21245
841.975	21249
842.112	21169
842.249	21180
842.385	20982
842.522	21291
842.659	21032
842.796	20921
842.933	20963
843.069	20990
843.206	21036
843.343	21070
843.479	21123
843.616	21100
843.752	20819
843.889	20773
844.025	20933
844.162	20727
844.298	20815
844.435	20708
844.571	20640
844.708	20781
844.844	20868
844.98	20887
845.117	20838
845.253	20644
845.389	20552
845.525	20617
845.661	20587
845.798	20408
845.934	20495
846.07	20503
846.206	20476
846.342	20621
846.478	20537
846.614	20343
846.75	20115
846.886	20267
847.022	20419
847.158	20225
847.294	20134
847.429	20324
847.565	20115
847.701	20431
847.837	19921
847.972	19883
848.108	20024
848.244	19936
848.379	19772
848.515	19780
848.65	19753
848.786	19864
848.921	19658
849.057	19883
849.192	19803
849.328	19791
849.463	19849
849.598	19734
849.734	19715
849.869	19670
850.004	19624
850.14	19563
850.275	19499
850.41	19411
850.545	19502
850.68	19324
850.815	19514
850.95	19464
851.085	19647
851.22	19514
851.355	19445
851.49	19430
851.625	19495
851.76	19480
851.895	19316
852.03	19316
852.165	19377
852.299	19506
852.434	19525
852.569	19533
852.703	19499
852.838	19506
852.973	19537
853.107	19594
853.242	19464
853.376	19308
853.511	19217
853.645	19259
853.78	19373
853.914	19266
854.048	19282
854.183	19160
854.317	19270
854.451	19457
854.585	19316
854.72	19297
854.854	19331
854.988	19236
855.122	19202
855.256	19152
855.39	19312
855.524	19396
855.658	19293
855.792	19244
855.926	19320
856.06	19282
856.194	19320
856.327	19297
856.461	19228
856.595	19255
856.729	19221
856.862	19434
856.996	19316
857.13	19362
857.263	19285
857.397	19392
857.53	19320
857.664	19327
857.797	19297
857.931	19358
858.064	19289
858.197	19335
858.331	19304
858.464	19152
858.597	19148
858.731	19171
858.864	19217
858.997	19236
859.13	19289
859.263	19354
859.396	19320
859.529	19194
859.662	19114
859.795	19023
859.928	19171
860.061	19285
860.194	19343
860.327	19126
860.46	19148
860.592	19304
860.725	19301
860.858	19289
860.99	19190
861.123	19160
861.256	19076
861.388	19122
861.521	19780
861.653	19057
861.786	18985
861.918	19126
862.05	19171
862.183	19274
862.315	19266
862.447	19316
862.58	19240
862.712	19110
862.844	19069
862.976	19213
863.108	18989
863.24	19445
863.372	18661
863.504	18913
863.636	18958
863.768	18901
863.9	18924
864.032	18726
864.164	18802
864.296	18909
864.428	18909
864.559	19015
864.691	19038
864.823	18852
864.954	18867
865.086	18886
865.217	18772
865.349	18753
865.48	18848
865.612	18779
865.743	18913
865.875	18844
866.006	18833
866.137	18817
866.269	18768
866.4	18791
866.531	18730
866.662	18817
866.793	18783
866.924	18787
867.055	18821
867.186	18840
867.317	18707
867.448	18730
867.579	18654
867.71	18650
867.841	18661
867.972	18920
868.103	18696
868.233	18863
868.364	18783
868.495	18867
868.625	18928
868.756	19152
868.886	18886
869.017	19000
869.147	19061
869.278	18996
869.408	18966
869.539	18848
869.669	18947
869.799	19107
869.929	19076
870.06	19095
870.19	19266
870.32	19343
870.45	19316
870.58	19358
870.71	19457
870.84	19457
870.97	19419
871.1	19316
871.23	19506
871.36	19529
871.489	19430
871.619	19556
871.749	19609
871.879	19685
872.008	19670
872.138	19510
872.267	19552
872.397	19495
872.526	19400
872.656	19430
872.785	19426
872.915	19616
873.044	19685
873.173	19559
873.303	19601
873.432	19628
873.561	19738
873.69	19746
873.819	19681
873.948	19597
874.077	19681
874.206	19590
874.335	19662
874.464	19776
874.593	19841
874.722	19769
874.851	19978
874.979	19860
875.108	19925
875.237	19799
875.365	19826
875.494	19860
875.623	19959
875.751	19906
875.88	19856
876.008	20069
876.136	20027
876.265	20225
876.393	20385
876.521	20476
876.65	20355
876.778	20301
876.906	20206
877.034	20256
877.162	20107
877.29	20187
877.418	20248
877.546	20210
877.674	20286
877.802	20305
877.93	20180
878.058	20309
878.185	20115
878.313	20206
878.441	20278
878.568	20005
878.696	20161
878.824	20271
878.951	20248
879.079	20362
879.206	20549
879.333	20412
879.461	20271
879.588	20351
879.715	20332
879.842	20473
879.97	20252
880.097	20058
880.224	20005
880.351	20103
880.478	20073
880.605	20115
880.732	20024
880.859	20355
880.986	20103
881.112	20050
881.239	19993
881.366	19925
881.493	19693
881.619	19582
881.746	19803
881.872	19670
881.999	19689
882.125	19651
882.252	19674
882.378	19674
882.505	19833
882.631	19563
882.757	19438
882.883	19544
883.01	19453
883.136	19362
883.262	19438
883.388	19263
883.514	19422
883.64	19460
883.766	19502
883.892	19240
884.018	19327
884.143	19396
884.269	19590
884.395	19175
884.52	19061
884.646	19103
884.772	19065
884.897	18989
885.023	19076
885.148	19225
885.274	19259
885.399	19190
885.524	19133
885.65	19198
885.775	19133
885.9	19160
886.025	19206
886.15	19129
886.275	19057
886.4	19046
886.525	19103
886.65	19046
886.775	19099
886.9	19255
887.025	19274
887.149	19152
887.274	18970
887.399	18844
887.523	18719
887.648	18890
887.773	18741
887.897	18894
888.021	18954
888.146	18905
888.27	18970
888.395	19046
888.519	18779
888.643	18958
888.767	18909
888.891	18703
889.015	18551
889.139	18715
889.263	18608
889.387	18795
889.511	18825
889.635	18749
889.759	18646
889.883	18719
890.006	18749
890.13	18772
890.254	18616
890.377	18635
890.501	18353
890.624	18342
890.748	18433
890.871	18372
890.995	18228
891.118	18083
891.241	18319
891.364	18296
891.488	18388
891.611	18228
891.734	18201
891.857	18292
891.98	18361
892.103	18369
892.226	18323
892.349	18266
892.471	18068
892.594	18216
892.717	18273
892.839	18155
892.962	18167
893.085	18273
893.207	18186
893.33	18190
893.452	18125
893.575	18243
893.697	18136
893.819	18273
893.941	18407
894.064	18308
894.186	18247
894.308	18015
894.43	18361
894.552	18365
894.674	18334
894.796	17980
894.918	18152
895.04	18216
895.161	18262
895.283	18213
895.405	18182
895.526	18281
895.648	18171
895.769	18308
895.891	18247
896.012	18300
896.134	18304
896.255	18205
896.376	18258
896.498	18353
896.619	18334
896.74	18334
896.861	18361
896.982	18585
897.103	18798
897.224	18612
897.345	18684
897.466	18452
897.587	18475
897.708	18734
897.828	18551
897.949	18399
898.07	18380
898.19	18437
898.311	18665
898.431	18429
898.552	18498
898.672	18540
898.792	18646
898.913	18559
899.033	18327
899.153	18251
899.273	18129
899.393	18201
899.513	18315
899.633	18220
899.753	18235
899.873	18205
899.993	18216
900.113	18083
900.232	18235
900.352	18239
900.472	18159
900.591	18053
900.711	18102
900.83	17973
900.95	18114
901.069	18186
901.189	18045
901.308	17767
901.427	17661
901.546	17767
901.665	17783
901.784	17665
901.904	17570
902.023	17463
902.141	17178
902.26	17296
902.379	17299
902.498	17246
902.617	17086
902.735	17204
902.854	17143
902.973	17143
903.091	16904
903.21	16835
903.328	16729
903.446	16850
903.565	16744
903.683	16736
903.801	16611
903.919	16634
904.038	16584
904.156	16466
904.274	16561
904.392	16519
904.51	16436
904.627	16485
904.745	16516
904.863	16474
904.981	16306
905.098	16124
905.216	16101
905.334	16181
905.451	16116
905.569	16074
905.686	16219
905.803	16200
905.921	15949
906.038	16082
906.155	15918
906.272	15880
906.389	15861
906.506	15732
906.623	15633
906.74	15629
906.857	15637
906.974	15591
907.091	15675
907.208	15778
907.324	15766
907.441	15599
907.557	15336
907.674	15374
907.79	15260
907.907	15355
908.023	15462
908.139	15336
908.256	15195
908.372	15237
908.488	15302
908.604	15165
908.72	15093
908.836	15020
908.952	15081
909.068	15154
909.184	15135
909.3	15036
909.415	15188
909.531	15070
909.647	14815
909.762	14800
909.878	14735
909.993	14777
910.108	14750
910.224	14727
910.339	14785
910.454	14781
910.57	14598
910.685	14518
910.8	14781
910.915	14705
911.03	14621
911.145	14454
911.259	14412
911.374	14351
911.489	14385
911.604	14282
911.718	14172
911.833	14145
911.947	14046
912.062	13986
912.176	14020
912.291	14180
912.405	14096
912.519	14233
912.633	14408
912.748	14214
912.862	14016
912.976	13898
913.09	13856
913.204	14035
913.318	13944
913.431	14096
913.545	14103
913.659	14046
913.772	13963
913.886	13807
914	13860
914.113	13890
914.226	13947
914.34	13875
914.453	13791
914.566	13925
914.68	13788
914.793	13681
914.906	13540
915.019	13453
915.132	13362
915.245	13392
915.358	13441
915.47	13582
915.583	13499
915.696	13518
915.809	13677
915.921	13696
916.034	13552
916.146	13415
916.259	13354
916.371	13460
916.483	13422
916.595	13301
916.708	13297
916.82	13373
916.932	13327
917.044	13373
917.156	13350
917.268	13141
917.38	13251
917.491	13072
917.603	13251
917.715	13266
917.826	13228
917.938	13118
918.049	13004
918.161	13194
918.272	13392
918.384	13274
918.495	13133
918.606	13103
918.717	13000
918.828	12954
918.939	12977
919.05	12886
919.161	12947
919.272	12738
919.383	12757
919.494	12928
919.604	13137
919.715	12890
919.826	12848
919.936	12905
920.047	13038
920.157	12901
920.267	13110
920.378	12973
920.488	12817
920.598	13088
920.708	13255
920.818	13072
920.928	13114
921.038	13289
921.148	13236
921.258	12913
921.368	12840
921.477	12707
921.587	12700
921.697	12566
921.806	12604
921.916	12525
922.025	12410
922.134	12311
922.244	12270
922.353	12361
922.462	12228
922.571	12194
922.68	12011
922.789	11973
922.898	11942
923.007	11969
923.116	12068
923.224	11897
923.333	12003
923.442	11790
923.55	11813
923.659	11836
923.767	11977
923.876	11790
923.984	11847
924.092	11786
924.201	11783
924.309	11824
924.417	11817
924.525	11741
924.633	11653
924.741	12521
924.849	11562
924.956	11630
925.064	11448
925.172	11444
925.279	11425
925.387	11581
925.494	11543
925.602	11684
925.709	11459
925.816	11425
925.924	11512
926.031	11535
926.138	11501
926.245	11520
926.352	11387
926.459	11554
926.566	11440
926.673	11448
926.779	11261
926.886	11311
926.993	11155
927.099	11185
927.206	11105
927.312	11109
927.419	11242
927.525	11117
927.631	11174
927.737	11041
927.843	10995
927.95	10839
928.056	10919
928.162	11029
928.267	11064
928.373	11661
928.479	11083
928.585	10850
928.69	10968
928.796	10892
928.901	10843
929.007	10778
929.112	10759
929.218	10687
929.323	10698
929.428	10694
929.533	10835
929.638	10740
929.743	10710
929.848	10672
929.953	10702
930.058	10538
930.163	10447
930.267	10493
930.372	10554
930.477	10405
930.581	10577
930.685	10474
930.79	10295
930.894	10398
930.998	10295
931.103	10535
931.207	10044
931.311	9998
931.415	9930
931.519	9682
931.623	9755
