Data from test_V78500241_1969.txt Node
Date: Fri Mar 25 15:23:34 CST 2022
User: usil
Spectrometer: V785-0024
Trigger mode: 0
Integration Time (sec): 4.000000E-1
Scans to average: 1
Nonlinearity correction enabled: false
Boxcar width: 0
Storing dark spectrum: false
XAxis mode: Wavelengths
Number of Pixels in Spectrum: 1024
>>>>>Begin Spectral Data<<<<<
801.071	27903
801.214	27755
801.356	27610
801.499	27367
801.641	27180
801.783	27340
801.926	27374
802.068	27268
802.211	27249
802.353	27173
802.496	27184
802.638	27024
802.78	26971
802.923	26937
803.065	26834
803.208	26906
803.35	26979
803.492	27218
803.635	27188
803.777	26982
803.919	27104
804.061	27557
804.204	27180
804.346	27116
804.488	27062
804.63	27169
804.773	27093
804.915	27306
805.057	27313
805.199	27173
805.341	27207
805.483	27515
805.626	27367
805.768	27233
805.91	27222
806.052	27233
806.194	27188
806.336	27488
806.478	27393
806.62	27336
806.762	27374
806.904	27424
807.046	27861
807.188	27778
807.33	27800
807.472	27861
807.614	27793
807.756	27641
807.898	27542
808.04	27606
808.182	27583
808.324	27511
808.465	27736
808.607	27827
808.749	27850
808.891	28032
809.033	28101
809.174	28013
809.316	27884
809.458	27953
809.6	27762
809.741	28025
809.883	28097
810.025	28055
810.166	28280
810.308	28211
810.45	28177
810.591	28101
810.733	28032
810.875	27774
811.016	27831
811.158	27835
811.299	28044
811.441	28116
811.582	27991
811.724	27846
811.865	27819
812.007	27922
812.148	27945
812.29	27838
812.431	28070
812.573	28200
812.714	28268
812.855	28379
812.997	28592
813.138	28599
813.279	28596
813.421	28523
813.562	28432
813.703	28314
813.845	28139
813.986	27865
814.127	27736
814.268	27671
814.41	27816
814.551	27644
814.692	27603
814.833	27481
814.974	27564
815.115	27686
815.256	27519
815.397	27496
815.539	27526
815.68	27336
815.821	27332
815.962	27348
816.103	27264
816.244	27268
816.385	27131
816.526	27096
816.666	26929
816.807	26906
816.948	26967
817.089	27112
817.23	26880
817.371	26960
817.512	26773
817.653	26929
817.793	26811
817.934	26880
818.075	26811
818.216	26895
818.356	26727
818.497	26758
818.638	26602
818.778	26800
818.919	26609
819.06	26663
819.2	26811
819.341	26933
819.481	26910
819.622	27074
819.762	27207
819.903	27089
820.043	26944
820.184	27066
820.324	27036
820.465	26994
820.605	27112
820.746	26994
820.886	26773
821.026	26937
821.167	26933
821.307	27013
821.447	26967
821.588	26758
821.728	26705
821.868	26602
822.008	26396
822.149	26423
822.289	26370
822.429	26134
822.569	26180
822.709	26069
822.849	25837
822.99	25909
823.13	25841
823.27	25807
823.41	25799
823.55	25643
823.69	25799
823.83	25712
823.97	25632
824.11	25430
824.25	25441
824.389	25499
824.529	25620
824.669	25377
824.809	25571
824.949	25601
825.089	25544
825.228	25499
825.368	25457
825.508	25339
825.648	25365
825.787	25324
825.927	25373
826.067	25293
826.206	25266
826.346	25449
826.485	25426
826.625	25381
826.765	25464
826.904	25392
827.044	25194
827.183	25164
827.323	25042
827.462	25126
827.601	24992
827.741	24973
827.88	25091
828.02	24981
828.159	25084
828.298	25076
828.437	25152
828.577	25042
828.716	25179
828.855	25103
828.994	24753
829.134	24825
829.273	24871
829.412	24753
829.551	24688
829.69	24894
829.829	24760
829.968	24871
830.107	24802
830.246	24738
830.385	24642
830.524	24722
830.663	24570
830.802	24559
830.941	24357
831.08	24346
831.219	24551
831.357	24464
831.496	24726
831.635	24403
831.774	24483
831.913	24285
832.051	24239
832.19	24251
832.329	24213
832.467	24045
832.606	24011
832.744	24049
832.883	24095
833.022	24068
833.16	24152
833.299	24159
833.437	23973
833.576	24155
833.714	24197
833.852	24205
833.991	24106
834.129	24201
834.267	24247
834.406	24182
834.544	24209
834.682	24129
834.821	24174
834.959	24334
835.097	24003
835.235	24178
835.373	24159
835.511	24083
835.65	24045
835.788	24072
835.926	23901
836.064	23843
836.202	23790
836.34	23954
836.478	24174
836.615	23939
836.753	24079
836.891	24110
837.029	24049
837.167	23923
837.305	23931
837.443	23866
837.58	23775
837.718	23908
837.856	23912
837.993	23729
838.131	23984
838.269	23775
838.406	23760
838.544	23638
838.681	23558
838.819	23474
838.956	23425
839.094	23341
839.231	23185
839.369	23421
839.506	23714
839.643	23566
839.781	23433
839.918	23273
840.055	23326
840.193	23307
840.33	23105
840.467	23284
840.604	23235
840.742	23368
840.879	23113
841.016	23105
841.153	23170
841.29	23360
841.427	23170
841.564	23315
841.701	23258
841.838	23239
841.975	23041
842.112	23079
842.249	23105
842.385	22942
842.522	23071
842.659	23079
842.796	22934
842.933	22934
843.069	22911
843.206	23025
843.343	23014
843.479	22995
843.616	22968
843.752	22744
843.889	22850
844.025	22942
844.162	22820
844.298	22763
844.435	22706
844.571	22713
844.708	22805
844.844	22812
844.98	22866
845.117	22759
845.253	22774
845.389	22527
845.525	22634
845.661	22451
845.798	22481
845.934	22546
846.07	22538
846.206	22443
846.342	22596
846.478	22584
846.614	22154
846.75	22188
846.886	22177
847.022	22276
847.158	22280
847.294	22158
847.429	22265
847.565	22185
847.701	22402
847.837	22055
847.972	21991
848.108	21968
848.244	22029
848.379	21827
848.515	21800
848.65	21736
848.786	21759
848.921	21739
849.057	21987
849.192	21945
849.328	21953
849.463	21899
849.598	21857
849.734	21663
849.869	21717
850.004	21523
850.14	21694
850.275	21622
850.41	21580
850.545	21507
850.68	21583
850.815	21538
850.95	21606
851.085	21717
851.22	21660
851.355	21641
851.49	21606
851.625	21526
851.76	21523
851.895	21549
852.03	21424
852.165	21534
852.299	21610
852.434	21580
852.569	21709
852.703	21515
852.838	21568
852.973	21644
853.107	21686
853.242	21580
853.376	21355
853.511	21291
853.645	21424
853.78	21473
853.914	21393
854.048	21306
854.183	21344
854.317	21450
854.451	21629
854.585	21359
854.72	21526
854.854	21389
854.988	21310
855.122	21359
855.256	21226
855.39	21317
855.524	21420
855.658	21405
855.792	21420
855.926	21351
856.06	21454
856.194	21466
856.327	21344
856.461	21325
856.595	21340
856.729	21359
856.862	21553
856.996	21363
857.13	21447
857.263	21431
857.397	21397
857.53	21496
857.664	21428
857.797	21496
857.931	21477
858.064	21473
858.197	21526
858.331	21313
858.464	21393
858.597	21279
858.731	21450
858.864	21245
858.997	21416
859.13	21363
859.263	21370
859.396	21507
859.529	21275
859.662	21336
859.795	21321
859.928	21389
860.061	21561
860.194	21622
860.327	21469
860.46	21378
860.592	21428
860.725	21606
860.858	21534
860.99	21287
861.123	21264
861.256	21348
861.388	21393
861.521	21987
861.653	21313
861.786	21150
861.918	21226
862.05	21275
862.183	21245
862.315	21363
862.447	21462
862.58	21291
862.712	21146
862.844	21032
862.976	21283
863.108	21226
863.24	21603
863.372	21062
863.504	21051
863.636	21169
863.768	21180
863.9	21180
864.032	21043
864.164	21039
864.296	21214
864.428	21093
864.559	21089
864.691	21192
864.823	21055
864.954	21089
865.086	21093
865.217	21005
865.349	20941
865.48	21028
865.612	21077
865.743	21173
865.875	21051
866.006	20998
866.137	21013
866.269	21017
866.4	20895
866.531	20948
866.662	20842
866.793	20868
866.924	20963
867.055	21009
867.186	21020
867.317	20834
867.448	20743
867.579	20979
867.71	20842
867.841	20902
867.972	20994
868.103	20883
868.233	20929
868.364	20914
868.495	21051
868.625	21233
868.756	21313
868.886	21135
869.017	21222
869.147	21302
869.278	21268
869.408	21230
869.539	21135
869.669	21211
869.799	21408
869.929	21294
870.06	21211
870.19	21389
870.32	21454
870.45	21401
870.58	21477
870.71	21652
870.84	21709
870.97	21454
871.1	21545
871.23	21724
871.36	21682
871.489	21568
871.619	21770
871.749	21759
871.879	21850
872.008	21800
872.138	21644
872.267	21907
872.397	21751
872.526	21595
872.656	21656
872.785	21660
872.915	21736
873.044	21835
873.173	21865
873.303	21861
873.432	21838
873.561	21808
873.69	21854
873.819	21781
873.948	21709
874.077	21846
874.206	21679
874.335	21846
874.464	21873
874.593	22082
874.722	22002
874.851	22177
874.979	22143
875.108	22025
875.237	21907
875.365	21892
875.494	21987
875.623	22044
875.751	22006
875.88	22097
876.008	22226
876.136	22223
876.265	22451
876.393	22402
876.521	22504
876.65	22485
876.778	22459
876.906	22314
877.034	22329
877.162	22310
877.29	22329
877.418	22268
877.546	22413
877.674	22409
877.802	22272
877.93	22413
878.058	22341
878.185	22112
878.313	22299
878.441	22306
878.568	22070
878.696	22242
878.824	22402
878.951	22485
879.079	22565
879.206	22611
879.333	22508
879.461	22386
879.588	22565
879.715	22531
879.842	22603
879.97	22360
880.097	22120
880.224	22211
880.351	22207
880.478	22207
880.605	22093
880.732	22238
880.859	22341
880.986	22036
881.112	22188
881.239	22116
881.366	21922
881.493	21861
881.619	21679
881.746	21827
881.872	21682
881.999	21728
882.125	21759
882.252	21816
882.378	21755
882.505	21838
882.631	21679
882.757	21473
882.883	21488
883.01	21447
883.136	21393
883.262	21401
883.388	21241
883.514	21538
883.64	21511
883.766	21378
883.892	21233
884.018	21241
884.143	21454
884.269	21523
884.395	21203
884.52	21093
884.646	21081
884.772	20952
884.897	21062
885.023	21093
885.148	21249
885.274	21154
885.399	21138
885.524	21024
885.65	21211
885.775	21161
885.9	21043
886.025	21256
886.15	21062
886.275	21058
886.4	20906
886.525	21093
886.65	21066
886.775	21055
886.9	21241
887.025	21268
887.149	21131
887.274	20918
887.399	20838
887.523	20834
887.648	20868
887.773	20754
887.897	20990
888.021	20948
888.146	20796
888.27	20925
888.395	20929
888.519	20895
888.643	20842
888.767	20952
888.891	20849
889.015	20697
889.139	20670
889.263	20556
889.387	20716
889.511	20765
889.635	20762
889.759	20693
889.883	20613
890.006	20640
890.13	20659
890.254	20788
890.377	20575
890.501	20484
890.624	20412
890.748	20533
890.871	20309
890.995	20233
891.118	20218
891.241	20256
891.364	20282
891.488	20347
891.611	20206
891.734	20202
891.857	20355
891.98	20324
892.103	20214
892.226	20271
892.349	20180
892.471	20039
892.594	20256
892.717	20214
892.839	20161
892.962	20176
893.085	20214
893.207	20073
893.33	20073
893.452	20024
893.575	20092
893.697	20035
893.819	20415
893.941	20275
894.064	20339
894.186	20073
894.308	20039
894.43	20172
894.552	20313
894.674	20301
894.796	20054
894.918	20119
895.04	20058
895.161	20157
895.283	20111
895.405	20005
895.526	20164
895.648	20107
895.769	20084
895.891	20183
896.012	20191
896.134	20138
896.255	20138
896.376	20096
896.498	20145
896.619	20172
896.74	20157
896.861	20259
896.982	20499
897.103	20632
897.224	20427
897.345	20374
897.466	20305
897.587	20259
897.708	20522
897.828	20415
897.949	20282
898.07	20191
898.19	20328
898.311	20442
898.431	20267
898.552	20408
898.672	20355
898.792	20358
898.913	20404
899.033	20191
899.153	20119
899.273	19963
899.393	20062
899.513	20115
899.633	20119
899.753	20027
899.873	19959
899.993	20134
900.113	20054
900.232	19947
900.352	19986
900.472	19841
900.591	19799
900.711	19849
900.83	19833
900.95	19883
901.069	19864
901.189	19708
901.308	19643
901.427	19525
901.546	19388
901.665	19430
901.784	19457
901.904	19289
902.023	19282
902.141	18973
902.26	19008
902.379	18981
902.498	19065
902.617	18897
902.735	19000
902.854	18894
902.973	18867
903.091	18734
903.21	18578
903.328	18604
903.446	18540
903.565	18494
903.683	18410
903.801	18311
903.919	18418
904.038	18342
904.156	18224
904.274	18262
904.392	18197
904.51	18243
904.627	18262
904.745	18311
904.863	18323
904.981	18057
905.098	17798
905.216	17855
905.334	17984
905.451	17813
905.569	17790
905.686	17882
905.803	17851
905.921	17737
906.038	17790
906.155	17748
906.272	17551
906.389	17577
906.506	17436
906.623	17497
906.74	17391
906.857	17341
906.974	17334
907.091	17505
907.208	17512
907.324	17501
907.441	17299
907.557	17109
907.674	17140
907.79	17094
907.907	17162
908.023	17056
908.139	17155
908.256	17140
908.372	17147
908.488	17045
908.604	16923
908.72	16900
908.836	16934
908.952	16733
909.068	16831
909.184	16946
909.3	16869
909.415	16896
909.531	16801
909.647	16679
909.762	16656
909.878	16558
909.993	16466
910.108	16622
910.224	16561
910.339	16531
910.454	16554
910.57	16325
910.685	16226
910.8	16584
910.915	16455
911.03	16325
911.145	16150
911.259	16143
911.374	16124
911.489	16063
911.604	16131
911.718	15888
911.833	15895
911.947	15663
912.062	15686
912.176	15869
912.291	15956
912.405	15789
912.519	16139
912.633	15983
912.748	15930
912.862	15808
912.976	15808
913.09	15545
913.204	15629
913.318	15675
913.431	15857
913.545	15713
913.659	15785
913.772	15675
913.886	15545
914	15534
914.113	15587
914.226	15709
914.34	15557
914.453	15405
914.566	15595
914.68	15435
914.793	15298
914.906	15062
915.019	15142
915.132	15089
915.245	15135
915.358	15157
915.47	15085
915.583	15100
915.696	15089
915.809	15203
915.921	15104
916.034	14963
916.146	15009
916.259	15097
916.371	15093
916.483	15085
916.595	15013
916.708	14807
916.82	15009
916.932	14891
917.044	14861
917.156	14876
917.268	14773
917.38	14785
917.491	14796
917.603	14800
917.715	14807
917.826	14845
917.938	14739
918.049	14594
918.161	14667
918.272	14762
918.384	14754
918.495	14697
918.606	14552
918.717	14450
918.828	14564
918.939	14640
919.05	14412
919.161	14469
919.272	14328
919.383	14366
919.494	14499
919.604	14720
919.715	14594
919.826	14377
919.936	14419
920.047	14461
920.157	14431
920.267	14602
920.378	14598
920.488	14434
920.598	14674
920.708	14853
920.818	14674
920.928	14602
921.038	14754
921.148	14693
921.258	14457
921.368	14377
921.477	14221
921.587	14290
921.697	14081
921.806	14233
921.916	14062
922.025	13909
922.134	13757
922.244	13856
922.353	13936
922.462	13795
922.571	13746
922.68	13525
922.789	13480
922.898	13487
923.007	13480
923.116	13529
923.224	13552
923.333	13491
923.442	13369
923.55	13384
923.659	13369
923.767	13362
923.876	13324
923.984	13324
924.092	13304
924.201	13263
924.309	13236
924.417	13289
924.525	13190
924.633	13133
924.741	13982
924.849	13038
924.956	13118
925.064	13038
925.172	12840
925.279	12935
925.387	12970
925.494	12867
925.602	13019
925.709	12928
925.816	12852
925.924	12844
926.031	12993
926.138	12768
926.245	12897
926.352	12741
926.459	12916
926.566	12973
926.673	12837
926.779	12662
926.886	12673
926.993	12601
927.099	12506
927.206	12536
927.312	12475
927.419	12612
927.525	12452
927.631	12502
927.737	12471
927.843	12254
927.95	12235
928.056	12239
928.162	12311
928.267	12407
928.373	12905
928.479	12350
928.585	12038
928.69	12235
928.796	12327
928.901	12114
929.007	12110
929.112	12102
929.218	12152
929.323	12129
929.428	11965
929.533	12209
929.638	11973
929.743	12019
929.848	11999
929.953	11961
930.058	11847
930.163	11783
930.267	11737
930.372	11836
930.477	11722
930.581	11931
930.685	11691
930.79	11619
930.894	11600
930.998	11562
931.103	11699
931.207	11402
931.311	11223
931.415	11113
931.519	11067
931.623	11041
