Data from test_V78500241_368.txt Node
Date: Fri Mar 25 15:12:25 CST 2022
User: usil
Spectrometer: V785-0024
Trigger mode: 0
Integration Time (sec): 4.000000E-1
Scans to average: 1
Nonlinearity correction enabled: false
Boxcar width: 0
Storing dark spectrum: false
XAxis mode: Wavelengths
Number of Pixels in Spectrum: 1024
>>>>>Begin Spectral Data<<<<<
801.071	26998
801.214	26944
801.356	26705
801.499	26845
801.641	26484
801.783	26522
801.926	26526
802.068	26415
802.211	26419
802.353	26282
802.496	26259
802.638	26050
802.78	26225
802.923	26103
803.065	26088
803.208	26081
803.35	26115
803.492	26317
803.635	26423
803.777	26278
803.919	26271
804.061	26655
804.204	26271
804.346	26244
804.488	26142
804.63	26438
804.773	26115
804.915	26328
805.057	26336
805.199	26244
805.341	26366
805.483	26267
805.626	26351
805.768	26244
805.91	26389
806.052	26465
806.194	26404
806.336	26499
806.478	26339
806.62	26423
806.762	26423
806.904	26792
807.046	26952
807.188	26762
807.33	26724
807.472	26674
807.614	26815
807.756	26651
807.898	26526
808.04	26518
808.182	26461
808.324	26598
808.465	26583
808.607	26804
808.749	26937
808.891	26975
809.033	27146
809.174	26994
809.316	26887
809.458	26960
809.6	26868
809.741	27032
809.883	27135
810.025	27180
810.166	27173
810.308	27203
810.45	27260
810.591	27074
810.733	26960
810.875	26918
811.016	26819
811.158	26762
811.299	26982
811.441	27055
811.582	27135
811.724	26929
811.865	26895
812.007	26807
812.148	26842
812.29	26910
812.431	27039
812.573	27184
812.714	27443
812.855	27359
812.997	27580
813.138	27724
813.279	27625
813.421	27564
813.562	27447
813.703	27405
813.845	27249
813.986	26842
814.127	26769
814.268	26735
814.41	26568
814.551	26453
814.692	26636
814.833	26739
814.974	26590
815.115	26594
815.256	26503
815.397	26552
815.539	26522
815.68	26511
815.821	26332
815.962	26381
816.103	26328
816.244	26225
816.385	26149
816.526	26012
816.666	25997
816.807	25974
816.948	25811
817.089	25940
817.23	25936
817.371	25902
817.512	25902
817.653	25841
817.793	25818
817.934	25822
818.075	25925
818.216	25955
818.356	25944
818.497	25689
818.638	25479
818.778	25567
818.919	25712
819.06	25670
819.2	25700
819.341	25852
819.481	25913
819.622	25982
819.762	26172
819.903	26103
820.043	26043
820.184	26005
820.324	25871
820.465	26016
820.605	25917
820.746	26012
820.886	25909
821.026	25917
821.167	25936
821.307	25993
821.447	25887
821.588	25723
821.728	25556
821.868	25479
822.008	25388
822.149	25312
822.289	25202
822.429	25107
822.569	24920
822.709	25012
822.849	24817
822.99	24897
823.13	24875
823.27	24791
823.41	24612
823.55	24620
823.69	24635
823.83	24669
823.97	24654
824.11	24464
824.25	24441
824.389	24365
824.529	24582
824.669	24452
824.809	24608
824.949	24566
825.089	24646
825.228	24380
825.368	24388
825.508	24353
825.648	24311
825.787	24330
825.927	24437
826.067	24308
826.206	24232
826.346	24281
826.485	24517
826.625	24308
826.765	24448
826.904	24338
827.044	24136
827.183	24152
827.323	24102
827.462	24026
827.601	24087
827.741	24163
827.88	24148
828.02	23961
828.159	24030
828.298	24045
828.437	24125
828.577	24136
828.716	24079
828.855	23999
828.994	23855
829.134	23767
829.273	23809
829.412	23699
829.551	23676
829.69	23703
829.829	23813
829.968	23790
830.107	23863
830.246	23752
830.385	23775
830.524	23718
830.663	23585
830.802	23531
830.941	23395
831.08	23383
831.219	23486
831.357	23566
831.496	23596
831.635	23322
831.774	23307
831.913	23166
832.051	23189
832.19	23193
832.329	23227
832.467	23067
832.606	23060
832.744	22957
832.883	23067
833.022	23044
833.16	23132
833.299	23094
833.437	23033
833.576	23296
833.714	23143
833.852	23128
833.991	23204
834.129	23174
834.267	23181
834.406	23197
834.544	23178
834.682	23056
834.821	23117
834.959	23356
835.097	23075
835.235	23086
835.373	23162
835.511	23128
835.65	23064
835.788	22968
835.926	22816
836.064	22881
836.202	22767
836.34	23079
836.478	23086
836.615	22980
836.753	22991
836.891	23162
837.029	23014
837.167	22919
837.305	22896
837.443	22873
837.58	22999
837.718	22961
837.856	22927
837.993	22774
838.131	22889
838.269	22858
838.406	22793
838.544	22736
838.681	22554
838.819	22478
838.956	22428
839.094	22329
839.231	22432
839.369	22485
839.506	22721
839.643	22611
839.781	22394
839.918	22223
840.055	22226
840.193	22196
840.33	22192
840.467	22306
840.604	22238
840.742	22497
840.879	22086
841.016	22147
841.153	22147
841.29	22470
841.427	22169
841.564	22226
841.701	22207
841.838	22211
841.975	22082
842.112	22230
842.249	22059
842.385	22082
842.522	22177
842.659	22185
842.796	22063
842.933	21956
843.069	21850
843.206	21979
843.343	22150
843.479	21918
843.616	22059
843.752	21819
843.889	21876
844.025	22093
844.162	21854
844.298	21774
844.435	21797
844.571	21720
844.708	21861
844.844	21930
844.98	21922
845.117	21789
845.253	21755
845.389	21656
845.525	21625
845.661	21717
845.798	21637
845.934	21705
846.07	21447
846.206	21568
846.342	21557
846.478	21534
846.614	21348
846.75	21256
846.886	21306
847.022	21374
847.158	21393
847.294	21298
847.429	21340
847.565	21249
847.701	21458
847.837	20952
847.972	21043
848.108	21074
848.244	21066
848.379	20937
848.515	20944
848.65	20823
848.786	20963
848.921	20906
849.057	21093
849.192	20948
849.328	21039
849.463	20849
849.598	20876
849.734	20838
849.869	20785
850.004	20659
850.14	20727
850.275	20606
850.41	20644
850.545	20606
850.68	20503
850.815	20727
850.95	20636
851.085	20838
851.22	20910
851.355	20640
851.49	20613
851.625	20511
851.76	20613
851.895	20465
852.03	20461
852.165	20720
852.299	20670
852.434	20716
852.569	20663
852.703	20606
852.838	20670
852.973	20727
853.107	20686
853.242	20651
853.376	20415
853.511	20377
853.645	20347
853.78	20674
853.914	20511
854.048	20473
854.183	20442
854.317	20473
854.451	20583
854.585	20438
854.72	20450
854.854	20533
854.988	20469
855.122	20336
855.256	20434
855.39	20488
855.524	20495
855.658	20457
855.792	20568
855.926	20431
856.06	20396
856.194	20484
856.327	20404
856.461	20351
856.595	20446
856.729	20377
856.862	20606
856.996	20495
857.13	20419
857.263	20503
857.397	20564
857.53	20419
857.664	20609
857.797	20590
857.931	20514
858.064	20522
858.197	20514
858.331	20431
858.464	20362
858.597	20396
858.731	20442
858.864	20396
858.997	20495
859.13	20404
859.263	20556
859.396	20484
859.529	20469
859.662	20328
859.795	20507
859.928	20423
860.061	20571
860.194	20609
860.327	20454
860.46	20484
860.592	20526
860.725	20598
860.858	20667
860.99	20526
861.123	20404
861.256	20560
861.388	20495
861.521	21047
861.653	20347
861.786	20275
861.918	20301
862.05	20343
862.183	20427
862.315	20358
862.447	20370
862.58	20431
862.712	20168
862.844	20252
862.976	20267
863.108	20195
863.24	20625
863.372	20084
863.504	20233
863.636	20134
863.768	20237
863.9	20218
864.032	20138
864.164	20073
864.296	20347
864.428	20202
864.559	20218
864.691	20221
864.823	20161
864.954	20100
865.086	20161
865.217	20130
865.349	20016
865.48	20027
865.612	20096
865.743	20195
865.875	20069
866.006	20062
866.137	20081
866.269	20145
866.4	20096
866.531	20024
866.662	20001
866.793	20008
866.924	20100
867.055	20077
867.186	20096
867.317	20012
867.448	19913
867.579	20012
867.71	19917
867.841	20058
867.972	20088
868.103	20001
868.233	20081
868.364	20046
868.495	19986
868.625	20199
868.756	20328
868.886	20324
869.017	20202
869.147	20434
869.278	20396
869.408	20271
869.539	20176
869.669	20180
869.799	20415
869.929	20450
870.06	20476
870.19	20613
870.32	20579
870.45	20602
870.58	20667
870.71	20868
870.84	20788
870.97	20785
871.1	20716
871.23	20895
871.36	20868
871.489	20712
871.619	20785
871.749	20906
871.879	20857
872.008	20921
872.138	20883
872.267	20815
872.397	20819
872.526	20735
872.656	20689
872.785	20659
872.915	20864
873.044	21001
873.173	20823
873.303	21074
873.432	21055
873.561	20948
873.69	20849
873.819	20845
873.948	21020
874.077	20861
874.206	20834
874.335	20941
874.464	21009
874.593	21260
874.722	21062
874.851	21176
874.979	21306
875.108	21173
875.237	20986
875.365	21119
875.494	21142
875.623	21241
875.751	21135
875.88	21138
876.008	21317
876.136	21317
876.265	21538
876.393	21679
876.521	21610
876.65	21663
876.778	21549
876.906	21504
877.034	21416
877.162	21564
877.29	21507
877.418	21648
877.546	21606
877.674	21488
877.802	21542
877.93	21583
878.058	21435
878.185	21336
878.313	21450
878.441	21401
878.568	21317
878.696	21397
878.824	21397
878.951	21694
879.079	21652
879.206	21766
879.333	21576
879.461	21538
879.588	21591
879.715	21739
879.842	21816
879.97	21523
880.097	21116
880.224	21249
880.351	21405
880.478	21298
880.605	21252
880.732	21359
880.859	21488
880.986	21405
881.112	21317
881.239	21173
881.366	20933
881.493	20986
881.619	21028
881.746	21001
881.872	20944
881.999	20925
882.125	20918
882.252	20963
882.378	20864
882.505	21173
882.631	20746
882.757	20587
882.883	20678
883.01	20560
883.136	20419
883.262	20518
883.388	20419
883.514	20724
883.64	20701
883.766	20568
883.892	20446
884.018	20488
884.143	20480
884.269	20682
884.395	20400
884.52	20248
884.646	20317
884.772	20218
884.897	20084
885.023	20305
885.148	20305
885.274	20434
885.399	20328
885.524	20301
885.65	20381
885.775	20206
885.9	20252
886.025	20263
886.15	20271
886.275	20237
886.4	20180
886.525	20233
886.65	20138
886.775	20229
886.9	20336
887.025	20499
887.149	20195
887.274	20138
887.399	20077
887.523	20115
887.648	19932
887.773	19856
887.897	20111
888.021	20039
888.146	20020
888.27	20176
888.395	20138
888.519	20073
888.643	20020
888.767	20100
888.891	19818
889.015	19909
889.139	19837
889.263	19879
889.387	19970
889.511	20046
889.635	19898
889.759	19894
889.883	19769
890.006	19883
890.13	19951
890.254	19887
890.377	19635
890.501	19693
890.624	19582
890.748	19658
890.871	19472
890.995	19521
891.118	19373
891.241	19460
891.364	19445
891.488	19453
891.611	19411
891.734	19426
891.857	19476
891.98	19529
892.103	19377
892.226	19449
892.349	19369
892.471	19293
892.594	19343
892.717	19373
892.839	19350
892.962	19438
893.085	19502
893.207	19331
893.33	19339
893.452	19255
893.575	19495
893.697	19491
893.819	19502
893.941	19582
894.064	19422
894.186	19236
894.308	19384
894.43	19502
894.552	19575
894.674	19354
894.796	19266
894.918	19259
895.04	19320
895.161	19419
895.283	19263
895.405	19289
895.526	19396
895.648	19343
895.769	19304
895.891	19365
896.012	19388
896.134	19350
896.255	19396
896.376	19324
896.498	19297
896.619	19392
896.74	19324
896.861	19441
896.982	19753
897.103	19852
897.224	19708
897.345	19685
897.466	19472
897.587	19597
897.708	19704
897.828	19685
897.949	19487
898.07	19480
898.19	19491
898.311	19624
898.431	19506
898.552	19578
898.672	19563
898.792	19632
898.913	19556
899.033	19483
899.153	19392
899.273	19274
899.393	19388
899.513	19331
899.633	19430
899.753	19343
899.873	19247
899.993	19312
900.113	19282
900.232	19255
900.352	19263
900.472	19088
900.591	19156
900.711	19118
900.83	18962
900.95	19270
901.069	19285
901.189	18958
901.308	18734
901.427	18688
901.546	18726
901.665	18787
901.784	18837
901.904	18601
902.023	18437
902.141	18357
902.26	18216
902.379	18292
902.498	18315
902.617	18174
902.735	18216
902.854	18224
902.973	18140
903.091	17927
903.21	17870
903.328	17863
903.446	17733
903.565	17592
903.683	17779
903.801	17611
903.919	17699
904.038	17623
904.156	17524
904.274	17627
904.392	17551
904.51	17539
904.627	17474
904.745	17493
904.863	17703
904.981	17383
905.098	17204
905.216	17235
905.334	17368
905.451	17208
905.569	17121
905.686	17246
905.803	17189
905.921	16995
906.038	17208
906.155	17045
906.272	16892
906.389	16866
906.506	16858
906.623	16736
906.74	16733
906.857	16660
906.974	16740
907.091	16755
907.208	16820
907.324	16782
907.441	16561
907.557	16497
907.674	16424
907.79	16504
907.907	16432
908.023	16478
908.139	16421
908.256	16417
908.372	16322
908.488	16287
908.604	16242
908.72	16040
908.836	16226
908.952	16158
909.068	16223
909.184	16272
909.3	16086
909.415	16177
909.531	16181
909.647	15907
909.762	15903
909.878	15812
909.993	15873
910.108	15827
910.224	15842
910.339	15945
910.454	15793
910.57	15671
910.685	15644
910.8	15979
910.915	15922
911.03	15728
911.145	15614
911.259	15523
911.374	15564
911.489	15439
911.604	15408
911.718	15279
911.833	15230
911.947	15097
912.062	15062
912.176	15157
912.291	15207
912.405	15256
912.519	15393
912.633	15412
912.748	15222
912.862	15188
912.976	15142
913.09	14952
913.204	14994
913.318	15074
913.431	15180
913.545	15165
913.659	15135
913.772	15039
913.886	14948
914	14815
914.113	14933
914.226	15017
914.34	14880
914.453	14838
914.566	14952
914.68	14758
914.793	14716
914.906	14465
915.019	14644
915.132	14469
915.245	14526
915.358	14552
915.47	14484
915.583	14438
915.696	14579
915.809	14655
915.921	14579
916.034	14427
916.146	14457
916.259	14400
916.371	14545
916.483	14427
916.595	14362
916.708	14404
916.82	14389
916.932	14389
917.044	14298
917.156	14320
917.268	14142
917.38	14248
917.491	14221
917.603	14187
917.715	14229
917.826	14240
917.938	14157
918.049	14024
918.161	14126
918.272	14202
918.384	14294
918.495	14119
918.606	14024
918.717	13967
918.828	13974
918.939	14046
919.05	13864
919.161	13875
919.272	13788
919.383	13841
919.494	14035
919.604	14199
919.715	13913
919.826	13772
919.936	13978
920.047	14043
920.157	13974
920.267	14214
920.378	13940
920.488	13864
920.598	14176
920.708	14218
920.818	14081
920.928	14046
921.038	14305
921.148	14153
921.258	13944
921.368	13940
921.477	13643
921.587	13696
921.697	13597
921.806	13803
921.916	13605
922.025	13392
922.134	13365
922.244	13190
922.353	13358
922.462	13251
922.571	13042
922.68	13050
922.789	12996
922.898	13012
923.007	12962
923.116	13015
923.224	12962
923.333	12935
923.442	12882
923.55	12802
923.659	12802
923.767	12833
923.876	12787
923.984	12844
924.092	12711
924.201	12787
924.309	12707
924.417	12806
924.525	12662
924.633	12700
924.741	13346
924.849	12479
924.956	12601
925.064	12509
925.172	12357
925.279	12429
925.387	12448
925.494	12365
925.602	12570
925.709	12464
925.816	12399
925.924	12429
926.031	12479
926.138	12338
926.245	12452
926.352	12426
926.459	12452
926.566	12391
926.673	12353
926.779	12190
926.886	12254
926.993	12167
927.099	12019
927.206	11977
927.312	12022
927.419	12015
927.525	11950
927.631	12045
927.737	11923
927.843	11904
927.95	11752
928.056	11821
928.162	11843
928.267	11927
928.373	12506
928.479	11977
928.585	11733
928.69	11855
928.796	11859
928.901	11745
929.007	11543
929.112	11718
929.218	11638
929.323	11608
929.428	11551
929.533	11668
929.638	11528
929.743	11490
929.848	11577
929.953	11608
930.058	11505
930.163	11174
930.267	11311
930.372	11463
930.477	11254
930.581	11528
930.685	11376
930.79	11159
930.894	11147
930.998	11185
931.103	11364
931.207	10927
931.311	10831
931.415	10873
931.519	10588
931.623	10596
