Data from test_V78500241_98.txt Node
Date: Fri Mar 25 15:10:32 CST 2022
User: usil
Spectrometer: V785-0024
Trigger mode: 0
Integration Time (sec): 4.000000E-1
Scans to average: 1
Nonlinearity correction enabled: false
Boxcar width: 0
Storing dark spectrum: false
XAxis mode: Wavelengths
Number of Pixels in Spectrum: 1024
>>>>>Begin Spectral Data<<<<<
801.071	28363
801.214	28257
801.356	28059
801.499	27994
801.641	27949
801.783	27903
801.926	27899
802.068	27979
802.211	27682
802.353	27606
802.496	27348
802.638	27553
802.78	27405
802.923	27313
803.065	27283
803.208	27462
803.35	27389
803.492	27427
803.635	27492
803.777	27336
803.919	27587
804.061	27857
804.204	27622
804.346	27405
804.488	27454
804.63	27622
804.773	27420
804.915	27488
805.057	27549
805.199	27500
805.341	27549
805.483	27587
805.626	27686
805.768	27397
805.91	27530
806.052	27580
806.194	27481
806.336	27724
806.478	27637
806.62	27553
806.762	27652
806.904	27759
807.046	28131
807.188	28017
807.33	27972
807.472	28074
807.614	28032
807.756	28021
807.898	27899
808.04	27747
808.182	27766
808.324	27732
808.465	27812
808.607	27956
808.749	28116
808.891	28200
809.033	28272
809.174	28090
809.316	28006
809.458	28173
809.6	28105
809.741	28070
809.883	28287
810.025	28318
810.166	28268
810.308	28405
810.45	28356
810.591	28299
810.733	28063
810.875	27994
811.016	28010
811.158	27838
811.299	28109
811.441	28158
811.582	28192
811.724	28078
811.865	28109
812.007	28120
812.148	27991
812.29	28090
812.431	28173
812.573	28497
812.714	28432
812.855	28481
812.997	28717
813.138	28752
813.279	28710
813.421	28611
813.562	28584
813.703	28337
813.845	28177
813.986	28063
814.127	27743
814.268	27713
814.41	27759
814.551	27652
814.692	27797
814.833	27762
814.974	27599
815.115	27599
815.256	27504
815.397	27610
815.539	27485
815.68	27363
815.821	27408
815.962	27610
816.103	27416
816.244	27241
816.385	27283
816.526	27317
816.666	26918
816.807	26838
816.948	26998
817.089	27081
817.23	26971
817.371	26864
817.512	26823
817.653	26842
817.793	26781
817.934	26788
818.075	26720
818.216	26876
818.356	26708
818.497	26606
818.638	26514
818.778	26621
818.919	26488
819.06	26545
819.2	26503
819.341	26842
819.481	26663
819.622	26864
819.762	27055
819.903	26990
820.043	26800
820.184	26811
820.324	26735
820.465	26876
820.605	26762
820.746	26902
820.886	26777
821.026	26746
821.167	26811
821.307	26804
821.447	26712
821.588	26499
821.728	26499
821.868	26218
822.008	26168
822.149	26210
822.289	26210
822.429	25913
822.569	25909
822.709	25875
822.849	25601
822.99	25651
823.13	25613
823.27	25556
823.41	25263
823.55	25415
823.69	25453
823.83	25392
823.97	25301
824.11	25175
824.25	25179
824.389	25103
824.529	25190
824.669	25304
824.809	25422
824.949	25335
825.089	25430
825.228	25282
825.368	24970
825.508	25012
825.648	25080
825.787	24992
825.927	25236
826.067	24909
826.206	24985
826.346	25084
826.485	25015
826.625	24966
826.765	25156
826.904	25129
827.044	24913
827.183	24738
827.323	24616
827.462	24753
827.601	24601
827.741	24677
827.88	24597
828.02	24570
828.159	24745
828.298	24681
828.437	24760
828.577	24559
828.716	24642
828.855	24627
828.994	24380
829.134	24342
829.273	24429
829.412	24403
829.551	24197
829.69	24399
829.829	24357
829.968	24410
830.107	24483
830.246	24213
830.385	24281
830.524	24266
830.663	24121
830.802	24057
830.941	23965
831.08	23885
831.219	23988
831.357	23973
831.496	24079
831.635	23859
831.774	23874
831.913	23817
832.051	23680
832.19	23585
832.329	23699
832.467	23623
832.606	23581
832.744	23634
832.883	23634
833.022	23512
833.16	23691
833.299	23585
833.437	23535
833.576	23642
833.714	23630
833.852	23646
833.991	23596
834.129	23592
834.267	23668
834.406	23608
834.544	23638
834.682	23528
834.821	23558
834.959	23832
835.097	23425
835.235	23615
835.373	23379
835.511	23505
835.65	23398
835.788	23448
835.926	23254
836.064	23345
836.202	23356
836.34	23410
836.478	23478
836.615	23345
836.753	23402
836.891	23509
837.029	23387
837.167	23345
837.305	23273
837.443	23239
837.58	23216
837.718	23307
837.856	23246
837.993	23197
838.131	23212
838.269	23098
838.406	23052
838.544	22965
838.681	23010
838.819	22869
838.956	22512
839.094	22702
839.231	22778
839.369	22782
839.506	22976
839.643	22915
839.781	22675
839.918	22538
840.055	22603
840.193	22645
840.33	22561
840.467	22512
840.604	22554
840.742	22763
840.879	22478
841.016	22531
841.153	22402
841.29	22641
841.427	22394
841.564	22592
841.701	22618
841.838	22508
841.975	22360
842.112	22409
842.249	22249
842.385	22291
842.522	22519
842.659	22329
842.796	22006
842.933	22067
843.069	22196
843.206	22249
843.343	22257
843.479	22135
843.616	22124
843.752	22143
843.889	22032
844.025	22109
844.162	21888
844.298	22036
844.435	22055
844.571	21964
844.708	22044
844.844	22048
844.98	22219
845.117	22017
845.253	21892
845.389	21888
845.525	21880
845.661	21949
845.798	21728
845.934	21823
846.07	21682
846.206	21781
846.342	21968
846.478	21663
846.614	21462
846.75	21340
846.886	21332
847.022	21534
847.158	21408
847.294	21424
847.429	21435
847.565	21344
847.701	21496
847.837	21222
847.972	21131
848.108	21252
848.244	21230
848.379	21051
848.515	21100
848.65	20902
848.786	21028
848.921	20952
849.057	21070
849.192	21203
849.328	20948
849.463	20956
849.598	20944
849.734	20891
849.869	20933
850.004	20735
850.14	20853
850.275	20579
850.41	20727
850.545	20670
850.68	20583
850.815	20834
850.95	20701
851.085	20883
851.22	20864
851.355	20754
851.49	20598
851.625	20731
851.76	20659
851.895	20587
852.03	20636
852.165	20758
852.299	20678
852.434	20880
852.569	20724
852.703	20743
852.838	20750
852.973	20792
853.107	20804
853.242	20705
853.376	20537
853.511	20431
853.645	20469
853.78	20621
853.914	20492
854.048	20526
854.183	20530
854.317	20564
854.451	20693
854.585	20484
854.72	20469
854.854	20518
854.988	20393
855.122	20419
855.256	20400
855.39	20427
855.524	20651
855.658	20518
855.792	20537
855.926	20541
856.06	20549
856.194	20613
856.327	20480
856.461	20571
856.595	20282
856.729	20499
856.862	20537
856.996	20488
857.13	20492
857.263	20640
857.397	20648
857.53	20488
857.664	20480
857.797	20492
857.931	20545
858.064	20461
858.197	20689
858.331	20537
858.464	20431
858.597	20438
858.731	20442
858.864	20473
858.997	20488
859.13	20438
859.263	20598
859.396	20606
859.529	20423
859.662	20393
859.795	20469
859.928	20549
860.061	20537
860.194	20670
860.327	20522
860.46	20370
860.592	20427
860.725	20476
860.858	20575
860.99	20499
861.123	20339
861.256	20317
861.388	20465
861.521	21203
861.653	20298
861.786	20336
861.918	20385
862.05	20404
862.183	20461
862.315	20533
862.447	20587
862.58	20442
862.712	20221
862.844	20058
862.976	20267
863.108	20320
863.24	20674
863.372	20187
863.504	20062
863.636	20100
863.768	20138
863.9	20161
864.032	20039
864.164	20138
864.296	20176
864.428	20282
864.559	20336
864.691	20191
864.823	20164
864.954	20126
865.086	20119
865.217	20081
865.349	19947
865.48	20039
865.612	20084
865.743	20088
865.875	20031
866.006	20024
866.137	20115
866.269	20126
866.4	20069
866.531	20008
866.662	19986
866.793	19902
866.924	20008
867.055	20084
867.186	19993
867.317	19917
867.448	19928
867.579	19921
867.71	19902
867.841	19902
867.972	20122
868.103	20031
868.233	19890
868.364	19894
868.495	20107
868.625	20138
868.756	20294
868.886	20157
869.017	20267
869.147	20374
869.278	20347
869.408	20271
869.539	20183
869.669	20377
869.799	20267
869.929	20370
870.06	20336
870.19	20473
870.32	20434
870.45	20522
870.58	20667
870.71	20716
870.84	20830
870.97	20564
871.1	20552
871.23	20819
871.36	20769
871.489	20667
871.619	20754
871.749	20788
871.879	20887
872.008	20830
872.138	20785
872.267	20895
872.397	20655
872.526	20667
872.656	20587
872.785	20663
872.915	20921
873.044	20956
873.173	20830
873.303	20872
873.432	20864
873.561	20929
873.69	20826
873.819	20864
873.948	20929
874.077	20815
874.206	20788
874.335	20838
874.464	20910
874.593	21005
874.722	21047
874.851	21074
874.979	21218
875.108	21135
875.237	21108
875.365	21047
875.494	21058
875.623	21096
875.751	21108
875.88	21150
876.008	21188
876.136	21370
876.265	21340
876.393	21576
876.521	21485
876.65	21488
876.778	21557
876.906	21397
877.034	21325
877.162	21405
877.29	21351
877.418	21279
877.546	21473
877.674	21469
877.802	21477
877.93	21542
878.058	21336
878.185	21329
878.313	21454
878.441	21462
878.568	21245
878.696	21374
878.824	21344
878.951	21507
879.079	21660
879.206	21739
879.333	21610
879.461	21485
879.588	21488
879.715	21595
879.842	21679
879.97	21545
880.097	21249
880.224	21291
880.351	21233
880.478	21104
880.605	21173
880.732	21241
880.859	21481
880.986	21283
881.112	21321
881.239	21199
881.366	20979
881.493	20876
881.619	20861
881.746	20853
881.872	20830
881.999	20880
882.125	20781
882.252	20910
882.378	20777
882.505	20933
882.631	20746
882.757	20514
882.883	20678
883.01	20640
883.136	20636
883.262	20434
883.388	20442
883.514	20648
883.64	20598
883.766	20480
883.892	20366
884.018	20298
884.143	20499
884.269	20682
884.395	20385
884.52	20168
884.646	20183
884.772	20122
884.897	20183
885.023	20229
885.148	20320
885.274	20434
885.399	20343
885.524	20328
885.65	20237
885.775	20278
885.9	20088
886.025	20469
886.15	20221
886.275	20157
886.4	20210
886.525	20149
886.65	20153
886.775	20149
886.9	20301
887.025	20343
887.149	20282
887.274	20050
887.399	19967
887.523	19997
887.648	19928
887.773	19925
887.897	19951
888.021	19993
888.146	19906
888.27	20119
888.395	20149
888.519	19936
888.643	19978
888.767	19944
888.891	19890
889.015	19761
889.139	19780
889.263	19655
889.387	19803
889.511	20012
889.635	19833
889.759	19719
889.883	19643
890.006	19727
890.13	19723
890.254	19677
890.377	19769
890.501	19476
890.624	19441
890.748	19567
890.871	19422
890.995	19297
891.118	19225
891.241	19400
891.364	19419
891.488	19350
891.611	19369
891.734	19422
891.857	19346
891.98	19316
892.103	19384
892.226	19441
892.349	19396
892.471	19114
892.594	19190
892.717	19232
892.839	19194
892.962	19263
893.085	19396
893.207	19278
893.33	19065
893.452	19187
893.575	19270
893.697	19301
893.819	19426
893.941	19419
894.064	19525
894.186	19255
894.308	19244
894.43	19422
894.552	19502
894.674	19362
894.796	19183
894.918	19213
895.04	19278
895.161	19403
895.283	19217
895.405	19308
895.526	19171
895.648	19331
895.769	19301
895.891	19365
896.012	19464
896.134	19301
896.255	19324
896.376	19240
896.498	19358
896.619	19362
896.74	19251
896.861	19350
896.982	19753
897.103	19814
897.224	19670
897.345	19521
897.466	19510
897.587	19559
897.708	19620
897.828	19647
897.949	19514
898.07	19320
898.19	19483
898.311	19670
898.431	19510
898.552	19658
898.672	19613
898.792	19453
898.913	19510
899.033	19327
899.153	19335
899.273	19225
899.393	19301
899.513	19202
899.633	19255
899.753	19278
899.873	19274
899.993	19331
900.113	19156
900.232	19187
900.352	19118
900.472	19118
900.591	19000
900.711	19187
900.83	18977
900.95	19152
901.069	19038
901.189	18985
901.308	18779
901.427	18604
901.546	18661
901.665	18673
901.784	18642
901.904	18475
902.023	18376
902.141	18281
902.26	18072
902.379	18159
902.498	18098
902.617	18076
902.735	18239
902.854	18174
902.973	18011
903.091	17760
903.21	17836
903.328	17897
903.446	17710
903.565	17657
903.683	17638
903.801	17547
903.919	17615
904.038	17680
904.156	17429
904.274	17463
904.392	17254
904.51	17372
904.627	17414
904.745	17444
904.863	17372
904.981	17284
905.098	17064
905.216	17083
905.334	17060
905.451	17102
905.569	17071
905.686	17056
905.803	17102
905.921	16934
906.038	17025
906.155	16869
906.272	16748
906.389	16710
906.506	16615
906.623	16637
906.74	16584
906.857	16443
906.974	16432
907.091	16649
907.208	16618
907.324	16622
907.441	16512
907.557	16386
907.674	16348
907.79	16120
907.907	16333
908.023	16344
908.139	16413
908.256	16284
908.372	16173
908.488	16162
908.604	16032
908.72	15869
908.836	16048
908.952	15888
909.068	16021
909.184	16067
909.3	16002
909.415	15991
909.531	15987
909.647	15633
909.762	15755
909.878	15679
909.993	15755
910.108	15732
910.224	15686
910.339	15751
910.454	15614
910.57	15523
910.685	15450
910.8	15686
910.915	15576
911.03	15488
911.145	15260
911.259	15321
911.374	15298
911.489	15131
911.604	15165
911.718	15047
911.833	15070
911.947	14887
912.062	14910
912.176	15017
912.291	15051
912.405	15028
912.519	15062
912.633	15272
912.748	14986
912.862	14963
912.976	14895
913.09	14743
913.204	14777
913.318	14914
913.431	14914
913.545	14861
913.659	14937
913.772	14800
913.886	14697
914	14644
914.113	14743
914.226	14777
914.34	14636
914.453	14533
914.566	14746
914.68	14549
914.793	14514
914.906	14305
915.019	14240
915.132	14233
915.245	14324
915.358	14347
915.47	14355
915.583	14256
915.696	14336
915.809	14366
915.921	14469
916.034	14336
916.146	14267
916.259	14142
916.371	14298
916.483	14286
916.595	14138
916.708	14153
916.82	14191
916.932	14142
917.044	14081
917.156	14123
917.268	13982
917.38	14081
917.491	14012
917.603	14039
917.715	14065
917.826	14081
917.938	13982
918.049	13925
918.161	13936
918.272	13970
918.384	14005
918.495	13944
918.606	13788
918.717	13700
918.828	13746
918.939	13746
919.05	13647
919.161	13685
919.272	13601
919.383	13582
919.494	13761
919.604	13932
919.715	13784
919.826	13658
919.936	13632
920.047	13830
920.157	13666
920.267	13940
920.378	13655
920.488	13681
920.598	13871
920.708	13932
920.818	13864
920.928	13890
921.038	13928
921.148	13909
921.258	13696
921.368	13525
921.477	13422
921.587	13430
921.697	13396
921.806	13487
921.916	13255
922.025	13152
922.134	13027
922.244	12985
922.353	13076
922.462	12977
922.571	12882
922.68	12795
922.789	12741
922.898	12760
923.007	12730
923.116	12757
923.224	12764
923.333	12825
923.442	12616
923.55	12589
923.659	12688
923.767	12677
923.876	12509
923.984	12544
924.092	12445
924.201	12517
924.309	12536
924.417	12471
924.525	12433
924.633	12414
924.741	13449
924.849	12258
924.956	12403
925.064	12247
925.172	12144
925.279	12114
925.387	12136
925.494	12235
925.602	12277
925.709	12228
925.816	12068
925.924	12144
926.031	12254
926.138	12171
926.245	12186
926.352	12106
926.459	12148
926.566	12194
926.673	12064
926.779	11923
926.886	12053
926.993	11824
927.099	11745
927.206	11760
927.312	11798
927.419	11802
927.525	11855
927.631	11843
927.737	11688
927.843	11589
927.95	11551
928.056	11543
928.162	11657
928.267	11672
928.373	12106
928.479	11608
928.585	11402
928.69	11585
928.796	11630
928.901	11478
929.007	11387
929.112	11532
929.218	11391
929.323	11330
929.428	11379
929.533	11459
929.638	11280
929.743	11292
929.848	11395
929.953	11410
930.058	11151
930.163	11056
930.267	11056
930.372	11216
930.477	11037
930.581	11296
930.685	11128
930.79	10927
930.894	11022
930.998	10930
931.103	11056
931.207	10691
931.311	10615
931.415	10569
931.519	10310
931.623	10341
