Data from test_V78500241_1279.txt Node
Date: Fri Mar 25 15:18:45 CST 2022
User: usil
Spectrometer: V785-0024
Trigger mode: 0
Integration Time (sec): 4.000000E-1
Scans to average: 1
Nonlinearity correction enabled: false
Boxcar width: 0
Storing dark spectrum: false
XAxis mode: Wavelengths
Number of Pixels in Spectrum: 1024
>>>>>Begin Spectral Data<<<<<
801.071	28124
801.214	28017
801.356	27831
801.499	27667
801.641	27576
801.783	27633
801.926	27591
802.068	27576
802.211	27580
802.353	27454
802.496	27310
802.638	27302
802.78	27222
802.923	27203
803.065	27233
803.208	27313
803.35	27256
803.492	27298
803.635	27416
803.777	27408
803.919	27534
804.061	27998
804.204	27492
804.346	27447
804.488	27344
804.63	27488
804.773	27264
804.915	27431
805.057	27618
805.199	27469
805.341	27561
805.483	27804
805.626	27675
805.768	27549
805.91	27682
806.052	27606
806.194	27542
806.336	27770
806.478	27675
806.62	27583
806.762	27804
806.904	27781
807.046	28021
807.188	28032
807.33	28029
807.472	28093
807.614	27941
807.756	28010
807.898	28010
808.04	27895
808.182	27873
808.324	27960
808.465	28021
808.607	28124
808.749	28249
808.891	28371
809.033	28333
809.174	28322
809.316	28249
809.458	28272
809.6	28303
809.741	28470
809.883	28268
810.025	28641
810.166	28607
810.308	28637
810.45	28531
810.591	28481
810.733	28371
810.875	28417
811.016	28192
811.158	28257
811.299	28405
811.441	28436
811.582	28489
811.724	28261
811.865	28325
812.007	28291
812.148	28272
812.29	28272
812.431	28470
812.573	28599
812.714	28774
812.855	28786
812.997	28763
813.138	28976
813.279	28980
813.421	28820
813.562	28839
813.703	28698
813.845	28550
813.986	28135
814.127	28158
814.268	28025
814.41	28169
814.551	27941
814.692	27945
814.833	28006
814.974	28002
815.115	28074
815.256	27705
815.397	27903
815.539	28013
815.68	27644
815.821	27751
815.962	27869
816.103	27724
816.244	27739
816.385	27633
816.526	27587
816.666	27439
816.807	27287
816.948	27378
817.089	27272
817.23	27218
817.371	27199
817.512	27332
817.653	27329
817.793	27294
817.934	27294
818.075	27439
818.216	27279
818.356	27157
818.497	27123
818.638	27043
818.778	26883
818.919	27055
819.06	27104
819.2	27207
819.341	27386
819.481	27237
819.622	27310
819.762	27595
819.903	27595
820.043	27545
820.184	27564
820.324	27488
820.465	27545
820.605	27427
820.746	27405
820.886	27199
821.026	27439
821.167	27427
821.307	27572
821.447	27249
821.588	27245
821.728	27005
821.868	26887
822.008	26857
822.149	26807
822.289	26823
822.429	26473
822.569	26514
822.709	26339
822.849	26366
822.99	26267
823.13	26218
823.27	26339
823.41	26119
823.55	26100
823.69	26183
823.83	26024
823.97	26012
824.11	25932
824.25	25909
824.389	25921
824.529	26100
824.669	26005
824.809	25936
824.949	26020
825.089	26039
825.228	26016
825.368	25845
825.508	25757
825.648	25906
825.787	25841
825.927	25947
826.067	25803
826.206	25814
826.346	25879
826.485	25818
826.625	25928
826.765	25921
826.904	25898
827.044	25651
827.183	25578
827.323	25594
827.462	25746
827.601	25624
827.741	25445
827.88	25559
828.02	25643
828.159	25479
828.298	25594
828.437	25567
828.577	25430
828.716	25597
828.855	25510
828.994	25236
829.134	25392
829.273	25221
829.412	25137
829.551	25244
829.69	25217
829.829	25316
829.968	25358
830.107	25384
830.246	25297
830.385	25221
830.524	25190
830.663	25065
830.802	24985
830.941	25023
831.08	24768
831.219	24924
831.357	25000
831.496	25076
831.635	24882
831.774	24878
831.913	24783
832.051	24597
832.19	24639
832.329	24525
832.467	24635
832.606	24475
832.744	24437
832.883	24525
833.022	24566
833.16	24570
833.299	24654
833.437	24661
833.576	24677
833.714	24715
833.852	24635
833.991	24654
834.129	24787
834.267	24795
834.406	24540
834.544	24608
834.682	24620
834.821	24612
834.959	24795
835.097	24589
835.235	24665
835.373	24703
835.511	24612
835.65	24604
835.788	24441
835.926	24395
836.064	24281
836.202	24216
836.34	24426
836.478	24486
836.615	24517
836.753	24410
836.891	24467
837.029	24486
837.167	24296
837.305	24388
837.443	24357
837.58	24327
837.718	24365
837.856	24388
837.993	24228
838.131	24330
838.269	24235
838.406	24079
838.544	24152
838.681	23973
838.819	24030
838.956	23828
839.094	23760
839.231	23783
839.369	23946
839.506	24068
839.643	24041
839.781	23661
839.918	23577
840.055	23809
840.193	23802
840.33	23577
840.467	23828
840.604	23802
840.742	23965
840.879	23699
841.016	23722
841.153	23566
841.29	23722
841.427	23760
841.564	23824
841.701	23684
841.838	23627
841.975	23566
842.112	23562
842.249	23497
842.385	23410
842.522	23668
842.659	23345
842.796	23627
842.933	23406
843.069	23452
843.206	23372
843.343	23520
843.479	23421
843.616	23577
843.752	23250
843.889	23273
844.025	23349
844.162	23098
844.298	23269
844.435	23277
844.571	23162
844.708	23170
844.844	23345
844.98	23330
845.117	23356
845.253	23250
845.389	23200
845.525	23185
845.661	22949
845.798	22946
845.934	22938
846.07	22869
846.206	22847
846.342	23117
846.478	22858
846.614	22839
846.75	22653
846.886	22573
847.022	22618
847.158	22637
847.294	22687
847.429	22599
847.565	22573
847.701	22820
847.837	22443
847.972	22447
848.108	22440
848.244	22436
848.379	22291
848.515	22303
848.65	22154
848.786	22234
848.921	22356
849.057	22306
849.192	22344
849.328	22322
849.463	22344
849.598	22177
849.734	22101
849.869	22158
850.004	21975
850.14	21964
850.275	21922
850.41	21918
850.545	21922
850.68	22025
850.815	22059
850.95	22040
851.085	22143
851.22	22158
851.355	22055
851.49	21907
851.625	22017
851.76	22093
851.895	22002
852.03	21835
852.165	21964
852.299	22002
852.434	22147
852.569	22051
852.703	22063
852.838	22162
852.973	22177
853.107	22112
853.242	22074
853.376	21975
853.511	21789
853.645	21770
853.78	21861
853.914	21880
854.048	21842
854.183	21835
854.317	21922
854.451	21884
854.585	21857
854.72	21736
854.854	21945
854.988	21698
855.122	21892
855.256	21797
855.39	21797
855.524	21937
855.658	21865
855.792	21861
855.926	21835
856.06	21869
856.194	21994
856.327	21800
856.461	21755
856.595	21774
856.729	21785
856.862	21838
856.996	21808
857.13	21873
857.263	21854
857.397	21918
857.53	21926
857.664	21949
857.797	21869
857.931	22048
858.064	21911
858.197	21983
858.331	21835
858.464	21789
858.597	21675
858.731	21869
858.864	21736
858.997	21781
859.13	21842
859.263	21869
859.396	21831
859.529	21819
859.662	21793
859.795	21812
859.928	21857
860.061	22059
860.194	22048
860.327	21781
860.46	21884
860.592	21926
860.725	22017
860.858	21979
860.99	21789
861.123	21888
861.256	21770
861.388	21751
861.521	22512
861.653	21911
861.786	21576
861.918	21618
862.05	21629
862.183	21690
862.315	21682
862.447	21778
862.58	21732
862.712	21542
862.844	21389
862.976	21732
863.108	21564
863.24	21911
863.372	21466
863.504	21549
863.636	21564
863.768	21538
863.9	21511
864.032	21466
864.164	21443
864.296	21534
864.428	21606
864.559	21519
864.691	21625
864.823	21648
864.954	21507
865.086	21553
865.217	21416
865.349	21363
865.48	21401
865.612	21321
865.743	21629
865.875	21431
866.006	21389
866.137	21424
866.269	21412
866.4	21393
866.531	21370
866.662	21283
866.793	21462
866.924	21428
867.055	21306
867.186	21447
867.317	21313
867.448	21340
867.579	21374
867.71	21214
867.841	21222
867.972	21317
868.103	21363
868.233	21298
868.364	21233
868.495	21256
868.625	21656
868.756	21652
868.886	21397
869.017	21591
869.147	21519
869.278	21698
869.408	21660
869.539	21507
869.669	21637
869.799	21660
869.929	21739
870.06	21728
870.19	21857
870.32	21892
870.45	21903
870.58	21945
870.71	22207
870.84	22006
870.97	21972
871.1	21998
871.23	22181
871.36	22128
871.489	22116
871.619	22147
871.749	22029
871.879	22112
872.008	22249
872.138	22219
872.267	22188
872.397	22048
872.526	22078
872.656	22002
872.785	22131
872.915	22230
873.044	22291
873.173	22268
873.303	22261
873.432	22249
873.561	22325
873.69	22238
873.819	22204
873.948	22147
874.077	22230
874.206	22086
874.335	22265
874.464	22242
874.593	22379
874.722	22485
874.851	22485
874.979	22481
875.108	22413
875.237	22398
875.365	22344
875.494	22318
875.623	22489
875.751	22428
875.88	22421
876.008	22493
876.136	22630
876.265	22869
876.393	22965
876.521	22904
876.65	22816
876.778	22854
876.906	22702
877.034	22744
877.162	22740
877.29	22801
877.418	22862
877.546	22778
877.674	22759
877.802	22790
877.93	22782
878.058	22679
878.185	22721
878.313	22748
878.441	22702
878.568	22481
878.696	22782
878.824	22801
878.951	22721
879.079	22908
879.206	23037
879.333	23044
879.461	22740
879.588	22877
879.715	22904
879.842	22930
879.97	22812
880.097	22622
880.224	22519
880.351	22660
880.478	22596
880.605	22504
880.732	22557
880.859	22782
880.986	22641
881.112	22710
881.239	22394
881.366	22344
881.493	22238
881.619	22128
881.746	22166
881.872	22246
881.999	22166
882.125	22135
882.252	22150
882.378	22017
882.505	22318
882.631	21987
882.757	21911
882.883	21991
883.01	21827
883.136	21724
883.262	21682
883.388	21694
883.514	21918
883.64	21778
883.766	21720
883.892	21705
884.018	21606
884.143	21778
884.269	21835
884.395	21507
884.52	21435
884.646	21542
884.772	21336
884.897	21351
885.023	21492
885.148	21603
885.274	21580
885.399	21534
885.524	21576
885.65	21507
885.775	21462
885.9	21348
886.025	21564
886.15	21477
886.275	21534
886.4	21462
886.525	21443
886.65	21363
886.775	21332
886.9	21553
887.025	21739
887.149	21511
887.274	21230
887.399	21256
887.523	21291
887.648	21218
887.773	21138
887.897	21237
888.021	21233
888.146	21237
888.27	21355
888.395	21260
888.519	21336
888.643	21264
888.767	21279
888.891	21268
889.015	21017
889.139	21108
889.263	21047
889.387	21165
889.511	21176
889.635	21161
889.759	20956
889.883	20948
890.006	21123
890.13	21081
890.254	20948
890.377	20944
890.501	20712
890.624	20716
890.748	20986
890.871	20651
890.995	20590
891.118	20514
891.241	20476
891.364	20670
891.488	20758
891.611	20625
891.734	20712
891.857	20613
891.98	20568
892.103	20682
892.226	20629
892.349	20560
892.471	20419
892.594	20530
892.717	20518
892.839	20526
892.962	20484
893.085	20530
893.207	20423
893.33	20476
893.452	20412
893.575	20552
893.697	20454
893.819	20560
893.941	20606
894.064	20434
894.186	20389
894.308	20332
894.43	20594
894.552	20632
894.674	20457
894.796	20400
894.918	20450
895.04	20305
895.161	20556
895.283	20564
895.405	20343
895.526	20545
895.648	20514
895.769	20476
895.891	20571
896.012	20621
896.134	20526
896.255	20461
896.376	20480
896.498	20499
896.619	20495
896.74	20381
896.861	20412
896.982	20777
897.103	20906
897.224	20792
897.345	20655
897.466	20587
897.587	20663
897.708	20845
897.828	20640
897.949	20663
898.07	20450
898.19	20632
898.311	20720
898.431	20625
898.552	20762
898.672	20796
898.792	20773
898.913	20659
899.033	20659
899.153	20461
899.273	20404
899.393	20427
899.513	20450
899.633	20438
899.753	20511
899.873	20366
899.993	20434
900.113	20419
900.232	20278
900.352	20351
900.472	20256
900.591	20077
900.711	20259
900.83	20172
900.95	20275
901.069	20278
901.189	20142
901.308	19753
901.427	19738
901.546	19811
901.665	19837
901.784	19731
901.904	19635
902.023	19578
902.141	19320
902.26	19324
902.379	19369
902.498	19346
902.617	19240
902.735	19377
902.854	19392
902.973	19259
903.091	18905
903.21	18973
903.328	18977
903.446	18806
903.565	18711
903.683	18848
903.801	18540
903.919	18654
904.038	18821
904.156	18490
904.274	18650
904.392	18464
904.51	18445
904.627	18597
904.745	18509
904.863	18639
904.981	18239
905.098	18243
905.216	18148
905.334	18380
905.451	18224
905.569	18209
905.686	18182
905.803	18133
905.921	18015
906.038	18133
906.155	18060
906.272	17901
906.389	17809
906.506	17665
906.623	17676
906.74	17775
906.857	17532
906.974	17638
907.091	17756
907.208	17843
907.324	17729
907.441	17551
907.557	17520
907.674	17429
907.79	17254
907.907	17318
908.023	17486
908.139	17467
908.256	17425
908.372	17322
908.488	17261
908.604	17143
908.72	17048
908.836	17147
908.952	17117
909.068	17216
909.184	17258
909.3	17143
909.415	17174
909.531	17113
909.647	16862
909.762	16797
909.878	16869
909.993	16938
910.108	16706
910.224	16759
910.339	16835
910.454	16729
910.57	16641
910.685	16580
910.8	16930
910.915	16706
911.03	16653
911.145	16508
911.259	16493
911.374	16489
911.489	16348
911.604	16348
911.718	16147
911.833	16158
911.947	16029
912.062	16017
912.176	16230
912.291	16257
912.405	16078
912.519	16382
912.633	16466
912.748	16188
912.862	16162
912.976	15972
913.09	15876
913.204	16006
913.318	15899
913.431	16063
913.545	16158
913.659	16048
913.772	15960
913.886	15873
914	15747
914.113	15831
914.226	15998
914.34	15937
914.453	15625
914.566	15865
914.68	15686
914.793	15614
914.906	15507
915.019	15401
915.132	15370
915.245	15408
915.358	15306
915.47	15447
915.583	15329
915.696	15416
915.809	15599
915.921	15504
916.034	15332
916.146	15249
916.259	15180
916.371	15447
916.483	15313
916.595	15188
916.708	15184
916.82	15214
916.932	15142
917.044	15199
917.156	15074
917.268	15055
917.38	15085
917.491	15005
917.603	15047
917.715	15066
917.826	15051
917.938	14982
918.049	14845
918.161	15070
918.272	15036
918.384	15036
918.495	14929
918.606	14735
918.717	14769
918.828	14826
918.939	14762
919.05	14743
919.161	14746
919.272	14636
919.383	14651
919.494	14853
919.604	15032
919.715	14762
919.826	14689
919.936	14739
920.047	14785
920.157	14807
920.267	15017
920.378	14708
920.488	14708
920.598	14929
920.708	14941
920.818	14876
920.928	14918
921.038	14857
921.148	14967
921.258	14739
921.368	14579
921.477	14526
921.587	14450
921.697	14362
921.806	14473
921.916	14336
922.025	14161
922.134	14031
922.244	14062
922.353	14126
922.462	13967
922.571	13974
922.68	13776
922.789	13818
922.898	13772
923.007	13620
923.116	13753
923.224	13757
923.333	13776
923.442	13616
923.55	13586
923.659	13677
923.767	13639
923.876	13540
923.984	13567
924.092	13468
924.201	13464
924.309	13403
924.417	13476
924.525	13411
924.633	13422
924.741	14328
924.849	13236
924.956	13388
925.064	13247
925.172	13061
925.279	13183
925.387	13244
925.494	13179
925.602	13236
925.709	13141
925.816	13027
925.924	13004
926.031	13217
926.138	13046
926.245	13141
926.352	13069
926.459	13095
926.566	13122
926.673	13031
926.779	12878
926.886	12905
926.993	12711
927.099	12806
927.206	12753
927.312	12665
927.419	12772
927.525	12715
927.631	12673
927.737	12521
927.843	12509
927.95	12460
928.056	12479
928.162	12555
928.267	12601
928.373	13183
928.479	12585
928.585	12437
928.69	12544
928.796	12483
928.901	12369
929.007	12258
929.112	12532
929.218	12372
929.323	12247
929.428	12342
929.533	12445
929.638	12133
929.743	12140
929.848	12209
929.953	12155
930.058	12087
930.163	11893
930.267	11999
930.372	12026
930.477	11908
930.581	12121
930.685	11931
930.79	11745
930.894	11824
930.998	11741
931.103	11927
931.207	11558
931.311	11554
931.415	11486
931.519	11265
931.623	11166
