Data from test_V78500241_634.txt Node
Date: Fri Mar 25 15:14:16 CST 2022
User: usil
Spectrometer: V785-0024
Trigger mode: 0
Integration Time (sec): 4.000000E-1
Scans to average: 1
Nonlinearity correction enabled: false
Boxcar width: 0
Storing dark spectrum: false
XAxis mode: Wavelengths
Number of Pixels in Spectrum: 1024
>>>>>Begin Spectral Data<<<<<
801.071	27629
801.214	27644
801.356	27427
801.499	27272
801.641	27218
801.783	27138
801.926	27207
802.068	27275
802.211	27036
802.353	27100
802.496	26933
802.638	26868
802.78	26872
802.923	26902
803.065	26708
803.208	26819
803.35	26895
803.492	26956
803.635	27024
803.777	26872
803.919	27104
804.061	27195
804.204	26979
804.346	26899
804.488	26937
804.63	27013
804.773	26940
804.915	27123
805.057	27074
805.199	27112
805.341	27146
805.483	27131
805.626	27211
805.768	26982
805.91	27104
806.052	27218
806.194	27142
806.336	27405
806.478	27230
806.62	27252
806.762	27275
806.904	27507
807.046	27660
807.188	27736
807.33	27424
807.472	27656
807.614	27523
807.756	27454
807.898	27473
808.04	27340
808.182	27393
808.324	27538
808.465	27435
808.607	27599
808.749	27785
808.891	27720
809.033	27861
809.174	27960
809.316	27812
809.458	27816
809.6	27709
809.741	27850
809.883	27964
810.025	28074
810.166	28032
810.308	28097
810.45	28135
810.591	27956
810.733	27907
810.875	27705
811.016	27717
811.158	27736
811.299	27918
811.441	28051
811.582	27918
811.724	27797
811.865	27709
812.007	27911
812.148	27876
812.29	27736
812.431	27918
812.573	28082
812.714	28044
812.855	28375
812.997	28428
813.138	28512
813.279	28451
813.421	28352
813.562	28310
813.703	28234
813.845	27949
813.986	27759
814.127	27606
814.268	27496
814.41	27473
814.551	27378
814.692	27618
814.833	27389
814.974	27416
815.115	27454
815.256	27374
815.397	27416
815.539	27264
815.68	27439
815.821	27226
815.962	27321
816.103	27317
816.244	27005
816.385	27081
816.526	27043
816.666	26979
816.807	26777
816.948	26796
817.089	26834
817.23	26868
817.371	26838
817.512	26739
817.653	26758
817.793	26944
817.934	26807
818.075	26804
818.216	26739
818.356	26606
818.497	26598
818.638	26530
818.778	26457
818.919	26629
819.06	26583
819.2	26575
819.341	26910
819.481	26731
819.622	26982
819.762	27176
819.903	26929
820.043	26891
820.184	26868
820.324	26826
820.465	26861
820.605	26834
820.746	26902
820.886	26632
821.026	26758
821.167	26842
821.307	26895
821.447	26845
821.588	26777
821.728	26590
821.868	26442
822.008	26370
822.149	26290
822.289	26301
822.429	25833
822.569	25871
822.709	26005
822.849	25860
822.99	25780
823.13	25727
823.27	25609
823.41	25521
823.55	25533
823.69	25601
823.83	25537
823.97	25609
824.11	25392
824.25	25358
824.389	25308
824.529	25582
824.669	25388
824.809	25559
824.949	25533
825.089	25422
825.228	25377
825.368	25316
825.508	25202
825.648	25308
825.787	25308
825.927	25304
826.067	25202
826.206	25350
826.346	25346
826.485	25327
826.625	25145
826.765	25415
826.904	25259
827.044	24992
827.183	25027
827.323	24901
827.462	25061
827.601	25057
827.741	24897
827.88	25008
828.02	24871
828.159	25015
828.298	25069
828.437	24981
828.577	24951
828.716	25042
828.855	24939
828.994	24703
829.134	24540
829.273	24768
829.412	24665
829.551	24566
829.69	24753
829.829	24665
829.968	24616
830.107	24840
830.246	24776
830.385	24665
830.524	24585
830.663	24589
830.802	24429
830.941	24243
831.08	24319
831.219	24342
831.357	24399
831.496	24597
831.635	24407
831.774	23992
831.913	24232
832.051	24030
832.19	24041
832.329	24235
832.467	23977
832.606	23950
832.744	23832
832.883	24053
833.022	23821
833.16	23992
833.299	23870
833.437	24026
833.576	23935
833.714	24022
833.852	24015
833.991	24034
834.129	24057
834.267	24136
834.406	24114
834.544	24098
834.682	24015
834.821	24003
834.959	24235
835.097	23927
835.235	24068
835.373	23885
835.511	24098
835.65	23901
835.788	23745
835.926	23691
836.064	23649
836.202	23752
836.34	23901
836.478	23882
836.615	23726
836.753	23904
836.891	24007
837.029	23840
837.167	23840
837.305	23798
837.443	23608
837.58	23748
837.718	23783
837.856	23630
837.993	23535
838.131	23649
838.269	23566
838.406	23649
838.544	23608
838.681	23395
838.819	23296
838.956	23178
839.094	23162
839.231	23083
839.369	23273
839.506	23471
839.643	23414
839.781	23124
839.918	23174
840.055	23132
840.193	23147
840.33	23208
840.467	23071
840.604	23075
840.742	23254
840.879	22957
841.016	23102
841.153	22987
841.29	23220
841.427	23170
841.564	23197
841.701	23056
841.838	23064
841.975	23014
842.112	22999
842.249	22942
842.385	22858
842.522	23143
842.659	22987
842.796	22812
842.933	22805
843.069	22759
843.206	22881
843.343	22816
843.479	22866
843.616	22733
843.752	22527
843.889	22611
844.025	22782
844.162	22679
844.298	22755
844.435	22584
844.571	22573
844.708	22626
844.844	22809
844.98	22683
845.117	22702
845.253	22432
845.389	22348
845.525	22523
845.661	22508
845.798	22436
845.934	22402
846.07	22360
846.206	22363
846.342	22432
846.478	22318
846.614	22059
846.75	21941
846.886	22093
847.022	22147
847.158	22093
847.294	22017
847.429	22158
847.565	22074
847.701	22265
847.837	21789
847.972	21751
848.108	21975
848.244	21934
848.379	21694
848.515	21610
848.65	21618
848.786	21679
848.921	21739
849.057	21869
849.192	21819
849.328	21724
849.463	21656
849.598	21713
849.734	21625
849.869	21549
850.004	21538
850.14	21431
850.275	21629
850.41	21424
850.545	21378
850.68	21450
850.815	21549
850.95	21298
851.085	21561
851.22	21549
851.355	21549
851.49	21424
851.625	21469
851.76	21439
851.895	21272
852.03	21268
852.165	21283
852.299	21504
852.434	21481
852.569	21367
852.703	21447
852.838	21534
852.973	21439
853.107	21629
853.242	21351
853.376	21233
853.511	21142
853.645	21279
853.78	21504
853.914	21279
854.048	21222
854.183	21268
854.317	21302
854.451	21389
854.585	21287
854.72	21226
854.854	21370
854.988	21298
855.122	21317
855.256	21131
855.39	21233
855.524	21313
855.658	21249
855.792	21291
855.926	21367
856.06	21249
856.194	21332
856.327	21272
856.461	21249
856.595	21279
856.729	21108
856.862	21416
856.996	21317
857.13	21294
857.263	21492
857.397	21412
857.53	21157
857.664	21389
857.797	21389
857.931	21180
858.064	21306
858.197	21363
858.331	21245
858.464	21249
858.597	21119
858.731	21218
858.864	21279
858.997	21195
859.13	21313
859.263	21260
859.396	21389
859.529	21188
859.662	21264
859.795	21218
859.928	21241
860.061	21382
860.194	21431
860.327	21294
860.46	21348
860.592	21203
860.725	21344
860.858	21416
860.99	21275
861.123	21211
861.256	21127
861.388	21188
861.521	22101
861.653	21131
861.786	21093
861.918	21066
862.05	21047
862.183	21146
862.315	21188
862.447	21283
862.58	21154
862.712	21043
862.844	20971
862.976	21112
863.108	21135
863.24	21469
863.372	21001
863.504	20906
863.636	20956
863.768	20986
863.9	20891
864.032	20982
864.164	20967
864.296	20967
864.428	21207
864.559	21100
864.691	21028
864.823	20891
864.954	20899
865.086	20975
865.217	20883
865.349	20796
865.48	20758
865.612	20925
865.743	20963
865.875	20918
866.006	20861
866.137	20868
866.269	20861
866.4	20857
866.531	20857
866.662	20788
866.793	20765
866.924	20743
867.055	20868
867.186	20944
867.317	20952
867.448	20636
867.579	20689
867.71	20773
867.841	20773
867.972	20777
868.103	20804
868.233	20861
868.364	20819
868.495	20880
868.625	20967
868.756	21146
868.886	20918
869.017	20971
869.147	21108
869.278	21131
869.408	21161
869.539	20986
869.669	21135
869.799	21173
869.929	21169
870.06	20979
870.19	21450
870.32	21313
870.45	21405
870.58	21428
870.71	21561
870.84	21519
870.97	21545
871.1	21397
871.23	21572
871.36	21747
871.489	21526
871.619	21603
871.749	21766
871.879	21705
872.008	21736
872.138	21637
872.267	21606
872.397	21530
872.526	21561
872.656	21515
872.785	21431
872.915	21538
873.044	21656
873.173	21667
873.303	21717
873.432	21709
873.561	21774
873.69	21724
873.819	21587
873.948	21713
874.077	21709
874.206	21564
874.335	21599
874.464	21724
874.593	21907
874.722	21816
874.851	21915
874.979	22010
875.108	21838
875.237	21831
875.365	21827
875.494	21842
875.623	21998
875.751	21816
875.88	21892
876.008	21895
876.136	22048
876.265	22242
876.393	22375
876.521	22394
876.65	22386
876.778	22215
876.906	22291
877.034	22143
877.162	22280
877.29	22143
877.418	22162
877.546	22150
877.674	22238
877.802	22314
877.93	22162
878.058	22154
878.185	22128
878.313	22200
878.441	22238
878.568	22040
878.696	22051
878.824	22268
878.951	22291
879.079	22379
879.206	22580
879.333	22462
879.461	22246
879.588	22291
879.715	22428
879.842	22360
879.97	22192
880.097	22051
880.224	21895
880.351	22135
880.478	22112
880.605	21972
880.732	22063
880.859	22196
880.986	22036
881.112	22074
881.239	22059
881.366	21854
881.493	21701
881.619	21644
881.746	21652
881.872	21557
881.999	21549
882.125	21587
882.252	21614
882.378	21538
882.505	21766
882.631	21568
882.757	21283
882.883	21447
883.01	21329
883.136	21256
883.262	21241
883.388	21188
883.514	21359
883.64	21370
883.766	21317
883.892	21005
884.018	21146
884.143	21291
884.269	21291
884.395	20975
884.52	20933
884.646	21036
884.772	20941
884.897	20956
885.023	20979
885.148	20990
885.274	21020
885.399	21074
885.524	20887
885.65	20914
885.775	21093
885.9	20830
886.025	21047
886.15	21165
886.275	20887
886.4	20838
886.525	20899
886.65	20944
886.775	20895
886.9	21070
887.025	21184
887.149	20933
887.274	20632
887.399	20739
887.523	20667
887.648	20648
887.773	20609
887.897	20811
888.021	20648
888.146	20712
888.27	20842
888.395	20899
888.519	20891
888.643	20629
888.767	20849
888.891	20686
889.015	20480
889.139	20682
889.263	20602
889.387	20678
889.511	20727
889.635	20514
889.759	20552
889.883	20507
890.006	20609
890.13	20602
890.254	20355
890.377	20454
890.501	20244
890.624	20176
890.748	20313
890.871	20172
890.995	20142
891.118	20088
891.241	20046
891.364	20107
891.488	20199
891.611	20142
891.734	20119
891.857	20202
891.98	20107
892.103	20149
892.226	20088
892.349	20122
892.471	19921
892.594	20016
892.717	20062
892.839	19917
892.962	19890
893.085	20069
893.207	20020
893.33	19917
893.452	19894
893.575	20096
893.697	19940
893.819	20176
893.941	20233
894.064	20168
894.186	20081
894.308	19887
894.43	20062
894.552	20134
894.674	20092
894.796	19917
894.918	19947
895.04	20031
895.161	20058
895.283	20103
895.405	19955
895.526	19989
895.648	19917
895.769	20035
895.891	19974
896.012	20058
896.134	20122
896.255	20027
896.376	20031
896.498	20031
896.619	20001
896.74	20035
896.861	19993
896.982	20355
897.103	20480
897.224	20229
897.345	20206
897.466	20062
897.587	20252
897.708	20286
897.828	20233
897.949	20172
898.07	19959
898.19	20225
898.311	20347
898.431	20157
898.552	20336
898.672	20347
898.792	20332
898.913	20259
899.033	20084
899.153	20115
899.273	19902
899.393	19860
899.513	19978
899.633	19974
899.753	19921
899.873	20046
899.993	19940
900.113	19947
900.232	20031
900.352	19947
900.472	19791
900.591	19674
900.711	19917
900.83	19719
900.95	19818
901.069	19852
901.189	19772
901.308	19324
901.427	19289
901.546	19274
901.665	19373
901.784	19403
901.904	19255
902.023	19183
902.141	18825
902.26	18920
902.379	19015
902.498	18886
902.617	18833
902.735	18916
902.854	18829
902.973	18772
903.091	18578
903.21	18631
903.328	18494
903.446	18429
903.565	18395
903.683	18403
903.801	18163
903.919	18266
904.038	18247
904.156	18144
904.274	18091
904.392	18041
904.51	18129
904.627	18114
904.745	18155
904.863	18171
904.981	17901
905.098	17687
905.216	17809
905.334	17802
905.451	17745
905.569	17752
905.686	17927
905.803	17809
905.921	17627
906.038	17638
906.155	17604
906.272	17570
906.389	17452
906.506	17387
906.623	17334
906.74	17353
906.857	17147
906.974	17261
907.091	17311
907.208	17455
907.324	17341
907.441	17178
907.557	16957
907.674	17010
907.79	17018
907.907	17010
908.023	17094
908.139	17037
908.256	17018
908.372	16987
908.488	16896
908.604	16702
908.72	16729
908.836	16691
908.952	16793
909.068	16691
909.184	16885
909.3	16721
909.415	16660
909.531	16744
909.647	16508
909.762	16516
909.878	16428
909.993	16561
910.108	16409
910.224	16402
910.339	16512
910.454	16341
910.57	16204
910.685	16177
910.8	16462
910.915	16443
911.03	16306
911.145	16063
911.259	16120
911.374	16128
911.489	15987
911.604	16021
911.718	15861
911.833	15816
911.947	15644
912.062	15690
912.176	15819
912.291	15819
912.405	15755
912.519	15934
912.633	16021
912.748	15816
912.862	15861
912.976	15595
913.09	15557
913.204	15622
913.318	15637
913.431	15694
913.545	15599
913.659	15675
913.772	15534
913.886	15469
914	15454
914.113	15553
914.226	15450
914.34	15378
914.453	15321
914.566	15504
914.68	15245
914.793	15336
914.906	15157
915.019	15062
915.132	14933
915.245	14956
915.358	15055
915.47	15070
915.583	15116
915.696	15093
915.809	15180
915.921	15077
916.034	14918
916.146	14971
916.259	14899
916.371	15070
916.483	14937
916.595	14952
916.708	14838
916.82	14864
916.932	14796
917.044	14815
917.156	14792
917.268	14678
917.38	14762
917.491	14636
917.603	14724
917.715	14765
917.826	14754
917.938	14613
918.049	14473
918.161	14575
918.272	14815
918.384	14739
918.495	14655
918.606	14492
918.717	14400
918.828	14530
918.939	14461
919.05	14438
919.161	14446
919.272	14248
919.383	14366
919.494	14556
919.604	14560
919.715	14492
919.826	14332
919.936	14442
920.047	14461
920.157	14427
920.267	14651
920.378	14442
920.488	14305
920.598	14457
920.708	14735
920.818	14499
920.928	14564
921.038	14811
921.148	14610
921.258	14305
921.368	14267
921.477	14199
921.587	14084
921.697	13967
921.806	14195
921.916	14058
922.025	13818
922.134	13860
922.244	13689
922.353	13811
922.462	13696
922.571	13502
922.68	13476
922.789	13445
922.898	13441
923.007	13426
923.116	13415
923.224	13362
923.333	13407
923.442	13324
923.55	13301
923.659	13255
923.767	13381
923.876	13225
923.984	13255
924.092	13259
924.201	13206
924.309	13175
924.417	13198
924.525	13046
924.633	13107
924.741	13849
924.849	12894
924.956	13015
925.064	12886
925.172	12734
925.279	12951
925.387	12882
925.494	12852
925.602	13038
925.709	12916
925.816	12738
925.924	12791
926.031	12897
926.138	12741
926.245	12757
926.352	12745
926.459	12856
926.566	12810
926.673	12631
926.779	12612
926.886	12623
926.993	12467
927.099	12456
927.206	12395
927.312	12418
927.419	12498
927.525	12388
927.631	12410
927.737	12410
927.843	12285
927.95	12194
928.056	12247
928.162	12186
928.267	12266
928.373	12882
928.479	12369
928.585	12083
928.69	12140
928.796	12152
928.901	12106
929.007	11935
929.112	12083
929.218	12129
929.323	11977
929.428	11965
929.533	12144
929.638	11973
929.743	11866
929.848	11988
929.953	11912
930.058	11851
930.163	11691
930.267	11760
930.372	11794
930.477	11611
930.581	11893
930.685	11733
930.79	11600
930.894	11589
930.998	11497
931.103	11672
931.207	11258
931.311	11239
931.415	11162
931.519	10942
931.623	11018
