Data from test_V78500241_48.txt Node
Date: Fri Mar 25 15:10:11 CST 2022
User: usil
Spectrometer: V785-0024
Trigger mode: 0
Integration Time (sec): 4.000000E-1
Scans to average: 1
Nonlinearity correction enabled: false
Boxcar width: 0
Storing dark spectrum: false
XAxis mode: Wavelengths
Number of Pixels in Spectrum: 1024
>>>>>Begin Spectral Data<<<<<
801.071	28816
801.214	28744
801.356	28443
801.499	28440
801.641	28230
801.783	28249
801.926	28257
802.068	28173
802.211	28150
802.353	28059
802.496	28029
802.638	27949
802.78	27884
802.923	27842
803.065	27728
803.208	27720
803.35	27838
803.492	27899
803.635	27994
803.777	27930
803.919	28044
804.061	28299
804.204	27968
804.346	27789
804.488	27873
804.63	27808
804.773	27804
804.915	27899
805.057	28010
805.199	27747
805.341	28021
805.483	28029
805.626	28116
805.768	27949
805.91	28040
806.052	27972
806.194	27785
806.336	27991
806.478	28082
806.62	27960
806.762	28143
806.904	28215
807.046	28493
807.188	28500
807.33	28303
807.472	28272
807.614	28291
807.756	28268
807.898	28325
808.04	28181
808.182	28120
808.324	28226
808.465	28207
808.607	28352
808.749	28390
808.891	28580
809.033	28710
809.174	28527
809.316	28363
809.458	28531
809.6	28417
809.741	28531
809.883	28443
810.025	28656
810.166	28729
810.308	28630
810.45	28508
810.591	28599
810.733	28470
810.875	28428
811.016	28322
811.158	28306
811.299	28379
811.441	28489
811.582	28462
811.724	28371
811.865	28371
812.007	28322
812.148	28481
812.29	28394
812.431	28512
812.573	28702
812.714	28767
812.855	28790
812.997	28995
813.138	29052
813.279	28927
813.421	28866
813.562	28797
813.703	28835
813.845	28573
813.986	28325
814.127	28139
814.268	28025
814.41	28070
814.551	27937
814.692	28147
814.833	27991
814.974	27888
815.115	28002
815.256	27762
815.397	27781
815.539	27842
815.68	27819
815.821	27603
815.962	27656
816.103	27682
816.244	27648
816.385	27351
816.526	27481
816.666	27176
816.807	27096
816.948	27150
817.089	27268
817.23	27237
817.371	27138
817.512	27058
817.653	27272
817.793	27039
817.934	27157
818.075	27100
818.216	27150
818.356	27036
818.497	26956
818.638	26735
818.778	26693
818.919	26887
819.06	26727
819.2	26842
819.341	27066
819.481	26982
819.622	27055
819.762	27306
819.903	27245
820.043	27192
820.184	27028
820.324	27051
820.465	27157
820.605	26998
820.746	26963
820.886	27020
821.026	27085
821.167	26982
821.307	27013
821.447	27077
821.588	26777
821.728	26868
821.868	26686
822.008	26518
822.149	26473
822.289	26351
822.429	26157
822.569	26153
822.709	26161
822.849	25909
822.99	25993
823.13	25963
823.27	25856
823.41	25788
823.55	25674
823.69	25757
823.83	25719
823.97	25712
824.11	25597
824.25	25415
824.389	25499
824.529	25460
824.669	25540
824.809	25544
824.949	25483
825.089	25613
825.228	25441
825.368	25460
825.508	25312
825.648	25373
825.787	25324
825.927	25282
826.067	25293
826.206	25213
826.346	25274
826.485	25327
826.625	25255
826.765	25362
826.904	25297
827.044	24958
827.183	24814
827.323	24867
827.462	24901
827.601	24951
827.741	24875
827.88	24985
828.02	24825
828.159	24867
828.298	24882
828.437	24901
828.577	24795
828.716	24989
828.855	24745
828.994	24601
829.134	24646
829.273	24684
829.412	24578
829.551	24566
829.69	24646
829.829	24642
829.968	24574
830.107	24677
830.246	24536
830.385	24441
830.524	24372
830.663	24369
830.802	24365
830.941	24095
831.08	24129
831.219	24224
831.357	24251
831.496	24330
831.635	24152
831.774	23942
831.913	23980
832.051	23878
832.19	23821
832.329	23931
832.467	23733
832.606	23592
832.744	23649
832.883	23699
833.022	23817
833.16	23653
833.299	23760
833.437	23661
833.576	23790
833.714	23680
833.852	23843
833.991	23809
834.129	23729
834.267	23752
834.406	23779
834.544	23798
834.682	23813
834.821	23642
834.959	23958
835.097	23684
835.235	23885
835.373	23790
835.511	23805
835.65	23665
835.788	23531
835.926	23474
836.064	23337
836.202	23482
836.34	23528
836.478	23577
836.615	23528
836.753	23684
836.891	23646
837.029	23790
837.167	23493
837.305	23467
837.443	23395
837.58	23398
837.718	23608
837.856	23448
837.993	23364
838.131	23433
838.269	23216
838.406	23242
838.544	23273
838.681	23151
838.819	23022
838.956	22957
839.094	22862
839.231	23006
839.369	23067
839.506	23124
839.643	23083
839.781	22847
839.918	22664
840.055	22778
840.193	22809
840.33	22599
840.467	22740
840.604	22733
840.742	23090
840.879	22603
841.016	22580
841.153	22561
841.29	22919
841.427	22736
841.564	22656
841.701	22679
841.838	22493
841.975	22550
842.112	22717
842.249	22386
842.385	22367
842.522	22580
842.659	22382
842.796	22329
842.933	22440
843.069	22356
843.206	22299
843.343	22424
843.479	22367
843.616	22398
843.752	22162
843.889	22196
844.025	22299
844.162	22044
844.298	22306
844.435	22078
844.571	22097
844.708	22238
844.844	22192
844.98	22120
845.117	22272
845.253	21949
845.389	22101
845.525	22051
845.661	22059
845.798	21804
845.934	21838
846.07	21797
846.206	21819
846.342	21998
846.478	21831
846.614	21614
846.75	21511
846.886	21564
847.022	21580
847.158	21690
847.294	21507
847.429	21641
847.565	21553
847.701	21648
847.837	21199
847.972	21275
848.108	21355
848.244	21291
848.379	21135
848.515	21199
848.65	21066
848.786	21100
848.921	21123
849.057	21203
849.192	21188
849.328	21119
849.463	21062
849.598	21089
849.734	21024
849.869	20994
850.004	20891
850.14	20963
850.275	20788
850.41	20811
850.545	20815
850.68	20815
850.815	20823
850.95	20864
851.085	21096
851.22	20845
851.355	20762
851.49	20735
851.625	20762
851.76	20785
851.895	20670
852.03	20518
852.165	20815
852.299	20857
852.434	20872
852.569	20910
852.703	20796
852.838	20872
852.973	20956
853.107	20990
853.242	20720
853.376	20731
853.511	20583
853.645	20651
853.78	20800
853.914	20609
854.048	20545
854.183	20583
854.317	20708
854.451	20952
854.585	20568
854.72	20621
854.854	20746
854.988	20590
855.122	20609
855.256	20564
855.39	20579
855.524	20746
855.658	20575
855.792	20609
855.926	20735
856.06	20632
856.194	20674
856.327	20708
856.461	20568
856.595	20621
856.729	20594
856.862	20651
856.996	20629
857.13	20697
857.263	20689
857.397	20762
857.53	20560
857.664	20705
857.797	20663
857.931	20823
858.064	20686
858.197	20689
858.331	20545
858.464	20549
858.597	20484
858.731	20503
858.864	20537
858.997	20579
859.13	20617
859.263	20629
859.396	20765
859.529	20571
859.662	20613
859.795	20469
859.928	20606
860.061	20762
860.194	20724
860.327	20533
860.46	20503
860.592	20750
860.725	20796
860.858	20697
860.99	20511
861.123	20465
861.256	20492
861.388	20488
861.521	21005
861.653	20469
861.786	20431
861.918	20537
862.05	20431
862.183	20583
862.315	20701
862.447	20651
862.58	20655
862.712	20358
862.844	20320
862.976	20454
863.108	20377
863.24	20746
863.372	20210
863.504	20275
863.636	20271
863.768	20396
863.9	20229
864.032	20164
864.164	20225
864.296	20275
864.428	20206
864.559	20180
864.691	20282
864.823	20233
864.954	20218
865.086	20202
865.217	20172
865.349	20092
865.48	20111
865.612	20176
865.743	20096
865.875	20248
866.006	20111
866.137	20256
866.269	20187
866.4	20202
866.531	20126
866.662	20005
866.793	20062
866.924	20024
867.055	20096
867.186	19925
867.317	19978
867.448	20020
867.579	20187
867.71	20027
867.841	19925
867.972	20191
868.103	19951
868.233	20111
868.364	20088
868.495	20149
868.625	20313
868.756	20355
868.886	20218
869.017	20282
869.147	20347
869.278	20503
869.408	20282
869.539	20298
869.669	20343
869.799	20469
869.929	20400
870.06	20484
870.19	20636
870.32	20590
870.45	20720
870.58	20689
870.71	20823
870.84	20811
870.97	20720
871.1	20804
871.23	20864
871.36	20902
871.489	20838
871.619	20785
871.749	20952
871.879	21051
872.008	21062
872.138	21017
872.267	20933
872.397	20857
872.526	20682
872.656	20750
872.785	20769
872.915	20868
873.044	21009
873.173	20861
873.303	21062
873.432	20826
873.561	20982
873.69	20948
873.819	20963
873.948	20960
874.077	20979
874.206	20899
874.335	20914
874.464	21093
874.593	21245
874.722	21112
874.851	21180
874.979	21275
875.108	21222
875.237	21154
875.365	21066
875.494	21131
875.623	21268
875.751	21119
875.88	21169
876.008	21275
876.136	21344
876.265	21507
876.393	21739
876.521	21701
876.65	21660
876.778	21534
876.906	21500
877.034	21622
877.162	21564
877.29	21389
877.418	21500
877.546	21500
877.674	21469
877.802	21500
877.93	21580
878.058	21431
878.185	21408
878.313	21538
878.441	21447
878.568	21317
878.696	21351
878.824	21496
878.951	21545
879.079	21713
879.206	21846
879.333	21701
879.461	21511
879.588	21660
879.715	21603
879.842	21785
879.97	21667
880.097	21298
880.224	21310
880.351	21374
880.478	21386
880.605	21249
880.732	21367
880.859	21534
880.986	21313
881.112	21386
881.239	21192
881.366	21089
881.493	21108
881.619	20979
881.746	21028
881.872	20887
881.999	20792
882.125	20765
882.252	20906
882.378	20853
882.505	21093
882.631	20853
882.757	20743
882.883	20701
883.01	20667
883.136	20712
883.262	20514
883.388	20446
883.514	20735
883.64	20689
883.766	20632
883.892	20537
884.018	20492
884.143	20746
884.269	20667
884.395	20339
884.52	20339
884.646	20457
884.772	20267
884.897	20195
885.023	20343
885.148	20427
885.274	20514
885.399	20385
885.524	20237
885.65	20275
885.775	20286
885.9	20339
886.025	20556
886.15	20385
886.275	20199
886.4	20164
886.525	20309
886.65	20172
886.775	20282
886.9	20415
887.025	20511
887.149	20267
887.274	20031
887.399	20054
887.523	19993
887.648	20043
887.773	19879
887.897	20020
888.021	19947
888.146	19917
888.27	20111
888.395	20077
888.519	20069
888.643	20073
888.767	20065
888.891	19967
889.015	19852
889.139	19951
889.263	19845
889.387	19917
889.511	20126
889.635	19860
889.759	19807
889.883	19731
890.006	19803
890.13	19986
890.254	19746
890.377	19818
890.501	19655
890.624	19578
890.748	19704
890.871	19487
890.995	19312
891.118	19403
891.241	19434
891.364	19426
891.488	19533
891.611	19426
891.734	19457
891.857	19559
891.98	19426
892.103	19502
892.226	19464
892.349	19316
892.471	19304
892.594	19289
892.717	19392
892.839	19483
892.962	19346
893.085	19358
893.207	19381
893.33	19304
893.452	19236
893.575	19270
893.697	19483
893.819	19460
893.941	19537
894.064	19540
894.186	19308
894.308	19183
894.43	19381
894.552	19556
894.674	19373
894.796	19274
894.918	19335
895.04	19339
895.161	19407
895.283	19388
895.405	19217
895.526	19278
895.648	19434
895.769	19434
895.891	19365
896.012	19487
896.134	19483
896.255	19369
896.376	19247
896.498	19445
896.619	19533
896.74	19400
896.861	19384
896.982	19761
897.103	19909
897.224	19772
897.345	19643
897.466	19590
897.587	19715
897.708	19830
897.828	19712
897.949	19434
898.07	19575
898.19	19518
898.311	19723
898.431	19548
898.552	19575
898.672	19613
898.792	19647
898.913	19529
899.033	19468
899.153	19411
899.273	19236
899.393	19324
899.513	19255
899.633	19327
899.753	19327
899.873	19202
899.993	19316
900.113	19266
900.232	19316
900.352	19202
900.472	19141
900.591	18947
900.711	19072
900.83	19053
900.95	19274
901.069	19126
901.189	19012
901.308	18867
901.427	18673
901.546	18654
901.665	18715
901.784	18650
901.904	18585
902.023	18540
902.141	18277
902.26	18197
902.379	18361
902.498	18167
902.617	18186
902.735	18114
902.854	18110
902.973	18125
903.091	17882
903.21	17920
903.328	17893
903.446	17805
903.565	17729
903.683	17684
903.801	17672
903.919	17672
904.038	17665
904.156	17543
904.274	17642
904.392	17532
904.51	17482
904.627	17535
904.745	17535
904.863	17379
904.981	17227
905.098	17151
905.216	17102
905.334	17147
905.451	17162
905.569	16968
905.686	17223
905.803	17178
905.921	16843
906.038	17003
906.155	16904
906.272	16733
906.389	16786
906.506	16634
906.623	16691
906.74	16607
906.857	16413
906.974	16584
907.091	16755
907.208	16831
907.324	16702
907.441	16478
907.557	16436
907.674	16390
907.79	16363
907.907	16356
908.023	16466
908.139	16367
908.256	16318
908.372	16162
908.488	16272
908.604	16120
908.72	16010
908.836	16013
908.952	16017
909.068	16006
909.184	16071
909.3	15975
909.415	16063
909.531	15964
909.647	15831
909.762	15701
909.878	15720
909.993	15816
910.108	15720
910.224	15698
910.339	15698
910.454	15526
910.57	15466
910.685	15595
910.8	15762
910.915	15751
911.03	15462
911.145	15382
911.259	15447
911.374	15283
911.489	15245
911.604	15207
911.718	15093
911.833	15180
911.947	14910
912.062	14952
912.176	15020
912.291	15104
912.405	14971
912.519	15157
912.633	15195
912.748	15188
912.862	14998
912.976	14861
913.09	14811
913.204	14842
913.318	14967
913.431	14967
913.545	14963
913.659	14948
913.772	14849
913.886	14746
914	14724
914.113	14819
914.226	14876
914.34	14792
914.453	14640
914.566	14727
914.68	14568
914.793	14678
914.906	14419
915.019	14381
915.132	14347
915.245	14389
915.358	14358
915.47	14434
915.583	14347
915.696	14370
915.809	14434
915.921	14545
916.034	14313
916.146	14214
916.259	14252
916.371	14320
916.483	14278
916.595	14225
916.708	14126
916.82	14225
916.932	14199
917.044	14145
917.156	14119
917.268	14008
917.38	14012
917.491	13959
917.603	14077
917.715	14107
917.826	14142
917.938	13925
918.049	13917
918.161	13955
918.272	14077
918.384	14084
918.495	13799
918.606	13818
918.717	13715
918.828	13757
918.939	13803
919.05	13685
919.161	13708
919.272	13597
919.383	13533
919.494	13833
919.604	14024
919.715	13772
919.826	13704
919.936	13613
920.047	13799
920.157	13742
920.267	13963
920.378	13765
920.488	13651
920.598	13830
920.708	14081
920.818	13807
920.928	13864
921.038	14046
921.148	13970
921.258	13636
921.368	13616
921.477	13552
921.587	13441
921.697	13369
921.806	13518
921.916	13381
922.025	13187
922.134	13061
922.244	13031
922.353	13084
922.462	12977
922.571	12935
922.68	12696
922.789	12741
922.898	12757
923.007	12779
923.116	12783
923.224	12745
923.333	12719
923.442	12658
923.55	12532
923.659	12559
923.767	12623
923.876	12570
923.984	12532
924.092	12437
924.201	12521
924.309	12456
924.417	12467
924.525	12517
924.633	12509
924.741	13187
924.849	12205
924.956	12380
925.064	12251
925.172	12159
925.279	12254
925.387	12319
925.494	12235
925.602	12319
925.709	12213
925.816	12175
925.924	12140
926.031	12319
926.138	12205
926.245	12194
926.352	12057
926.459	12182
926.566	12228
926.673	12125
926.779	12045
926.886	11980
926.993	11882
927.099	11832
927.206	11741
927.312	11691
927.419	11851
927.525	11737
927.631	11794
927.737	11699
927.843	11558
927.95	11558
928.056	11551
928.162	11691
928.267	11733
928.373	12232
928.479	11703
928.585	11486
928.69	11577
928.796	11600
928.901	11497
929.007	11322
929.112	11505
929.218	11463
929.323	11349
929.428	11349
929.533	11497
929.638	11372
929.743	11341
929.848	11360
929.953	11280
930.058	11246
930.163	11079
930.267	11090
930.372	11212
930.477	11033
930.581	11242
930.685	11086
930.79	10999
930.894	10961
930.998	10900
931.103	11006
931.207	10744
931.311	10653
931.415	10554
931.519	10322
931.623	10379
