Data from test_V78500241_199.txt Node
Date: Fri Mar 25 15:11:14 CST 2022
User: usil
Spectrometer: V785-0024
Trigger mode: 0
Integration Time (sec): 4.000000E-1
Scans to average: 1
Nonlinearity correction enabled: false
Boxcar width: 0
Storing dark spectrum: false
XAxis mode: Wavelengths
Number of Pixels in Spectrum: 1024
>>>>>Begin Spectral Data<<<<<
801.071	28025
801.214	27968
801.356	27667
801.499	27675
801.641	27568
801.783	27561
801.926	27637
802.068	27545
802.211	27401
802.353	27329
802.496	27173
802.638	27085
802.78	27127
802.923	27104
803.065	27009
803.208	27116
803.35	27146
803.492	27173
803.635	27291
803.777	27176
803.919	27336
804.061	27580
804.204	27302
804.346	27188
804.488	27180
804.63	27089
804.773	27135
804.915	27222
805.057	27439
805.199	27211
805.341	27249
805.483	27359
805.626	27272
805.768	27287
805.91	27287
806.052	27348
806.194	27291
806.336	27378
806.478	27283
806.62	27317
806.762	27401
806.904	27488
807.046	27785
807.188	27618
807.33	27690
807.472	27835
807.614	27580
807.756	27686
807.898	27557
808.04	27397
808.182	27424
808.324	27538
808.465	27507
808.607	27705
808.749	27819
808.891	28116
809.033	28051
809.174	27857
809.316	27899
809.458	27945
809.6	27778
809.741	27956
809.883	27922
810.025	28105
810.166	28143
810.308	28188
810.45	27941
810.591	27991
810.733	27846
810.875	27846
811.016	27686
811.158	27739
811.299	27827
811.441	28059
811.582	27953
811.724	27679
811.865	27739
812.007	27739
812.148	27739
812.29	27808
812.431	27880
812.573	28158
812.714	28105
812.855	28265
812.997	28413
813.138	28588
813.279	28512
813.421	28375
813.562	28268
813.703	28226
813.845	28059
813.986	27736
814.127	27523
814.268	27526
814.41	27450
814.551	27466
814.692	27378
814.833	27389
814.974	27466
815.115	27576
815.256	27310
815.397	27226
815.539	27348
815.68	27211
815.821	27127
815.962	27252
816.103	27184
816.244	27051
816.385	27036
816.526	26853
816.666	26689
816.807	26613
816.948	26735
817.089	26937
817.23	26678
817.371	26632
817.512	26590
817.653	26552
817.793	26629
817.934	26655
818.075	26549
818.216	26705
818.356	26442
818.497	26549
818.638	26290
818.778	26256
818.919	26370
819.06	26370
819.2	26351
819.341	26473
819.481	26393
819.622	26686
819.762	26967
819.903	26876
820.043	26754
820.184	26754
820.324	26533
820.465	26632
820.605	26686
820.746	26583
820.886	26457
821.026	26594
821.167	26617
821.307	26727
821.447	26522
821.588	26423
821.728	26423
821.868	26229
822.008	26008
822.149	25978
822.289	25944
822.429	25795
822.569	25651
822.709	25586
822.849	25487
822.99	25419
823.13	25320
823.27	25434
823.41	25152
823.55	25187
823.69	25381
823.83	25358
823.97	25320
824.11	25091
824.25	25065
824.389	25034
824.529	25187
824.669	25110
824.809	25126
824.949	25320
825.089	25297
825.228	25019
825.368	25000
825.508	24977
825.648	24954
825.787	24932
825.927	24943
826.067	24859
826.206	24966
826.346	24924
826.485	24954
826.625	25038
826.765	24894
826.904	25000
827.044	24601
827.183	24574
827.323	24528
827.462	24779
827.601	24635
827.741	24639
827.88	24604
828.02	24490
828.159	24757
828.298	24597
828.437	24669
828.577	24570
828.716	24570
828.855	24513
828.994	24338
829.134	24350
829.273	24395
829.412	24308
829.551	24133
829.69	24247
829.829	24178
829.968	24418
830.107	24285
830.246	24323
830.385	24194
830.524	24152
830.663	24087
830.802	24022
830.941	23942
831.08	23855
831.219	23965
831.357	24018
831.496	23973
831.635	23684
831.774	23737
831.913	23710
832.051	23668
832.19	23573
832.329	23741
832.467	23634
832.606	23501
832.744	23349
832.883	23482
833.022	23562
833.16	23528
833.299	23665
833.437	23497
833.576	23539
833.714	23531
833.852	23710
833.991	23649
834.129	23699
834.267	23634
834.406	23482
834.544	23615
834.682	23596
834.821	23478
834.959	23707
835.097	23402
835.235	23573
835.373	23592
835.511	23398
835.65	23478
835.788	23364
835.926	23254
836.064	23136
836.202	23265
836.34	23398
836.478	23433
836.615	23269
836.753	23406
836.891	23524
837.029	23455
837.167	23284
837.305	23337
837.443	23223
837.58	23083
837.718	23151
837.856	23170
837.993	23162
838.131	23151
838.269	23090
838.406	23033
838.544	22892
838.681	22759
838.819	22854
838.956	22626
839.094	22645
839.231	22683
839.369	22850
839.506	23044
839.643	22835
839.781	22702
839.918	22542
840.055	22584
840.193	22656
840.33	22641
840.467	22535
840.604	22733
840.742	22812
840.879	22523
841.016	22497
841.153	22382
841.29	22637
841.427	22538
841.564	22645
841.701	22535
841.838	22424
841.975	22436
842.112	22504
842.249	22352
842.385	22329
842.522	22569
842.659	22265
842.796	22253
842.933	22249
843.069	22200
843.206	22177
843.343	22272
843.479	22386
843.616	22352
843.752	22044
843.889	22120
844.025	22246
844.162	21956
844.298	22128
844.435	22101
844.571	22029
844.708	21998
844.844	22139
844.98	22272
845.117	22093
845.253	22010
845.389	22013
845.525	22017
845.661	21827
845.798	21793
845.934	21804
846.07	21762
846.206	21793
846.342	21953
846.478	21781
846.614	21538
846.75	21500
846.886	21370
847.022	21553
847.158	21481
847.294	21504
847.429	21485
847.565	21545
847.701	21633
847.837	21340
847.972	21249
848.108	21340
848.244	21389
848.379	21131
848.515	21112
848.65	21146
848.786	21047
848.921	21173
849.057	21207
849.192	21146
849.328	21199
849.463	21119
849.598	20925
849.734	21055
849.869	20998
850.004	20899
850.14	20921
850.275	20811
850.41	20724
850.545	20815
850.68	20773
850.815	20758
850.95	20842
851.085	20872
851.22	20845
851.355	20906
851.49	20800
851.625	20750
851.76	20872
851.895	20697
852.03	20678
852.165	20807
852.299	20826
852.434	20906
852.569	20845
852.703	20769
852.838	20819
852.973	20887
853.107	20910
853.242	20804
853.376	20609
853.511	20427
853.645	20636
853.78	20667
853.914	20606
854.048	20644
854.183	20598
854.317	20648
854.451	20880
854.585	20663
854.72	20533
854.854	20632
854.988	20556
855.122	20621
855.256	20522
855.39	20705
855.524	20629
855.658	20667
855.792	20530
855.926	20689
856.06	20678
856.194	20682
856.327	20609
856.461	20598
856.595	20617
856.729	20625
856.862	20613
856.996	20659
857.13	20739
857.263	20682
857.397	20689
857.53	20495
857.664	20701
857.797	20667
857.931	20781
858.064	20632
858.197	20621
858.331	20587
858.464	20488
858.597	20454
858.731	20518
858.864	20526
858.997	20454
859.13	20587
859.263	20526
859.396	20655
859.529	20564
859.662	20537
859.795	20609
859.928	20579
860.061	20716
860.194	20765
860.327	20644
860.46	20533
860.592	20735
860.725	20689
860.858	20781
860.99	20640
861.123	20575
861.256	20431
861.388	20514
861.521	21416
861.653	20457
861.786	20393
861.918	20442
862.05	20495
862.183	20492
862.315	20499
862.447	20556
862.58	20556
862.712	20278
862.844	20355
862.976	20317
863.108	20328
863.24	20762
863.372	20248
863.504	20320
863.636	20324
863.768	20290
863.9	20286
864.032	20084
864.164	20347
864.296	20210
864.428	20298
864.559	20309
864.691	20381
864.823	20309
864.954	20206
865.086	20164
865.217	20218
865.349	20054
865.48	20294
865.612	20218
865.743	20381
865.875	20149
866.006	20149
866.137	20142
866.269	20210
866.4	20168
866.531	20115
866.662	20069
866.793	20134
866.924	20069
867.055	20103
867.186	20157
867.317	20005
867.448	19970
867.579	20145
867.71	19993
867.841	20065
867.972	20073
868.103	20145
868.233	20142
868.364	20100
868.495	20237
868.625	20267
868.756	20434
868.886	20191
869.017	20362
869.147	20495
869.278	20355
869.408	20427
869.539	20385
869.669	20446
869.799	20400
869.929	20590
870.06	20492
870.19	20705
870.32	20678
870.45	20644
870.58	20754
870.71	20891
870.84	20895
870.97	20826
871.1	20785
871.23	20929
871.36	21070
871.489	20895
871.619	21005
871.749	21017
871.879	20921
872.008	21070
872.138	20990
872.267	21020
872.397	20967
872.526	20792
872.656	20857
872.785	20743
872.915	20929
873.044	21058
873.173	20960
873.303	21047
873.432	20925
873.561	21081
873.69	20902
873.819	20975
873.948	21104
874.077	21051
874.206	20918
874.335	21135
874.464	21123
874.593	21275
874.722	21203
874.851	21283
874.979	21401
875.108	21344
875.237	21203
875.365	21154
875.494	21207
875.623	21348
875.751	21142
875.88	21222
876.008	21287
876.136	21428
876.265	21686
876.393	21819
876.521	21652
876.65	21701
876.778	21549
876.906	21580
877.034	21485
877.162	21545
877.29	21416
877.418	21625
877.546	21698
877.674	21599
877.802	21568
877.93	21698
878.058	21485
878.185	21462
878.313	21599
878.441	21652
878.568	21428
878.696	21545
878.824	21583
878.951	21561
879.079	21850
879.206	21945
879.333	21812
879.461	21595
879.588	21717
879.715	21717
879.842	21804
879.97	21633
880.097	21355
880.224	21466
880.351	21412
880.478	21542
880.605	21378
880.732	21351
880.859	21580
880.986	21469
881.112	21351
881.239	21325
881.366	21226
881.493	21036
881.619	20925
881.746	20944
881.872	21089
881.999	21036
882.125	20963
882.252	20887
882.378	20963
882.505	21138
882.631	20823
882.757	20724
882.883	20800
883.01	20712
883.136	20826
883.262	20590
883.388	20568
883.514	20754
883.64	20792
883.766	20663
883.892	20526
884.018	20507
884.143	20819
884.269	20769
884.395	20476
884.52	20374
884.646	20370
884.772	20305
884.897	20385
885.023	20374
885.148	20552
885.274	20469
885.399	20549
885.524	20362
885.65	20400
885.775	20423
885.9	20336
886.025	20526
886.15	20412
886.275	20358
886.4	20278
886.525	20446
886.65	20343
886.775	20233
886.9	20473
887.025	20568
887.149	20298
887.274	20126
887.399	20122
887.523	20161
887.648	20134
887.773	20035
887.897	20050
888.021	20145
888.146	20043
888.27	20214
888.395	20317
888.519	20210
888.643	20145
888.767	20122
888.891	20077
889.015	19986
889.139	19944
889.263	19879
889.387	20043
889.511	20145
889.635	20039
889.759	19871
889.883	19902
890.006	19909
890.13	19902
890.254	19940
890.377	19898
890.501	19696
890.624	19590
890.748	19795
890.871	19563
890.995	19563
891.118	19400
891.241	19529
891.364	19586
891.488	19514
891.611	19567
891.734	19468
891.857	19616
891.98	19563
892.103	19601
892.226	19544
892.349	19529
892.471	19339
892.594	19453
892.717	19594
892.839	19396
892.962	19487
893.085	19491
893.207	19449
893.33	19343
893.452	19289
893.575	19445
893.697	19415
893.819	19571
893.941	19632
894.064	19616
894.186	19373
894.308	19350
894.43	19449
894.552	19518
894.674	19449
894.796	19369
894.918	19377
895.04	19480
895.161	19491
895.283	19449
895.405	19358
895.526	19403
895.648	19514
895.769	19468
895.891	19556
896.012	19582
896.134	19468
896.255	19491
896.376	19487
896.498	19495
896.619	19540
896.74	19483
896.861	19537
896.982	19761
897.103	19913
897.224	19849
897.345	19620
897.466	19586
897.587	19677
897.708	19864
897.828	19788
897.949	19533
898.07	19639
898.19	19544
898.311	19742
898.431	19658
898.552	19628
898.672	19693
898.792	19700
898.913	19734
899.033	19487
899.153	19559
899.273	19312
899.393	19407
899.513	19495
899.633	19445
899.753	19377
899.873	19343
899.993	19350
900.113	19270
900.232	19362
900.352	19403
900.472	19266
900.591	19114
900.711	19156
900.83	19194
900.95	19278
901.069	19419
901.189	19160
901.308	18962
901.427	18757
901.546	18806
901.665	18787
901.784	18817
901.904	18616
902.023	18589
902.141	18441
902.26	18285
902.379	18498
902.498	18273
902.617	18205
902.735	18292
902.854	18346
902.973	18190
903.091	17878
903.21	18007
903.328	17908
903.446	17897
903.565	17707
903.683	17847
903.801	17653
903.919	17775
904.038	17756
904.156	17547
904.274	17649
904.392	17596
904.51	17535
904.627	17562
904.745	17627
904.863	17615
904.981	17315
905.098	17223
905.216	17311
905.334	17292
905.451	17204
905.569	17124
905.686	17277
905.803	17246
905.921	17029
906.038	17060
906.155	16946
906.272	16949
906.389	16862
906.506	16790
906.623	16725
906.74	16812
906.857	16717
906.974	16733
907.091	16790
907.208	16869
907.324	16797
907.441	16649
907.557	16546
907.674	16500
907.79	16459
907.907	16432
908.023	16443
908.139	16565
908.256	16398
908.372	16424
908.488	16424
908.604	16242
908.72	16207
908.836	16223
908.952	16230
909.068	16147
909.184	16242
909.3	16261
909.415	16200
909.531	16223
909.647	15953
909.762	15926
909.878	15899
909.993	15911
910.108	15953
910.224	15785
910.339	15759
910.454	15812
910.57	15690
910.685	15656
910.8	15987
910.915	15857
911.03	15698
911.145	15637
911.259	15435
911.374	15526
911.489	15450
911.604	15420
911.718	15260
911.833	15214
911.947	15116
912.062	15142
912.176	15161
912.291	15226
912.405	15180
912.519	15450
912.633	15397
912.748	15165
912.862	15195
912.976	15036
913.09	14967
913.204	14979
913.318	15013
913.431	15093
913.545	15157
913.659	15154
913.772	14956
913.886	14918
914	14838
914.113	14952
914.226	14963
914.34	14868
914.453	14777
914.566	14918
914.68	14826
914.793	14701
914.906	14621
915.019	14492
915.132	14442
915.245	14476
915.358	14629
915.47	14473
915.583	14564
915.696	14465
915.809	14670
915.921	14533
916.034	14393
916.146	14366
916.259	14370
916.371	14431
916.483	14385
916.595	14313
916.708	14317
916.82	14259
916.932	14282
917.044	14290
917.156	14320
917.268	14221
917.38	14183
917.491	14084
917.603	14043
917.715	14290
917.826	14195
917.938	14096
918.049	14027
918.161	14157
918.272	14187
918.384	14225
918.495	14073
918.606	14016
918.717	13875
918.828	13959
918.939	13959
919.05	13833
919.161	13909
919.272	13719
919.383	13731
919.494	13947
919.604	14027
919.715	13887
919.826	13761
919.936	13803
920.047	13925
920.157	13860
920.267	14043
920.378	13814
920.488	13845
920.598	14027
920.708	14161
920.818	14050
920.928	14062
921.038	14202
921.148	14145
921.258	13765
921.368	13807
921.477	13605
921.587	13632
921.697	13480
921.806	13727
921.916	13525
922.025	13316
922.134	13285
922.244	13217
922.353	13285
922.462	13236
922.571	12989
922.68	12977
922.789	12909
922.898	12954
923.007	12863
923.116	12890
923.224	12848
923.333	12840
923.442	12779
923.55	12620
923.659	12703
923.767	12844
923.876	12681
923.984	12776
924.092	12665
924.201	12642
924.309	12703
924.417	12631
924.525	12604
924.633	12658
924.741	13308
924.849	12410
924.956	12578
925.064	12380
925.172	12330
925.279	12441
925.387	12471
925.494	12391
925.602	12437
925.709	12353
925.816	12251
925.924	12384
926.031	12452
926.138	12330
926.245	12342
926.352	12262
926.459	12296
926.566	12410
926.673	12232
926.779	12133
926.886	12064
926.993	11954
927.099	11942
927.206	11946
927.312	11832
927.419	11958
927.525	11920
927.631	11893
927.737	11824
927.843	11790
927.95	11604
928.056	11756
928.162	11722
928.267	11737
928.373	12334
928.479	11817
928.585	11528
928.69	11722
928.796	11699
928.901	11665
929.007	11509
929.112	11653
929.218	11676
929.323	11535
929.428	11467
929.533	11703
929.638	11425
929.743	11505
929.848	11501
929.953	11433
930.058	11429
930.163	11204
930.267	11258
930.372	11349
930.477	11094
930.581	11448
930.685	11269
930.79	11109
930.894	11151
930.998	10987
931.103	11242
931.207	10839
931.311	10831
931.415	10717
931.519	10466
931.623	10432
