Data from test_V78500241_1945.txt Node
Date: Fri Mar 25 15:23:24 CST 2022
User: usil
Spectrometer: V785-0024
Trigger mode: 0
Integration Time (sec): 4.000000E-1
Scans to average: 1
Nonlinearity correction enabled: false
Boxcar width: 0
Storing dark spectrum: false
XAxis mode: Wavelengths
Number of Pixels in Spectrum: 1024
>>>>>Begin Spectral Data<<<<<
801.071	27819
801.214	27622
801.356	27336
801.499	27378
801.641	27268
801.783	27218
801.926	27241
802.068	27329
802.211	27237
802.353	27180
802.496	26982
802.638	26887
802.78	26864
802.923	26880
803.065	26800
803.208	26895
803.35	26891
803.492	27024
803.635	26990
803.777	26925
803.919	27180
804.061	27294
804.204	27203
804.346	26998
804.488	27070
804.63	27119
804.773	27024
804.915	27119
805.057	27173
805.199	27020
805.341	27116
805.483	27245
805.626	27264
805.768	27028
805.91	27264
806.052	27154
806.194	27180
806.336	27393
806.478	27272
806.62	27165
806.762	27222
806.904	27351
807.046	27660
807.188	27606
807.33	27629
807.472	27572
807.614	27454
807.756	27648
807.898	27496
808.04	27378
808.182	27427
808.324	27477
808.465	27515
808.607	27736
808.749	27854
808.891	27861
809.033	28006
809.174	27797
809.316	27808
809.458	27854
809.6	27724
809.741	27953
809.883	27979
810.025	28063
810.166	28143
810.308	28097
810.45	28090
810.591	27998
810.733	27728
810.875	27644
811.016	27755
811.158	27724
811.299	27873
811.441	27972
811.582	27911
811.724	27842
811.865	27884
812.007	27736
812.148	27686
812.29	27808
812.431	27960
812.573	28131
812.714	28162
812.855	28390
812.997	28409
813.138	28554
813.279	28398
813.421	28291
813.562	28341
813.703	28211
813.845	28078
813.986	27774
814.127	27580
814.268	27492
814.41	27542
814.551	27393
814.692	27606
814.833	27580
814.974	27534
815.115	27511
815.256	27291
815.397	27427
815.539	27416
815.68	27119
815.821	27192
815.962	27275
816.103	27260
816.244	27180
816.385	27032
816.526	27100
816.666	26891
816.807	26724
816.948	26967
817.089	26830
817.23	26887
817.371	26902
817.512	26708
817.653	26758
817.793	26629
817.934	26796
818.075	26746
818.216	26792
818.356	26663
818.497	26750
818.638	26511
818.778	26511
818.919	26564
819.06	26693
819.2	26590
819.341	26781
819.481	26781
819.622	26925
819.762	27161
819.903	26979
820.043	26845
820.184	26861
820.324	26788
820.465	27066
820.605	26864
820.746	26792
820.886	26788
821.026	26887
821.167	26834
821.307	26899
821.447	26792
821.588	26743
821.728	26530
821.868	26469
822.008	26161
822.149	26244
822.289	26225
822.429	26065
822.569	25928
822.709	25909
822.849	25742
822.99	25780
823.13	25651
823.27	25719
823.41	25510
823.55	25548
823.69	25624
823.83	25559
823.97	25453
824.11	25403
824.25	25301
824.389	25339
824.529	25354
824.669	25225
824.809	25521
824.949	25365
825.089	25495
825.228	25479
825.368	25179
825.508	25221
825.648	25217
825.787	25396
825.927	25228
826.067	25308
826.206	25285
826.346	25297
826.485	25297
826.625	25270
826.765	25285
826.904	25255
827.044	25038
827.183	25152
827.323	24905
827.462	25156
827.601	24935
827.741	24913
827.88	25099
828.02	24867
828.159	24837
828.298	24996
828.437	25046
828.577	24825
828.716	25122
828.855	24935
828.994	24772
829.134	24722
829.273	24642
829.412	24544
829.551	24734
829.69	24757
829.829	24665
829.968	24738
830.107	24741
830.246	24715
830.385	24540
830.524	24604
830.663	24631
830.802	24456
830.941	24254
831.08	24285
831.219	24319
831.357	24410
831.496	24502
831.635	24372
831.774	24258
831.913	24251
832.051	24133
832.19	24079
832.329	24148
832.467	23977
832.606	24083
832.744	23946
832.883	23798
833.022	23984
833.16	23939
833.299	24083
833.437	24079
833.576	24011
833.714	24087
833.852	24140
833.991	24083
834.129	24194
834.267	24095
834.406	24083
834.544	23973
834.682	24079
834.821	23935
834.959	24247
835.097	23916
835.235	24091
835.373	24007
835.511	23980
835.65	23908
835.788	24011
835.926	23764
836.064	23619
836.202	23870
836.34	23828
836.478	23931
836.615	23794
836.753	23828
836.891	24083
837.029	23904
837.167	23866
837.305	23794
837.443	23661
837.58	23638
837.718	23767
837.856	23821
837.993	23729
838.131	23752
838.269	23531
838.406	23592
838.544	23421
838.681	23402
838.819	23372
838.956	23159
839.094	23223
839.231	23239
839.369	23444
839.506	23600
839.643	23512
839.781	23216
839.918	23147
840.055	23208
840.193	23220
840.33	22896
840.467	23048
840.604	23109
840.742	23360
840.879	23029
841.016	22987
841.153	23105
841.29	23296
841.427	23086
841.564	23151
841.701	23143
841.838	23037
841.975	22919
842.112	23006
842.249	22873
842.385	22828
842.522	23029
842.659	22919
842.796	22759
842.933	23010
843.069	22995
843.206	22968
843.343	22896
843.479	23037
843.616	22995
843.752	22698
843.889	22641
844.025	22729
844.162	22687
844.298	22740
844.435	22687
844.571	22580
844.708	22698
844.844	22755
844.98	22740
845.117	22877
845.253	22706
845.389	22466
845.525	22497
845.661	22474
845.798	22382
845.934	22333
846.07	22459
846.206	22344
846.342	22478
846.478	22341
846.614	22044
846.75	22131
846.886	22105
847.022	22261
847.158	22211
847.294	22097
847.429	22109
847.565	22124
847.701	22291
847.837	22013
847.972	21804
848.108	21930
848.244	21884
848.379	21915
848.515	21816
848.65	21652
848.786	21751
848.921	21713
849.057	21789
849.192	21800
849.328	21705
849.463	21762
849.598	21648
849.734	21568
849.869	21625
850.004	21538
850.14	21561
850.275	21435
850.41	21344
850.545	21428
850.68	21401
850.815	21538
850.95	21542
851.085	21618
851.22	21583
851.355	21511
851.49	21408
851.625	21386
851.76	21439
851.895	21420
852.03	21340
852.165	21500
852.299	21412
852.434	21450
852.569	21561
852.703	21507
852.838	21485
852.973	21656
853.107	21580
853.242	21435
853.376	21313
853.511	21195
853.645	21176
853.78	21370
853.914	21302
854.048	21203
854.183	21233
854.317	21272
854.451	21416
854.585	21298
854.72	21336
854.854	21332
854.988	21329
855.122	21241
855.256	21127
855.39	21348
855.524	21294
855.658	21408
855.792	21294
855.926	21233
856.06	21374
856.194	21306
856.327	21199
856.461	21108
856.595	21294
856.729	21173
856.862	21340
856.996	21321
857.13	21313
857.263	21222
857.397	21306
857.53	21146
857.664	21329
857.797	21420
857.931	21488
858.064	21363
858.197	21416
858.331	21218
858.464	21310
858.597	21161
858.731	21321
858.864	21283
858.997	21306
859.13	21351
859.263	21268
859.396	21428
859.529	21321
859.662	21275
859.795	21157
859.928	21294
860.061	21378
860.194	21454
860.327	21344
860.46	21283
860.592	21466
860.725	21481
860.858	21507
860.99	21249
861.123	21211
861.256	21157
861.388	21272
861.521	22006
861.653	21017
861.786	21051
861.918	21116
862.05	21154
862.183	21146
862.315	21306
862.447	21351
862.58	21249
862.712	20967
862.844	21017
862.976	21165
863.108	21051
863.24	21587
863.372	20910
863.504	21013
863.636	20941
863.768	21077
863.9	20971
864.032	21017
864.164	20853
864.296	20971
864.428	21051
864.559	21009
864.691	21089
864.823	20982
864.954	21074
865.086	21005
865.217	20834
865.349	20773
865.48	20902
865.612	20880
865.743	21051
865.875	20845
866.006	20826
866.137	20963
866.269	20906
866.4	20963
866.531	20838
866.662	20769
866.793	20941
866.924	20785
867.055	20819
867.186	20876
867.317	20864
867.448	20727
867.579	20731
867.71	20663
867.841	20712
867.972	20823
868.103	20845
868.233	20727
868.364	20921
868.495	20937
868.625	21036
868.756	21123
868.886	21047
869.017	21005
869.147	21195
869.278	21218
869.408	21085
869.539	21032
869.669	21123
869.799	21036
869.929	21165
870.06	21173
870.19	21439
870.32	21237
870.45	21450
870.58	21595
870.71	21557
870.84	21679
870.97	21492
871.1	21526
871.23	21641
871.36	21660
871.489	21507
871.619	21572
871.749	21660
871.879	21732
872.008	21823
872.138	21549
872.267	21705
872.397	21428
872.526	21454
872.656	21431
872.785	21511
872.915	21648
873.044	21713
873.173	21679
873.303	21698
873.432	21603
873.561	21766
873.69	21663
873.819	21633
873.948	21762
874.077	21618
874.206	21572
874.335	21739
874.464	21789
874.593	21918
874.722	21899
874.851	21926
874.979	21979
875.108	21918
875.237	21884
875.365	21679
875.494	21873
875.623	21983
875.751	21808
875.88	21838
876.008	22025
876.136	22128
876.265	22188
876.393	22417
876.521	22523
876.65	22375
876.778	22280
876.906	22097
877.034	22242
877.162	22120
877.29	22219
877.418	22223
877.546	22128
877.674	22223
877.802	22291
877.93	22337
878.058	22204
878.185	22139
878.313	22162
878.441	22246
878.568	21983
878.696	22067
878.824	22143
878.951	22318
879.079	22409
879.206	22508
879.333	22443
879.461	22207
879.588	22402
879.715	22405
879.842	22508
879.97	22246
880.097	22143
880.224	22051
880.351	22169
880.478	22086
880.605	22109
880.732	21987
880.859	22306
880.986	22082
881.112	22109
881.239	21812
881.366	21846
881.493	21709
881.619	21637
881.746	21694
881.872	21671
881.999	21648
882.125	21660
882.252	21770
882.378	21637
882.505	21785
882.631	21526
882.757	21298
882.883	21485
883.01	21336
883.136	21260
883.262	21287
883.388	21173
883.514	21332
883.64	21359
883.766	21268
883.892	21203
884.018	21275
884.143	21321
884.269	21466
884.395	21051
884.52	20914
884.646	21036
884.772	20823
884.897	20914
885.023	21001
885.148	21146
885.274	21237
885.399	21070
885.524	20982
885.65	21039
885.775	21009
885.9	21001
886.025	21135
886.15	21127
886.275	20861
886.4	21009
886.525	20944
886.65	20918
886.775	20906
886.9	20933
887.025	21173
887.149	20990
887.274	20701
887.399	20792
887.523	20716
887.648	20708
887.773	20731
887.897	20781
888.021	20853
888.146	20750
888.27	20868
888.395	20724
888.519	20724
888.643	20906
888.767	20826
888.891	20769
889.015	20575
889.139	20746
889.263	20518
889.387	20727
889.511	20849
889.635	20651
889.759	20423
889.883	20526
890.006	20541
890.13	20511
890.254	20503
890.377	20492
890.501	20343
890.624	20259
890.748	20324
890.871	20282
890.995	20149
891.118	20168
891.241	20149
891.364	20218
891.488	20149
891.611	20054
891.734	20092
891.857	20252
891.98	20191
892.103	20122
892.226	20035
892.349	20027
892.471	19993
892.594	20020
892.717	20062
892.839	20027
892.962	20149
893.085	20065
893.207	19925
893.33	19818
893.452	19986
893.575	19989
893.697	20005
893.819	20122
893.941	20122
894.064	20168
894.186	20031
894.308	20073
894.43	20142
894.552	20126
894.674	20012
894.796	19879
894.918	19955
895.04	20054
895.161	20149
895.283	19982
895.405	19944
895.526	19997
895.648	19978
895.769	19974
895.891	20058
896.012	20043
896.134	20111
896.255	20149
896.376	20005
896.498	20126
896.619	20039
896.74	20065
896.861	20031
896.982	20328
897.103	20511
897.224	20355
897.345	20237
897.466	20240
897.587	20168
897.708	20484
897.828	20282
897.949	20267
898.07	20126
898.19	20225
898.311	20164
898.431	20218
898.552	20317
898.672	20301
898.792	20282
898.913	20286
899.033	20145
899.153	20077
899.273	19978
899.393	20024
899.513	19982
899.633	20073
899.753	20077
899.873	19883
899.993	19944
900.113	19887
900.232	19890
900.352	19875
900.472	19864
900.591	19803
900.711	19795
900.83	19712
900.95	19753
901.069	19906
901.189	19655
901.308	19426
901.427	19388
901.546	19312
901.665	19396
901.784	19506
901.904	19251
902.023	19088
902.141	18939
902.26	18966
902.379	18973
902.498	18814
902.617	18886
902.735	18954
902.854	18973
902.973	18783
903.091	18559
903.21	18563
903.328	18578
903.446	18372
903.565	18399
903.683	18372
903.801	18197
903.919	18247
904.038	18422
904.156	18201
904.274	18174
904.392	18133
904.51	18087
904.627	18064
904.745	18171
904.863	18095
904.981	17923
905.098	17817
905.216	17767
905.334	17870
905.451	17775
905.569	17726
905.686	17824
905.803	17813
905.921	17596
906.038	17771
906.155	17615
906.272	17463
906.389	17608
906.506	17379
906.623	17463
906.74	17307
906.857	17239
906.974	17231
907.091	17337
907.208	17444
907.324	17254
907.441	17296
907.557	17166
907.674	17003
907.79	17033
907.907	17098
908.023	17010
908.139	17109
908.256	16991
908.372	16904
908.488	16980
908.604	16725
908.72	16744
908.836	16729
908.952	16774
909.068	16812
909.184	16793
909.3	16755
909.415	16820
909.531	16793
909.647	16489
909.762	16451
909.878	16432
909.993	16512
910.108	16455
910.224	16424
910.339	16523
910.454	16322
910.57	16207
910.685	16226
910.8	16497
910.915	16424
911.03	16337
911.145	16090
911.259	16128
911.374	16147
911.489	15964
911.604	15953
911.718	15816
911.833	15736
911.947	15690
912.062	15618
912.176	15861
912.291	15827
912.405	15827
912.519	15972
912.633	16017
912.748	15850
912.862	15838
912.976	15694
913.09	15652
913.204	15580
913.318	15671
913.431	15667
913.545	15652
913.659	15705
913.772	15557
913.886	15477
914	15401
914.113	15462
914.226	15545
914.34	15485
914.453	15336
914.566	15481
914.68	15321
914.793	15283
914.906	15138
915.019	15077
915.132	14986
915.245	14944
915.358	15028
915.47	15131
915.583	14952
915.696	15036
915.809	15154
915.921	15176
916.034	15009
916.146	14842
916.259	14925
916.371	14986
916.483	14967
916.595	14880
916.708	14990
916.82	14811
916.932	14720
917.044	14842
917.156	14864
917.268	14689
917.38	14697
917.491	14686
917.603	14674
917.715	14800
917.826	14819
917.938	14659
918.049	14617
918.161	14594
918.272	14842
918.384	14739
918.495	14678
918.606	14454
918.717	14355
918.828	14434
918.939	14511
919.05	14412
919.161	14495
919.272	14233
919.383	14290
919.494	14632
919.604	14636
919.715	14362
919.826	14309
919.936	14465
920.047	14492
920.157	14427
920.267	14606
920.378	14488
920.488	14381
920.598	14621
920.708	14785
920.818	14564
920.928	14583
921.038	14712
921.148	14686
921.258	14324
921.368	14301
921.477	14221
921.587	14153
921.697	13982
921.806	14180
921.916	14050
922.025	13871
922.134	13807
922.244	13803
922.353	13826
922.462	13636
922.571	13620
922.68	13415
922.789	13422
922.898	13411
923.007	13381
923.116	13491
923.224	13415
923.333	13441
923.442	13377
923.55	13259
923.659	13278
923.767	13358
923.876	13251
923.984	13274
924.092	13141
924.201	13217
924.309	13293
924.417	13137
924.525	13080
924.633	13145
924.741	13997
924.849	12875
924.956	13099
925.064	12981
925.172	12886
925.279	12806
925.387	12909
925.494	12863
925.602	12951
925.709	12935
925.816	12760
925.924	12795
926.031	12905
926.138	12783
926.245	12863
926.352	12753
926.459	12878
926.566	12909
926.673	12760
926.779	12692
926.886	12582
926.993	12467
927.099	12395
927.206	12289
927.312	12353
927.419	12448
927.525	12410
927.631	12407
927.737	12308
927.843	12308
927.95	12117
928.056	12285
928.162	12220
928.267	12289
928.373	12859
928.479	12391
928.585	12152
928.69	12296
928.796	12239
928.901	12095
929.007	11984
929.112	12083
929.218	12087
929.323	11988
929.428	11889
929.533	12186
929.638	12003
929.743	11901
929.848	11984
929.953	11908
930.058	11878
930.163	11684
930.267	11638
930.372	11836
930.477	11653
930.581	11847
930.685	11699
930.79	11524
930.894	11630
930.998	11516
931.103	11589
931.207	11376
931.311	11258
931.415	11254
931.519	11029
931.623	10938
