Data from test_V78500241_2462.txt Node
Date: Fri Mar 25 15:27:00 CST 2022
User: usil
Spectrometer: V785-0024
Trigger mode: 0
Integration Time (sec): 4.000000E-1
Scans to average: 1
Nonlinearity correction enabled: false
Boxcar width: 0
Storing dark spectrum: false
XAxis mode: Wavelengths
Number of Pixels in Spectrum: 1024
>>>>>Begin Spectral Data<<<<<
801.071	27089
801.214	26994
801.356	26845
801.499	26533
801.641	26461
801.783	26461
801.926	26682
802.068	26579
802.211	26518
802.353	26492
802.496	26195
802.638	26020
802.78	26020
802.923	25982
803.065	26050
803.208	26012
803.35	26115
803.492	26305
803.635	26294
803.777	26221
803.919	26294
804.061	26431
804.204	26153
804.346	26157
804.488	26237
804.63	26199
804.773	26187
804.915	26408
805.057	26434
805.199	26161
805.341	26195
805.483	26541
805.626	26347
805.768	26199
805.91	26385
806.052	26358
806.194	26267
806.336	26469
806.478	26290
806.62	26259
806.762	26473
806.904	26678
807.046	26758
807.188	26739
807.33	26697
807.472	26906
807.614	26792
807.756	26686
807.898	26556
808.04	26659
808.182	26530
808.324	26541
808.465	26636
808.607	26952
808.749	26914
808.891	27028
809.033	27131
809.174	26929
809.316	26971
809.458	26929
809.6	26925
809.741	27036
809.883	27154
810.025	27291
810.166	27150
810.308	27302
810.45	27104
810.591	27036
810.733	26853
810.875	26967
811.016	26811
811.158	26864
811.299	27077
811.441	27161
811.582	26986
811.724	26948
811.865	26880
812.007	26838
812.148	26883
812.29	26986
812.431	27051
812.573	27233
812.714	27378
812.855	27538
812.997	27420
813.138	27580
813.279	27610
813.421	27329
813.562	27431
813.703	27291
813.845	27104
813.986	26708
814.127	26629
814.268	26461
814.41	26617
814.551	26503
814.692	26606
814.833	26442
814.974	26629
815.115	26621
815.256	26377
815.397	26446
815.539	26393
815.68	26347
815.821	26206
815.962	26408
816.103	26206
816.244	26229
816.385	26172
816.526	26134
816.666	25940
816.807	25772
816.948	25970
817.089	26024
817.23	25814
817.371	25894
817.512	25814
817.653	25780
817.793	25700
817.934	25887
818.075	25932
818.216	25765
818.356	25715
818.497	25624
818.638	25441
818.778	25605
818.919	25533
819.06	25597
819.2	25723
819.341	25826
819.481	25723
819.622	25959
819.762	25955
819.903	26031
820.043	25868
820.184	25932
820.324	25928
820.465	25902
820.605	25841
820.746	25890
820.886	25799
821.026	25887
821.167	25765
821.307	25830
821.447	25849
821.588	25765
821.728	25647
821.868	25525
822.008	25285
822.149	25381
822.289	25331
822.429	25019
822.569	24943
822.709	25046
822.849	24677
822.99	24776
823.13	24673
823.27	24806
823.41	24661
823.55	24585
823.69	24597
823.83	24658
823.97	24486
824.11	24426
824.25	24281
824.389	24441
824.529	24509
824.669	24437
824.809	24635
824.949	24505
825.089	24589
825.228	24456
825.368	24357
825.508	24254
825.648	24270
825.787	24346
825.927	24445
826.067	24224
826.206	24369
826.346	24327
826.485	24319
826.625	24251
826.765	24525
826.904	24384
827.044	24049
827.183	24095
827.323	23992
827.462	24079
827.601	24197
827.741	23969
827.88	24076
828.02	23836
828.159	23908
828.298	24041
828.437	24038
828.577	23977
828.716	24136
828.855	23859
828.994	23646
829.134	23722
829.273	23733
829.412	23779
829.551	23748
829.69	23665
829.829	23764
829.968	23798
830.107	23901
830.246	23726
830.385	23676
830.524	23535
830.663	23490
830.802	23509
830.941	23387
831.08	23273
831.219	23429
831.357	23368
831.496	23429
831.635	23318
831.774	23220
831.913	23200
832.051	23060
832.19	22976
832.329	23132
832.467	23025
832.606	23052
832.744	22976
832.883	22908
833.022	23006
833.16	22965
833.299	23060
833.437	23010
833.576	23102
833.714	22999
833.852	23208
833.991	23064
834.129	23239
834.267	22930
834.406	23162
834.544	23181
834.682	23067
834.821	23064
834.959	23227
835.097	23048
835.235	23025
835.373	23025
835.511	22968
835.65	22820
835.788	23014
835.926	22786
836.064	22839
836.202	22755
836.34	22965
836.478	23006
836.615	22927
836.753	22965
836.891	23025
837.029	22995
837.167	22938
837.305	22725
837.443	22752
837.58	22790
837.718	22755
837.856	22736
837.993	22843
838.131	22713
838.269	22725
838.406	22653
838.544	22637
838.681	22443
838.819	22447
838.956	22200
839.094	22143
839.231	22147
839.369	22257
839.506	22679
839.643	22432
839.781	22337
839.918	22299
840.055	22284
840.193	22246
840.33	22200
840.467	22139
840.604	22306
840.742	22512
840.879	22101
841.016	22017
841.153	22097
841.29	22287
841.427	22268
841.564	22276
841.701	22249
841.838	22082
841.975	22006
842.112	22276
842.249	22147
842.385	22116
842.522	22291
842.659	22097
842.796	22025
842.933	21987
843.069	21911
843.206	21884
843.343	22017
843.479	21895
843.616	21831
843.752	21800
843.889	21819
844.025	21922
844.162	21583
844.298	21827
844.435	21759
844.571	21663
844.708	21736
844.844	21846
844.98	21812
845.117	21827
845.253	21739
845.389	21656
845.525	21728
845.661	21519
845.798	21507
845.934	21454
846.07	21439
846.206	21496
846.342	21538
846.478	21435
846.614	21279
846.75	21127
846.886	21260
847.022	21279
847.158	21127
847.294	21207
847.429	21306
847.565	21112
847.701	21431
847.837	21013
847.972	20807
848.108	21005
848.244	21032
848.379	20807
848.515	20781
848.65	20697
848.786	20800
848.921	20819
849.057	20864
849.192	20830
849.328	20716
849.463	20792
849.598	20727
849.734	20697
849.869	20568
850.004	20412
850.14	20533
850.275	20686
850.41	20495
850.545	20495
850.68	20663
850.815	20514
850.95	20415
851.085	20686
851.22	20594
851.355	20682
851.49	20575
851.625	20629
851.76	20564
851.895	20499
852.03	20514
852.165	20670
852.299	20682
852.434	20659
852.569	20648
852.703	20533
852.838	20514
852.973	20716
853.107	20686
853.242	20488
853.376	20393
853.511	20408
853.645	20438
853.78	20495
853.914	20438
854.048	20351
854.183	20240
854.317	20427
854.451	20476
854.585	20412
854.72	20256
854.854	20488
854.988	20301
855.122	20400
855.256	20244
855.39	20275
855.524	20396
855.658	20579
855.792	20377
855.926	20305
856.06	20400
856.194	20492
856.327	20484
856.461	20362
856.595	20259
856.729	20320
856.862	20526
856.996	20488
857.13	20469
857.263	20461
857.397	20377
857.53	20358
857.664	20351
857.797	20427
857.931	20434
858.064	20400
858.197	20594
858.331	20423
858.464	20259
858.597	20206
858.731	20305
858.864	20423
858.997	20362
859.13	20393
859.263	20423
859.396	20476
859.529	20362
859.662	20377
859.795	20290
859.928	20358
860.061	20533
860.194	20682
860.327	20408
860.46	20317
860.592	20568
860.725	20499
860.858	20358
860.99	20446
861.123	20233
861.256	20355
861.388	20415
861.521	20933
861.653	20263
861.786	20149
861.918	20263
862.05	20275
862.183	20328
862.315	20358
862.447	20362
862.58	20362
862.712	20225
862.844	19993
862.976	20191
863.108	20157
863.24	20571
863.372	20065
863.504	20088
863.636	20161
863.768	20176
863.9	20145
864.032	20046
864.164	20001
864.296	19997
864.428	20130
864.559	20168
864.691	20240
864.823	20115
864.954	19997
865.086	20157
865.217	20054
865.349	19833
865.48	19955
865.612	20012
865.743	20084
865.875	20012
866.006	20020
866.137	20077
866.269	20092
866.4	20081
866.531	20005
866.662	19936
866.793	20027
866.924	19997
867.055	20077
867.186	19947
867.317	19928
867.448	19807
867.579	19940
867.71	19887
867.841	19883
867.972	20027
868.103	19875
868.233	19982
868.364	19864
868.495	19967
868.625	20233
868.756	20332
868.886	20229
869.017	20214
869.147	20278
869.278	20282
869.408	20218
869.539	20161
869.669	20187
869.799	20278
869.929	20385
870.06	20278
870.19	20545
870.32	20507
870.45	20526
870.58	20621
870.71	20632
870.84	20689
870.97	20636
871.1	20609
871.23	20842
871.36	20804
871.489	20659
871.619	20720
871.749	20708
871.879	20849
872.008	20807
872.138	20876
872.267	20800
872.397	20613
872.526	20697
872.656	20545
872.785	20594
872.915	20880
873.044	20849
873.173	20743
873.303	20834
873.432	20899
873.561	20952
873.69	20864
873.819	20857
873.948	20845
874.077	20807
874.206	20781
874.335	20872
874.464	20842
874.593	21096
874.722	21055
874.851	21036
874.979	21058
875.108	21036
875.237	21051
875.365	20998
875.494	21138
875.623	21116
875.751	20948
875.88	21028
876.008	21089
876.136	21195
876.265	21435
876.393	21663
876.521	21412
876.65	21545
876.778	21473
876.906	21443
877.034	21336
877.162	21519
877.29	21355
877.418	21492
877.546	21511
877.674	21336
877.802	21348
877.93	21374
878.058	21424
878.185	21272
878.313	21420
878.441	21344
878.568	21287
878.696	21340
878.824	21412
878.951	21519
879.079	21606
879.206	21663
879.333	21549
879.461	21595
879.588	21561
879.715	21526
879.842	21690
879.97	21580
880.097	21207
880.224	21195
880.351	21268
880.478	21249
880.605	21135
880.732	21199
880.859	21435
880.986	21230
881.112	21344
881.239	21123
881.366	21001
881.493	20982
881.619	20811
881.746	20830
881.872	20826
881.999	20815
882.125	20785
882.252	20830
882.378	20838
882.505	20857
882.631	20724
882.757	20621
882.883	20598
883.01	20431
883.136	20514
883.262	20423
883.388	20389
883.514	20431
883.64	20545
883.766	20518
883.892	20290
884.018	20412
884.143	20526
884.269	20537
884.395	20377
884.52	20218
884.646	20229
884.772	20195
884.897	20168
885.023	20168
885.148	20324
885.274	20328
885.399	20469
885.524	20081
885.65	20233
885.775	20191
885.9	20229
886.025	20218
886.15	20263
886.275	20206
886.4	20039
886.525	20206
886.65	20195
886.775	20054
886.9	20290
887.025	20351
887.149	20145
887.274	20069
887.399	19898
887.523	19989
887.648	19883
887.773	19955
887.897	20092
888.021	19944
888.146	19875
888.27	19986
888.395	20065
888.519	19997
888.643	19963
888.767	19974
888.891	19875
889.015	19734
889.139	19818
889.263	19738
889.387	19822
889.511	19864
889.635	19875
889.759	19734
889.883	19799
890.006	19864
890.13	19890
890.254	19715
890.377	19681
890.501	19476
890.624	19548
890.748	19540
890.871	19441
890.995	19320
891.118	19293
891.241	19483
891.364	19343
891.488	19495
891.611	19369
891.734	19373
891.857	19289
891.98	19358
892.103	19327
892.226	19403
892.349	19240
892.471	19145
892.594	19255
892.717	19266
892.839	19270
892.962	19369
893.085	19301
893.207	19221
893.33	19103
893.452	19187
893.575	19381
893.697	19206
893.819	19396
893.941	19586
894.064	19396
894.186	19293
894.308	19133
894.43	19350
894.552	19468
894.674	19312
894.796	19168
894.918	19221
895.04	19263
895.161	19312
895.283	19369
895.405	19187
895.526	19232
895.648	19263
895.769	19346
895.891	19331
896.012	19411
896.134	19346
896.255	19316
896.376	19278
896.498	19285
896.619	19324
896.74	19354
896.861	19441
896.982	19609
897.103	19818
897.224	19571
897.345	19620
897.466	19559
897.587	19559
897.708	19586
897.828	19533
897.949	19460
898.07	19369
898.19	19457
898.311	19544
898.431	19445
898.552	19464
898.672	19677
898.792	19655
898.913	19647
899.033	19400
899.153	19362
899.273	19244
899.393	19217
899.513	19343
899.633	19263
899.753	19426
899.873	19217
899.993	19285
900.113	19228
900.232	19194
900.352	19255
900.472	19126
900.591	18947
900.711	18996
900.83	19031
900.95	19145
901.069	19274
901.189	19008
901.308	18760
901.427	18665
901.546	18669
901.665	18787
901.784	18646
901.904	18528
902.023	18445
902.141	18334
902.26	18213
902.379	18281
902.498	18273
902.617	18251
902.735	18228
902.854	18216
902.973	18068
903.091	17882
903.21	17832
903.328	17790
903.446	17779
903.565	17657
903.683	17779
903.801	17684
903.919	17630
904.038	17657
904.156	17547
904.274	17558
904.392	17360
904.51	17463
904.627	17452
904.745	17585
904.863	17425
904.981	17376
905.098	17235
905.216	17136
905.334	17086
905.451	17102
905.569	17147
905.686	17170
905.803	17079
905.921	17010
906.038	16957
906.155	16984
906.272	16778
906.389	16946
906.506	16660
906.623	16698
906.74	16618
906.857	16584
906.974	16588
907.091	16793
907.208	16774
907.324	16733
907.441	16538
907.557	16405
907.674	16348
907.79	16242
907.907	16390
908.023	16367
908.139	16428
908.256	16367
908.372	16348
908.488	16310
908.604	16204
908.72	16074
908.836	16105
908.952	16010
909.068	16196
909.184	16234
909.3	16124
909.415	16078
909.531	16055
909.647	15979
909.762	15835
909.878	15759
909.993	15857
910.108	15876
910.224	15876
910.339	15720
910.454	15766
910.57	15644
910.685	15584
910.8	15895
910.915	15797
911.03	15679
911.145	15420
911.259	15526
911.374	15431
911.489	15401
911.604	15329
911.718	15241
911.833	15245
911.947	15230
912.062	15184
912.176	15367
912.291	15359
912.405	15313
912.519	15488
912.633	15466
912.748	15256
912.862	15116
912.976	15001
913.09	14952
913.204	15005
913.318	15024
913.431	15036
913.545	14994
913.659	15161
913.772	15024
913.886	14864
914	14845
914.113	14853
914.226	14895
914.34	14967
914.453	14769
914.566	14941
914.68	14811
914.793	14712
914.906	14446
915.019	14362
915.132	14389
915.245	14438
915.358	14499
915.47	14450
915.583	14617
915.696	14434
915.809	14511
915.921	14629
916.034	14339
916.146	14317
916.259	14400
916.371	14450
916.483	14377
916.595	14278
916.708	14282
916.82	14271
916.932	14347
917.044	14191
917.156	14111
917.268	14145
917.38	14195
917.491	14062
917.603	14172
917.715	14145
917.826	14259
917.938	14126
918.049	14001
918.161	14058
918.272	14248
918.384	14191
918.495	14100
918.606	13967
918.717	13841
918.828	13917
918.939	13963
919.05	13784
919.161	13875
919.272	13742
919.383	13761
919.494	14012
919.604	14081
919.715	13944
919.826	13734
919.936	13849
920.047	13913
920.157	13883
920.267	14012
920.378	13894
920.488	13879
920.598	14077
920.708	14199
920.818	14054
920.928	13989
921.038	14142
921.148	14149
921.258	13894
921.368	13837
921.477	13620
921.587	13662
921.697	13502
921.806	13632
921.916	13510
922.025	13335
922.134	13316
922.244	13251
922.353	13289
922.462	13198
922.571	13236
922.68	13034
922.789	12989
922.898	12954
923.007	12867
923.116	12977
923.224	12970
923.333	12939
923.442	12833
923.55	12741
923.659	12802
923.767	12875
923.876	12810
923.984	12779
924.092	12639
924.201	12768
924.309	12688
924.417	12703
924.525	12703
924.633	12658
924.741	13624
924.849	12483
924.956	12589
925.064	12410
925.172	12342
925.279	12414
925.387	12399
925.494	12399
925.602	12464
925.709	12357
925.816	12292
925.924	12407
926.031	12517
926.138	12262
926.245	12273
926.352	12289
926.459	12342
926.566	12319
926.673	12357
926.779	12175
926.886	12182
926.993	12041
927.099	12015
927.206	11946
927.312	11885
927.419	11939
927.525	11977
927.631	11999
927.737	11840
927.843	11851
927.95	11855
928.056	11779
928.162	11741
928.267	11859
928.373	12494
928.479	11855
928.585	11680
928.69	11661
928.796	11851
928.901	11642
929.007	11535
929.112	11638
929.218	11611
929.323	11573
929.428	11535
929.533	11657
929.638	11379
929.743	11482
929.848	11520
929.953	11429
930.058	11353
930.163	11265
930.267	11239
930.372	11436
930.477	11094
930.581	11433
930.685	11250
930.79	11140
930.894	11132
930.998	11162
931.103	11204
931.207	10850
931.311	10828
931.415	10778
931.519	10634
931.623	10531
