Data from test_V78500241_340.txt Node
Date: Fri Mar 25 15:12:13 CST 2022
User: usil
Spectrometer: V785-0024
Trigger mode: 0
Integration Time (sec): 4.000000E-1
Scans to average: 1
Nonlinearity correction enabled: false
Boxcar width: 0
Storing dark spectrum: false
XAxis mode: Wavelengths
Number of Pixels in Spectrum: 1024
>>>>>Begin Spectral Data<<<<<
801.071	27169
801.214	26921
801.356	26868
801.499	26708
801.641	26549
801.783	26686
801.926	26724
802.068	26583
802.211	26613
802.353	26404
802.496	26336
802.638	26294
802.78	26221
802.923	26214
803.065	26050
803.208	26199
803.35	26248
803.492	26396
803.635	26465
803.777	26248
803.919	26339
804.061	26769
804.204	26343
804.346	26309
804.488	26221
804.63	26252
804.773	26278
804.915	26389
805.057	26522
805.199	26499
805.341	26438
805.483	26526
805.626	26404
805.768	26366
805.91	26564
806.052	26431
806.194	26381
806.336	26640
806.478	26530
806.62	26552
806.762	26644
806.904	26689
807.046	26967
807.188	26864
807.33	26842
807.472	26979
807.614	26792
807.756	26743
807.898	26754
808.04	26640
808.182	26750
808.324	26617
808.465	26579
808.607	26956
808.749	27119
808.891	27211
809.033	27256
809.174	27188
809.316	27013
809.458	27066
809.6	26940
809.741	27127
809.883	27195
810.025	27348
810.166	27488
810.308	27427
810.45	27351
810.591	27370
810.733	27135
810.875	27074
811.016	26975
811.158	26975
811.299	27214
811.441	27047
811.582	27108
811.724	26868
811.865	26967
812.007	27077
812.148	27127
812.29	27214
812.431	27275
812.573	27389
812.714	27496
812.855	27614
812.997	27739
813.138	27812
813.279	27819
813.421	27747
813.562	27644
813.703	27336
813.845	27264
813.986	27028
814.127	26792
814.268	26750
814.41	26815
814.551	26689
814.692	26743
814.833	26678
814.974	26705
815.115	26644
815.256	26476
815.397	26663
815.539	26629
815.68	26358
815.821	26522
815.962	26400
816.103	26507
816.244	26332
816.385	26370
816.526	26286
816.666	26065
816.807	25932
816.948	26111
817.089	26210
817.23	26069
817.371	25978
817.512	26024
817.653	25913
817.793	25951
817.934	25898
818.075	25936
818.216	26039
818.356	25951
818.497	25928
818.638	25620
818.778	25689
818.919	25712
819.06	25666
819.2	25852
819.341	25879
819.481	25879
819.622	26134
819.762	26282
819.903	26286
820.043	26077
820.184	26107
820.324	26096
820.465	26073
820.605	25947
820.746	25993
820.886	25864
821.026	26084
821.167	26145
821.307	26065
821.447	26024
821.588	25818
821.728	25864
821.868	25559
822.008	25407
822.149	25479
822.289	25331
822.429	25171
822.569	25107
822.709	25069
822.849	25057
822.99	24871
823.13	24833
823.27	24897
823.41	24719
823.55	24730
823.69	24627
823.83	24673
823.97	24547
824.11	24608
824.25	24707
824.389	24612
824.529	24825
824.669	24578
824.809	24639
824.949	24730
825.089	24574
825.228	24532
825.368	24376
825.508	24445
825.648	24498
825.787	24342
825.927	24471
826.067	24528
826.206	24399
826.346	24544
826.485	24330
826.625	24346
826.765	24483
826.904	24388
827.044	24216
827.183	24190
827.323	24091
827.462	24186
827.601	24098
827.741	24133
827.88	24064
828.02	24018
828.159	24091
828.298	24114
828.437	24197
828.577	24083
828.716	24220
828.855	23980
828.994	23893
829.134	23912
829.273	23950
829.412	23882
829.551	23752
829.69	23988
829.829	23946
829.968	23988
830.107	24041
830.246	23779
830.385	23741
830.524	23863
830.663	23649
830.802	23558
830.941	23501
831.08	23353
831.219	23493
831.357	23535
831.496	23672
831.635	23554
831.774	23497
831.913	23353
832.051	23334
832.19	23303
832.329	23258
832.467	23174
832.606	23113
832.744	23166
832.883	23208
833.022	23025
833.16	23208
833.299	23223
833.437	23140
833.576	23235
833.714	23162
833.852	23246
833.991	23303
834.129	23299
834.267	23292
834.406	23185
834.544	23277
834.682	23200
834.821	23208
834.959	23410
835.097	23200
835.235	23162
835.373	23121
835.511	23193
835.65	23010
835.788	23109
835.926	22911
836.064	23033
836.202	22976
836.34	23189
836.478	23220
836.615	23075
836.753	23117
836.891	23216
837.029	23204
837.167	23079
837.305	23014
837.443	22968
837.58	23006
837.718	23022
837.856	22930
837.993	22790
838.131	22892
838.269	22900
838.406	22911
838.544	22786
838.681	22584
838.819	22538
838.956	22436
839.094	22436
839.231	22466
839.369	22641
839.506	22691
839.643	22698
839.781	22440
839.918	22348
840.055	22390
840.193	22402
840.33	22341
840.467	22428
840.604	22352
840.742	22565
840.879	22162
841.016	22234
841.153	22276
841.29	22443
841.427	22348
841.564	22333
841.701	22428
841.838	22230
841.975	22093
842.112	22253
842.249	22215
842.385	22082
842.522	22280
842.659	22207
842.796	22150
842.933	22185
843.069	22112
843.206	22025
843.343	22124
843.479	22131
843.616	22086
843.752	21895
843.889	21850
844.025	22055
844.162	21827
844.298	21911
844.435	21880
844.571	21884
844.708	21926
844.844	22162
844.98	22055
845.117	22067
845.253	21816
845.389	21804
845.525	21873
845.661	21781
845.798	21568
845.934	21705
846.07	21663
846.206	21618
846.342	21759
846.478	21591
846.614	21336
846.75	21355
846.886	21344
847.022	21344
847.158	21424
847.294	21294
847.429	21363
847.565	21275
847.701	21671
847.837	21161
847.972	21028
848.108	21310
848.244	21188
848.379	21108
848.515	21009
848.65	20823
848.786	20902
848.921	20902
849.057	20944
849.192	20982
849.328	21066
849.463	20956
849.598	20910
849.734	20933
849.869	20819
850.004	20686
850.14	20788
850.275	20724
850.41	20621
850.545	20686
850.68	20606
850.815	20758
850.95	20712
851.085	20800
851.22	20762
851.355	20746
851.49	20689
851.625	20724
851.76	20670
851.895	20629
852.03	20609
852.165	20640
852.299	20735
852.434	20769
852.569	20743
852.703	20807
852.838	20762
852.973	20944
853.107	20857
853.242	20556
853.376	20568
853.511	20358
853.645	20480
853.78	20727
853.914	20545
854.048	20495
854.183	20594
854.317	20530
854.451	20880
854.585	20484
854.72	20514
854.854	20644
854.988	20446
855.122	20393
855.256	20415
855.39	20518
855.524	20651
855.658	20530
855.792	20473
855.926	20590
856.06	20575
856.194	20629
856.327	20507
856.461	20412
856.595	20438
856.729	20434
856.862	20651
856.996	20465
857.13	20606
857.263	20750
857.397	20530
857.53	20530
857.664	20476
857.797	20655
857.931	20735
858.064	20594
858.197	20556
858.331	20518
858.464	20579
858.597	20469
858.731	20560
858.864	20484
858.997	20598
859.13	20454
859.263	20575
859.396	20651
859.529	20549
859.662	20400
859.795	20450
859.928	20617
860.061	20811
860.194	20720
860.327	20537
860.46	20594
860.592	20648
860.725	20716
860.858	20682
860.99	20583
861.123	20526
861.256	20484
861.388	20583
861.521	21146
861.653	20336
861.786	20370
861.918	20404
862.05	20366
862.183	20492
862.315	20533
862.447	20514
862.58	20362
862.712	20244
862.844	20278
862.976	20362
863.108	20332
863.24	20746
863.372	20103
863.504	20317
863.636	20263
863.768	20195
863.9	20317
864.032	20195
864.164	20240
864.296	20294
864.428	20446
864.559	20343
864.691	20351
864.823	20240
864.954	20202
865.086	20339
865.217	20180
865.349	20180
865.48	20157
865.612	20111
865.743	20282
865.875	20138
866.006	20092
866.137	20286
866.269	20252
866.4	20081
866.531	20142
866.662	20012
866.793	20176
866.924	20024
867.055	20046
867.186	20065
867.317	20062
867.448	20050
867.579	20062
867.71	20081
867.841	20054
867.972	20103
868.103	20058
868.233	20065
868.364	20161
868.495	20202
868.625	20377
868.756	20408
868.886	20240
869.017	20362
869.147	20423
869.278	20434
869.408	20457
869.539	20370
869.669	20385
869.799	20434
869.929	20495
870.06	20377
870.19	20754
870.32	20705
870.45	20739
870.58	20678
870.71	20849
870.84	20788
870.97	20811
871.1	20724
871.23	20929
871.36	20952
871.489	20906
871.619	20960
871.749	20864
871.879	21047
872.008	21077
872.138	20948
872.267	20948
872.397	20792
872.526	20739
872.656	20762
872.785	20788
872.915	20933
873.044	21013
873.173	20872
873.303	21020
873.432	21005
873.561	21077
873.69	20918
873.819	21032
873.948	21165
874.077	21093
874.206	20990
874.335	20986
874.464	21165
874.593	21249
874.722	21207
874.851	21226
874.979	21245
875.108	21245
875.237	21203
875.365	21135
875.494	21241
875.623	21321
875.751	21279
875.88	21359
876.008	21492
876.136	21382
876.265	21530
876.393	21625
876.521	21762
876.65	21724
876.778	21629
876.906	21515
877.034	21603
877.162	21526
877.29	21511
877.418	21610
877.546	21561
877.674	21545
877.802	21599
877.93	21606
878.058	21511
878.185	21507
878.313	21492
878.441	21610
878.568	21367
878.696	21523
878.824	21564
878.951	21679
879.079	21774
879.206	21766
879.333	21770
879.461	21545
879.588	21591
879.715	21549
879.842	21888
879.97	21587
880.097	21325
880.224	21382
880.351	21534
880.478	21321
880.605	21374
880.732	21401
880.859	21591
880.986	21420
881.112	21397
881.239	21218
881.366	21176
881.493	20994
881.619	21005
881.746	21055
881.872	20960
881.999	20929
882.125	20857
882.252	20998
882.378	20891
882.505	20956
882.631	20785
882.757	20655
882.883	20743
883.01	20708
883.136	20632
883.262	20549
883.388	20461
883.514	20762
883.64	20659
883.766	20617
883.892	20419
884.018	20530
884.143	20609
884.269	20651
884.395	20408
884.52	20385
884.646	20415
884.772	20339
884.897	20225
885.023	20412
885.148	20442
885.274	20530
885.399	20404
885.524	20408
885.65	20374
885.775	20336
885.9	20332
886.025	20488
886.15	20427
886.275	20290
886.4	20187
886.525	20210
886.65	20362
886.775	20290
886.9	20473
887.025	20431
887.149	20328
887.274	20111
887.399	20054
887.523	20035
887.648	20001
887.773	19978
887.897	20168
888.021	20168
888.146	20020
888.27	20145
888.395	20153
888.519	20168
888.643	20100
888.767	20081
888.891	20058
889.015	19902
889.139	19944
889.263	19947
889.387	19997
889.511	20119
889.635	19963
889.759	19887
889.883	19860
890.006	19818
890.13	19894
890.254	19807
890.377	19837
890.501	19704
890.624	19647
890.748	19696
890.871	19601
890.995	19388
891.118	19453
891.241	19476
891.364	19628
891.488	19658
891.611	19480
891.734	19544
891.857	19666
891.98	19487
892.103	19556
892.226	19495
892.349	19426
892.471	19251
892.594	19434
892.717	19506
892.839	19358
892.962	19426
893.085	19567
893.207	19487
893.33	19209
893.452	19285
893.575	19578
893.697	19343
893.819	19548
893.941	19518
894.064	19514
894.186	19388
894.308	19263
894.43	19487
894.552	19552
894.674	19499
894.796	19335
894.918	19540
895.04	19335
895.161	19422
895.283	19400
895.405	19377
895.526	19449
895.648	19499
895.769	19472
895.891	19472
896.012	19556
896.134	19495
896.255	19495
896.376	19244
896.498	19510
896.619	19502
896.74	19403
896.861	19514
896.982	19772
897.103	19986
897.224	19708
897.345	19601
897.466	19651
897.587	19693
897.708	19715
897.828	19677
897.949	19635
898.07	19514
898.19	19521
898.311	19750
898.431	19533
898.552	19635
898.672	19780
898.792	19662
898.913	19635
899.033	19476
899.153	19369
899.273	19320
899.393	19384
899.513	19438
899.633	19422
899.753	19460
899.873	19453
899.993	19483
900.113	19202
900.232	19422
900.352	19476
900.472	19194
900.591	19156
900.711	19145
900.83	19034
900.95	19259
901.069	19141
901.189	19076
901.308	18840
901.427	18738
901.546	18722
901.665	18844
901.784	18814
901.904	18673
902.023	18528
902.141	18308
902.26	18315
902.379	18403
902.498	18308
902.617	18270
902.735	18422
902.854	18327
902.973	18174
903.091	18038
903.21	17935
903.328	17965
903.446	17901
903.565	17790
903.683	17798
903.801	17665
903.919	17710
904.038	17676
904.156	17577
904.274	17672
904.392	17573
904.51	17505
904.627	17509
904.745	17554
904.863	17604
904.981	17353
905.098	17212
905.216	17208
905.334	17315
905.451	17212
905.569	17239
905.686	17364
905.803	17254
905.921	17037
906.038	17094
906.155	17109
906.272	16968
906.389	16965
906.506	16744
906.623	16843
906.74	16816
906.857	16801
906.974	16752
907.091	16873
907.208	16869
907.324	16831
907.441	16694
907.557	16481
907.674	16603
907.79	16470
907.907	16367
908.023	16577
908.139	16550
908.256	16371
908.372	16455
908.488	16470
908.604	16200
908.72	16306
908.836	16207
908.952	16166
909.068	16261
909.184	16394
909.3	16223
909.415	16344
909.531	16131
909.647	16006
909.762	16010
909.878	15930
909.993	16013
910.108	15918
910.224	15888
910.339	15899
910.454	15880
910.57	15831
910.685	15682
910.8	16017
910.915	15960
911.03	15835
911.145	15694
911.259	15622
911.374	15629
911.489	15469
911.604	15454
911.718	15344
911.833	15313
911.947	15233
912.062	15112
912.176	15344
912.291	15264
912.405	15268
912.519	15454
912.633	15477
912.748	15329
912.862	15256
912.976	15138
913.09	15043
913.204	15055
913.318	15112
913.431	15173
913.545	15165
913.659	15211
913.772	15070
913.886	15005
914	14834
914.113	15009
914.226	15097
914.34	14956
914.453	14883
914.566	14967
914.68	14826
914.793	14788
914.906	14598
915.019	14590
915.132	14495
915.245	14507
915.358	14522
915.47	14526
915.583	14514
915.696	14602
915.809	14625
915.921	14651
916.034	14560
916.146	14408
916.259	14518
916.371	14587
916.483	14476
916.595	14427
916.708	14461
916.82	14431
916.932	14332
917.044	14343
917.156	14370
917.268	14123
917.38	14271
917.491	14183
917.603	14252
917.715	14328
917.826	14366
917.938	14065
918.049	14043
918.161	14214
918.272	14271
918.384	14332
918.495	14164
918.606	14107
918.717	13970
918.828	14039
918.939	14043
919.05	13932
919.161	13997
919.272	13791
919.383	13890
919.494	14073
919.604	14119
919.715	14001
919.826	13913
919.936	13898
920.047	14050
920.157	14058
920.267	14134
920.378	14031
920.488	13887
920.598	14096
920.708	14153
920.818	14123
920.928	14107
921.038	14176
921.148	14263
921.258	13871
921.368	13818
921.477	13734
921.587	13742
921.697	13594
921.806	13757
921.916	13559
922.025	13468
922.134	13343
922.244	13339
922.353	13426
922.462	13240
922.571	13164
922.68	13004
922.789	13122
922.898	12989
923.007	12852
923.116	13012
923.224	12996
923.333	12909
923.442	12924
923.55	12810
923.659	12848
923.767	12985
923.876	12802
923.984	12878
924.092	12882
924.201	12738
924.309	12749
924.417	12764
924.525	12738
924.633	12738
924.741	13388
924.849	12532
924.956	12635
925.064	12475
925.172	12372
925.279	12433
925.387	12460
925.494	12471
925.602	12646
925.709	12528
925.816	12365
925.924	12422
926.031	12498
926.138	12429
926.245	12494
926.352	12357
926.459	12403
926.566	12486
926.673	12353
926.779	12213
926.886	12194
926.993	12098
927.099	11973
927.206	11920
927.312	12015
927.419	12015
927.525	12041
927.631	12083
927.737	11942
927.843	11923
927.95	11764
928.056	11832
928.162	11908
928.267	11912
928.373	12498
928.479	12034
928.585	11729
928.69	11843
928.796	11897
928.901	11726
929.007	11592
929.112	11824
929.218	11577
929.323	11688
929.428	11505
929.533	11748
929.638	11524
929.743	11611
929.848	11642
929.953	11619
930.058	11539
930.163	11360
930.267	11299
930.372	11448
930.477	11273
930.581	11501
930.685	11376
930.79	11178
930.894	11292
930.998	11124
931.103	11345
931.207	10938
931.311	10911
931.415	10733
931.519	10645
931.623	10607
