Data from test_V78500241_1050.txt Node
Date: Fri Mar 25 15:17:10 CST 2022
User: usil
Spectrometer: V785-0024
Trigger mode: 0
Integration Time (sec): 4.000000E-1
Scans to average: 1
Nonlinearity correction enabled: false
Boxcar width: 0
Storing dark spectrum: false
XAxis mode: Wavelengths
Number of Pixels in Spectrum: 1024
>>>>>Begin Spectral Data<<<<<
801.071	28188
801.214	28040
801.356	27846
801.499	27895
801.641	27709
801.783	27747
801.926	27781
802.068	27732
802.211	27496
802.353	27515
802.496	27416
802.638	27382
802.78	27408
802.923	27397
803.065	27294
803.208	27321
803.35	27401
803.492	27439
803.635	27622
803.777	27454
803.919	27572
804.061	27914
804.204	27660
804.346	27587
804.488	27545
804.63	27622
804.773	27447
804.915	27496
805.057	27701
805.199	27587
805.341	27671
805.483	27747
805.626	27755
805.768	27625
805.91	27698
806.052	27679
806.194	27648
806.336	27972
806.478	27789
806.62	27747
806.762	27907
806.904	28013
807.046	28291
807.188	28090
807.33	28078
807.472	28158
807.614	28059
807.756	28124
807.898	28048
808.04	27884
808.182	28017
808.324	27979
808.465	28029
808.607	28147
808.749	28375
808.891	28527
809.033	28485
809.174	28386
809.316	28230
809.458	28455
809.6	28424
809.741	28557
809.883	28577
810.025	28702
810.166	28588
810.308	28824
810.45	28702
810.591	28603
810.733	28371
810.875	28341
811.016	28246
811.158	28226
811.299	28451
811.441	28599
811.582	28481
811.724	28382
811.865	28417
812.007	28356
812.148	28512
812.29	28546
812.431	28485
812.573	28710
812.714	28710
812.855	28858
812.997	28957
813.138	29193
813.279	29029
813.421	28881
813.562	28877
813.703	28831
813.845	28790
813.986	28299
814.127	28173
814.268	28131
814.41	28010
814.551	28162
814.692	28120
814.833	27857
814.974	28017
815.115	28112
815.256	28013
815.397	28036
815.539	28032
815.68	27998
815.821	27903
815.962	27994
816.103	27797
816.244	27713
816.385	27564
816.526	27717
816.666	27545
816.807	27462
816.948	27496
817.089	27427
817.23	27511
817.371	27473
817.512	27405
817.653	27382
817.793	27367
817.934	27424
818.075	27488
818.216	27435
818.356	27439
818.497	27154
818.638	27142
818.778	27222
818.919	27081
819.06	27176
819.2	27283
819.341	27420
819.481	27355
819.622	27447
819.762	27759
819.903	27618
820.043	27595
820.184	27519
820.324	27587
820.465	27477
820.605	27572
820.746	27618
820.886	27393
821.026	27549
821.167	27317
821.307	27583
821.447	27370
821.588	27272
821.728	27283
821.868	26956
822.008	26933
822.149	26796
822.289	26925
822.429	26495
822.569	26579
822.709	26518
822.849	26317
822.99	26408
823.13	26240
823.27	26309
823.41	26119
823.55	26134
823.69	26195
823.83	26183
823.97	26301
824.11	25944
824.25	25925
824.389	25986
824.529	26195
824.669	25947
824.809	26218
824.949	26202
825.089	26237
825.228	26119
825.368	25921
825.508	25906
825.648	25997
825.787	25833
825.927	25959
826.067	25982
826.206	25803
826.346	26012
826.485	25830
826.625	25955
826.765	26031
826.904	25906
827.044	25765
827.183	25750
827.323	25537
827.462	25639
827.601	25647
827.741	25635
827.88	25708
828.02	25510
828.159	25742
828.298	25635
828.437	25708
828.577	25556
828.716	25765
828.855	25590
828.994	25304
829.134	25472
829.273	25521
829.412	25464
829.551	25403
829.69	25411
829.829	25457
829.968	25460
830.107	25274
830.246	25495
830.385	25381
830.524	25320
830.663	25141
830.802	25164
830.941	25004
831.08	25129
831.219	25103
831.357	24970
831.496	25270
831.635	25012
831.774	24935
831.913	24977
832.051	24772
832.19	24913
832.329	24886
832.467	24703
832.606	24646
832.744	24665
832.883	24707
833.022	24817
833.16	24631
833.299	24745
833.437	24715
833.576	24741
833.714	24692
833.852	24802
833.991	24856
834.129	24920
834.267	24795
834.406	24696
834.544	24787
834.682	24810
834.821	24661
834.959	24962
835.097	24677
835.235	24913
835.373	24711
835.511	24749
835.65	24528
835.788	24540
835.926	24517
836.064	24437
836.202	24475
836.34	24486
836.478	24650
836.615	24593
836.753	24608
836.891	24658
837.029	24734
837.167	24620
837.305	24563
837.443	24528
837.58	24441
837.718	24505
837.856	24414
837.993	24494
838.131	24490
838.269	24270
838.406	24319
838.544	24178
838.681	24098
838.819	24076
838.956	23813
839.094	23851
839.231	24011
839.369	24011
839.506	24315
839.643	24098
839.781	23916
839.918	23851
840.055	23901
840.193	23889
840.33	23885
840.467	23843
840.604	23954
840.742	24087
840.879	23630
841.016	23718
841.153	23737
841.29	23920
841.427	23870
841.564	23832
841.701	23836
841.838	23847
841.975	23649
842.112	23786
842.249	23615
842.385	23657
842.522	23718
842.659	23585
842.796	23535
842.933	23516
843.069	23417
843.206	23528
843.343	23608
843.479	23592
843.616	23520
843.752	23395
843.889	23528
844.025	23387
844.162	23345
844.298	23558
844.435	23383
844.571	23402
844.708	23391
844.844	23505
844.98	23524
845.117	23379
845.253	23288
845.389	23079
845.525	23284
845.661	23109
845.798	23060
845.934	23178
846.07	23128
846.206	23166
846.342	23128
846.478	23052
846.614	22885
846.75	22660
846.886	22801
847.022	22782
847.158	22904
847.294	22755
847.429	22892
847.565	22725
847.701	22991
847.837	22569
847.972	22573
848.108	22664
848.244	22603
848.379	22428
848.515	22421
848.65	22474
848.786	22341
848.921	22428
849.057	22398
849.192	22417
849.328	22447
849.463	22386
849.598	22329
849.734	22249
849.869	22211
850.004	22196
850.14	22246
850.275	22105
850.41	22090
850.545	22173
850.68	22086
850.815	22166
850.95	22082
851.085	22299
851.22	22234
851.355	22284
851.49	22029
851.625	22169
851.76	22086
851.895	22017
852.03	22051
852.165	22284
852.299	22051
852.434	22287
852.569	22109
852.703	22196
852.838	22074
852.973	22181
853.107	22249
853.242	22105
853.376	21983
853.511	21861
853.645	21960
853.78	22150
853.914	22032
854.048	21918
854.183	21865
854.317	21934
854.451	22188
854.585	22021
854.72	21949
854.854	22006
854.988	21876
855.122	21880
855.256	21816
855.39	21949
855.524	21968
855.658	21949
855.792	21964
855.926	22090
856.06	22032
856.194	22036
856.327	21915
856.461	21945
856.595	21831
856.729	21922
856.862	21987
856.996	21979
857.13	22044
857.263	22116
857.397	22067
857.53	21941
857.664	22036
857.797	21930
857.931	22139
858.064	22086
858.197	22086
858.331	21983
858.464	21865
858.597	21797
858.731	21934
858.864	21994
858.997	21915
859.13	21975
859.263	22032
859.396	22017
859.529	22013
859.662	21850
859.795	21907
859.928	21934
860.061	22093
860.194	22109
860.327	22067
860.46	21991
860.592	22078
860.725	22173
860.858	22070
860.99	22086
861.123	21934
861.256	21945
861.388	21873
861.521	22603
861.653	21930
861.786	21835
861.918	21766
862.05	21827
862.183	21861
862.315	21789
862.447	21903
862.58	21930
862.712	21625
862.844	21587
862.976	21759
863.108	21800
863.24	22181
863.372	21633
863.504	21652
863.636	21625
863.768	21846
863.9	21709
864.032	21652
864.164	21641
864.296	21701
864.428	21812
864.559	21762
864.691	21679
864.823	21618
864.954	21618
865.086	21660
865.217	21652
865.349	21473
865.48	21538
865.612	21526
865.743	21656
865.875	21530
866.006	21538
866.137	21534
866.269	21606
866.4	21610
866.531	21469
866.662	21557
866.793	21473
866.924	21492
867.055	21469
867.186	21507
867.317	21439
867.448	21439
867.579	21530
867.71	21481
867.841	21405
867.972	21545
868.103	21477
868.233	21485
868.364	21382
868.495	21660
868.625	21682
868.756	21857
868.886	21633
869.017	21652
869.147	21869
869.278	21812
869.408	21747
869.539	21656
869.669	21770
869.799	21827
869.929	21888
870.06	21713
870.19	22097
870.32	22029
870.45	22097
870.58	22177
870.71	22272
870.84	22215
870.97	22226
871.1	22204
871.23	22295
871.36	22276
871.489	22303
871.619	22265
871.749	22405
871.879	22459
872.008	22432
872.138	22333
872.267	22443
872.397	22086
872.526	22192
872.656	22124
872.785	22101
872.915	22295
873.044	22379
873.173	22382
873.303	22375
873.432	22223
873.561	22428
873.69	22287
873.819	22322
873.948	22390
874.077	22402
874.206	22226
874.335	22333
874.464	22287
874.593	22626
874.722	22390
874.851	22474
874.979	22584
875.108	22607
875.237	22417
875.365	22512
875.494	22421
875.623	22607
875.751	22592
875.88	22649
876.008	22550
876.136	22622
876.265	22995
876.393	23083
876.521	22965
876.65	23083
876.778	22961
876.906	22850
877.034	22927
877.162	22885
877.29	22881
877.418	22904
877.546	22900
877.674	22782
877.802	22900
877.93	22835
878.058	22896
878.185	22733
878.313	22793
878.441	22957
878.568	22736
878.696	22854
878.824	22904
878.951	23003
879.079	23052
879.206	23113
879.333	23083
879.461	22946
879.588	23060
879.715	23064
879.842	23098
879.97	23010
880.097	22740
880.224	22717
880.351	22683
880.478	22744
880.605	22573
880.732	22599
880.859	22991
880.986	22542
881.112	22706
881.239	22527
881.366	22485
881.493	22363
881.619	22432
881.746	22284
881.872	22341
881.999	22352
882.125	22128
882.252	22257
882.378	22234
882.505	22413
882.631	22234
882.757	21907
882.883	22120
883.01	21884
883.136	21968
883.262	21789
883.388	21778
883.514	21979
883.64	21960
883.766	21895
883.892	21766
884.018	21694
884.143	21857
884.269	21953
884.395	21652
884.52	21580
884.646	21629
884.772	21553
884.897	21401
885.023	21504
885.148	21698
885.274	21656
885.399	21663
885.524	21545
885.65	21637
885.775	21614
885.9	21534
886.025	21614
886.15	21595
886.275	21591
886.4	21492
886.525	21652
886.65	21542
886.775	21553
886.9	21713
887.025	21823
887.149	21591
887.274	21283
887.399	21386
887.523	21332
887.648	21435
887.773	21218
887.897	21412
888.021	21477
888.146	21272
888.27	21424
888.395	21435
888.519	21408
888.643	21310
888.767	21515
888.891	21203
889.015	21275
889.139	21252
889.263	21036
889.387	21332
889.511	21370
889.635	21264
889.759	21150
889.883	21184
890.006	21252
890.13	21203
890.254	21047
890.377	21009
890.501	20857
890.624	20918
890.748	20918
890.871	20781
890.995	20640
891.118	20651
891.241	20606
891.364	20708
891.488	20826
891.611	20777
891.734	20686
891.857	20765
891.98	20769
892.103	20853
892.226	20602
892.349	20659
892.471	20450
892.594	20549
892.717	20670
892.839	20583
892.962	20705
893.085	20674
893.207	20587
893.33	20492
893.452	20530
893.575	20693
893.697	20537
893.819	20739
893.941	20788
894.064	20724
894.186	20560
894.308	20590
894.43	20564
894.552	20705
894.674	20727
894.796	20457
894.918	20644
895.04	20583
895.161	20667
895.283	20663
895.405	20423
895.526	20564
895.648	20549
895.769	20655
895.891	20701
896.012	20648
896.134	20667
896.255	20712
896.376	20484
896.498	20358
896.619	20454
896.74	20587
896.861	20632
896.982	20948
897.103	21028
897.224	20906
897.345	20804
897.466	20731
897.587	20811
897.708	20834
897.828	20819
897.949	20826
898.07	20689
898.19	20598
898.311	20838
898.431	20872
898.552	20746
898.672	20826
898.792	20842
898.913	20823
899.033	20701
899.153	20526
899.273	20503
899.393	20530
899.513	20499
899.633	20602
899.753	20476
899.873	20507
899.993	20495
900.113	20454
900.232	20446
900.352	20446
900.472	20351
900.591	20282
900.711	20317
900.83	20290
900.95	20476
901.069	20351
901.189	20157
901.308	19887
901.427	19807
901.546	19822
901.665	19989
901.784	19769
901.904	19807
902.023	19772
902.141	19384
902.26	19460
902.379	19434
902.498	19434
902.617	19369
902.735	19453
902.854	19392
902.973	19346
903.091	18989
903.21	19103
903.328	19065
903.446	18939
903.565	18772
903.683	18840
903.801	18726
903.919	18776
904.038	18783
904.156	18589
904.274	18703
904.392	18623
904.51	18490
904.627	18658
904.745	18635
904.863	18757
904.981	18391
905.098	18224
905.216	18384
905.334	18399
905.451	18376
905.569	18304
905.686	18209
905.803	18144
905.921	18114
906.038	18300
906.155	18186
906.272	17950
906.389	18030
906.506	17855
906.623	17855
906.74	17851
906.857	17710
906.974	17863
907.091	17908
907.208	17950
907.324	17882
907.441	17809
907.557	17589
907.674	17634
907.79	17486
907.907	17509
908.023	17608
908.139	17570
908.256	17474
908.372	17554
908.488	17299
908.604	17322
908.72	17258
908.836	17288
908.952	17250
909.068	17185
909.184	17269
909.3	17356
909.415	17227
909.531	17372
909.647	17033
909.762	17018
909.878	16877
909.993	16930
910.108	16961
910.224	16984
910.339	16908
910.454	16812
910.57	16793
910.685	16637
910.8	16892
910.915	16873
911.03	16706
911.145	16588
911.259	16538
911.374	16508
911.489	16470
911.604	16371
911.718	16303
911.833	16348
911.947	16181
912.062	16051
912.176	16295
912.291	16272
912.405	16314
912.519	16421
912.633	16371
912.748	16405
912.862	16257
912.976	16093
913.09	16032
913.204	15968
913.318	16154
913.431	16173
913.545	16196
913.659	16257
913.772	15983
913.886	15964
914	15934
914.113	16002
914.226	16048
914.34	15880
914.453	15751
914.566	15911
914.68	15857
914.793	15759
914.906	15679
915.019	15500
915.132	15481
915.245	15519
915.358	15515
915.47	15519
915.583	15412
915.696	15408
915.809	15633
915.921	15633
916.034	15386
916.146	15393
916.259	15344
916.371	15500
916.483	15439
916.595	15382
916.708	15325
916.82	15207
916.932	15275
917.044	15222
917.156	15230
917.268	15077
917.38	15233
917.491	15051
917.603	15165
917.715	15131
917.826	15097
917.938	15154
918.049	15001
918.161	15089
918.272	15161
918.384	15233
918.495	15005
918.606	14914
918.717	14807
918.828	14857
918.939	14914
919.05	14792
919.161	14838
919.272	14594
919.383	14743
919.494	14929
919.604	15043
919.715	14857
919.826	14826
919.936	14765
920.047	14895
920.157	14842
920.267	14944
920.378	14777
920.488	14815
920.598	14994
920.708	15123
920.818	14960
920.928	14994
921.038	15108
921.148	15047
921.258	14823
921.368	14769
921.477	14613
921.587	14533
921.697	14396
921.806	14484
921.916	14412
922.025	14259
922.134	14183
922.244	14088
922.353	14210
922.462	14081
922.571	14088
922.68	13860
922.789	13894
922.898	13871
923.007	13837
923.116	13868
923.224	13765
923.333	13833
923.442	13677
923.55	13647
923.659	13643
923.767	13776
923.876	13601
923.984	13643
924.092	13628
924.201	13514
924.309	13540
924.417	13586
924.525	13556
924.633	13514
924.741	14389
924.849	13263
924.956	13411
925.064	13320
925.172	13217
925.279	13320
925.387	13343
925.494	13278
925.602	13392
925.709	13297
925.816	13213
925.924	13194
926.031	13221
926.138	13168
926.245	13244
926.352	13076
926.459	13270
926.566	13213
926.673	13141
926.779	12916
926.886	12909
926.993	12935
927.099	12779
927.206	12760
927.312	12738
927.419	12890
927.525	12852
927.631	12825
927.737	12646
927.843	12665
927.95	12490
928.056	12688
928.162	12498
928.267	12700
928.373	13069
928.479	12612
928.585	12464
928.69	12570
928.796	12570
928.901	12490
929.007	12388
929.112	12452
929.218	12327
929.323	12330
929.428	12380
929.533	12407
929.638	12296
929.743	12334
929.848	12334
929.953	12197
930.058	12095
930.163	11984
930.267	12087
930.372	12102
930.477	11965
930.581	12171
930.685	12015
930.79	11935
930.894	11954
930.998	11840
931.103	11958
931.207	11642
931.311	11539
931.415	11486
931.519	11239
931.623	11212
