Data from test_V78500241_835.txt Node
Date: Fri Mar 25 15:15:40 CST 2022
User: usil
Spectrometer: V785-0024
Trigger mode: 0
Integration Time (sec): 4.000000E-1
Scans to average: 1
Nonlinearity correction enabled: false
Boxcar width: 0
Storing dark spectrum: false
XAxis mode: Wavelengths
Number of Pixels in Spectrum: 1024
>>>>>Begin Spectral Data<<<<<
801.071	28268
801.214	28272
801.356	28032
801.499	28002
801.641	27899
801.783	27968
801.926	27930
802.068	27705
802.211	27762
802.353	27625
802.496	27511
802.638	27549
802.78	27667
802.923	27469
803.065	27363
803.208	27523
803.35	27530
803.492	27774
803.635	27694
803.777	27663
803.919	27694
804.061	28013
804.204	27713
804.346	27717
804.488	27698
804.63	27724
804.773	27622
804.915	27736
805.057	27964
805.199	27865
805.341	27728
805.483	27797
805.626	27869
805.768	27789
805.91	27770
806.052	27835
806.194	27812
806.336	28128
806.478	28109
806.62	28021
806.762	28116
806.904	28048
807.046	28401
807.188	28424
807.33	28223
807.472	28367
807.614	28226
807.756	28223
807.898	28306
808.04	28162
808.182	28150
808.324	28200
808.465	28150
808.607	28451
808.749	28554
808.891	28588
809.033	28580
809.174	28653
809.316	28538
809.458	28596
809.6	28478
809.741	28698
809.883	28672
810.025	28820
810.166	28927
810.308	28850
810.45	28755
810.591	28759
810.733	28664
810.875	28622
811.016	28493
811.158	28603
811.299	28523
811.441	28729
811.582	28694
811.724	28565
811.865	28538
812.007	28516
812.148	28538
812.29	28523
812.431	28812
812.573	28847
812.714	28934
812.855	29003
812.997	29223
813.138	29463
813.279	29341
813.421	29105
813.562	29178
813.703	28888
813.845	28774
813.986	28588
814.127	28375
814.268	28314
814.41	28280
814.551	28257
814.692	28341
814.833	28375
814.974	28124
815.115	28287
815.256	28143
815.397	28154
815.539	28093
815.68	27975
815.821	27884
815.962	28051
816.103	28093
816.244	27922
816.385	27914
816.526	27907
816.666	27793
816.807	27587
816.948	27717
817.089	27762
817.23	27743
817.371	27644
817.512	27698
817.653	27397
817.793	27485
817.934	27504
818.075	27496
818.216	27610
818.356	27530
818.497	27477
818.638	27287
818.778	27397
818.919	27477
819.06	27351
819.2	27477
819.341	27534
819.481	27637
819.622	27869
819.762	27880
819.903	27827
820.043	27736
820.184	27823
820.324	27709
820.465	27682
820.605	27652
820.746	27663
820.886	27610
821.026	27759
821.167	27759
821.307	27770
821.447	27641
821.588	27538
821.728	27473
821.868	27176
822.008	27070
822.149	27169
822.289	27047
822.429	26880
822.569	26823
822.709	26769
822.849	26511
822.99	26590
823.13	26594
823.27	26427
823.41	26396
823.55	26328
823.69	26355
823.83	26374
823.97	26389
824.11	26115
824.25	26199
824.389	26305
824.529	26366
824.669	26134
824.809	26370
824.949	26290
825.089	26385
825.228	26240
825.368	26149
825.508	26157
825.648	26115
825.787	26149
825.927	26092
826.067	26084
826.206	26069
826.346	26043
826.485	26206
826.625	25989
826.765	26195
826.904	26187
827.044	25921
827.183	25845
827.323	25769
827.462	25913
827.601	25917
827.741	25849
827.88	25856
828.02	25586
828.159	25788
828.298	25963
828.437	26001
828.577	25700
828.716	25898
828.855	25734
828.994	25445
829.134	25594
829.273	25575
829.412	25563
829.551	25453
829.69	25403
829.829	25529
829.968	25731
830.107	25559
830.246	25438
830.385	25369
830.524	25403
830.663	25369
830.802	25152
830.941	25084
831.08	25103
831.219	25213
831.357	25175
831.496	25354
831.635	25251
831.774	25107
831.913	25000
832.051	24958
832.19	25015
832.329	24947
832.467	24913
832.606	24791
832.744	24878
832.883	24730
833.022	24749
833.16	24886
833.299	24871
833.437	24802
833.576	24970
833.714	24802
833.852	24935
833.991	24981
834.129	24996
834.267	25065
834.406	24928
834.544	24970
834.682	24970
834.821	24814
834.959	25084
835.097	24787
835.235	24966
835.373	24871
835.511	24757
835.65	24688
835.788	24688
835.926	24730
836.064	24502
836.202	24532
836.34	24772
836.478	24639
836.615	24620
836.753	24890
836.891	24890
837.029	24833
837.167	24703
837.305	24650
837.443	24620
837.58	24616
837.718	24517
837.856	24593
837.993	24563
838.131	24471
838.269	24407
838.406	24441
838.544	24190
838.681	24289
838.819	24117
838.956	24041
839.094	24117
839.231	24167
839.369	24144
839.506	24418
839.643	24140
839.781	24041
839.918	23973
840.055	24152
840.193	23954
840.33	23950
840.467	23882
840.604	23882
840.742	24277
840.879	23722
841.016	23999
841.153	23851
841.29	24026
841.427	23874
841.564	23916
841.701	23920
841.838	23874
841.975	23832
842.112	23779
842.249	23745
842.385	23729
842.522	23786
842.659	23828
842.796	23707
842.933	23733
843.069	23684
843.206	23596
843.343	23767
843.479	23638
843.616	23611
843.752	23562
843.889	23516
844.025	23672
844.162	23471
844.298	23566
844.435	23459
844.571	23391
844.708	23490
844.844	23722
844.98	23646
845.117	23668
845.253	23391
845.389	23345
845.525	23398
845.661	23315
845.798	23155
845.934	23178
846.07	23193
846.206	23159
846.342	23296
846.478	23178
846.614	23090
846.75	22961
846.886	22900
847.022	23071
847.158	22991
847.294	22911
847.429	22961
847.565	22809
847.701	23212
847.837	22668
847.972	22626
848.108	22873
848.244	22752
848.379	22607
848.515	22497
848.65	22565
848.786	22516
848.921	22618
849.057	22607
849.192	22500
849.328	22577
849.463	22504
849.598	22538
849.734	22424
849.869	22291
850.004	22249
850.14	22382
850.275	22325
850.41	22150
850.545	22230
850.68	22230
850.815	22234
850.95	22268
851.085	22443
851.22	22432
851.355	22261
851.49	22173
851.625	22173
851.76	22185
851.895	22223
852.03	22082
852.165	22181
852.299	22268
852.434	22192
852.569	22177
852.703	22215
852.838	22303
852.973	22462
853.107	22390
853.242	22086
853.376	22135
853.511	22051
853.645	21915
853.78	22109
853.914	22177
854.048	21991
854.183	22082
854.317	22177
854.451	22299
854.585	22192
854.72	22090
854.854	22207
854.988	22051
855.122	22074
855.256	22040
855.39	22120
855.524	22139
855.658	22169
855.792	22090
855.926	22090
856.06	22082
856.194	22257
856.327	22124
856.461	22131
856.595	22013
856.729	22032
856.862	22150
856.996	22093
857.13	22109
857.263	22192
857.397	22223
857.53	22177
857.664	22131
857.797	22204
857.931	22272
858.064	22082
858.197	22192
858.331	22150
858.464	21915
858.597	22082
858.731	22082
858.864	22070
858.997	22059
859.13	21953
859.263	22051
859.396	22112
859.529	22048
859.662	21956
859.795	22067
859.928	22166
860.061	22306
860.194	22139
860.327	22192
860.46	22139
860.592	22299
860.725	22246
860.858	22139
860.99	22021
861.123	22055
861.256	22051
861.388	22051
861.521	22911
861.653	21926
861.786	21934
861.918	21934
862.05	21991
862.183	22021
862.315	21983
862.447	22124
862.58	22040
862.712	21724
862.844	21800
862.976	21934
863.108	21960
863.24	22124
863.372	21835
863.504	21720
863.636	21785
863.768	21778
863.9	21804
864.032	21743
864.164	21709
864.296	21873
864.428	21926
864.559	21800
864.691	21793
864.823	21720
864.954	21873
865.086	21854
865.217	21701
865.349	21526
865.48	21641
865.612	21751
865.743	21717
865.875	21648
866.006	21743
866.137	21743
866.269	21720
866.4	21728
866.531	21675
866.662	21561
866.793	21599
866.924	21751
867.055	21709
867.186	21595
867.317	21549
867.448	21488
867.579	21542
867.71	21553
867.841	21473
867.972	21618
868.103	21698
868.233	21568
868.364	21580
868.495	21656
868.625	21804
868.756	22143
868.886	21762
869.017	21747
869.147	21934
869.278	21964
869.408	21861
869.539	21854
869.669	21888
869.799	21827
869.929	22032
870.06	21968
870.19	22090
870.32	22112
870.45	22169
870.58	22154
870.71	22272
870.84	22382
870.97	22303
871.1	22280
871.23	22440
871.36	22436
871.489	22177
871.619	22386
871.749	22443
871.879	22432
872.008	22538
872.138	22615
872.267	22527
872.397	22310
872.526	22276
872.656	22447
872.785	22226
872.915	22455
873.044	22497
873.173	22371
873.303	22557
873.432	22531
873.561	22546
873.69	22405
873.819	22455
873.948	22580
874.077	22466
874.206	22523
874.335	22489
874.464	22557
874.593	22615
874.722	22603
874.851	22679
874.979	22725
875.108	22763
875.237	22649
875.365	22611
875.494	22546
875.623	22748
875.751	22592
875.88	22675
876.008	22790
876.136	22805
876.265	22999
876.393	23261
876.521	23102
876.65	23018
876.778	22953
876.906	23018
877.034	22923
877.162	23132
877.29	22957
877.418	23006
877.546	23071
877.674	22904
877.802	23022
877.93	22904
878.058	22949
878.185	22908
878.313	23014
878.441	22961
878.568	22889
878.696	22915
878.824	22965
878.951	23117
879.079	23064
879.206	23364
879.333	23071
879.461	22934
879.588	23147
879.715	23083
879.842	23159
879.97	23094
880.097	22850
880.224	22824
880.351	22812
880.478	22873
880.605	22778
880.732	22706
880.859	23052
880.986	22801
881.112	22767
881.239	22565
881.366	22618
881.493	22546
881.619	22318
881.746	22344
881.872	22352
881.999	22268
882.125	22303
882.252	22432
882.378	22386
882.505	22413
882.631	22154
882.757	22086
882.883	22177
883.01	22048
883.136	21968
883.262	21994
883.388	21907
883.514	22105
883.64	22124
883.766	21998
883.892	21827
884.018	21857
884.143	22059
884.269	22105
884.395	21861
884.52	21736
884.646	21675
884.772	21603
884.897	21766
885.023	21679
885.148	21682
885.274	21903
885.399	21747
885.524	21705
885.65	21720
885.775	21713
885.9	21648
886.025	21869
886.15	21690
886.275	21663
886.4	21507
886.525	21694
886.65	21629
886.775	21637
886.9	21808
887.025	21926
887.149	21705
887.274	21447
887.399	21523
887.523	21599
887.648	21359
887.773	21458
887.897	21424
888.021	21481
888.146	21397
888.27	21610
888.395	21447
888.519	21519
888.643	21466
888.767	21538
888.891	21283
889.015	21275
889.139	21336
889.263	21298
889.387	21302
889.511	21504
889.635	21412
889.759	21298
889.883	21233
890.006	21241
890.13	21370
890.254	21180
890.377	21032
890.501	20906
890.624	20975
890.748	21032
890.871	20826
890.995	20815
891.118	20746
891.241	20823
891.364	20819
891.488	20872
891.611	20849
891.734	20895
891.857	20906
891.98	20743
892.103	20937
892.226	20944
892.349	20765
892.471	20537
892.594	20697
892.717	20868
892.839	20697
892.962	20712
893.085	20693
893.207	20674
893.33	20495
893.452	20575
893.575	20754
893.697	20636
893.819	20876
893.941	20906
894.064	20804
894.186	20568
894.308	20632
894.43	20834
894.552	20868
894.674	20731
894.796	20640
894.918	20663
895.04	20659
895.161	20762
895.283	20743
895.405	20590
895.526	20746
895.648	20621
895.769	20640
895.891	20708
896.012	20838
896.134	20689
896.255	20743
896.376	20598
896.498	20773
896.619	20708
896.74	20754
896.861	20804
896.982	20998
897.103	21058
897.224	20960
897.345	20963
897.466	20815
897.587	20948
897.708	21005
897.828	20925
897.949	20838
898.07	20720
898.19	20838
898.311	20941
898.431	20811
898.552	20883
898.672	20906
898.792	20891
898.913	20861
899.033	20743
899.153	20724
899.273	20583
899.393	20609
899.513	20583
899.633	20632
899.753	20659
899.873	20617
899.993	20663
900.113	20549
900.232	20609
900.352	20530
900.472	20522
900.591	20351
900.711	20370
900.83	20431
900.95	20499
901.069	20488
901.189	20298
901.308	20054
901.427	19947
901.546	19967
901.665	20008
901.784	20069
901.904	19906
902.023	19677
902.141	19540
902.26	19518
902.379	19537
902.498	19430
902.617	19468
902.735	19491
902.854	19415
902.973	19400
903.091	19217
903.21	19141
903.328	19114
903.446	19110
903.565	18973
903.683	18981
903.801	18970
903.919	18856
904.038	18901
904.156	18726
904.274	18844
904.392	18681
904.51	18715
904.627	18665
904.745	18722
904.863	18798
904.981	18578
905.098	18323
905.216	18323
905.334	18414
905.451	18319
905.569	18467
905.686	18357
905.803	18395
905.921	18057
906.038	18140
906.155	18106
906.272	18114
906.389	18117
906.506	17916
906.623	17889
906.74	17912
906.857	17847
906.974	17771
907.091	17950
907.208	18003
907.324	17897
907.441	17843
907.557	17585
907.674	17646
907.79	17600
907.907	17634
908.023	17604
908.139	17532
908.256	17634
908.372	17501
908.488	17467
908.604	17364
908.72	17391
908.836	17452
908.952	17303
909.068	17471
909.184	17444
909.3	17341
909.415	17334
909.531	17265
909.647	17136
909.762	16995
909.878	17124
909.993	17094
910.108	16949
910.224	16991
910.339	16987
910.454	16957
910.57	16847
910.685	16896
910.8	17086
910.915	17067
911.03	16877
911.145	16698
911.259	16573
911.374	16660
911.489	16550
911.604	16466
911.718	16440
911.833	16314
911.947	16223
912.062	16093
912.176	16303
912.291	16337
912.405	16428
912.519	16516
912.633	16550
912.748	16325
912.862	16329
912.976	16253
913.09	16112
913.204	16181
913.318	16063
913.431	16318
913.545	16246
913.659	16303
913.772	16139
913.886	16078
914	15960
914.113	16002
914.226	16093
914.34	16086
914.453	15888
914.566	15994
914.68	15770
914.793	15819
914.906	15656
915.019	15641
915.132	15545
915.245	15538
915.358	15660
915.47	15595
915.583	15500
915.696	15629
915.809	15622
915.921	15739
916.034	15500
916.146	15519
916.259	15439
916.371	15576
916.483	15606
916.595	15450
916.708	15401
916.82	15435
916.932	15458
917.044	15351
917.156	15469
917.268	15195
917.38	15298
917.491	15188
917.603	15146
917.715	15367
917.826	15382
917.938	15192
918.049	15097
918.161	15226
918.272	15294
918.384	15348
918.495	15112
918.606	15032
918.717	14925
918.828	15066
918.939	14998
919.05	14819
919.161	15001
919.272	14750
919.383	14739
919.494	15001
919.604	15195
919.715	15017
919.826	14891
919.936	14944
920.047	14967
920.157	14838
920.267	15150
920.378	14895
920.488	14948
920.598	15058
920.708	15211
920.818	15066
920.928	14990
921.038	15203
921.148	15093
921.258	14864
921.368	14880
921.477	14716
921.587	14651
921.697	14552
921.806	14625
921.916	14533
922.025	14400
922.134	14267
922.244	14252
922.353	14313
922.462	14142
922.571	14096
922.68	13883
922.789	13909
922.898	13974
923.007	13925
923.116	13932
923.224	13906
923.333	13909
923.442	13845
923.55	13715
923.659	13852
923.767	13830
923.876	13658
923.984	13769
924.092	13658
924.201	13620
924.309	13734
924.417	13689
924.525	13628
924.633	13506
924.741	14568
924.849	13403
924.956	13533
925.064	13388
925.172	13331
925.279	13274
925.387	13388
925.494	13438
925.602	13529
925.709	13369
925.816	13236
925.924	13282
926.031	13247
926.138	13274
926.245	13362
926.352	13179
926.459	13297
926.566	13259
926.673	13206
926.779	13091
926.886	13160
926.993	12901
927.099	12856
927.206	12886
927.312	12916
927.419	12821
927.525	12871
927.631	12875
927.737	12772
927.843	12749
927.95	12563
928.056	12730
928.162	12639
928.267	12798
928.373	13255
928.479	12806
928.585	12593
928.69	12650
928.796	12745
928.901	12551
929.007	12410
929.112	12555
929.218	12521
929.323	12426
929.428	12441
929.533	12612
929.638	12380
929.743	12372
929.848	12361
929.953	12315
930.058	12209
930.163	12083
930.267	12072
930.372	12232
930.477	12041
930.581	12262
930.685	12098
930.79	11973
930.894	11992
930.998	11961
931.103	12114
931.207	11748
931.311	11592
931.415	11562
931.519	11349
931.623	11356
