Data from test_V78500241_790.txt Node
Date: Fri Mar 25 15:15:21 CST 2022
User: usil
Spectrometer: V785-0024
Trigger mode: 0
Integration Time (sec): 4.000000E-1
Scans to average: 1
Nonlinearity correction enabled: false
Boxcar width: 0
Storing dark spectrum: false
XAxis mode: Wavelengths
Number of Pixels in Spectrum: 1024
>>>>>Begin Spectral Data<<<<<
801.071	28265
801.214	28348
801.356	27968
801.499	27998
801.641	27888
801.783	27854
801.926	27964
802.068	27968
802.211	27728
802.353	27660
802.496	27603
802.638	27587
802.78	27568
802.923	27431
803.065	27447
803.208	27625
803.35	27564
803.492	27709
803.635	27774
803.777	27576
803.919	27797
804.061	27956
804.204	27717
804.346	27667
804.488	27606
804.63	27675
804.773	27542
804.915	27728
805.057	27861
805.199	27724
805.341	27880
805.483	27903
805.626	27823
805.768	27698
805.91	27808
806.052	27922
806.194	27842
806.336	28006
806.478	27914
806.62	27960
806.762	27998
806.904	28093
807.046	28333
807.188	28128
807.33	28257
807.472	28329
807.614	28135
807.756	28242
807.898	28135
808.04	28090
808.182	28181
808.324	28238
808.465	28196
808.607	28432
808.749	28512
808.891	28550
809.033	28561
809.174	28550
809.316	28512
809.458	28649
809.6	28493
809.741	28748
809.883	28645
810.025	28831
810.166	28744
810.308	28858
810.45	28767
810.591	28664
810.733	28740
810.875	28603
811.016	28485
811.158	28470
811.299	28668
811.441	28565
811.582	28721
811.724	28736
811.865	28565
812.007	28481
812.148	28634
812.29	28516
812.431	28771
812.573	28824
812.714	28995
812.855	29143
812.997	29136
813.138	29258
813.279	29098
813.421	29204
813.562	29003
813.703	28923
813.845	28976
813.986	28436
814.127	28322
814.268	28204
814.41	28238
814.551	28196
814.692	28379
814.833	28268
814.974	28124
815.115	28238
815.256	28234
815.397	28162
815.539	28131
815.68	28029
815.821	28032
815.962	28067
816.103	28025
816.244	27869
816.385	27991
816.526	27869
816.666	27739
816.807	27504
816.948	27679
817.089	27675
817.23	27629
817.371	27701
817.512	27690
817.653	27591
817.793	27549
817.934	27576
818.075	27545
818.216	27732
818.356	27408
818.497	27393
818.638	27302
818.778	27329
818.919	27329
819.06	27557
819.2	27530
819.341	27534
819.481	27523
819.622	27717
819.762	27876
819.903	27873
820.043	27835
820.184	27728
820.324	27724
820.465	27819
820.605	27709
820.746	27724
820.886	27454
821.026	27732
821.167	27538
821.307	27682
821.447	27667
821.588	27386
821.728	27264
821.868	27169
822.008	26948
822.149	27055
822.289	26963
822.429	26804
822.569	26674
822.709	26758
822.849	26598
822.99	26499
823.13	26560
823.27	26522
823.41	26362
823.55	26252
823.69	26419
823.83	26412
823.97	26442
824.11	26301
824.25	26313
824.389	26244
824.529	26267
824.669	26039
824.809	26237
824.949	26339
825.089	26358
825.228	26294
825.368	26077
825.508	25951
825.648	26088
825.787	26088
825.927	26153
826.067	26046
826.206	26069
826.346	26081
826.485	26271
826.625	26183
826.765	26122
826.904	26195
827.044	25811
827.183	25852
827.323	25807
827.462	25932
827.601	25864
827.741	25811
827.88	25963
828.02	25674
828.159	25799
828.298	25757
828.437	25772
828.577	25841
828.716	25982
828.855	25666
828.994	25556
829.134	25677
829.273	25575
829.412	25472
829.551	25537
829.69	25594
829.829	25552
829.968	25700
830.107	25639
830.246	25563
830.385	25464
830.524	25362
830.663	25430
830.802	25225
830.941	25091
831.08	25160
831.219	25164
831.357	25270
831.496	25400
831.635	25183
831.774	25072
831.913	25038
832.051	24886
832.19	25000
832.329	25034
832.467	24760
832.606	24741
832.744	24757
832.883	24703
833.022	24783
833.16	24757
833.299	24894
833.437	24745
833.576	24825
833.714	24829
833.852	24920
833.991	24901
834.129	25031
834.267	24958
834.406	24905
834.544	24856
834.682	24897
834.821	24924
834.959	25046
835.097	24700
835.235	24981
835.373	24696
835.511	24954
835.65	24734
835.788	24696
835.926	24601
836.064	24563
836.202	24589
836.34	24703
836.478	24726
836.615	24692
836.753	24700
836.891	24684
837.029	24825
837.167	24437
837.305	24559
837.443	24673
837.58	24563
837.718	24726
837.856	24509
837.993	24399
838.131	24445
838.269	24437
838.406	24460
838.544	24232
838.681	24266
838.819	24076
838.956	24045
839.094	23931
839.231	24129
839.369	24140
839.506	24422
839.643	24292
839.781	24007
839.918	24003
840.055	24083
840.193	23889
840.33	23874
840.467	23851
840.604	23977
840.742	24068
840.879	23843
841.016	23859
841.153	23760
841.29	23958
841.427	23802
841.564	23992
841.701	23920
841.838	23912
841.975	23710
842.112	23832
842.249	23608
842.385	23646
842.522	23680
842.659	23714
842.796	23501
842.933	23699
843.069	23634
843.206	23619
843.343	23710
843.479	23600
843.616	23653
843.752	23577
843.889	23474
844.025	23535
844.162	23410
844.298	23600
844.435	23433
844.571	23318
844.708	23497
844.844	23596
844.98	23558
845.117	23570
845.253	23383
845.389	23311
845.525	23307
845.661	23341
845.798	23242
845.934	23242
846.07	23117
846.206	23128
846.342	23212
846.478	23067
846.614	23056
846.75	22744
846.886	22824
847.022	22961
847.158	22911
847.294	22942
847.429	22858
847.565	22854
847.701	23216
847.837	22713
847.972	22561
848.108	22771
848.244	22733
848.379	22451
848.515	22432
848.65	22398
848.786	22443
848.921	22413
849.057	22641
849.192	22512
849.328	22554
849.463	22508
849.598	22394
849.734	22428
849.869	22265
850.004	22249
850.14	22360
850.275	22303
850.41	22280
850.545	22173
850.68	22276
850.815	22200
850.95	22219
851.085	22314
851.22	22409
851.355	22253
851.49	22177
851.625	22284
851.76	22249
851.895	22154
852.03	22192
852.165	22192
852.299	22295
852.434	22272
852.569	22219
852.703	22234
852.838	22402
852.973	22295
853.107	22341
853.242	22162
853.376	22150
853.511	21888
853.645	22082
853.78	22097
853.914	22090
854.048	22082
854.183	22128
854.317	22097
854.451	22204
854.585	22074
854.72	21972
854.854	22101
854.988	21991
855.122	22055
855.256	21808
855.39	22067
855.524	22048
855.658	21991
855.792	22059
855.926	22139
856.06	22090
856.194	22204
856.327	22105
856.461	22112
856.595	21873
856.729	21964
856.862	22215
856.996	22131
857.13	22150
857.263	22211
857.397	22135
857.53	22067
857.664	22143
857.797	22143
857.931	22109
858.064	22017
858.197	22120
858.331	22002
858.464	22154
858.597	21838
858.731	22063
858.864	22029
858.997	22021
859.13	22070
859.263	22029
859.396	22112
859.529	22040
859.662	22025
859.795	21972
859.928	22143
860.061	22143
860.194	22234
860.327	22147
860.46	22078
860.592	22158
860.725	22246
860.858	22048
860.99	22055
861.123	22048
861.256	21911
861.388	22025
861.521	22729
861.653	22002
861.786	21911
861.918	21880
862.05	21876
862.183	21793
862.315	22078
862.447	22040
862.58	21972
862.712	21660
862.844	21755
862.976	21781
863.108	21846
863.24	22280
863.372	21660
863.504	21827
863.636	21652
863.768	21762
863.9	21774
864.032	21679
864.164	21823
864.296	21759
864.428	21804
864.559	21827
864.691	21739
864.823	21831
864.954	21770
865.086	21675
865.217	21545
865.349	21488
865.48	21644
865.612	21720
865.743	21785
865.875	21591
866.006	21633
866.137	21622
866.269	21618
866.4	21614
866.531	21614
866.662	21557
866.793	21568
866.924	21580
867.055	21686
867.186	21709
867.317	21534
867.448	21507
867.579	21564
867.71	21435
867.841	21511
867.972	21568
868.103	21641
868.233	21542
868.364	21466
868.495	21599
868.625	21709
868.756	21945
868.886	21705
869.017	21770
869.147	21793
869.278	21915
869.408	21918
869.539	21778
869.669	21797
869.799	21850
869.929	21850
870.06	21956
870.19	22139
870.32	22211
870.45	22051
870.58	22116
870.71	22352
870.84	22192
870.97	22074
871.1	22265
871.23	22447
871.36	22382
871.489	22413
871.619	22329
871.749	22306
871.879	22341
872.008	22504
872.138	22379
872.267	22238
872.397	22246
872.526	22211
872.656	22086
872.785	22200
872.915	22413
873.044	22394
873.173	22386
873.303	22379
873.432	22424
873.561	22512
873.69	22318
873.819	22405
873.948	22470
874.077	22398
874.206	22375
874.335	22360
874.464	22554
874.593	22679
874.722	22550
874.851	22660
874.979	22721
875.108	22603
875.237	22577
875.365	22573
875.494	22641
875.623	22755
875.751	22527
875.88	22645
876.008	22812
876.136	22850
876.265	22991
876.393	23147
876.521	23025
876.65	23124
876.778	23060
876.906	22828
877.034	22987
877.162	23044
877.29	22930
877.418	23041
877.546	22927
877.674	22923
877.802	22904
877.93	22835
878.058	22900
878.185	22873
878.313	22991
878.441	23010
878.568	22710
878.696	22866
878.824	22984
878.951	23075
879.079	23170
879.206	23200
879.333	23193
879.461	23086
879.588	23025
879.715	23056
879.842	23117
879.97	23003
880.097	22721
880.224	22763
880.351	22797
880.478	22698
880.605	22748
880.732	22672
880.859	22915
880.986	22782
881.112	22729
881.239	22630
881.366	22508
881.493	22363
881.619	22462
881.746	22295
881.872	22318
881.999	22375
882.125	22276
882.252	22436
882.378	22352
882.505	22447
882.631	22280
882.757	22051
882.883	22090
883.01	22021
883.136	22013
883.262	21797
883.388	21983
883.514	22017
883.64	21960
883.766	21903
883.892	21797
884.018	21743
884.143	22059
884.269	21968
884.395	21789
884.52	21641
884.646	21648
884.772	21637
884.897	21477
885.023	21717
885.148	21694
885.274	21736
885.399	21698
885.524	21713
885.65	21698
885.775	21713
885.9	21671
886.025	21755
886.15	21873
886.275	21717
886.4	21568
886.525	21724
886.65	21526
886.775	21538
886.9	21766
887.025	21835
887.149	21660
887.274	21450
887.399	21355
887.523	21488
887.648	21473
887.773	21321
887.897	21458
888.021	21420
888.146	21313
888.27	21599
888.395	21545
888.519	21530
888.643	21348
888.767	21466
888.891	21348
889.015	21119
889.139	21298
889.263	21138
889.387	21359
889.511	21348
889.635	21344
889.759	21150
889.883	21245
890.006	21119
890.13	21302
890.254	21180
890.377	21211
890.501	20944
890.624	20902
890.748	20998
890.871	20880
890.995	20777
891.118	20663
891.241	20819
891.364	20724
891.488	20849
891.611	20667
891.734	20876
891.857	20883
891.98	20758
892.103	20857
892.226	20834
892.349	20663
892.471	20564
892.594	20659
892.717	20693
892.839	20587
892.962	20689
893.085	20674
893.207	20663
893.33	20632
893.452	20613
893.575	20758
893.697	20621
893.819	20842
893.941	20921
894.064	20796
894.186	20571
894.308	20644
894.43	20826
894.552	20743
894.674	20777
894.796	20450
894.918	20716
895.04	20598
895.161	20720
895.283	20644
895.405	20545
895.526	20609
895.648	20644
895.769	20716
895.891	20705
896.012	20788
896.134	20697
896.255	20556
896.376	20651
896.498	20663
896.619	20640
896.74	20724
896.861	20781
896.982	21112
897.103	21081
897.224	20982
897.345	20853
897.466	20781
897.587	20948
897.708	20994
897.828	20834
897.949	20735
898.07	20727
898.19	20743
898.311	20956
898.431	20838
898.552	20921
898.672	20891
898.792	20868
898.913	20876
899.033	20678
899.153	20670
899.273	20568
899.393	20560
899.513	20499
899.633	20583
899.753	20651
899.873	20469
899.993	20724
900.113	20499
900.232	20541
900.352	20522
900.472	20469
900.591	20301
900.711	20442
900.83	20431
900.95	20400
901.069	20503
901.189	20240
901.308	20081
901.427	19940
901.546	20062
901.665	20039
901.784	19932
901.904	19772
902.023	19700
902.141	19613
902.26	19468
902.379	19491
902.498	19499
902.617	19472
902.735	19457
902.854	19422
902.973	19297
903.091	19304
903.21	19038
903.328	19152
903.446	19107
903.565	18951
903.683	19072
903.801	18973
903.919	18768
904.038	18916
904.156	18669
904.274	18776
904.392	18654
904.51	18612
904.627	18642
904.745	18844
904.863	18661
904.981	18471
905.098	18391
905.216	18407
905.334	18357
905.451	18254
905.569	18315
905.686	18369
905.803	18308
905.921	18098
906.038	18220
906.155	18034
906.272	18087
906.389	18049
906.506	17950
906.623	17965
906.74	17901
906.857	17722
906.974	17786
907.091	17927
907.208	17950
907.324	17923
907.441	17771
907.557	17623
907.674	17627
907.79	17440
907.907	17611
908.023	17539
908.139	17539
908.256	17573
908.372	17497
908.488	17535
908.604	17402
908.72	17334
908.836	17280
908.952	17349
909.068	17334
909.184	17372
909.3	17318
909.415	17372
909.531	17311
909.647	16972
909.762	17006
909.878	17060
909.993	16957
910.108	16984
910.224	16896
910.339	16885
910.454	16835
910.57	16786
910.685	16771
910.8	17086
910.915	16885
911.03	16797
911.145	16687
911.259	16672
911.374	16668
911.489	16519
911.604	16504
911.718	16341
911.833	16356
911.947	16124
912.062	16173
912.176	16398
912.291	16333
912.405	16291
912.519	16485
912.633	16470
912.748	16402
912.862	16291
912.976	16177
913.09	16029
913.204	16139
913.318	16162
913.431	16234
913.545	16226
913.659	16154
913.772	16128
913.886	16010
914	15888
914.113	15960
914.226	16040
914.34	16143
914.453	15720
914.566	15949
914.68	15854
914.793	15850
914.906	15587
915.019	15641
915.132	15450
915.245	15496
915.358	15599
915.47	15542
915.583	15523
915.696	15557
915.809	15618
915.921	15675
916.034	15420
916.146	15447
916.259	15397
916.371	15488
916.483	15447
916.595	15382
916.708	15329
916.82	15378
916.932	15389
917.044	15336
917.156	15317
917.268	15188
917.38	15146
917.491	15180
917.603	15138
917.715	15199
917.826	15188
917.938	15066
918.049	14990
918.161	15070
918.272	15256
918.384	15173
918.495	15112
918.606	14891
918.717	14906
918.828	14941
918.939	14887
919.05	14785
919.161	14861
919.272	14693
919.383	14632
919.494	14910
919.604	15146
919.715	14891
919.826	14819
919.936	14781
920.047	14986
920.157	14906
920.267	14990
920.378	14857
920.488	14785
920.598	15039
920.708	15154
920.818	14925
920.928	15009
921.038	15241
921.148	15127
921.258	14868
921.368	14746
921.477	14697
921.587	14560
921.697	14457
921.806	14651
921.916	14385
922.025	14355
922.134	14267
922.244	14221
922.353	14298
922.462	14088
922.571	14119
922.68	13860
922.789	13963
922.898	13864
923.007	13807
923.116	13978
923.224	13894
923.333	13864
923.442	13780
923.55	13662
923.659	13696
923.767	13689
923.876	13590
923.984	13700
924.092	13571
924.201	13708
924.309	13529
924.417	13616
924.525	13533
924.633	13529
924.741	14366
924.849	13327
924.956	13468
925.064	13289
925.172	13304
925.279	13293
925.387	13301
925.494	13301
925.602	13438
925.709	13320
925.816	13114
925.924	13266
926.031	13335
926.138	13270
926.245	13308
926.352	13069
926.459	13285
926.566	13289
926.673	13160
926.779	13000
926.886	12966
926.993	12935
927.099	12905
927.206	12798
927.312	12730
927.419	12897
927.525	12840
927.631	12840
927.737	12753
927.843	12795
927.95	12525
928.056	12582
928.162	12650
928.267	12681
928.373	13289
928.479	12616
928.585	12479
928.69	12681
928.796	12703
928.901	12604
929.007	12289
929.112	12559
929.218	12456
929.323	12422
929.428	12399
929.533	12448
929.638	12247
929.743	12308
929.848	12342
929.953	12346
930.058	12182
930.163	12026
930.267	12102
930.372	12178
930.477	11931
930.581	12190
930.685	12110
930.79	11908
930.894	11992
930.998	11855
931.103	12045
931.207	11684
931.311	11528
931.415	11551
931.519	11345
931.623	11269
