Data from test_V78500241_3455.txt Node
Date: Fri Mar 25 15:33:55 CST 2022
User: usil
Spectrometer: V785-0024
Trigger mode: 0
Integration Time (sec): 4.000000E-1
Scans to average: 1
Nonlinearity correction enabled: false
Boxcar width: 0
Storing dark spectrum: false
XAxis mode: Wavelengths
Number of Pixels in Spectrum: 1024
>>>>>Begin Spectral Data<<<<<
801.071	27195
801.214	27138
801.356	26948
801.499	26963
801.641	26743
801.783	26727
801.926	26815
802.068	26842
802.211	26762
802.353	26625
802.496	26495
802.638	26556
802.78	26381
802.923	26400
803.065	26377
803.208	26362
803.35	26453
803.492	26541
803.635	26655
803.777	26511
803.919	26701
804.061	26986
804.204	26590
804.346	26522
804.488	26465
804.63	26564
804.773	26385
804.915	26541
805.057	26739
805.199	26499
805.341	26697
805.483	26712
805.626	26880
805.768	26629
805.91	26735
806.052	26792
806.194	26807
806.336	26937
806.478	26663
806.62	26697
806.762	26697
806.904	26868
807.046	27230
807.188	27043
807.33	27184
807.472	27184
807.614	27142
807.756	27119
807.898	26975
808.04	26937
808.182	26727
808.324	26910
808.465	26872
808.607	27081
808.749	27154
808.891	27393
809.033	27420
809.174	27351
809.316	27317
809.458	27329
809.6	27211
809.741	27291
809.883	27439
810.025	27587
810.166	27583
810.308	27530
810.45	27481
810.591	27492
810.733	27393
810.875	27313
811.016	27192
811.158	27294
811.299	27496
811.441	27473
811.582	27431
811.724	27119
811.865	27287
812.007	27241
812.148	27249
812.29	27268
812.431	27477
812.573	27564
812.714	27682
812.855	27774
812.997	27911
813.138	28025
813.279	27842
813.421	27736
813.562	27686
813.703	27545
813.845	27564
813.986	27241
814.127	26967
814.268	26876
814.41	26986
814.551	26902
814.692	27077
814.833	26807
814.974	26960
815.115	27017
815.256	26682
815.397	26754
815.539	26887
815.68	26663
815.821	26842
815.962	26651
816.103	26655
816.244	26457
816.385	26518
816.526	26499
816.666	26290
816.807	26164
816.948	26328
817.089	26324
817.23	26145
817.371	26206
817.512	26225
817.653	26149
817.793	26138
817.934	26332
818.075	26149
818.216	26263
818.356	26240
818.497	26214
818.638	25944
818.778	26005
818.919	25913
819.06	25959
819.2	26149
819.341	26149
819.481	26058
819.622	26366
819.762	26484
819.903	26457
820.043	26412
820.184	26259
820.324	26351
820.465	26396
820.605	26431
820.746	26396
820.886	26233
821.026	26187
821.167	26252
821.307	26393
821.447	26225
821.588	26058
821.728	25974
821.868	25830
822.008	25757
822.149	25556
822.289	25544
822.429	25464
822.569	25350
822.709	25411
822.849	25206
822.99	25088
823.13	25148
823.27	25065
823.41	24977
823.55	24878
823.69	25126
823.83	25057
823.97	24951
824.11	24863
824.25	24669
824.389	24867
824.529	24814
824.669	24821
824.809	24943
824.949	24863
825.089	24932
825.228	24886
825.368	24665
825.508	24627
825.648	24722
825.787	24669
825.927	24749
826.067	24673
826.206	24589
826.346	24684
826.485	24810
826.625	24688
826.765	24852
826.904	24882
827.044	24589
827.183	24475
827.323	24407
827.462	24456
827.601	24502
827.741	24346
827.88	24551
828.02	24365
828.159	24350
828.298	24433
828.437	24410
828.577	24346
828.716	24452
828.855	24270
828.994	24144
829.134	24232
829.273	24197
829.412	24182
829.551	24076
829.69	24053
829.829	24197
829.968	24205
830.107	24247
830.246	24186
830.385	24015
830.524	24114
830.663	23916
830.802	23958
830.941	23771
831.08	23726
831.219	23824
831.357	23703
831.496	24034
831.635	23779
831.774	23627
831.913	23592
832.051	23478
832.19	23433
832.329	23577
832.467	23486
832.606	23379
832.744	23410
832.883	23551
833.022	23387
833.16	23497
833.299	23570
833.437	23372
833.576	23501
833.714	23539
833.852	23455
833.991	23585
834.129	23570
834.267	23547
834.406	23505
834.544	23657
834.682	23463
834.821	23341
834.959	23512
835.097	23558
835.235	23608
835.373	23505
835.511	23497
835.65	23322
835.788	23284
835.926	23143
836.064	23159
836.202	23220
836.34	23391
836.478	23455
836.615	23311
836.753	23372
836.891	23429
837.029	23376
837.167	23372
837.305	23132
837.443	23239
837.58	23250
837.718	23349
837.856	23231
837.993	23204
838.131	23254
838.269	23102
838.406	23064
838.544	23067
838.681	22911
838.819	22896
838.956	22645
839.094	22759
839.231	22721
839.369	22835
839.506	23041
839.643	22892
839.781	22740
839.918	22615
840.055	22603
840.193	22615
840.33	22626
840.467	22744
840.604	22675
840.742	22938
840.879	22466
841.016	22573
841.153	22519
841.29	22759
841.427	22497
841.564	22596
841.701	22466
841.838	22702
841.975	22508
842.112	22577
842.249	22584
842.385	22371
842.522	22634
842.659	22363
842.796	22360
842.933	22409
843.069	22409
843.206	22291
843.343	22356
843.479	22318
843.616	22363
843.752	22211
843.889	22192
844.025	22291
844.162	22249
844.298	22306
844.435	22238
844.571	22154
844.708	22242
844.844	22371
844.98	22215
845.117	22242
845.253	22192
845.389	21964
845.525	22032
845.661	22082
845.798	21895
845.934	21987
846.07	21816
846.206	21850
846.342	21941
846.478	21998
846.614	21652
846.75	21610
846.886	21618
847.022	21720
847.158	21667
847.294	21618
847.429	21526
847.565	21564
847.701	21861
847.837	21367
847.972	21310
848.108	21473
848.244	21466
848.379	21336
848.515	21264
848.65	21302
848.786	21245
848.921	21207
849.057	21378
849.192	21245
849.328	21294
849.463	21264
849.598	21214
849.734	21089
849.869	21055
850.004	21058
850.14	21096
850.275	21131
850.41	20941
850.545	20960
850.68	20861
850.815	21028
850.95	20963
851.085	21180
851.22	21226
851.355	21066
851.49	21036
851.625	20967
851.76	21043
851.895	20838
852.03	20944
852.165	20975
852.299	20986
852.434	21062
852.569	20944
852.703	21066
852.838	20944
852.973	21089
853.107	21150
853.242	20990
853.376	20872
853.511	20838
853.645	20773
853.78	20960
853.914	20815
854.048	20667
854.183	20781
854.317	20914
854.451	20982
854.585	20956
854.72	20804
854.854	20765
854.988	20735
855.122	20785
855.256	20785
855.39	20720
855.524	20754
855.658	20864
855.792	20701
855.926	20819
856.06	20765
856.194	20906
856.327	20800
856.461	20648
856.595	20773
856.729	20739
856.862	20914
856.996	20823
857.13	20826
857.263	20887
857.397	20720
857.53	20773
857.664	20910
857.797	20880
857.931	20982
858.064	20800
858.197	20861
858.331	20857
858.464	20785
858.597	20670
858.731	20868
858.864	20781
858.997	20830
859.13	20785
859.263	20785
859.396	20929
859.529	20796
859.662	20902
859.795	20746
859.928	20788
860.061	20998
860.194	20952
860.327	20941
860.46	20731
860.592	20834
860.725	20944
860.858	20921
860.99	20826
861.123	20678
861.256	20777
861.388	20838
861.521	21408
861.653	20705
861.786	20625
861.918	20640
862.05	20743
862.183	20754
862.315	20762
862.447	20914
862.58	20853
862.712	20499
862.844	20533
862.976	20590
863.108	20609
863.24	21062
863.372	20537
863.504	20511
863.636	20465
863.768	20530
863.9	20629
864.032	20560
864.164	20499
864.296	20511
864.428	20606
864.559	20598
864.691	20640
864.823	20655
864.954	20492
865.086	20431
865.217	20389
865.349	20294
865.48	20454
865.612	20442
865.743	20564
865.875	20495
866.006	20374
866.137	20412
866.269	20454
866.4	20320
866.531	20309
866.662	20366
866.793	20374
866.924	20347
867.055	20473
867.186	20431
867.317	20408
867.448	20305
867.579	20339
867.71	20298
867.841	20362
867.972	20358
868.103	20355
868.233	20324
868.364	20313
868.495	20476
868.625	20648
868.756	20686
868.886	20568
869.017	20739
869.147	20587
869.278	20762
869.408	20648
869.539	20625
869.669	20727
869.799	20667
869.929	20708
870.06	20716
870.19	20979
870.32	20960
870.45	20960
870.58	20975
870.71	21116
870.84	21226
870.97	20944
871.1	21089
871.23	21207
871.36	21161
871.489	21169
871.619	21203
871.749	21192
871.879	21252
872.008	21332
872.138	21203
872.267	21241
872.397	21135
872.526	20975
872.656	20956
872.785	21180
872.915	21214
873.044	21294
873.173	21260
873.303	21214
873.432	21214
873.561	21344
873.69	21332
873.819	21252
873.948	21329
874.077	21340
874.206	21348
874.335	21306
874.464	21237
874.593	21454
874.722	21454
874.851	21580
874.979	21447
875.108	21523
875.237	21458
875.365	21420
875.494	21469
875.623	21542
875.751	21355
875.88	21591
876.008	21507
876.136	21660
876.265	21823
876.393	21960
876.521	22002
876.65	22017
876.778	21934
876.906	21713
877.034	21774
877.162	21770
877.29	21778
877.418	21873
877.546	21918
877.674	21880
877.802	21781
877.93	21899
878.058	21781
878.185	21770
878.313	21759
878.441	21774
878.568	21663
878.696	21823
878.824	21888
878.951	21869
879.079	22067
879.206	22219
879.333	22048
879.461	21831
879.588	21941
879.715	22059
879.842	22242
879.97	21934
880.097	21603
880.224	21724
880.351	21747
880.478	21698
880.605	21652
880.732	21606
880.859	21953
880.986	21663
881.112	21720
881.239	21576
881.366	21317
881.493	21382
881.619	21310
881.746	21218
881.872	21306
881.999	21176
882.125	21150
882.252	21325
882.378	21169
882.505	21348
882.631	21077
882.757	21043
882.883	21108
883.01	20956
883.136	20872
883.262	20842
883.388	20842
883.514	20921
883.64	20979
883.766	20914
883.892	20773
884.018	20724
884.143	20788
884.269	20899
884.395	20655
884.52	20606
884.646	20632
884.772	20461
884.897	20545
885.023	20655
885.148	20674
885.274	20712
885.399	20655
885.524	20636
885.65	20564
885.775	20617
885.9	20495
886.025	20678
886.15	20678
886.275	20606
886.4	20552
886.525	20457
886.65	20434
886.775	20476
886.9	20640
887.025	20769
887.149	20568
887.274	20404
887.399	20328
887.523	20286
887.648	20282
887.773	20328
887.897	20473
888.021	20381
888.146	20336
888.27	20442
888.395	20431
888.519	20404
888.643	20427
888.767	20396
888.891	20263
889.015	20191
889.139	20248
889.263	20210
889.387	20271
889.511	20423
889.635	20389
889.759	20244
889.883	20206
890.006	20153
890.13	20267
890.254	20043
890.377	20084
890.501	19986
890.624	19932
890.748	19913
890.871	19746
890.995	19696
891.118	19677
891.241	19750
891.364	19753
891.488	19921
891.611	19715
891.734	19753
891.857	19803
891.98	19723
892.103	19799
892.226	19635
892.349	19655
892.471	19502
892.594	19651
892.717	19662
892.839	19674
892.962	19632
893.085	19727
893.207	19670
893.33	19571
893.452	19662
893.575	19597
893.697	19666
893.819	19712
893.941	19852
894.064	19837
894.186	19518
894.308	19651
894.43	19704
894.552	19814
894.674	19826
894.796	19586
894.918	19563
895.04	19677
895.161	19784
895.283	19674
895.405	19563
895.526	19723
895.648	19601
895.769	19655
895.891	19677
896.012	19666
896.134	19635
896.255	19674
896.376	19540
896.498	19655
896.619	19727
896.74	19658
896.861	19628
896.982	19944
897.103	20134
897.224	19955
897.345	19940
897.466	19818
897.587	19898
897.708	20039
897.828	19849
897.949	19879
898.07	19784
898.19	19769
898.311	19989
898.431	19868
898.552	19944
898.672	19887
898.792	19856
898.913	19909
899.033	19795
899.153	19704
899.273	19639
899.393	19693
899.513	19639
899.633	19635
899.753	19674
899.873	19696
899.993	19567
900.113	19601
900.232	19757
900.352	19464
900.472	19483
900.591	19388
900.711	19381
900.83	19335
900.95	19544
901.069	19597
901.189	19251
901.308	19114
901.427	18985
901.546	19050
901.665	19076
901.784	19015
901.904	18829
902.023	18829
902.141	18555
902.26	18559
902.379	18616
902.498	18593
902.617	18486
902.735	18692
902.854	18532
902.973	18391
903.091	18311
903.21	18125
903.328	18213
903.446	18182
903.565	18041
903.683	17931
903.801	17920
903.919	17961
904.038	17950
904.156	17847
904.274	17893
904.392	17802
904.51	17676
904.627	17779
904.745	17851
904.863	17802
904.981	17581
905.098	17547
905.216	17535
905.334	17535
905.451	17509
905.569	17452
905.686	17440
905.803	17417
905.921	17334
906.038	17353
906.155	17273
906.272	17193
906.389	17117
906.506	16995
906.623	17033
906.74	16965
906.857	17025
906.974	16968
907.091	17090
907.208	17006
907.324	17067
907.441	16866
907.557	16702
907.674	16649
907.79	16603
907.907	16672
908.023	16729
908.139	16668
908.256	16706
908.372	16653
908.488	16470
908.604	16523
908.72	16500
908.836	16462
908.952	16440
909.068	16405
909.184	16451
909.3	16409
909.415	16500
909.531	16367
909.647	16318
909.762	16078
909.878	16200
909.993	16234
910.108	16116
910.224	16188
910.339	16097
910.454	16032
910.57	15964
910.685	15953
910.8	16150
910.915	16101
911.03	15968
911.145	15793
911.259	15743
911.374	15800
911.489	15690
911.604	15625
911.718	15580
911.833	15534
911.947	15245
912.062	15363
912.176	15545
912.291	15473
912.405	15473
912.519	15660
912.633	15728
912.748	15580
912.862	15561
912.976	15336
913.09	15367
913.204	15340
913.318	15203
913.431	15359
913.545	15252
913.659	15355
913.772	15306
913.886	15192
914	15104
914.113	15195
914.226	15249
914.34	15097
914.453	14952
914.566	15195
914.68	15020
914.793	14971
914.906	14804
915.019	14689
915.132	14754
915.245	14796
915.358	14678
915.47	14743
915.583	14765
915.696	14857
915.809	14826
915.921	14887
916.034	14640
916.146	14621
916.259	14727
916.371	14792
916.483	14712
916.595	14587
916.708	14579
916.82	14564
916.932	14415
917.044	14522
917.156	14533
917.268	14317
917.38	14434
917.491	14362
917.603	14381
917.715	14549
917.826	14545
917.938	14381
918.049	14256
918.161	14484
918.272	14442
918.384	14450
918.495	14404
918.606	14256
918.717	14138
918.828	14240
918.939	14195
919.05	14107
919.161	14126
919.272	13993
919.383	14001
919.494	14206
919.604	14419
919.715	14119
919.826	14123
919.936	14115
920.047	14214
920.157	14149
920.267	14343
920.378	14206
920.488	14119
920.598	14298
920.708	14427
920.818	14294
920.928	14336
921.038	14434
921.148	14404
921.258	14088
921.368	14077
921.477	14058
921.587	13875
921.697	13788
921.806	13906
921.916	13818
922.025	13575
922.134	13499
922.244	13537
922.353	13559
922.462	13392
922.571	13400
922.68	13168
922.789	13206
922.898	13209
923.007	13091
923.116	13240
923.224	13175
923.333	13168
923.442	12977
923.55	12966
923.659	13015
923.767	12951
923.876	13008
923.984	13069
924.092	12985
924.201	12966
924.309	12947
924.417	12970
924.525	12798
924.633	12913
924.741	13696
924.849	12627
924.956	12772
925.064	12616
925.172	12582
925.279	12582
925.387	12662
925.494	12639
925.602	12688
925.709	12681
925.816	12460
925.924	12513
926.031	12669
926.138	12563
926.245	12677
926.352	12521
926.459	12532
926.566	12658
926.673	12494
926.779	12410
926.886	12323
926.993	12334
927.099	12159
927.206	12209
927.312	12247
927.419	12251
927.525	12251
927.631	12258
927.737	12155
927.843	12057
927.95	11916
928.056	12003
928.162	12083
928.267	12125
928.373	12616
928.479	12087
928.585	11912
928.69	12041
928.796	11950
928.901	11882
929.007	11805
929.112	11874
929.218	11771
929.323	11798
929.428	11794
929.533	11923
929.638	11646
929.743	11737
929.848	11798
929.953	11756
930.058	11558
930.163	11505
930.267	11505
930.372	11562
930.477	11463
930.581	11688
930.685	11509
930.79	11341
930.894	11334
930.998	11242
931.103	11448
931.207	11174
931.311	10976
931.415	10953
931.519	10763
931.623	10774
