Data from test_V78500241_3167.txt Node
Date: Fri Mar 25 15:31:54 CST 2022
User: usil
Spectrometer: V785-0024
Trigger mode: 0
Integration Time (sec): 4.000000E-1
Scans to average: 1
Nonlinearity correction enabled: false
Boxcar width: 0
Storing dark spectrum: false
XAxis mode: Wavelengths
Number of Pixels in Spectrum: 1024
>>>>>Begin Spectral Data<<<<<
801.071	27192
801.214	27070
801.356	26800
801.499	26651
801.641	26800
801.783	26655
801.926	26731
802.068	26583
802.211	26590
802.353	26495
802.496	26313
802.638	26381
802.78	26259
802.923	26339
803.065	26183
803.208	26199
803.35	26385
803.492	26351
803.635	26457
803.777	26324
803.919	26442
804.061	26655
804.204	26366
804.346	26336
804.488	26366
804.63	26389
804.773	26320
804.915	26434
805.057	26549
805.199	26339
805.341	26587
805.483	26609
805.626	26590
805.768	26389
805.91	26511
806.052	26537
806.194	26499
806.336	26697
806.478	26549
806.62	26450
806.762	26583
806.904	26819
807.046	27036
807.188	26979
807.33	27005
807.472	26910
807.614	26891
807.756	26819
807.898	26663
808.04	26849
808.182	26842
808.324	26762
808.465	26724
808.607	26971
808.749	27142
808.891	27195
809.033	27427
809.174	27173
809.316	27233
809.458	27104
809.6	27024
809.741	27211
809.883	27321
810.025	27382
810.166	27416
810.308	27275
810.45	27313
810.591	27348
810.733	27146
810.875	27180
811.016	27024
811.158	27005
811.299	27264
811.441	27458
811.582	27252
811.724	27116
811.865	27001
812.007	27036
812.148	26937
812.29	27127
812.431	27302
812.573	27355
812.714	27580
812.855	27603
812.997	27663
813.138	27724
813.279	27717
813.421	27519
813.562	27648
813.703	27359
813.845	27462
813.986	27154
814.127	26853
814.268	26811
814.41	26689
814.551	26792
814.692	26731
814.833	26758
814.974	26743
815.115	26785
815.256	26705
815.397	26583
815.539	26640
815.68	26453
815.821	26423
815.962	26556
816.103	26522
816.244	26465
816.385	26317
816.526	26324
816.666	26142
816.807	26016
816.948	26111
817.089	25898
817.23	26050
817.371	25997
817.512	26100
817.653	26103
817.793	25997
817.934	25978
818.075	25944
818.216	26214
818.356	25978
818.497	25955
818.638	25818
818.778	25784
818.919	25750
819.06	25788
819.2	25909
819.341	26096
819.481	26081
819.622	26122
819.762	26301
819.903	26199
820.043	26183
820.184	26210
820.324	26206
820.465	26164
820.605	25986
820.746	26058
820.886	25978
821.026	26016
821.167	25879
821.307	26161
821.447	26043
821.588	25959
821.728	25685
821.868	25537
822.008	25609
822.149	25449
822.289	25464
822.429	25270
822.569	25244
822.709	25244
822.849	24973
822.99	24966
823.13	25069
823.27	24962
823.41	24776
823.55	24661
823.69	24772
823.83	24871
823.97	24631
824.11	24703
824.25	24585
824.389	24677
824.529	24791
824.669	24585
824.809	24688
824.949	24673
825.089	24654
825.228	24707
825.368	24532
825.508	24464
825.648	24517
825.787	24578
825.927	24467
826.067	24376
826.206	24486
826.346	24452
826.485	24498
826.625	24589
826.765	24559
826.904	24502
827.044	24319
827.183	24300
827.323	24201
827.462	24228
827.601	24270
827.741	24144
827.88	24197
828.02	24087
828.159	24197
828.298	24174
828.437	24273
828.577	24106
828.716	24258
828.855	24038
828.994	23931
829.134	23939
829.273	24045
829.412	23786
829.551	23828
829.69	23954
829.829	23923
829.968	23946
830.107	24030
830.246	23904
830.385	23817
830.524	23863
830.663	23760
830.802	23619
830.941	23512
831.08	23497
831.219	23695
831.357	23558
831.496	23680
831.635	23589
831.774	23512
831.913	23433
832.051	23212
832.19	23258
832.329	23280
832.467	23296
832.606	23121
832.744	23193
832.883	23178
833.022	23208
833.16	23258
833.299	23242
833.437	23242
833.576	23273
833.714	23402
833.852	23372
833.991	23143
834.129	23387
834.267	23326
834.406	23265
834.544	23356
834.682	23261
834.821	23208
834.959	23425
835.097	23292
835.235	23189
835.373	23303
835.511	23288
835.65	23071
835.788	23067
835.926	23052
836.064	22892
836.202	22991
836.34	23083
836.478	23170
836.615	23155
836.753	23170
836.891	23212
837.029	23117
837.167	23022
837.305	23094
837.443	23060
837.58	22946
837.718	22858
837.856	23060
837.993	22885
838.131	22911
838.269	22862
838.406	22748
838.544	22702
838.681	22656
838.819	22637
838.956	22360
839.094	22337
839.231	22489
839.369	22538
839.506	22793
839.643	22752
839.781	22402
839.918	22443
840.055	22432
840.193	22390
840.33	22303
840.467	22386
840.604	22413
840.742	22713
840.879	22325
841.016	22295
841.153	22207
841.29	22481
841.427	22280
841.564	22474
841.701	22417
841.838	22386
841.975	22230
842.112	22272
842.249	22112
842.385	22109
842.522	22394
842.659	22219
842.796	22097
842.933	22143
843.069	22166
843.206	22124
843.343	22120
843.479	22067
843.616	22211
843.752	21972
843.889	21964
844.025	21991
844.162	21915
844.298	21991
844.435	22044
844.571	21915
844.708	21918
844.844	22048
844.98	22105
845.117	22040
845.253	21911
845.389	21762
845.525	21770
845.661	21808
845.798	21679
845.934	21637
846.07	21633
846.206	21629
846.342	21861
846.478	21720
846.614	21477
846.75	21306
846.886	21416
847.022	21549
847.158	21370
847.294	21363
847.429	21439
847.565	21435
847.701	21625
847.837	21017
847.972	21184
848.108	21192
848.244	21180
848.379	21062
848.515	20914
848.65	20990
848.786	21043
848.921	21066
849.057	20998
849.192	20982
849.328	21028
849.463	20975
849.598	20979
849.734	20914
849.869	20864
850.004	20678
850.14	20891
850.275	20773
850.41	20708
850.545	20667
850.68	20667
850.815	20670
850.95	20644
851.085	20948
851.22	20868
851.355	20743
851.49	20739
851.625	20682
851.76	20716
851.895	20644
852.03	20682
852.165	20705
852.299	20651
852.434	20891
852.569	20826
852.703	20697
852.838	20834
852.973	20826
853.107	20899
853.242	20659
853.376	20670
853.511	20457
853.645	20667
853.78	20689
853.914	20686
854.048	20518
854.183	20556
854.317	20625
854.451	20788
854.585	20469
854.72	20587
854.854	20594
854.988	20492
855.122	20530
855.256	20461
855.39	20526
855.524	20606
855.658	20655
855.792	20590
855.926	20590
856.06	20590
856.194	20629
856.327	20568
856.461	20533
856.595	20499
856.729	20564
856.862	20659
856.996	20670
857.13	20632
857.263	20629
857.397	20629
857.53	20507
857.664	20583
857.797	20651
857.931	20674
858.064	20579
858.197	20678
858.331	20495
858.464	20495
858.597	20454
858.731	20484
858.864	20499
858.997	20674
859.13	20583
859.263	20617
859.396	20689
859.529	20617
859.662	20560
859.795	20499
859.928	20579
860.061	20758
860.194	20731
860.327	20556
860.46	20492
860.592	20712
860.725	20667
860.858	20617
860.99	20495
861.123	20492
861.256	20476
861.388	20613
861.521	21047
861.653	20362
861.786	20366
861.918	20484
862.05	20560
862.183	20465
862.315	20579
862.447	20522
862.58	20579
862.712	20434
862.844	20286
862.976	20358
863.108	20469
863.24	20667
863.372	20252
863.504	20309
863.636	20309
863.768	20324
863.9	20305
864.032	20202
864.164	20221
864.296	20256
864.428	20301
864.559	20309
864.691	20366
864.823	20256
864.954	20362
865.086	20286
865.217	20229
865.349	20225
865.48	20183
865.612	20202
865.743	20244
865.875	20244
866.006	20214
866.137	20008
866.269	20145
866.4	20202
866.531	20111
866.662	20210
866.793	20142
866.924	20172
867.055	20187
867.186	20202
867.317	20008
867.448	20031
867.579	20058
867.71	20035
867.841	20024
867.972	20092
868.103	20100
868.233	20122
868.364	20092
868.495	20267
868.625	20286
868.756	20488
868.886	20214
869.017	20473
869.147	20351
869.278	20412
869.408	20336
869.539	20396
869.669	20415
869.799	20362
869.929	20571
870.06	20507
870.19	20769
870.32	20609
870.45	20693
870.58	20880
870.71	20906
870.84	20872
870.97	20758
871.1	20845
871.23	21123
871.36	21024
871.489	20838
871.619	20963
871.749	20998
871.879	21039
872.008	21013
872.138	21017
872.267	20982
872.397	20788
872.526	20781
872.656	20743
872.785	20838
872.915	21009
873.044	21131
873.173	21028
873.303	20994
873.432	20914
873.561	21112
873.69	21093
873.819	21036
873.948	21032
874.077	20944
874.206	21013
874.335	21096
874.464	21116
874.593	21245
874.722	21226
874.851	21230
874.979	21218
875.108	21203
875.237	21294
875.365	21180
875.494	21393
875.623	21321
875.751	21192
875.88	21260
876.008	21428
876.136	21359
876.265	21743
876.393	21732
876.521	21778
876.65	21698
876.778	21652
876.906	21576
877.034	21637
877.162	21591
877.29	21488
877.418	21614
877.546	21587
877.674	21618
877.802	21542
877.93	21561
878.058	21622
878.185	21519
878.313	21523
878.441	21462
878.568	21363
878.696	21492
878.824	21583
878.951	21633
879.079	21751
879.206	21884
879.333	21800
879.461	21564
879.588	21671
879.715	21747
879.842	21892
879.97	21759
880.097	21329
880.224	21302
880.351	21454
880.478	21450
880.605	21348
880.732	21435
880.859	21660
880.986	21382
881.112	21469
881.239	21268
881.366	21123
881.493	21081
881.619	20952
881.746	21043
881.872	20967
881.999	21062
882.125	21009
882.252	20960
882.378	21081
882.505	21085
882.631	20910
882.757	20872
882.883	20781
883.01	20792
883.136	20746
883.262	20640
883.388	20617
883.514	20651
883.64	20724
883.766	20701
883.892	20473
884.018	20480
884.143	20788
884.269	20762
884.395	20507
884.52	20450
884.646	20415
884.772	20324
884.897	20271
885.023	20377
885.148	20507
885.274	20526
885.399	20438
885.524	20431
885.65	20370
885.775	20495
885.9	20377
886.025	20495
886.15	20385
886.275	20271
886.4	20248
886.525	20267
886.65	20225
886.775	20202
886.9	20438
887.025	20609
887.149	20244
887.274	20138
887.399	20214
887.523	20263
887.648	20096
887.773	20164
887.897	20199
888.021	20168
888.146	20130
888.27	20142
888.395	20164
888.519	20229
888.643	20115
888.767	20267
888.891	20027
889.015	19986
889.139	19997
889.263	19936
889.387	20077
889.511	20161
889.635	20183
889.759	19814
889.883	19967
890.006	19978
890.13	20058
890.254	19864
890.377	19799
890.501	19727
890.624	19670
890.748	19784
890.871	19567
890.995	19533
891.118	19483
891.241	19552
891.364	19616
891.488	19578
891.611	19487
891.734	19571
891.857	19552
891.98	19506
892.103	19620
892.226	19571
892.349	19514
892.471	19362
892.594	19441
892.717	19381
892.839	19396
892.962	19358
893.085	19586
893.207	19422
893.33	19316
893.452	19369
893.575	19521
893.697	19483
893.819	19590
893.941	19700
894.064	19575
894.186	19434
894.308	19419
894.43	19586
894.552	19647
894.674	19441
894.796	19419
894.918	19445
895.04	19472
895.161	19426
895.283	19483
895.405	19419
895.526	19316
895.648	19430
895.769	19441
895.891	19411
896.012	19499
896.134	19373
896.255	19521
896.376	19457
896.498	19533
896.619	19460
896.74	19457
896.861	19472
896.982	19822
897.103	19944
897.224	19750
897.345	19677
897.466	19685
897.587	19605
897.708	19826
897.828	19738
897.949	19525
898.07	19582
898.19	19677
898.311	19807
898.431	19655
898.552	19845
898.672	19818
898.792	19723
898.913	19738
899.033	19540
899.153	19499
899.273	19335
899.393	19540
899.513	19616
899.633	19464
899.753	19464
899.873	19502
899.993	19449
900.113	19434
900.232	19392
900.352	19384
900.472	19263
900.591	19255
900.711	19175
900.83	19202
900.95	19343
901.069	19282
901.189	19141
901.308	18852
901.427	18844
901.546	18798
901.665	18840
901.784	18852
901.904	18711
902.023	18642
902.141	18464
902.26	18464
902.379	18460
902.498	18376
902.617	18376
902.735	18365
902.854	18384
902.973	18254
903.091	18076
903.21	18026
903.328	18019
903.446	17950
903.565	17809
903.683	17939
903.801	17665
903.919	17813
904.038	17802
904.156	17581
904.274	17638
904.392	17554
904.51	17558
904.627	17604
904.745	17615
904.863	17623
904.981	17551
905.098	17265
905.216	17284
905.334	17421
905.451	17337
905.569	17345
905.686	17296
905.803	17265
905.921	17010
906.038	17242
906.155	17060
906.272	16961
906.389	17022
906.506	16801
906.623	16869
906.74	16637
906.857	16713
906.974	16786
907.091	16835
907.208	16919
907.324	16866
907.441	16725
907.557	16558
907.674	16523
907.79	16516
907.907	16607
908.023	16554
908.139	16615
908.256	16550
908.372	16428
908.488	16436
908.604	16314
908.72	16223
908.836	16253
908.952	16204
909.068	16261
909.184	16489
909.3	16185
909.415	16230
909.531	16246
909.647	16044
909.762	15994
909.878	15994
909.993	16029
910.108	15922
910.224	15937
910.339	15945
910.454	15892
910.57	15812
910.685	15759
910.8	15991
910.915	15987
911.03	15766
911.145	15595
911.259	15625
911.374	15572
911.489	15496
911.604	15469
911.718	15279
911.833	15313
911.947	15230
912.062	15211
912.176	15367
912.291	15393
912.405	15454
912.519	15557
912.633	15549
912.748	15294
912.862	15283
912.976	15180
913.09	15009
913.204	15119
913.318	15180
913.431	15367
913.545	15165
913.659	15245
913.772	15142
913.886	14990
914	15005
914.113	15127
914.226	15047
914.34	14994
914.453	14925
914.566	15005
914.68	14918
914.793	14864
914.906	14533
915.019	14651
915.132	14499
915.245	14533
915.358	14651
915.47	14670
915.583	14613
915.696	14651
915.809	14701
915.921	14773
916.034	14621
916.146	14560
916.259	14526
916.371	14434
916.483	14610
916.595	14492
916.708	14514
916.82	14495
916.932	14473
917.044	14343
917.156	14278
917.268	14301
917.38	14168
917.491	14225
917.603	14263
917.715	14271
917.826	14347
917.938	14206
918.049	14221
918.161	14221
918.272	14385
918.384	14374
918.495	14229
918.606	14054
918.717	13894
918.828	14027
918.939	14119
919.05	13940
919.161	14043
919.272	13826
919.383	14012
919.494	14058
919.604	14199
919.715	14043
919.826	13932
919.936	13947
920.047	14054
920.157	13936
920.267	14191
920.378	14020
920.488	14024
920.598	14149
920.708	14229
920.818	14218
920.928	14088
921.038	14301
921.148	14244
921.258	13963
921.368	13868
921.477	13681
921.587	13742
921.697	13601
921.806	13788
921.916	13655
922.025	13468
922.134	13392
922.244	13354
922.353	13460
922.462	13289
922.571	13270
922.68	13149
922.789	13061
922.898	13095
923.007	13023
923.116	13042
923.224	12947
923.333	12962
923.442	12897
923.55	12894
923.659	12916
923.767	12897
923.876	12875
923.984	12856
924.092	12802
924.201	12871
924.309	12791
924.417	12814
924.525	12741
924.633	12783
924.741	13719
924.849	12479
924.956	12635
925.064	12551
925.172	12433
925.279	12467
925.387	12517
925.494	12456
925.602	12642
925.709	12589
925.816	12483
925.924	12350
926.031	12509
926.138	12498
926.245	12513
926.352	12319
926.459	12559
926.566	12544
926.673	12376
926.779	12251
926.886	12251
926.993	12125
927.099	11999
927.206	12011
927.312	12068
927.419	12083
927.525	12171
927.631	12121
927.737	11965
927.843	11946
927.95	11893
928.056	11965
928.162	11916
928.267	11901
928.373	12604
928.479	12114
928.585	11847
928.69	11931
928.796	11901
928.901	11824
929.007	11573
929.112	11657
929.218	11775
929.323	11653
929.428	11665
929.533	11802
929.638	11478
929.743	11646
929.848	11558
929.953	11592
930.058	11493
930.163	11402
930.267	11277
930.372	11471
930.477	11356
930.581	11589
930.685	11356
930.79	11239
930.894	11296
930.998	11185
931.103	11364
931.207	11094
931.311	10911
931.415	10812
931.519	10759
931.623	10656
