Data from test_V78500241_3196.txt Node
Date: Fri Mar 25 15:32:06 CST 2022
User: usil
Spectrometer: V785-0024
Trigger mode: 0
Integration Time (sec): 4.000000E-1
Scans to average: 1
Nonlinearity correction enabled: false
Boxcar width: 0
Storing dark spectrum: false
XAxis mode: Wavelengths
Number of Pixels in Spectrum: 1024
>>>>>Begin Spectral Data<<<<<
801.071	27001
801.214	26834
801.356	26708
801.499	26549
801.641	26648
801.783	26362
801.926	26518
802.068	26590
802.211	26358
802.353	26320
802.496	26043
802.638	26195
802.78	26103
802.923	26122
803.065	25959
803.208	25906
803.35	26081
803.492	26282
803.635	26252
803.777	26157
803.919	26358
804.061	26602
804.204	26332
804.346	26088
804.488	26172
804.63	26187
804.773	26164
804.915	26267
805.057	26385
805.199	26145
805.341	26317
805.483	26389
805.626	26358
805.768	26336
805.91	26324
806.052	26457
806.194	26218
806.336	26423
806.478	26408
806.62	26377
806.762	26568
806.904	26526
807.046	26758
807.188	26811
807.33	26663
807.472	26815
807.614	26602
807.756	26670
807.898	26522
808.04	26514
808.182	26533
808.324	26537
808.465	26712
808.607	26754
808.749	26883
808.891	26971
809.033	27135
809.174	27096
809.316	26826
809.458	26967
809.6	27001
809.741	27032
809.883	27127
810.025	27154
810.166	27180
810.308	27199
810.45	27131
810.591	27074
810.733	26960
810.875	26796
811.016	26708
811.158	26838
811.299	26929
811.441	27047
811.582	26960
811.724	26925
811.865	26887
812.007	26819
812.148	26937
812.29	26887
812.431	26956
812.573	27146
812.714	27329
812.855	27416
812.997	27401
813.138	27587
813.279	27519
813.421	27427
813.562	27378
813.703	27211
813.845	27123
813.986	26823
814.127	26587
814.268	26533
814.41	26480
814.551	26670
814.692	26682
814.833	26415
814.974	26518
815.115	26689
815.256	26480
815.397	26545
815.539	26408
815.68	26495
815.821	26355
815.962	26259
816.103	26252
816.244	26229
816.385	26058
816.526	26115
816.666	25871
816.807	25852
816.948	25871
817.089	26027
817.23	25833
817.371	25811
817.512	25738
817.653	25746
817.793	25643
817.934	25723
818.075	25803
818.216	25780
818.356	25803
818.497	25700
818.638	25613
818.778	25483
818.919	25411
819.06	25616
819.2	25704
819.341	25807
819.481	25613
819.622	26012
819.762	26164
819.903	26065
820.043	25902
820.184	25898
820.324	25818
820.465	26077
820.605	26050
820.746	25852
820.886	25742
821.026	25822
821.167	25868
821.307	25978
821.447	25750
821.588	25723
821.728	25499
821.868	25308
822.008	25221
822.149	25270
822.289	25266
822.429	25198
822.569	24916
822.709	24958
822.849	24867
822.99	24833
823.13	24798
823.27	24730
823.41	24467
823.55	24429
823.69	24646
823.83	24700
823.97	24601
824.11	24460
824.25	24395
824.389	24407
824.529	24315
824.669	24327
824.809	24532
824.949	24563
825.089	24544
825.228	24369
825.368	24247
825.508	24251
825.648	24232
825.787	24186
825.927	24388
826.067	24243
826.206	24369
826.346	24327
826.485	24418
826.625	24353
826.765	24441
826.904	24254
827.044	24121
827.183	24144
827.323	23954
827.462	24079
827.601	23885
827.741	23954
827.88	24003
828.02	23920
828.159	23923
828.298	23931
828.437	23980
828.577	24026
828.716	24102
828.855	23729
828.994	23596
829.134	23745
829.273	23752
829.412	23547
829.551	23585
829.69	23668
829.829	23737
829.968	23771
830.107	23707
830.246	23703
830.385	23535
830.524	23661
830.663	23573
830.802	23360
830.941	23296
831.08	23307
831.219	23459
831.357	23417
831.496	23592
831.635	23280
831.774	23147
831.913	23166
832.051	23083
832.19	23086
832.329	23121
832.467	22995
832.606	22980
832.744	22991
832.883	22976
833.022	22927
833.16	23029
833.299	23006
833.437	22900
833.576	23079
833.714	23155
833.852	23117
833.991	23147
834.129	23143
834.267	23041
834.406	23041
834.544	22987
834.682	23044
834.821	23075
834.959	23162
835.097	22972
835.235	23083
835.373	23022
835.511	23052
835.65	22919
835.788	22847
835.926	22843
836.064	22637
836.202	22740
836.34	22987
836.478	23060
836.615	22862
836.753	23003
836.891	22961
837.029	22919
837.167	22862
837.305	22892
837.443	22729
837.58	22694
837.718	22797
837.856	22809
837.993	22607
838.131	22733
838.269	22694
838.406	22706
838.544	22519
838.681	22394
838.819	22272
838.956	22223
839.094	22188
839.231	22337
839.369	22455
839.506	22634
839.643	22436
839.781	22459
839.918	22238
840.055	22306
840.193	22249
840.33	22196
840.467	22234
840.604	22166
840.742	22580
840.879	22055
841.016	22074
841.153	22131
841.29	22257
841.427	22105
841.564	22276
841.701	22002
841.838	22082
841.975	21956
842.112	22105
842.249	22044
842.385	21934
842.522	22169
842.659	22128
842.796	21876
842.933	21865
843.069	21922
843.206	21941
843.343	22040
843.479	21926
843.616	21831
843.752	21667
843.889	21701
844.025	21979
844.162	21728
844.298	21823
844.435	21583
844.571	21580
844.708	21690
844.844	21926
844.98	21808
845.117	21743
845.253	21610
845.389	21728
845.525	21675
845.661	21576
845.798	21473
845.934	21370
846.07	21416
846.206	21553
846.342	21534
846.478	21469
846.614	21131
846.75	21184
846.886	21100
847.022	21325
847.158	21123
847.294	21252
847.429	21184
847.565	21283
847.701	21466
847.837	20925
847.972	20929
848.108	21047
848.244	20986
848.379	20864
848.515	20781
848.65	20830
848.786	20849
848.921	20864
849.057	20902
849.192	21005
849.328	20880
849.463	20792
849.598	20743
849.734	20606
849.869	20636
850.004	20629
850.14	20571
850.275	20583
850.41	20522
850.545	20514
850.68	20488
850.815	20625
850.95	20488
851.085	20807
851.22	20590
851.355	20625
851.49	20583
851.625	20457
851.76	20621
851.895	20552
852.03	20476
852.165	20583
852.299	20625
852.434	20644
852.569	20533
852.703	20598
852.838	20644
852.973	20701
853.107	20716
853.242	20533
853.376	20396
853.511	20214
853.645	20324
853.78	20526
853.914	20275
854.048	20286
854.183	20362
854.317	20427
854.451	20571
854.585	20377
854.72	20343
854.854	20438
854.988	20252
855.122	20393
855.256	20168
855.39	20339
855.524	20469
855.658	20313
855.792	20427
855.926	20317
856.06	20495
856.194	20446
856.327	20301
856.461	20298
856.595	20225
856.729	20199
856.862	20473
856.996	20427
857.13	20396
857.263	20522
857.397	20507
857.53	20389
857.664	20415
857.797	20366
857.931	20450
858.064	20465
858.197	20476
858.331	20415
858.464	20263
858.597	20294
858.731	20385
858.864	20419
858.997	20256
859.13	20503
859.263	20377
859.396	20495
859.529	20404
859.662	20366
859.795	20358
859.928	20370
860.061	20518
860.194	20457
860.327	20450
860.46	20415
860.592	20492
860.725	20598
860.858	20575
860.99	20290
861.123	20336
861.256	20358
861.388	20320
861.521	20925
861.653	20134
861.786	20122
861.918	20237
862.05	20275
862.183	20275
862.315	20358
862.447	20419
862.58	20313
862.712	20149
862.844	19932
862.976	20229
863.108	20157
863.24	20488
863.372	20020
863.504	20122
863.636	20027
863.768	20168
863.9	20153
864.032	20077
864.164	19997
864.296	20164
864.428	20237
864.559	20084
864.691	20358
864.823	20183
864.954	20077
865.086	20195
865.217	20024
865.349	19856
865.48	20001
865.612	19989
865.743	20240
865.875	19982
866.006	19955
866.137	20020
866.269	20081
866.4	20043
866.531	19890
866.662	19967
866.793	19947
866.924	19928
867.055	20088
867.186	19947
867.317	19856
867.448	19833
867.579	19894
867.71	19921
867.841	19940
867.972	20008
868.103	19830
868.233	20020
868.364	19974
868.495	20039
868.625	20142
868.756	20324
868.886	20145
869.017	20088
869.147	20298
869.278	20336
869.408	20164
869.539	20225
869.669	20282
869.799	20286
869.929	20385
870.06	20343
870.19	20454
870.32	20385
870.45	20469
870.58	20640
870.71	20739
870.84	20644
870.97	20590
871.1	20583
871.23	20689
871.36	20876
871.489	20815
871.619	20670
871.749	20826
871.879	20807
872.008	20845
872.138	20788
872.267	20769
872.397	20651
872.526	20621
872.656	20594
872.785	20549
872.915	20777
873.044	20937
873.173	20724
873.303	20796
873.432	20902
873.561	20929
873.69	20918
873.819	20804
873.948	21013
874.077	20769
874.206	20746
874.335	20941
874.464	20925
874.593	21055
874.722	21055
874.851	21077
874.979	21074
875.108	21119
875.237	20956
875.365	20956
875.494	21135
875.623	21230
875.751	20975
875.88	21161
876.008	21272
876.136	21245
876.265	21580
876.393	21603
876.521	21545
876.65	21583
876.778	21515
876.906	21378
877.034	21477
877.162	21447
877.29	21447
877.418	21408
877.546	21443
877.674	21363
877.802	21496
877.93	21553
878.058	21367
878.185	21287
878.313	21294
878.441	21393
878.568	21119
878.696	21378
878.824	21481
878.951	21397
879.079	21599
879.206	21819
879.333	21576
879.461	21450
879.588	21439
879.715	21633
879.842	21614
879.97	21431
880.097	21298
880.224	21157
880.351	21214
880.478	21367
880.605	21230
880.732	21310
880.859	21389
880.986	21306
881.112	21329
881.239	21142
881.366	20986
881.493	20842
881.619	20872
881.746	20864
881.872	20796
881.999	20876
882.125	20682
882.252	20906
882.378	20876
882.505	20933
882.631	20773
882.757	20503
882.883	20644
883.01	20587
883.136	20590
883.262	20499
883.388	20294
883.514	20674
883.64	20499
883.766	20400
883.892	20358
884.018	20412
884.143	20469
884.269	20640
884.395	20374
884.52	20214
884.646	20278
884.772	20252
884.897	20122
885.023	20301
885.148	20271
885.274	20374
885.399	20191
885.524	20161
885.65	20328
885.775	20275
885.9	20237
886.025	20286
886.15	20275
886.275	20267
886.4	20027
886.525	20240
886.65	20054
886.775	20111
886.9	20286
887.025	20412
887.149	20221
887.274	19951
887.399	19967
887.523	20058
887.648	19856
887.773	19928
887.897	20096
888.021	20001
888.146	19909
888.27	20058
888.395	20206
888.519	19955
888.643	20035
888.767	20005
888.891	19909
889.015	19852
889.139	19940
889.263	19788
889.387	19951
889.511	19974
889.635	19879
889.759	19704
889.883	19818
890.006	19799
890.13	19799
890.254	19712
890.377	19662
890.501	19491
890.624	19468
890.748	19556
890.871	19415
890.995	19392
891.118	19259
891.241	19327
891.364	19373
891.488	19411
891.611	19228
891.734	19343
891.857	19548
891.98	19304
892.103	19304
892.226	19407
892.349	19289
892.471	19118
892.594	19354
892.717	19278
892.839	19179
892.962	19285
893.085	19384
893.207	19384
893.33	19194
893.452	19244
893.575	19331
893.697	19297
893.819	19369
893.941	19525
894.064	19411
894.186	19259
894.308	19251
894.43	19381
894.552	19430
894.674	19491
894.796	19228
894.918	19244
895.04	19247
895.161	19324
895.283	19304
895.405	19278
895.526	19327
895.648	19316
895.769	19289
895.891	19297
896.012	19445
896.134	19301
896.255	19285
896.376	19251
896.498	19327
896.619	19422
896.74	19221
896.861	19411
896.982	19670
897.103	19715
897.224	19632
897.345	19578
897.466	19400
897.587	19590
897.708	19647
897.828	19453
897.949	19445
898.07	19358
898.19	19556
898.311	19681
898.431	19594
898.552	19655
898.672	19597
898.792	19571
898.913	19548
899.033	19392
899.153	19350
899.273	19129
899.393	19263
899.513	19335
899.633	19453
899.753	19350
899.873	19209
899.993	19426
900.113	19301
900.232	19225
900.352	19103
900.472	19148
900.591	19110
900.711	19069
900.83	19110
900.95	19236
901.069	19175
901.189	19023
901.308	18783
901.427	18745
901.546	18692
901.665	18623
901.784	18734
901.904	18509
902.023	18502
902.141	18243
902.26	18285
902.379	18197
902.498	18144
902.617	18182
902.735	18201
902.854	18171
902.973	18057
903.091	18045
903.21	17813
903.328	17836
903.446	17824
903.565	17805
903.683	17649
903.801	17482
903.919	17585
904.038	17649
904.156	17448
904.274	17501
904.392	17448
904.51	17474
904.627	17455
904.745	17509
904.863	17592
904.981	17311
905.098	17136
905.216	17060
905.334	17235
905.451	17166
905.569	17105
905.686	17178
905.803	17185
905.921	16923
906.038	17010
906.155	16892
906.272	16759
906.389	16839
906.506	16801
906.623	16691
906.74	16649
906.857	16679
906.974	16531
907.091	16847
907.208	16702
907.324	16771
907.441	16531
907.557	16325
907.674	16466
907.79	16341
907.907	16375
908.023	16554
908.139	16424
908.256	16348
908.372	16413
908.488	16341
908.604	16177
908.72	16120
908.836	16120
908.952	16063
909.068	16074
909.184	16246
909.3	16105
909.415	16101
909.531	16082
909.647	16051
909.762	15899
909.878	15926
909.993	15835
910.108	15865
910.224	15797
910.339	15751
910.454	15827
910.57	15625
910.685	15629
910.8	15918
910.915	15873
911.03	15728
911.145	15374
911.259	15420
911.374	15374
911.489	15355
911.604	15370
911.718	15275
911.833	15249
911.947	15207
912.062	15119
912.176	15203
912.291	15203
912.405	15275
912.519	15408
912.633	15416
912.748	15184
912.862	15077
912.976	15020
913.09	14971
913.204	15074
913.318	15055
913.431	15093
913.545	15058
913.659	15085
913.772	14998
913.886	14960
914	14906
914.113	14967
914.226	14960
914.34	14971
914.453	14765
914.566	14895
914.68	14815
914.793	14686
914.906	14541
915.019	14511
915.132	14476
915.245	14434
915.358	14431
915.47	14526
915.583	14503
915.696	14423
915.809	14522
915.921	14522
916.034	14393
916.146	14298
916.259	14252
916.371	14446
916.483	14400
916.595	14313
916.708	14294
916.82	14339
916.932	14332
917.044	14339
917.156	14309
917.268	14157
917.38	14168
917.491	14111
917.603	14206
917.715	14229
917.826	14278
917.938	14107
918.049	14024
918.161	14119
918.272	14214
918.384	14237
918.495	14149
918.606	13959
918.717	13944
918.828	13997
918.939	13974
919.05	13833
919.161	13906
919.272	13776
919.383	13765
919.494	13955
919.604	14157
919.715	13955
919.826	13833
919.936	13913
920.047	14062
920.157	13917
920.267	14054
920.378	13909
920.488	13898
920.598	14100
920.708	14157
920.818	14001
920.928	14054
921.038	14206
921.148	14164
921.258	13936
921.368	13746
921.477	13643
921.587	13632
921.697	13537
921.806	13597
921.916	13556
922.025	13449
922.134	13312
922.244	13179
922.353	13316
922.462	13168
922.571	13194
922.68	12973
922.789	12947
922.898	13023
923.007	12954
923.116	13031
923.224	12882
923.333	12932
923.442	12821
923.55	12798
923.659	12772
923.767	12886
923.876	12719
923.984	12833
924.092	12658
924.201	12703
924.309	12703
924.417	12707
924.525	12646
924.633	12665
924.741	13487
924.849	12509
924.956	12570
925.064	12426
925.172	12353
925.279	12498
925.387	12388
925.494	12353
925.602	12490
925.709	12391
925.816	12281
925.924	12357
926.031	12475
926.138	12342
926.245	12399
926.352	12285
926.459	12441
926.566	12372
926.673	12273
926.779	12155
926.886	12152
926.993	12057
927.099	11999
927.206	11870
927.312	11927
927.419	12026
927.525	11958
927.631	12011
927.737	11855
927.843	11832
927.95	11779
928.056	11843
928.162	11847
928.267	11878
928.373	12479
928.479	11935
928.585	11699
928.69	11726
928.796	11840
928.901	11699
929.007	11539
929.112	11646
929.218	11634
929.323	11577
929.428	11512
929.533	11676
929.638	11543
929.743	11528
929.848	11509
929.953	11440
930.058	11395
930.163	11273
930.267	11292
930.372	11406
930.477	11318
930.581	11474
930.685	11318
930.79	11102
930.894	11124
930.998	11067
931.103	11372
931.207	10877
931.311	10809
931.415	10744
931.519	10603
931.623	10470
