Data from test_V78500241_603.txt Node
Date: Fri Mar 25 15:14:03 CST 2022
User: usil
Spectrometer: V785-0024
Trigger mode: 0
Integration Time (sec): 4.000000E-1
Scans to average: 1
Nonlinearity correction enabled: false
Boxcar width: 0
Storing dark spectrum: false
XAxis mode: Wavelengths
Number of Pixels in Spectrum: 1024
>>>>>Begin Spectral Data<<<<<
801.071	27526
801.214	27302
801.356	27176
801.499	27100
801.641	27093
801.783	27028
801.926	27032
802.068	26994
802.211	26921
802.353	26902
802.496	26788
802.638	26807
802.78	26674
802.923	26636
803.065	26640
803.208	26629
803.35	26674
803.492	26872
803.635	26811
803.777	26667
803.919	26807
804.061	27081
804.204	26785
804.346	26689
804.488	26712
804.63	26796
804.773	26819
804.915	26815
805.057	26887
805.199	26830
805.341	26891
805.483	27074
805.626	26998
805.768	26758
805.91	26887
806.052	26998
806.194	26823
806.336	27104
806.478	26998
806.62	26838
806.762	27036
806.904	27047
807.046	27568
807.188	27538
807.33	27374
807.472	27329
807.614	27348
807.756	27355
807.898	27192
808.04	27336
808.182	27192
808.324	27195
808.465	27329
808.607	27397
808.749	27549
808.891	27660
809.033	27667
809.174	27720
809.316	27576
809.458	27538
809.6	27603
809.741	27698
809.883	27797
810.025	27857
810.166	27743
810.308	27835
810.45	27850
810.591	27713
810.733	27583
810.875	27405
811.016	27538
811.158	27519
811.299	27690
811.441	27804
811.582	27686
811.724	27526
811.865	27724
812.007	27427
812.148	27557
812.29	27622
812.431	27785
812.573	27797
812.714	28074
812.855	28017
812.997	28284
813.138	28379
813.279	28257
813.421	27972
813.562	28109
813.703	27922
813.845	27743
813.986	27405
814.127	27435
814.268	27176
814.41	27264
814.551	27180
814.692	27329
814.833	27279
814.974	27351
815.115	27291
815.256	27176
815.397	27195
815.539	27127
815.68	27192
815.821	26979
815.962	27055
816.103	27055
816.244	26891
816.385	26750
816.526	26819
816.666	26739
816.807	26579
816.948	26678
817.089	26579
817.23	26754
817.371	26442
817.512	26560
817.653	26484
817.793	26503
817.934	26545
818.075	26617
818.216	26564
818.356	26552
818.497	26564
818.638	26229
818.778	26370
818.919	26408
819.06	26358
819.2	26385
819.341	26571
819.481	26670
819.622	26594
819.762	26826
819.903	26819
820.043	26651
820.184	26583
820.324	26720
820.465	26724
820.605	26663
820.746	26659
820.886	26583
821.026	26609
821.167	26571
821.307	26682
821.447	26644
821.588	26541
821.728	26267
821.868	26149
822.008	26024
822.149	26024
822.289	25966
822.429	25719
822.569	25715
822.709	25696
822.849	25556
822.99	25643
823.13	25495
823.27	25441
823.41	25400
823.55	25133
823.69	25381
823.83	25331
823.97	25285
824.11	25099
824.25	25217
824.389	25088
824.529	25148
824.669	25183
824.809	25183
824.949	25232
825.089	25297
825.228	25225
825.368	24954
825.508	25050
825.648	24928
825.787	25061
825.927	25034
826.067	24973
826.206	24928
826.346	25057
826.485	25046
826.625	24966
826.765	25133
826.904	25110
827.044	24814
827.183	24734
827.323	24631
827.462	24650
827.601	24726
827.741	24749
827.88	24661
828.02	24593
828.159	24779
828.298	24726
828.437	24730
828.577	24627
828.716	24837
828.855	24730
828.994	24433
829.134	24483
829.273	24486
829.412	24517
829.551	24452
829.69	24441
829.829	24471
829.968	24525
830.107	24407
830.246	24494
830.385	24254
830.524	24479
830.663	24186
830.802	24148
830.941	24117
831.08	24140
831.219	24258
831.357	24110
831.496	24270
831.635	24038
831.774	23969
831.913	23935
832.051	23878
832.19	23882
832.329	23847
832.467	23726
832.606	23608
832.744	23752
832.883	23779
833.022	23741
833.16	23722
833.299	23828
833.437	23771
833.576	23779
833.714	23802
833.852	23817
833.991	23813
834.129	23916
834.267	23847
834.406	23847
834.544	23885
834.682	23874
834.821	23718
834.959	23942
835.097	23767
835.235	23630
835.373	23691
835.511	23760
835.65	23649
835.788	23554
835.926	23402
836.064	23452
836.202	23493
836.34	23551
836.478	23726
836.615	23516
836.753	23703
836.891	23729
837.029	23676
837.167	23676
837.305	23509
837.443	23467
837.58	23326
837.718	23406
837.856	23383
837.993	23379
838.131	23566
838.269	23467
838.406	23429
838.544	23235
838.681	23071
838.819	22976
838.956	22930
839.094	22965
839.231	23044
839.369	23102
839.506	23398
839.643	23261
839.781	22953
839.918	22847
840.055	23037
840.193	22900
840.33	22885
840.467	22930
840.604	22896
840.742	23178
840.879	22843
841.016	22869
841.153	22736
841.29	23056
841.427	22919
841.564	22873
841.701	22919
841.838	22782
841.975	22672
842.112	22679
842.249	22618
842.385	22645
842.522	22782
842.659	22691
842.796	22554
842.933	22557
843.069	22523
843.206	22584
843.343	22573
843.479	22668
843.616	22767
843.752	22508
843.889	22516
844.025	22622
844.162	22379
844.298	22561
844.435	22379
844.571	22402
844.708	22451
844.844	22500
844.98	22596
845.117	22565
845.253	22413
845.389	22242
845.525	22322
845.661	22154
845.798	22169
845.934	22272
846.07	22120
846.206	22219
846.342	22246
846.478	22074
846.614	21915
846.75	21812
846.886	21808
847.022	21975
847.158	21964
847.294	21842
847.429	21972
847.565	21899
847.701	22048
847.837	21564
847.972	21496
848.108	21732
848.244	21671
848.379	21439
848.515	21454
848.65	21416
848.786	21500
848.921	21469
849.057	21542
849.192	21587
849.328	21424
849.463	21504
849.598	21485
849.734	21469
849.869	21340
850.004	21310
850.14	21310
850.275	21329
850.41	21176
850.545	21093
850.68	21195
850.815	21287
850.95	21184
851.085	21526
851.22	21321
851.355	21241
851.49	21249
851.625	21142
851.76	21245
851.895	21142
852.03	21123
852.165	21211
852.299	21245
852.434	21306
852.569	21230
852.703	21283
852.838	21310
852.973	21370
853.107	21412
853.242	21089
853.376	21127
853.511	21051
853.645	21013
853.78	21123
853.914	21116
854.048	21043
854.183	21005
854.317	21085
854.451	21260
854.585	21096
854.72	20982
854.854	21074
854.988	21142
855.122	21123
855.256	20883
855.39	21043
855.524	21154
855.658	21093
855.792	21131
855.926	21146
856.06	21157
856.194	21138
856.327	21058
856.461	21070
856.595	21074
856.729	21017
856.862	21214
856.996	21085
857.13	21039
857.263	21138
857.397	21233
857.53	21184
857.664	21157
857.797	21199
857.931	21138
858.064	21058
858.197	21241
858.331	21032
858.464	21013
858.597	20899
858.731	20963
858.864	21066
858.997	21009
859.13	21032
859.263	21024
859.396	21169
859.529	21032
859.662	20902
859.795	21028
859.928	21127
860.061	21142
860.194	21264
860.327	21066
860.46	21074
860.592	21146
860.725	21252
860.858	21131
860.99	21089
861.123	21020
861.256	21017
861.388	21074
861.521	21899
861.653	21032
861.786	20754
861.918	20883
862.05	20857
862.183	20887
862.315	21036
862.447	21039
862.58	20925
862.712	20876
862.844	20754
862.976	20804
863.108	20933
863.24	21214
863.372	20788
863.504	20746
863.636	20807
863.768	20921
863.9	20842
864.032	20777
864.164	20743
864.296	20701
864.428	20823
864.559	20857
864.691	20819
864.823	20872
864.954	20720
865.086	20701
865.217	20765
865.349	20488
865.48	20670
865.612	20648
865.743	20815
865.875	20655
866.006	20674
866.137	20708
866.269	20571
866.4	20568
866.531	20545
866.662	20568
866.793	20667
866.924	20598
867.055	20640
867.186	20545
867.317	20537
867.448	20533
867.579	20735
867.71	20549
867.841	20613
867.972	20537
868.103	20609
868.233	20617
868.364	20552
868.495	20765
868.625	20804
868.756	20921
868.886	20792
869.017	20788
869.147	20929
869.278	21047
869.408	20872
869.539	20918
869.669	20845
869.799	20883
869.929	21047
870.06	20948
870.19	21154
870.32	21104
870.45	21165
870.58	21294
870.71	21424
870.84	21329
870.97	21222
871.1	21275
871.23	21488
871.36	21462
871.489	21462
871.619	21363
871.749	21500
871.879	21408
872.008	21511
872.138	21538
872.267	21523
872.397	21504
872.526	21241
872.656	21241
872.785	21291
872.915	21348
873.044	21511
873.173	21420
873.303	21447
873.432	21428
873.561	21511
873.69	21408
873.819	21424
873.948	21534
874.077	21511
874.206	21485
874.335	21393
874.464	21526
874.593	21667
874.722	21633
874.851	21724
874.979	21804
875.108	21614
875.237	21614
875.365	21549
875.494	21724
875.623	21759
875.751	21667
875.88	21804
876.008	21781
876.136	21789
876.265	22105
876.393	22253
876.521	22135
876.65	22147
876.778	22128
876.906	22013
877.034	22029
877.162	22093
877.29	22097
877.418	22086
877.546	21964
877.674	21941
877.802	22093
877.93	22006
878.058	22070
878.185	21979
878.313	21888
878.441	22109
878.568	21926
878.696	21968
878.824	22166
878.951	22162
879.079	22215
879.206	22367
879.333	22223
879.461	22093
879.588	22097
879.715	22226
879.842	22272
879.97	22219
880.097	21922
880.224	21838
880.351	21888
880.478	21861
880.605	21800
880.732	21854
880.859	22097
880.986	21808
881.112	21899
881.239	21603
881.366	21625
881.493	21507
881.619	21454
881.746	21534
881.872	21591
881.999	21420
882.125	21397
882.252	21435
882.378	21454
882.505	21519
882.631	21306
882.757	21260
882.883	21340
883.01	21154
883.136	21180
883.262	21009
883.388	21020
883.514	21252
883.64	21154
883.766	21093
883.892	20937
884.018	21070
884.143	21013
884.269	21199
884.395	20819
884.52	20811
884.646	20769
884.772	20735
884.897	20708
885.023	20788
885.148	20765
885.274	20914
885.399	20830
885.524	20792
885.65	20746
885.775	20857
885.9	20891
886.025	20830
886.15	20731
886.275	20716
886.4	20621
886.525	20785
886.65	20731
886.775	20750
886.9	20861
887.025	20921
887.149	20701
887.274	20514
887.399	20659
887.523	20511
887.648	20636
887.773	20526
887.897	20533
888.021	20636
888.146	20552
888.27	20651
888.395	20697
888.519	20427
888.643	20507
888.767	20594
888.891	20514
889.015	20377
889.139	20473
889.263	20351
889.387	20434
889.511	20537
889.635	20514
889.759	20400
889.883	20309
890.006	20385
890.13	20438
890.254	20256
890.377	20244
890.501	20027
890.624	20100
890.748	20248
890.871	20001
890.995	19807
891.118	19944
891.241	19951
891.364	20024
891.488	20115
891.611	19970
891.734	19989
891.857	19833
891.98	19932
892.103	19989
892.226	19917
892.349	19944
892.471	19841
892.594	19833
892.717	19940
892.839	19811
892.962	19864
893.085	19989
893.207	19826
893.33	19784
893.452	19761
893.575	19955
893.697	19814
893.819	19849
893.941	20043
894.064	19986
894.186	19765
894.308	19696
894.43	19963
894.552	20008
894.674	20005
894.796	19757
894.918	19803
895.04	19693
895.161	19917
895.283	19761
895.405	19856
895.526	19852
895.648	19845
895.769	19811
895.891	19925
896.012	19902
896.134	19860
896.255	19864
896.376	19860
896.498	19864
896.619	19864
896.74	19830
896.861	19947
896.982	20126
897.103	20267
897.224	20145
897.345	20199
897.466	20096
897.587	20001
897.708	20172
897.828	20073
897.949	20035
898.07	20035
898.19	19928
898.311	20054
898.431	19993
898.552	20126
898.672	20134
898.792	20005
898.913	20119
899.033	20035
899.153	20001
899.273	19723
899.393	19894
899.513	19807
899.633	19837
899.753	19879
899.873	19932
899.993	19906
900.113	19757
900.232	19852
900.352	19849
900.472	19662
900.591	19655
900.711	19772
900.83	19533
900.95	19750
901.069	19799
901.189	19476
901.308	19293
901.427	19187
901.546	19297
901.665	19217
901.784	19236
901.904	19084
902.023	18909
902.141	18871
902.26	18814
902.379	18840
902.498	18787
902.617	18711
902.735	18741
902.854	18745
902.973	18563
903.091	18361
903.21	18407
903.328	18399
903.446	18323
903.565	18266
903.683	18155
903.801	18015
903.919	18239
904.038	18273
904.156	18022
904.274	18148
904.392	17980
904.51	17954
904.627	17996
904.745	17927
904.863	18087
904.981	17809
905.098	17809
905.216	17756
905.334	17657
905.451	17771
905.569	17684
905.686	17707
905.803	17668
905.921	17497
906.038	17474
906.155	17463
906.272	17368
906.389	17391
906.506	17235
906.623	17277
906.74	17216
906.857	17128
906.974	17090
907.091	17341
907.208	17280
907.324	17166
907.441	17121
907.557	16995
907.674	17041
907.79	16908
907.907	16957
908.023	16938
908.139	16881
908.256	16873
908.372	16809
908.488	16801
908.604	16634
908.72	16573
908.836	16672
908.952	16675
909.068	16626
909.184	16809
909.3	16519
909.415	16710
909.531	16637
909.647	16443
909.762	16333
909.878	16303
909.993	16402
910.108	16333
910.224	16276
910.339	16367
910.454	16322
910.57	16211
910.685	16135
910.8	16291
910.915	16405
911.03	16097
911.145	15998
911.259	15972
911.374	16006
911.489	15831
911.604	15854
911.718	15686
911.833	15625
911.947	15561
912.062	15553
912.176	15736
912.291	15690
912.405	15652
912.519	15739
912.633	15941
912.748	15667
912.862	15728
912.976	15530
913.09	15469
913.204	15477
913.318	15542
913.431	15557
913.545	15717
913.659	15549
913.772	15496
913.886	15424
914	15374
914.113	15405
914.226	15435
914.34	15378
914.453	15188
914.566	15310
914.68	15188
914.793	15116
914.906	14967
915.019	15055
915.132	14929
915.245	14933
915.358	15081
915.47	15005
915.583	15009
915.696	14956
915.809	15043
915.921	15074
916.034	14845
916.146	14815
916.259	14834
916.371	14944
916.483	14849
916.595	14800
916.708	14826
916.82	14735
916.932	14754
917.044	14670
917.156	14708
917.268	14621
917.38	14606
917.491	14651
917.603	14575
917.715	14678
917.826	14651
917.938	14503
918.049	14408
918.161	14617
918.272	14701
918.384	14708
918.495	14648
918.606	14282
918.717	14355
918.828	14457
918.939	14419
919.05	14282
919.161	14412
919.272	14195
919.383	14191
919.494	14389
919.604	14530
919.715	14324
919.826	14282
919.936	14343
920.047	14336
920.157	14393
920.267	14533
920.378	14370
920.488	14347
920.598	14545
920.708	14739
920.818	14469
920.928	14488
921.038	14617
921.148	14636
921.258	14298
921.368	14202
921.477	14130
921.587	14024
921.697	13970
921.806	14084
921.916	13989
922.025	13765
922.134	13734
922.244	13643
922.353	13666
922.462	13628
922.571	13487
922.68	13312
922.789	13388
922.898	13362
923.007	13324
923.116	13373
923.224	13289
923.333	13350
923.442	13209
923.55	13225
923.659	13091
923.767	13187
923.876	13202
923.984	13194
924.092	13061
924.201	13160
924.309	13046
924.417	13152
924.525	13000
924.633	13072
924.741	13814
924.849	12871
924.956	12928
925.064	12791
925.172	12768
925.279	12772
925.387	12764
925.494	12825
925.602	12821
925.709	12913
925.816	12696
925.924	12783
926.031	12787
926.138	12726
926.245	12734
926.352	12551
926.459	12741
926.566	12787
926.673	12627
926.779	12574
926.886	12654
926.993	12372
927.099	12327
927.206	12323
927.312	12277
927.419	12330
927.525	12361
927.631	12357
927.737	12281
927.843	12152
927.95	12060
928.056	12254
928.162	12220
928.267	12213
928.373	12833
928.479	12167
928.585	12019
928.69	12087
928.796	12117
928.901	11958
929.007	11904
929.112	12076
929.218	11969
929.323	11897
929.428	11961
929.533	12011
929.638	11885
929.743	11813
929.848	12003
929.953	11866
930.058	11836
930.163	11638
930.267	11566
930.372	11756
930.477	11497
930.581	11847
930.685	11615
930.79	11474
930.894	11570
930.998	11562
931.103	11592
931.207	11296
931.311	11174
931.415	11155
931.519	10866
931.623	10847
