Data from test_V78500241_2301.txt Node
Date: Fri Mar 25 15:25:52 CST 2022
User: usil
Spectrometer: V785-0024
Trigger mode: 0
Integration Time (sec): 4.000000E-1
Scans to average: 1
Nonlinearity correction enabled: false
Boxcar width: 0
Storing dark spectrum: false
XAxis mode: Wavelengths
Number of Pixels in Spectrum: 1024
>>>>>Begin Spectral Data<<<<<
801.071	27720
801.214	27785
801.356	27408
801.499	27534
801.641	27237
801.783	27252
801.926	27275
802.068	27112
802.211	27237
802.353	27108
802.496	27036
802.638	26933
802.78	26910
802.923	26933
803.065	26815
803.208	26887
803.35	26914
803.492	27047
803.635	27043
803.777	27001
803.919	27039
804.061	27386
804.204	27283
804.346	27036
804.488	27020
804.63	27192
804.773	27066
804.915	27123
805.057	27180
805.199	26906
805.341	27161
805.483	27264
805.626	27218
805.768	27093
805.91	27192
806.052	27260
806.194	27199
806.336	27405
806.478	27287
806.62	27081
806.762	27412
806.904	27519
807.046	27644
807.188	27682
807.33	27671
807.472	27724
807.614	27603
807.756	27637
807.898	27534
808.04	27359
808.182	27534
808.324	27481
808.465	27591
808.607	27759
808.749	27911
808.891	27953
809.033	27983
809.174	27827
809.316	27918
809.458	27778
809.6	27907
809.741	27945
809.883	27934
810.025	28143
810.166	28010
810.308	28204
810.45	28116
810.591	28097
810.733	28032
810.875	27888
811.016	27648
811.158	27808
811.299	27835
811.441	28017
811.582	27983
811.724	27850
811.865	27812
812.007	27987
812.148	27808
812.29	27880
812.431	28097
812.573	28116
812.714	28367
812.855	28287
812.997	28470
813.138	28565
813.279	28523
813.421	28257
813.562	28390
813.703	28013
813.845	28150
813.986	27637
814.127	27698
814.268	27462
814.41	27591
814.551	27595
814.692	27622
814.833	27427
814.974	27568
815.115	27606
815.256	27526
815.397	27287
815.539	27477
815.68	27294
815.821	27306
815.962	27405
816.103	27268
816.244	27127
816.385	27165
816.526	27055
816.666	26971
816.807	26796
816.948	26716
817.089	26899
817.23	26940
817.371	26765
817.512	26823
817.653	26819
817.793	26545
817.934	26857
818.075	26823
818.216	26777
818.356	26743
818.497	26651
818.638	26564
818.778	26480
818.919	26598
819.06	26587
819.2	26609
819.341	26872
819.481	26842
819.622	26940
819.762	27089
819.903	27001
820.043	26986
820.184	26845
820.324	26842
820.465	26899
820.605	27009
820.746	26880
820.886	26788
821.026	26804
821.167	26883
821.307	27058
821.447	26834
821.588	26781
821.728	26560
821.868	26313
822.008	26294
822.149	26355
822.289	26256
822.429	26050
822.569	25989
822.709	25830
822.849	25830
822.99	25868
823.13	25841
823.27	25753
823.41	25616
823.55	25601
823.69	25533
823.83	25689
823.97	25457
824.11	25324
824.25	25377
824.389	25221
824.529	25434
824.669	25369
824.809	25411
824.949	25457
825.089	25411
825.228	25396
825.368	25297
825.508	25384
825.648	25324
825.787	25266
825.927	25278
826.067	25331
826.206	25263
826.346	25316
826.485	25350
826.625	25282
826.765	25365
826.904	25270
827.044	25042
827.183	25050
827.323	24924
827.462	25012
827.601	25141
827.741	25053
827.88	25023
828.02	24833
828.159	24935
828.298	25031
828.437	24920
828.577	24867
828.716	25099
828.855	24916
828.994	24703
829.134	24696
829.273	24639
829.412	24597
829.551	24517
829.69	24654
829.829	24711
829.968	24684
830.107	24878
830.246	24741
830.385	24635
830.524	24570
830.663	24517
830.802	24483
830.941	24353
831.08	24311
831.219	24338
831.357	24323
831.496	24365
831.635	24201
831.774	24243
831.913	24091
832.051	24041
832.19	24045
832.329	24163
832.467	24003
832.606	23992
832.744	23779
832.883	24003
833.022	23805
833.16	23969
833.299	24098
833.437	24076
833.576	24083
833.714	23950
833.852	24038
833.991	24205
834.129	24095
834.267	24076
834.406	24076
834.544	24205
834.682	23908
834.821	23935
834.959	24159
835.097	23904
835.235	24110
835.373	23961
835.511	24011
835.65	23866
835.788	23855
835.926	23676
836.064	23619
836.202	23687
836.34	23882
836.478	23939
836.615	23745
836.753	23859
836.891	23836
837.029	23912
837.167	23855
837.305	23722
837.443	23745
837.58	23767
837.718	23767
837.856	23638
837.993	23573
838.131	23630
838.269	23467
838.406	23535
838.544	23512
838.681	23326
838.819	23299
838.956	23155
839.094	23128
839.231	23200
839.369	23497
839.506	23501
839.643	23284
839.781	23071
839.918	23071
840.055	23117
840.193	23067
840.33	23056
840.467	23162
840.604	23212
840.742	23166
840.879	22854
841.016	22968
841.153	23044
841.29	23216
841.427	23105
841.564	23060
841.701	23178
841.838	23060
841.975	22972
842.112	23037
842.249	22908
842.385	22713
842.522	23029
842.659	22862
842.796	22824
842.933	22877
843.069	22942
843.206	22801
843.343	22915
843.479	22938
843.616	22759
843.752	22546
843.889	22664
844.025	22805
844.162	22672
844.298	22790
844.435	22573
844.571	22573
844.708	22672
844.844	22805
844.98	22831
845.117	22702
845.253	22660
845.389	22508
845.525	22462
845.661	22421
845.798	22356
845.934	22531
846.07	22367
846.206	22474
846.342	22379
846.478	22280
846.614	22207
846.75	22040
846.886	22101
847.022	22181
847.158	22101
847.294	22105
847.429	22128
847.565	22169
847.701	22272
847.837	21831
847.972	21797
848.108	21892
848.244	22036
848.379	21675
848.515	21690
848.65	21652
848.786	21671
848.921	21694
849.057	21846
849.192	21739
849.328	21743
849.463	21660
849.598	21679
849.734	21629
849.869	21580
850.004	21504
850.14	21507
850.275	21367
850.41	21416
850.545	21515
850.68	21298
850.815	21576
850.95	21401
851.085	21671
851.22	21690
851.355	21507
851.49	21515
851.625	21447
851.76	21435
851.895	21310
852.03	21447
852.165	21367
852.299	21507
852.434	21504
852.569	21454
852.703	21348
852.838	21469
852.973	21561
853.107	21523
853.242	21469
853.376	21264
853.511	21051
853.645	21264
853.78	21485
853.914	21332
854.048	21272
854.183	21226
854.317	21195
854.451	21603
854.585	21176
854.72	21268
854.854	21370
854.988	21275
855.122	21313
855.256	21195
855.39	21226
855.524	21313
855.658	21241
855.792	21412
855.926	21321
856.06	21359
856.194	21386
856.327	21211
856.461	21161
856.595	21081
856.729	21329
856.862	21230
856.996	21279
857.13	21363
857.263	21306
857.397	21401
857.53	21256
857.664	21302
857.797	21412
857.931	21370
858.064	21203
858.197	21431
858.331	21275
858.464	21237
858.597	21237
858.731	21203
858.864	21397
858.997	21214
859.13	21222
859.263	21169
859.396	21424
859.529	21176
859.662	21268
859.795	21211
859.928	21272
860.061	21454
860.194	21393
860.327	21226
860.46	21363
860.592	21302
860.725	21466
860.858	21344
860.99	21374
861.123	21214
861.256	21226
861.388	21336
861.521	21926
861.653	21218
861.786	21074
861.918	21096
862.05	21173
862.183	21245
862.315	21233
862.447	21317
862.58	21112
862.712	20895
862.844	20902
862.976	21135
863.108	21039
863.24	21496
863.372	20849
863.504	20910
863.636	20929
863.768	20914
863.9	20933
864.032	20971
864.164	20971
864.296	21028
864.428	21032
864.559	21081
864.691	21055
864.823	21119
864.954	20929
865.086	20876
865.217	20876
865.349	20826
865.48	20929
865.612	20948
865.743	21001
865.875	20921
866.006	20921
866.137	20864
866.269	20754
866.4	20849
866.531	20838
866.662	20686
866.793	20864
866.924	20773
867.055	20800
867.186	20830
867.317	20838
867.448	20826
867.579	20891
867.71	20811
867.841	20712
867.972	20853
868.103	20826
868.233	20708
868.364	20857
868.495	20933
868.625	21028
868.756	21154
868.886	20895
869.017	21062
869.147	21169
869.278	21127
869.408	21184
869.539	20967
869.669	21119
869.799	21032
869.929	21192
870.06	21157
870.19	21370
870.32	21408
870.45	21435
870.58	21378
870.71	21583
870.84	21500
870.97	21488
871.1	21507
871.23	21656
871.36	21705
871.489	21591
871.619	21637
871.749	21610
871.879	21667
872.008	21648
872.138	21705
872.267	21682
872.397	21526
872.526	21450
872.656	21431
872.785	21545
872.915	21747
873.044	21671
873.173	21656
873.303	21675
873.432	21694
873.561	21827
873.69	21785
873.819	21603
873.948	21717
874.077	21629
874.206	21519
874.335	21641
874.464	21705
874.593	21774
874.722	21873
874.851	22006
874.979	22044
875.108	21876
875.237	21797
875.365	21846
875.494	21926
875.623	21915
875.751	21857
875.88	21911
876.008	22013
876.136	22150
876.265	22223
876.393	22261
876.521	22246
876.65	22314
876.778	22344
876.906	22325
877.034	22242
877.162	22265
877.29	22105
877.418	22158
877.546	22196
877.674	22162
877.802	22150
877.93	22238
878.058	22158
878.185	22131
878.313	22135
878.441	22253
878.568	21987
878.696	22131
878.824	22219
878.951	22284
879.079	22352
879.206	22538
879.333	22382
879.461	22405
879.588	22398
879.715	22409
879.842	22459
879.97	22287
880.097	22177
880.224	22021
880.351	22120
880.478	22105
880.605	21964
880.732	22070
880.859	22280
880.986	22105
881.112	22116
881.239	21945
881.366	21793
881.493	21743
881.619	21667
881.746	21690
881.872	21648
881.999	21682
882.125	21564
882.252	21797
882.378	21656
882.505	21667
882.631	21637
882.757	21405
882.883	21416
883.01	21233
883.136	21275
883.262	21211
883.388	21188
883.514	21359
883.64	21454
883.766	21294
883.892	21009
884.018	21203
884.143	21344
884.269	21329
884.395	21119
884.52	21009
884.646	21024
884.772	20914
884.897	21066
885.023	21047
885.148	21005
885.274	21184
885.399	20994
885.524	21055
885.65	20956
885.775	20944
885.9	20967
886.025	21131
886.15	21077
886.275	20948
886.4	20933
886.525	20998
886.65	20944
886.775	20769
886.9	21169
887.025	21214
887.149	20960
887.274	20792
887.399	20746
887.523	20739
887.648	20705
887.773	20697
887.897	20967
888.021	20686
888.146	20617
888.27	20807
888.395	20845
888.519	20667
888.643	20746
888.767	20697
888.891	20712
889.015	20602
889.139	20556
889.263	20583
889.387	20724
889.511	20769
889.635	20682
889.759	20476
889.883	20511
890.006	20556
890.13	20613
890.254	20469
890.377	20518
890.501	20370
890.624	20244
890.748	20370
890.871	20126
890.995	20020
891.118	20096
891.241	20225
891.364	20138
891.488	20195
891.611	20111
891.734	20069
891.857	20195
891.98	20115
892.103	20214
892.226	20031
892.349	20016
892.471	19982
892.594	19959
892.717	19989
892.839	19986
892.962	20031
893.085	20176
893.207	20012
893.33	19917
893.452	19894
893.575	20065
893.697	19974
893.819	20142
893.941	20176
894.064	20115
894.186	20039
894.308	19898
894.43	20081
894.552	20180
894.674	20077
894.796	19947
894.918	19913
895.04	19947
895.161	20035
895.283	20050
895.405	19932
895.526	20092
895.648	19944
895.769	20043
895.891	19959
896.012	20054
896.134	20027
896.255	20134
896.376	19970
896.498	20016
896.619	20081
896.74	19997
896.861	20161
896.982	20282
897.103	20503
897.224	20263
897.345	20271
897.466	20122
897.587	20305
897.708	20317
897.828	20358
897.949	20202
898.07	19967
898.19	20111
898.311	20240
898.431	20126
898.552	20210
898.672	20389
898.792	20370
898.913	20233
899.033	20187
899.153	20107
899.273	19906
899.393	20035
899.513	19879
899.633	19940
899.753	19928
899.873	19963
899.993	19982
900.113	20039
900.232	19955
900.352	19947
900.472	19780
900.591	19830
900.711	19890
900.83	19677
900.95	19818
901.069	19845
901.189	19590
901.308	19400
901.427	19407
901.546	19392
901.665	19384
901.784	19354
901.904	19198
902.023	19145
902.141	18954
902.26	18875
902.379	19053
902.498	18840
902.617	18932
902.735	18981
902.854	18840
902.973	18817
903.091	18620
903.21	18509
903.328	18570
903.446	18456
903.565	18376
903.683	18426
903.801	18266
903.919	18167
904.038	18369
904.156	18251
904.274	18201
904.392	18152
904.51	18148
904.627	18076
904.745	18098
904.863	18114
904.981	17927
905.098	17729
905.216	17726
905.334	17874
905.451	17843
905.569	17840
905.686	17794
905.803	17726
905.921	17630
906.038	17703
906.155	17570
906.272	17493
906.389	17501
906.506	17364
906.623	17337
906.74	17311
906.857	17189
906.974	17200
907.091	17406
907.208	17440
907.324	17341
907.441	17204
907.557	17048
907.674	16984
907.79	16946
907.907	16946
908.023	17018
908.139	16965
908.256	17056
908.372	16847
908.488	16965
908.604	16793
908.72	16733
908.836	16831
908.952	16683
909.068	16717
909.184	16858
909.3	16755
909.415	16782
909.531	16782
909.647	16535
909.762	16466
909.878	16424
909.993	16413
910.108	16489
910.224	16481
910.339	16352
910.454	16386
910.57	16306
910.685	16219
910.8	16459
910.915	16485
911.03	16295
911.145	16105
911.259	16059
911.374	16051
911.489	15998
911.604	15979
911.718	15903
911.833	15797
911.947	15656
912.062	15610
912.176	15800
912.291	15766
912.405	15686
912.519	16074
912.633	15941
912.748	15907
912.862	15747
912.976	15694
913.09	15561
913.204	15614
913.318	15633
913.431	15766
913.545	15614
913.659	15690
913.772	15580
913.886	15420
914	15389
914.113	15538
914.226	15591
914.34	15504
914.453	15298
914.566	15530
914.68	15313
914.793	15165
914.906	15047
915.019	15009
915.132	15017
915.245	14998
915.358	15032
915.47	15032
915.583	15070
915.696	15100
915.809	15017
915.921	15116
916.034	15024
916.146	14941
916.259	14918
916.371	15043
916.483	14982
916.595	14960
916.708	14921
916.82	14743
916.932	14826
917.044	14800
917.156	14838
917.268	14739
917.38	14765
917.491	14773
917.603	14762
917.715	14743
917.826	14815
917.938	14640
918.049	14594
918.161	14689
918.272	14872
918.384	14750
918.495	14575
918.606	14511
918.717	14461
918.828	14556
918.939	14530
919.05	14309
919.161	14488
919.272	14301
919.383	14362
919.494	14484
919.604	14648
919.715	14530
919.826	14351
919.936	14412
920.047	14514
920.157	14465
920.267	14610
920.378	14480
920.488	14396
920.598	14552
920.708	14762
920.818	14579
920.928	14511
921.038	14708
921.148	14663
921.258	14343
921.368	14313
921.477	14259
921.587	14176
921.697	14005
921.806	14092
921.916	14020
922.025	13856
922.134	13826
922.244	13765
922.353	13757
922.462	13757
922.571	13556
922.68	13514
922.789	13445
922.898	13460
923.007	13377
923.116	13480
923.224	13426
923.333	13506
923.442	13411
923.55	13209
923.659	13373
923.767	13346
923.876	13221
923.984	13293
924.092	13209
924.201	13198
924.309	13293
924.417	13152
924.525	13145
924.633	13168
924.741	14058
924.849	12905
924.956	13053
925.064	12939
925.172	12852
925.279	12897
925.387	12909
925.494	12973
925.602	12935
925.709	12928
925.816	12829
925.924	12882
926.031	12920
926.138	12806
926.245	12844
926.352	12802
926.459	12856
926.566	12966
926.673	12768
926.779	12593
926.886	12684
926.993	12525
927.099	12471
927.206	12448
927.312	12452
927.419	12460
927.525	12433
927.631	12509
927.737	12330
927.843	12289
927.95	12190
928.056	12266
928.162	12353
928.267	12205
928.373	12882
928.479	12300
928.585	12155
928.69	12197
928.796	12289
928.901	12155
929.007	11977
929.112	12076
929.218	12030
929.323	11992
929.428	11999
929.533	12148
929.638	11920
929.743	12049
929.848	11996
929.953	11912
930.058	11851
930.163	11760
930.267	11741
930.372	11874
930.477	11589
930.581	11901
930.685	11627
930.79	11566
930.894	11611
930.998	11528
931.103	11707
931.207	11330
931.311	11284
931.415	11140
931.519	10984
931.623	10965
