Data from test_V78500241_1703.txt Node
Date: Fri Mar 25 15:21:42 CST 2022
User: usil
Spectrometer: V785-0024
Trigger mode: 0
Integration Time (sec): 4.000000E-1
Scans to average: 1
Nonlinearity correction enabled: false
Boxcar width: 0
Storing dark spectrum: false
XAxis mode: Wavelengths
Number of Pixels in Spectrum: 1024
>>>>>Begin Spectral Data<<<<<
801.071	27781
801.214	27511
801.356	27374
801.499	27169
801.641	27188
801.783	27085
801.926	27176
802.068	27062
802.211	27062
802.353	27093
802.496	26906
802.638	26872
802.78	26864
802.923	26667
803.065	26617
803.208	26777
803.35	26777
803.492	26845
803.635	26925
803.777	26937
803.919	26975
804.061	27218
804.204	27100
804.346	27028
804.488	26914
804.63	26944
804.773	26857
804.915	27058
805.057	27024
805.199	26883
805.341	27039
805.483	27127
805.626	27108
805.768	26925
805.91	27161
806.052	27085
806.194	27066
806.336	27367
806.478	27020
806.62	27104
806.762	27256
806.904	27481
807.046	27515
807.188	27576
807.33	27389
807.472	27511
807.614	27526
807.756	27492
807.898	27336
808.04	27344
808.182	27302
808.324	27344
808.465	27408
808.607	27690
808.749	27663
808.891	27739
809.033	27800
809.174	27743
809.316	27827
809.458	27717
809.6	27686
809.741	27789
809.883	27827
810.025	27964
810.166	28010
810.308	28021
810.45	27880
810.591	27857
810.733	27766
810.875	27652
811.016	27667
811.158	27405
811.299	27895
811.441	27888
811.582	27789
811.724	27675
811.865	27747
812.007	27622
812.148	27614
812.29	27778
812.431	27975
812.573	27918
812.714	28150
812.855	28238
812.997	28348
813.138	28348
813.279	28265
813.421	28261
813.562	28116
813.703	28059
813.845	27842
813.986	27739
814.127	27587
814.268	27351
814.41	27424
814.551	27355
814.692	27382
814.833	27264
814.974	27370
815.115	27416
815.256	27332
815.397	27138
815.539	27298
815.68	27089
815.821	27077
815.962	27055
816.103	27100
816.244	27085
816.385	26979
816.526	26811
816.666	26815
816.807	26609
816.948	26708
817.089	26777
817.23	26716
817.371	26590
817.512	26686
817.653	26693
817.793	26705
817.934	26667
818.075	26697
818.216	26552
818.356	26571
818.497	26492
818.638	26442
818.778	26404
818.919	26431
819.06	26522
819.2	26640
819.341	26609
819.481	26648
819.622	26853
819.762	26967
819.903	26982
820.043	26979
820.184	26876
820.324	26686
820.465	26807
820.605	26785
820.746	26811
820.886	26590
821.026	26777
821.167	26663
821.307	26724
821.447	26636
821.588	26473
821.728	26518
821.868	26309
822.008	26157
822.149	26240
822.289	26001
822.429	25795
822.569	25746
822.709	25856
822.849	25666
822.99	25708
823.13	25491
823.27	25628
823.41	25495
823.55	25339
823.69	25426
823.83	25400
823.97	25457
824.11	25350
824.25	25206
824.389	25164
824.529	25350
824.669	25343
824.809	25426
824.949	25369
825.089	25225
825.228	25312
825.368	25160
825.508	25148
825.648	25179
825.787	25107
825.927	25156
826.067	25114
826.206	25179
826.346	25076
826.485	25126
826.625	25099
826.765	25217
826.904	25110
827.044	24943
827.183	24856
827.323	24692
827.462	24958
827.601	24859
827.741	24772
827.88	24795
828.02	24741
828.159	24935
828.298	24867
828.437	24863
828.577	24798
828.716	24924
828.855	24787
828.994	24612
829.134	24498
829.273	24612
829.412	24483
829.551	24513
829.69	24448
829.829	24673
829.968	24612
830.107	24635
830.246	24445
830.385	24433
830.524	24403
830.663	24399
830.802	24315
830.941	24095
831.08	24144
831.219	24194
831.357	24247
831.496	24346
831.635	24201
831.774	24155
831.913	24159
832.051	23946
832.19	24034
832.329	23904
832.467	23821
832.606	23885
832.744	23760
832.883	23904
833.022	23832
833.16	23805
833.299	23950
833.437	23866
833.576	23958
833.714	23920
833.852	23977
833.991	23999
834.129	24022
834.267	23920
834.406	23920
834.544	24018
834.682	23885
834.821	23958
834.959	24091
835.097	23855
835.235	23920
835.373	23969
835.511	23984
835.65	23843
835.788	23775
835.926	23665
836.064	23531
836.202	23627
836.34	23832
836.478	23809
836.615	23718
836.753	23760
836.891	23889
837.029	23817
837.167	23646
837.305	23608
837.443	23691
837.58	23455
837.718	23737
837.856	23577
837.993	23562
838.131	23672
838.269	23543
838.406	23585
838.544	23520
838.681	23273
838.819	23242
838.956	23121
839.094	23079
839.231	23098
839.369	23303
839.506	23490
839.643	23337
839.781	23060
839.918	23052
840.055	23029
840.193	23071
840.33	22862
840.467	22987
840.604	23132
840.742	23337
840.879	22900
841.016	23029
841.153	22847
841.29	23231
841.427	23006
841.564	22991
841.701	22991
841.838	22923
841.975	22904
842.112	22812
842.249	22752
842.385	22733
842.522	22892
842.659	22801
842.796	22809
842.933	22801
843.069	22767
843.206	22683
843.343	22885
843.479	22691
843.616	22908
843.752	22538
843.889	22527
844.025	22656
844.162	22550
844.298	22550
844.435	22584
844.571	22379
844.708	22504
844.844	22710
844.98	22615
845.117	22596
845.253	22493
845.389	22375
845.525	22459
845.661	22242
845.798	22249
845.934	22443
846.07	22162
846.206	22280
846.342	22516
846.478	22386
846.614	22082
846.75	22055
846.886	22025
847.022	22124
847.158	22048
847.294	21903
847.429	22173
847.565	21975
847.701	22207
847.837	21785
847.972	21778
848.108	21766
848.244	21880
848.379	21625
848.515	21641
848.65	21542
848.786	21614
848.921	21591
849.057	21724
849.192	21713
849.328	21728
849.463	21606
849.598	21526
849.734	21447
849.869	21386
850.004	21382
850.14	21363
850.275	21397
850.41	21298
850.545	21405
850.68	21325
850.815	21367
850.95	21287
851.085	21580
851.22	21504
851.355	21313
851.49	21329
851.625	21397
851.76	21237
851.895	21245
852.03	21344
852.165	21386
852.299	21344
852.434	21523
852.569	21313
852.703	21412
852.838	21466
852.973	21523
853.107	21488
853.242	21351
853.376	21256
853.511	21066
853.645	21241
853.78	21173
853.914	21157
854.048	21123
854.183	21169
854.317	21146
854.451	21291
854.585	21241
854.72	21279
854.854	21389
854.988	21161
855.122	21138
855.256	21039
855.39	21135
855.524	21355
855.658	21146
855.792	21222
855.926	21150
856.06	21199
856.194	21237
856.327	21157
856.461	21077
856.595	21214
856.729	21112
856.862	21401
856.996	21176
857.13	21138
857.263	21317
857.397	21344
857.53	21131
857.664	21211
857.797	21131
857.931	21214
858.064	21222
858.197	21195
858.331	21230
858.464	20971
858.597	21104
858.731	21180
858.864	21157
858.997	21123
859.13	21188
859.263	21256
859.396	21268
859.529	21176
859.662	21188
859.795	21047
859.928	21032
860.061	21275
860.194	21313
860.327	21306
860.46	21070
860.592	21348
860.725	21279
860.858	21306
860.99	21176
861.123	21047
861.256	21138
861.388	21108
861.521	21873
861.653	20979
861.786	21017
861.918	20982
862.05	21028
862.183	21039
862.315	21104
862.447	21146
862.58	21104
862.712	20979
862.844	20948
862.976	20883
863.108	21089
863.24	21195
863.372	20811
863.504	21009
863.636	20895
863.768	21017
863.9	20956
864.032	20861
864.164	20883
864.296	20857
864.428	20948
864.559	20944
864.691	20880
864.823	20921
864.954	20937
865.086	20845
865.217	20830
865.349	20659
865.48	20823
865.612	20746
865.743	20971
865.875	20678
866.006	20861
866.137	20914
866.269	20716
866.4	20731
866.531	20716
866.662	20670
866.793	20724
866.924	20845
867.055	20785
867.186	20743
867.317	20716
867.448	20651
867.579	20644
867.71	20583
867.841	20636
867.972	20701
868.103	20659
868.233	20762
868.364	20769
868.495	20849
868.625	20975
868.756	21039
868.886	20914
869.017	21028
869.147	20998
869.278	21150
869.408	20891
869.539	20956
869.669	20967
869.799	21013
869.929	21085
870.06	21138
870.19	21317
870.32	21195
870.45	21321
870.58	21344
870.71	21530
870.84	21519
870.97	21492
871.1	21355
871.23	21485
871.36	21511
871.489	21492
871.619	21545
871.749	21530
871.879	21542
872.008	21625
872.138	21599
872.267	21625
872.397	21454
872.526	21412
872.656	21344
872.785	21389
872.915	21606
873.044	21660
873.173	21511
873.303	21686
873.432	21599
873.561	21682
873.69	21610
873.819	21515
873.948	21701
874.077	21652
874.206	21511
874.335	21614
874.464	21637
874.593	21876
874.722	21789
874.851	21922
874.979	21804
875.108	21800
875.237	21766
875.365	21717
875.494	21808
875.623	21762
875.751	21660
875.88	21717
876.008	22013
876.136	22013
876.265	22303
876.393	22344
876.521	22265
876.65	22295
876.778	22173
876.906	22105
877.034	22166
877.162	22219
877.29	22059
877.418	22185
877.546	22158
877.674	22219
877.802	22086
877.93	22211
878.058	22097
878.185	22181
878.313	22135
878.441	22166
878.568	21880
878.696	22048
878.824	22230
878.951	22207
879.079	22257
879.206	22402
879.333	22325
879.461	22090
879.588	22265
879.715	22303
879.842	22474
879.97	22200
880.097	21979
880.224	21945
880.351	22032
880.478	22036
880.605	21934
880.732	22010
880.859	22265
880.986	21968
881.112	22013
881.239	21846
881.366	21720
881.493	21561
881.619	21622
881.746	21641
881.872	21473
881.999	21447
882.125	21507
882.252	21629
882.378	21553
882.505	21648
882.631	21462
882.757	21363
882.883	21199
883.01	21264
883.136	21332
883.262	21214
883.388	21119
883.514	21317
883.64	21245
883.766	21207
883.892	21119
884.018	20960
884.143	21180
884.269	21336
884.395	20925
884.52	20758
884.646	20834
884.772	20777
884.897	20785
885.023	20921
885.148	21028
885.274	20975
885.399	21127
885.524	20933
885.65	20868
885.775	20933
885.9	20857
886.025	21077
886.15	21036
886.275	20876
886.4	20796
886.525	20785
886.65	20785
886.775	20781
886.9	21028
887.025	21043
887.149	20883
887.274	20663
887.399	20594
887.523	20693
887.648	20648
887.773	20587
887.897	20735
888.021	20804
888.146	20526
888.27	20872
888.395	20777
888.519	20735
888.643	20750
888.767	20785
888.891	20651
889.015	20473
889.139	20533
889.263	20461
889.387	20617
889.511	20712
889.635	20617
889.759	20404
889.883	20454
890.006	20438
890.13	20389
890.254	20434
890.377	20480
890.501	20168
890.624	20202
890.748	20248
890.871	20115
890.995	20073
891.118	19951
891.241	19970
891.364	20134
891.488	20180
891.611	20039
891.734	19913
891.857	20084
891.98	20054
892.103	20096
892.226	20020
892.349	19940
892.471	19795
892.594	20005
892.717	20062
892.839	19974
892.962	20065
893.085	19970
893.207	19932
893.33	19826
893.452	19822
893.575	19902
893.697	19890
893.819	20168
893.941	20088
894.064	20012
894.186	19830
894.308	19890
894.43	20054
894.552	20115
894.674	19967
894.796	19811
894.918	19947
895.04	19811
895.161	20119
895.283	19993
895.405	19951
895.526	19932
895.648	20005
895.769	19959
895.891	20092
896.012	20119
896.134	20081
896.255	20043
896.376	19894
896.498	19928
896.619	19917
896.74	19967
896.861	20050
896.982	20408
897.103	20366
897.224	20275
897.345	20202
897.466	20035
897.587	20126
897.708	20294
897.828	20233
897.949	20115
898.07	19947
898.19	20187
898.311	20164
898.431	20073
898.552	20278
898.672	20107
898.792	20233
898.913	20164
899.033	20058
899.153	19970
899.273	19875
899.393	19871
899.513	19940
899.633	19883
899.753	19982
899.873	19791
899.993	19989
900.113	19803
900.232	20039
900.352	19837
900.472	19746
900.591	19628
900.711	19635
900.83	19719
900.95	19719
901.069	19772
901.189	19476
901.308	19247
901.427	19320
901.546	19187
901.665	19293
901.784	19358
901.904	19190
902.023	19004
902.141	18776
902.26	18920
902.379	18817
902.498	18757
902.617	18798
902.735	18856
902.854	18810
902.973	18734
903.091	18631
903.21	18365
903.328	18456
903.446	18403
903.565	18304
903.683	18395
903.801	18129
903.919	18148
904.038	18228
904.156	18110
904.274	18136
904.392	17946
904.51	18121
904.627	18064
904.745	18038
904.863	18117
904.981	17775
905.098	17756
905.216	17741
905.334	17714
905.451	17756
905.569	17668
905.686	17756
905.803	17642
905.921	17452
906.038	17581
906.155	17490
906.272	17425
906.389	17573
906.506	17239
906.623	17318
906.74	17288
906.857	17109
906.974	17140
907.091	17265
907.208	17277
907.324	17356
907.441	17200
907.557	17006
907.674	17018
907.79	17018
907.907	17003
908.023	17071
908.139	17022
908.256	16862
908.372	16816
908.488	16873
908.604	16664
908.72	16615
908.836	16740
908.952	16622
909.068	16702
909.184	16850
909.3	16626
909.415	16733
909.531	16615
909.647	16421
909.762	16424
909.878	16390
909.993	16394
910.108	16344
910.224	16382
910.339	16276
910.454	16265
910.57	16181
910.685	16139
910.8	16440
910.915	16341
911.03	16188
911.145	16063
911.259	15998
911.374	15972
911.489	15983
911.604	15945
911.718	15751
911.833	15682
911.947	15587
912.062	15557
912.176	15679
912.291	15751
912.405	15751
912.519	15876
912.633	15934
912.748	15755
912.862	15724
912.976	15576
913.09	15454
913.204	15485
913.318	15648
913.431	15606
913.545	15641
913.659	15671
913.772	15416
913.886	15507
914	15408
914.113	15359
914.226	15481
914.34	15401
914.453	15310
914.566	15386
914.68	15291
914.793	15287
914.906	15066
915.019	14986
915.132	14921
915.245	14914
915.358	14895
915.47	14849
915.583	14933
915.696	14979
915.809	15077
915.921	15108
916.034	14895
916.146	14910
916.259	14857
916.371	14823
916.483	14929
916.595	14819
916.708	14765
916.82	14800
916.932	14689
917.044	14735
917.156	14788
917.268	14693
917.38	14701
917.491	14708
917.603	14613
917.715	14727
917.826	14743
917.938	14518
918.049	14492
918.161	14533
918.272	14743
918.384	14613
918.495	14636
918.606	14530
918.717	14343
918.828	14438
918.939	14427
919.05	14324
919.161	14389
919.272	14259
919.383	14385
919.494	14480
919.604	14610
919.715	14469
919.826	14271
919.936	14358
920.047	14377
920.157	14446
920.267	14625
920.378	14400
920.488	14336
920.598	14518
920.708	14826
920.818	14587
920.928	14476
921.038	14678
921.148	14579
921.258	14286
921.368	14347
921.477	14164
921.587	14043
921.697	14001
921.806	14134
921.916	14069
922.025	13879
922.134	13757
922.244	13795
922.353	13856
922.462	13666
922.571	13578
922.68	13449
922.789	13362
922.898	13396
923.007	13335
923.116	13411
923.224	13460
923.333	13449
923.442	13316
923.55	13198
923.659	13266
923.767	13255
923.876	13126
923.984	13308
924.092	13103
924.201	13217
924.309	13202
924.417	13122
924.525	13019
924.633	13122
924.741	13849
924.849	12958
924.956	13012
925.064	12886
925.172	12837
925.279	12814
925.387	12928
925.494	12886
925.602	12954
925.709	12878
925.816	12795
925.924	12821
926.031	12935
926.138	12745
926.245	12897
926.352	12707
926.459	12833
926.566	12856
926.673	12688
926.779	12585
926.886	12578
926.993	12506
927.099	12388
927.206	12437
927.312	12300
927.419	12467
927.525	12277
927.631	12490
927.737	12289
927.843	12148
927.95	12167
928.056	12243
928.162	12224
928.267	12376
928.373	12867
928.479	12281
928.585	12079
928.69	12213
928.796	12228
928.901	12125
929.007	11969
929.112	12022
929.218	12095
929.323	12057
929.428	11836
929.533	12079
929.638	11954
929.743	11882
929.848	12003
929.953	11893
930.058	11729
930.163	11710
930.267	11684
930.372	11748
930.477	11627
930.581	11904
930.685	11703
930.79	11493
930.894	11600
930.998	11558
931.103	11760
931.207	11303
931.311	11185
931.415	11045
931.519	10946
931.623	10953
