Data from test_V78500241_235.txt Node
Date: Fri Mar 25 15:11:29 CST 2022
User: usil
Spectrometer: V785-0024
Trigger mode: 0
Integration Time (sec): 4.000000E-1
Scans to average: 1
Nonlinearity correction enabled: false
Boxcar width: 0
Storing dark spectrum: false
XAxis mode: Wavelengths
Number of Pixels in Spectrum: 1024
>>>>>Begin Spectral Data<<<<<
801.071	27884
801.214	27644
801.356	27485
801.499	27416
801.641	27355
801.783	27317
801.926	27481
802.068	27424
802.211	27211
802.353	27207
802.496	27096
802.638	26918
802.78	26902
802.923	26800
803.065	26944
803.208	26868
803.35	27043
803.492	26975
803.635	27135
803.777	27039
803.919	27070
804.061	27298
804.204	27051
804.346	27020
804.488	26887
804.63	27017
804.773	26956
804.915	26967
805.057	27192
805.199	27032
805.341	27017
805.483	27112
805.626	27154
805.768	26994
805.91	27131
806.052	27138
806.194	27108
806.336	27363
806.478	27081
806.62	27028
806.762	27233
806.904	27260
807.046	27534
807.188	27500
807.33	27568
807.472	27663
807.614	27515
807.756	27515
807.898	27427
808.04	27401
808.182	27138
808.324	27420
808.465	27332
808.607	27462
808.749	27671
808.891	27774
809.033	28013
809.174	27766
809.316	27720
809.458	27701
809.6	27694
809.741	27808
809.883	27759
810.025	27914
810.166	27907
810.308	28059
810.45	28006
810.591	27717
810.733	27701
810.875	27637
811.016	27500
811.158	27416
811.299	27736
811.441	27892
811.582	27751
811.724	27663
811.865	27728
812.007	27553
812.148	27553
812.29	27713
812.431	27713
812.573	27838
812.714	28116
812.855	28204
812.997	28166
813.138	28314
813.279	28280
813.421	28253
813.562	28234
813.703	27956
813.845	27934
813.986	27580
814.127	27416
814.268	27207
814.41	27252
814.551	27401
814.692	27283
814.833	27211
814.974	27112
815.115	27298
815.256	27017
815.397	27096
815.539	27161
815.68	27043
815.821	27096
815.962	27070
816.103	27184
816.244	26956
816.385	26876
816.526	26792
816.666	26640
816.807	26568
816.948	26537
817.089	26541
817.23	26564
817.371	26473
817.512	26492
817.653	26499
817.793	26453
817.934	26446
818.075	26404
818.216	26423
818.356	26412
818.497	26415
818.638	26073
818.778	26115
818.919	26240
819.06	26168
819.2	26248
819.341	26488
819.481	26317
819.622	26613
819.762	26857
819.903	26632
820.043	26522
820.184	26514
820.324	26453
820.465	26575
820.605	26514
820.746	26522
820.886	26358
821.026	26602
821.167	26408
821.307	26499
821.447	26366
821.588	26408
821.728	26267
821.868	26058
822.008	25966
822.149	25852
822.289	25902
822.429	25616
822.569	25495
822.709	25537
822.849	25438
822.99	25426
823.13	25419
823.27	25316
823.41	25244
823.55	25088
823.69	25141
823.83	25046
823.97	25095
824.11	25031
824.25	24981
824.389	24920
824.529	25076
824.669	24992
824.809	25103
824.949	25080
825.089	24985
825.228	25042
825.368	24745
825.508	24897
825.648	24844
825.787	24795
825.927	24901
826.067	24772
826.206	24730
826.346	24837
826.485	24802
826.625	24681
826.765	25015
826.904	24776
827.044	24509
827.183	24486
827.323	24532
827.462	24578
827.601	24437
827.741	24513
827.88	24441
828.02	24414
828.159	24597
828.298	24517
828.437	24623
828.577	24380
828.716	24578
828.855	24410
828.994	24254
829.134	24266
829.273	24330
829.412	24171
829.551	24194
829.69	24117
829.829	24201
829.968	24292
830.107	24186
830.246	24174
830.385	24076
830.524	24026
830.663	23999
830.802	23828
830.941	23748
831.08	23729
831.219	23828
831.357	23874
831.496	23874
831.635	23843
831.774	23638
831.913	23638
832.051	23493
832.19	23562
832.329	23551
832.467	23379
832.606	23235
832.744	23471
832.883	23433
833.022	23433
833.16	23455
833.299	23425
833.437	23490
833.576	23604
833.714	23417
833.852	23528
833.991	23592
834.129	23528
834.267	23554
834.406	23299
834.544	23463
834.682	23421
834.821	23528
834.959	23566
835.097	23383
835.235	23421
835.373	23520
835.511	23330
835.65	23368
835.788	23330
835.926	23109
836.064	23189
836.202	23280
836.34	23246
836.478	23410
836.615	23269
836.753	23448
836.891	23368
837.029	23330
837.167	23223
837.305	23292
837.443	23288
837.58	23128
837.718	23239
837.856	23102
837.993	23132
838.131	23143
838.269	22938
838.406	23044
838.544	22919
838.681	22828
838.819	22767
838.956	22569
839.094	22542
839.231	22611
839.369	22725
839.506	22968
839.643	22812
839.781	22478
839.918	22417
840.055	22569
840.193	22573
840.33	22493
840.467	22497
840.604	22546
840.742	22687
840.879	22322
841.016	22443
841.153	22344
841.29	22618
841.427	22542
841.564	22531
841.701	22428
841.838	22497
841.975	22352
842.112	22268
842.249	22329
842.385	22242
842.522	22375
842.659	22265
842.796	22116
842.933	22325
843.069	22120
843.206	22109
843.343	22265
843.479	22128
843.616	22265
843.752	22093
843.889	22040
844.025	22173
844.162	21888
844.298	22086
844.435	21934
844.571	22067
844.708	22029
844.844	22211
844.98	22070
845.117	22051
845.253	21850
845.389	21873
845.525	21774
845.661	21743
845.798	21800
845.934	21778
846.07	21747
846.206	21915
846.342	21865
846.478	21743
846.614	21454
846.75	21386
846.886	21401
847.022	21557
847.158	21469
847.294	21378
847.429	21386
847.565	21511
847.701	21576
847.837	21195
847.972	21119
848.108	21268
848.244	21336
848.379	21169
848.515	21093
848.65	21032
848.786	20982
848.921	20979
849.057	21032
849.192	21062
849.328	21112
849.463	21169
849.598	20895
849.734	20899
849.869	20883
850.004	20872
850.14	20845
850.275	20739
850.41	20625
850.545	20743
850.68	20746
850.815	20739
850.95	20887
851.085	20887
851.22	20800
851.355	20731
851.49	20689
851.625	20701
851.76	20701
851.895	20739
852.03	20746
852.165	20697
852.299	20773
852.434	20906
852.569	20804
852.703	20716
852.838	20823
852.973	20883
853.107	20876
853.242	20712
853.376	20739
853.511	20492
853.645	20644
853.78	20686
853.914	20617
854.048	20545
854.183	20568
854.317	20530
854.451	20804
854.585	20568
854.72	20503
854.854	20613
854.988	20522
855.122	20686
855.256	20396
855.39	20438
855.524	20629
855.658	20636
855.792	20503
855.926	20587
856.06	20564
856.194	20609
856.327	20457
856.461	20556
856.595	20552
856.729	20492
856.862	20629
856.996	20480
857.13	20621
857.263	20727
857.397	20629
857.53	20511
857.664	20583
857.797	20613
857.931	20636
858.064	20575
858.197	20575
858.331	20518
858.464	20511
858.597	20495
858.731	20590
858.864	20469
858.997	20419
859.13	20537
859.263	20613
859.396	20682
859.529	20575
859.662	20454
859.795	20465
859.928	20522
860.061	20579
860.194	20712
860.327	20469
860.46	20431
860.592	20651
860.725	20670
860.858	20720
860.99	20571
861.123	20461
861.256	20454
861.388	20461
861.521	21211
861.653	20374
861.786	20263
861.918	20347
862.05	20431
862.183	20404
862.315	20511
862.447	20526
862.58	20442
862.712	20248
862.844	20309
862.976	20301
863.108	20294
863.24	20769
863.372	20138
863.504	20221
863.636	20164
863.768	20427
863.9	20275
864.032	20115
864.164	20168
864.296	20244
864.428	20309
864.559	20294
864.691	20377
864.823	20191
864.954	20168
865.086	20187
865.217	20111
865.349	20065
865.48	20134
865.612	20183
865.743	20396
865.875	20119
866.006	20062
866.137	20081
866.269	20149
866.4	20161
866.531	20107
866.662	19982
866.793	20119
866.924	19986
867.055	20195
867.186	20043
867.317	19959
867.448	19940
867.579	19955
867.71	20005
867.841	20035
867.972	19997
868.103	20073
868.233	20054
868.364	20008
868.495	20202
868.625	20286
868.756	20408
868.886	20122
869.017	20271
869.147	20465
869.278	20495
869.408	20427
869.539	20275
869.669	20343
869.799	20336
869.929	20298
870.06	20412
870.19	20590
870.32	20526
870.45	20655
870.58	20659
870.71	20842
870.84	20864
870.97	20617
871.1	20739
871.23	20895
871.36	20849
871.489	20777
871.619	20864
871.749	20994
871.879	20861
872.008	21043
872.138	20876
872.267	20937
872.397	20891
872.526	20804
872.656	20762
872.785	20724
872.915	20921
873.044	21036
873.173	20868
873.303	20929
873.432	20998
873.561	21138
873.69	21013
873.819	20967
873.948	21039
874.077	20849
874.206	20880
874.335	20872
874.464	21112
874.593	21184
874.722	21074
874.851	21272
874.979	21256
875.108	21245
875.237	21214
875.365	21218
875.494	21245
875.623	21321
875.751	21127
875.88	21154
876.008	21249
876.136	21310
876.265	21519
876.393	21698
876.521	21720
876.65	21675
876.778	21671
876.906	21542
877.034	21439
877.162	21485
877.29	21393
877.418	21526
877.546	21412
877.674	21595
877.802	21637
877.93	21534
878.058	21469
878.185	21545
878.313	21450
878.441	21557
878.568	21420
878.696	21523
878.824	21568
878.951	21705
879.079	21652
879.206	21789
879.333	21614
879.461	21564
879.588	21606
879.715	21648
879.842	21816
879.97	21599
880.097	21389
880.224	21321
880.351	21435
880.478	21344
880.605	21355
880.732	21336
880.859	21633
880.986	21264
881.112	21370
881.239	21211
881.366	21112
881.493	21135
881.619	20963
881.746	21017
881.872	20910
881.999	20971
882.125	20883
882.252	21013
882.378	20971
882.505	21036
882.631	20971
882.757	20667
882.883	20682
883.01	20670
883.136	20507
883.262	20678
883.388	20358
883.514	20727
883.64	20716
883.766	20598
883.892	20393
884.018	20412
884.143	20689
884.269	20758
884.395	20332
884.52	20259
884.646	20419
884.772	20256
884.897	20339
885.023	20358
885.148	20446
885.274	20377
885.399	20377
885.524	20301
885.65	20351
885.775	20339
885.9	20259
886.025	20332
886.15	20343
886.275	20126
886.4	20271
886.525	20282
886.65	20305
886.775	20271
886.9	20328
887.025	20442
887.149	20240
887.274	20138
887.399	20100
887.523	20191
887.648	20001
887.773	20008
887.897	20142
888.021	20122
888.146	20016
888.27	20100
888.395	20119
888.519	20138
888.643	20043
888.767	20088
888.891	19989
889.015	19791
889.139	19871
889.263	19833
889.387	19997
889.511	20062
889.635	19997
889.759	19856
889.883	19864
890.006	19856
890.13	19887
890.254	19830
890.377	19784
890.501	19651
890.624	19521
890.748	19696
890.871	19457
890.995	19464
891.118	19430
891.241	19460
891.364	19559
891.488	19506
891.611	19346
891.734	19407
891.857	19540
891.98	19464
892.103	19468
892.226	19514
892.349	19438
892.471	19365
892.594	19350
892.717	19365
892.839	19354
892.962	19236
893.085	19453
893.207	19381
893.33	19266
893.452	19350
893.575	19396
893.697	19483
893.819	19514
893.941	19540
894.064	19533
894.186	19251
894.308	19263
894.43	19441
894.552	19548
894.674	19483
894.796	19266
894.918	19381
895.04	19293
895.161	19483
895.283	19358
895.405	19304
895.526	19381
895.648	19369
895.769	19362
895.891	19392
896.012	19422
896.134	19472
896.255	19358
896.376	19324
896.498	19362
896.619	19384
896.74	19411
896.861	19510
896.982	19761
897.103	19951
897.224	19655
897.345	19590
897.466	19594
897.587	19552
897.708	19788
897.828	19597
897.949	19578
898.07	19468
898.19	19540
898.311	19795
898.431	19559
898.552	19575
898.672	19700
898.792	19613
898.913	19605
899.033	19499
899.153	19411
899.273	19285
899.393	19381
899.513	19415
899.633	19388
899.753	19373
899.873	19335
899.993	19430
900.113	19209
900.232	19221
900.352	19263
900.472	19183
900.591	19145
900.711	19103
900.83	19057
900.95	19160
901.069	19225
901.189	19099
901.308	18920
901.427	18585
901.546	18734
901.665	18856
901.784	18806
901.904	18642
902.023	18494
902.141	18323
902.26	18224
902.379	18334
902.498	18186
902.617	18190
902.735	18266
902.854	18239
902.973	18163
903.091	17927
903.21	17927
903.328	17935
903.446	17878
903.565	17745
903.683	17752
903.801	17554
903.919	17676
904.038	17786
904.156	17455
904.274	17623
904.392	17474
904.51	17562
904.627	17410
904.745	17497
904.863	17547
904.981	17330
905.098	17140
905.216	17189
905.334	17200
905.451	17212
905.569	17216
905.686	17223
905.803	17208
905.921	16942
906.038	17105
906.155	17064
906.272	16946
906.389	16934
906.506	16763
906.623	16759
906.74	16721
906.857	16611
906.974	16656
907.091	16801
907.208	16793
907.324	16729
907.441	16618
907.557	16466
907.674	16512
907.79	16367
907.907	16409
908.023	16489
908.139	16440
908.256	16318
908.372	16246
908.488	16356
908.604	16226
908.72	16109
908.836	16059
908.952	16162
909.068	16143
909.184	16192
909.3	16192
909.415	16150
909.531	16162
909.647	15876
909.762	15827
909.878	15808
909.993	15850
910.108	15808
910.224	15778
910.339	15899
910.454	15789
910.57	15679
910.685	15622
910.8	15934
910.915	15812
911.03	15641
911.145	15542
911.259	15496
911.374	15542
911.489	15329
911.604	15336
911.718	15199
911.833	15195
911.947	15062
912.062	15013
912.176	15188
912.291	15176
912.405	15154
912.519	15256
912.633	15359
912.748	15207
912.862	15184
912.976	15127
913.09	14914
913.204	14914
913.318	14902
913.431	15017
913.545	15036
913.659	15116
913.772	14906
913.886	14826
914	14788
914.113	14823
914.226	14975
914.34	14887
914.453	14693
914.566	14815
914.68	14781
914.793	14754
914.906	14476
915.019	14522
915.132	14381
915.245	14518
915.358	14431
915.47	14587
915.583	14541
915.696	14450
915.809	14617
915.921	14457
916.034	14336
916.146	14313
916.259	14332
916.371	14294
916.483	14423
916.595	14248
916.708	14389
916.82	14305
916.932	14229
917.044	14172
917.156	14336
917.268	14210
917.38	14126
917.491	14043
917.603	14050
917.715	14149
917.826	14191
917.938	14027
918.049	13974
918.161	14077
918.272	14218
918.384	14161
918.495	13993
918.606	14008
918.717	13788
918.828	13887
918.939	13864
919.05	13883
919.161	13864
919.272	13715
919.383	13765
919.494	13890
919.604	14145
919.715	13883
919.826	13795
919.936	13909
920.047	13936
920.157	13765
920.267	13951
920.378	13947
920.488	13788
920.598	14123
920.708	14168
920.818	14054
920.928	13986
921.038	14103
921.148	14096
921.258	13685
921.368	13723
921.477	13670
921.587	13567
921.697	13419
921.806	13628
921.916	13453
922.025	13354
922.134	13266
922.244	13225
922.353	13316
922.462	13034
922.571	13038
922.68	12981
922.789	12829
922.898	12951
923.007	12817
923.116	12882
923.224	12837
923.333	12897
923.442	12760
923.55	12798
923.659	12757
923.767	12776
923.876	12730
923.984	12772
924.092	12639
924.201	12688
924.309	12623
924.417	12502
924.525	12578
924.633	12593
924.741	13255
924.849	12361
924.956	12544
925.064	12330
925.172	12281
925.279	12315
925.387	12391
925.494	12315
925.602	12437
925.709	12456
925.816	12178
925.924	12209
926.031	12426
926.138	12232
926.245	12315
926.352	12277
926.459	12315
926.566	12403
926.673	12296
926.779	12167
926.886	12140
926.993	11992
927.099	11958
927.206	11798
927.312	11866
927.419	11980
927.525	11866
927.631	11999
927.737	11779
927.843	11809
927.95	11718
928.056	11714
928.162	11794
928.267	11889
928.373	12403
928.479	11935
928.585	11581
928.69	11756
928.796	11798
928.901	11649
929.007	11482
929.112	11657
929.218	11615
929.323	11486
929.428	11509
929.533	11634
929.638	11421
929.743	11585
929.848	11421
929.953	11436
930.058	11372
930.163	11178
930.267	11208
930.372	11315
930.477	11166
930.581	11345
930.685	11223
930.79	11048
930.894	11117
930.998	11037
931.103	11197
931.207	10843
931.311	10763
931.415	10656
931.519	10455
931.623	10531
