Data from test_V78500241_1027.txt Node
Date: Fri Mar 25 15:17:00 CST 2022
User: usil
Spectrometer: V785-0024
Trigger mode: 0
Integration Time (sec): 4.000000E-1
Scans to average: 1
Nonlinearity correction enabled: false
Boxcar width: 0
Storing dark spectrum: false
XAxis mode: Wavelengths
Number of Pixels in Spectrum: 1024
>>>>>Begin Spectral Data<<<<<
801.071	28466
801.214	28303
801.356	28078
801.499	28101
801.641	28048
801.783	27991
801.926	27953
802.068	27975
802.211	27903
802.353	27911
802.496	27713
802.638	27690
802.78	27747
802.923	27633
803.065	27701
803.208	27656
803.35	27781
803.492	27774
803.635	27892
803.777	27804
803.919	27804
804.061	28143
804.204	28021
804.346	27918
804.488	27819
804.63	27945
804.773	27785
804.915	27953
805.057	28048
805.199	27888
805.341	28025
805.483	28025
805.626	28006
805.768	27937
805.91	28044
806.052	28128
806.194	27831
806.336	28341
806.478	28150
806.62	27994
806.762	28261
806.904	28234
807.046	28531
807.188	28497
807.33	28561
807.472	28481
807.614	28363
807.756	28489
807.898	28333
808.04	28325
808.182	28382
808.324	28382
808.465	28280
808.607	28561
808.749	28675
808.891	28816
809.033	28774
809.174	28710
809.316	28618
809.458	28668
809.6	28694
809.741	28805
809.883	28908
810.025	28987
810.166	29067
810.308	28881
810.45	28957
810.591	28748
810.733	28824
810.875	28744
811.016	28664
811.158	28805
811.299	28801
811.441	28991
811.582	28797
811.724	28748
811.865	28618
812.007	28588
812.148	28733
812.29	28850
812.431	28942
812.573	29064
812.714	29212
812.855	29273
812.997	29265
813.138	29512
813.279	29414
813.421	29334
813.562	29166
813.703	29071
813.845	28911
813.986	28736
814.127	28466
814.268	28474
814.41	28596
814.551	28371
814.692	28428
814.833	28405
814.974	28489
815.115	28333
815.256	28272
815.397	28253
815.539	28234
815.68	28135
815.821	28223
815.962	28272
816.103	28185
816.244	28032
816.385	28128
816.526	27949
816.666	27888
816.807	27755
816.948	27751
817.089	27816
817.23	27656
817.371	27698
817.512	27701
817.653	27747
817.793	27690
817.934	27603
818.075	27751
818.216	27907
818.356	27743
818.497	27622
818.638	27405
818.778	27507
818.919	27530
819.06	27587
819.2	27633
819.341	27797
819.481	27641
819.622	27869
819.762	28188
819.903	28040
820.043	28078
820.184	27880
820.324	27892
820.465	27838
820.605	27838
820.746	27781
820.886	27865
821.026	27911
821.167	27736
821.307	27953
821.447	27751
821.588	27724
821.728	27500
821.868	27439
822.008	27066
822.149	27184
822.289	27055
822.429	27047
822.569	26994
822.709	26902
822.849	26712
822.99	26769
823.13	26845
823.27	26648
823.41	26651
823.55	26453
823.69	26590
823.83	26655
823.97	26511
824.11	26233
824.25	26412
824.389	26320
824.529	26324
824.669	26374
824.809	26484
824.949	26385
825.089	26423
825.228	26419
825.368	26206
825.508	26263
825.648	26343
825.787	26374
825.927	26248
826.067	26263
826.206	26339
826.346	26267
826.485	26393
826.625	26244
826.765	26438
826.904	26362
827.044	26130
827.183	26202
827.323	26005
827.462	26046
827.601	26157
827.741	25959
827.88	26073
828.02	25940
828.159	26107
828.298	26096
828.437	26039
828.577	25864
828.716	26107
828.855	25940
828.994	25761
829.134	25833
829.273	25799
829.412	25719
829.551	25635
829.69	25677
829.829	25750
829.968	25833
830.107	25715
830.246	25689
830.385	25624
830.524	25476
830.663	25525
830.802	25609
830.941	25403
831.08	25384
831.219	25441
831.357	25407
831.496	25540
831.635	25392
831.774	25129
831.913	25327
832.051	25141
832.19	25198
832.329	25213
832.467	25042
832.606	24985
832.744	24928
832.883	25038
833.022	24821
833.16	25145
833.299	25076
833.437	25031
833.576	25072
833.714	25031
833.852	25171
833.991	25110
834.129	25065
834.267	25114
834.406	25069
834.544	24962
834.682	25088
834.821	25126
834.959	25308
835.097	25129
835.235	25065
835.373	25084
835.511	25156
835.65	25019
835.788	24981
835.926	24798
836.064	24787
836.202	24639
836.34	24996
836.478	24989
836.615	24894
836.753	24825
836.891	24939
837.029	25038
837.167	24901
837.305	24825
837.443	24825
837.58	24688
837.718	24837
837.856	24715
837.993	24616
838.131	24760
838.269	24612
838.406	24547
838.544	24627
838.681	24433
838.819	24471
838.956	24281
839.094	24182
839.231	24209
839.369	24445
839.506	24604
839.643	24517
839.781	24243
839.918	24182
840.055	24079
840.193	24129
840.33	24049
840.467	24117
840.604	24041
840.742	24475
840.879	24038
841.016	24129
841.153	23969
841.29	24224
841.427	24079
841.564	24064
841.701	24159
841.838	23946
841.975	23988
842.112	23920
842.249	23984
842.385	23908
842.522	24121
842.659	23817
842.796	23828
842.933	24011
843.069	23760
843.206	23920
843.343	23843
843.479	23840
843.616	23783
843.752	23771
843.889	23710
844.025	23707
844.162	23627
844.298	23775
844.435	23794
844.571	23756
844.708	23760
844.844	23878
844.98	23786
845.117	23783
845.253	23509
845.389	23524
845.525	23604
845.661	23531
845.798	23353
845.934	23509
846.07	23345
846.206	23436
846.342	23554
846.478	23417
846.614	23079
846.75	23018
846.886	23022
847.022	23079
847.158	23181
847.294	23155
847.429	23193
847.565	23166
847.701	23379
847.837	22900
847.972	22763
848.108	22987
848.244	22889
848.379	22634
848.515	22607
848.65	22618
848.786	22660
848.921	22698
849.057	22786
849.192	22839
849.328	22736
849.463	22721
849.598	22702
849.734	22611
849.869	22554
850.004	22516
850.14	22474
850.275	22417
850.41	22337
850.545	22314
850.68	22390
850.815	22538
850.95	22386
851.085	22611
851.22	22542
851.355	22462
851.49	22493
851.625	22398
851.76	22500
851.895	22440
852.03	22341
852.165	22470
852.299	22531
852.434	22531
852.569	22459
852.703	22424
852.838	22550
852.973	22664
853.107	22550
853.242	22375
853.376	22314
853.511	22226
853.645	22280
853.78	22493
853.914	22291
854.048	22219
854.183	22394
854.317	22268
854.451	22363
854.585	22272
854.72	22162
854.854	22318
854.988	22082
855.122	22242
855.256	22147
855.39	22219
855.524	22284
855.658	22325
855.792	22363
855.926	22337
856.06	22322
856.194	22344
856.327	22310
856.461	22230
856.595	22310
856.729	22280
856.862	22402
856.996	22310
857.13	22268
857.263	22409
857.397	22352
857.53	22276
857.664	22314
857.797	22329
857.931	22516
858.064	22310
858.197	22493
858.331	22211
858.464	22261
858.597	22204
858.731	22287
858.864	22242
858.997	22344
859.13	22276
859.263	22246
859.396	22360
859.529	22215
859.662	22177
859.795	22265
859.928	22188
860.061	22428
860.194	22557
860.327	22284
860.46	22246
860.592	22424
860.725	22497
860.858	22322
860.99	22181
861.123	22230
861.256	22185
861.388	22147
861.521	22938
861.653	22090
861.786	22128
861.918	22166
862.05	22299
862.183	22215
862.315	22204
862.447	22268
862.58	22135
862.712	22128
862.844	22051
862.976	22078
863.108	22025
863.24	22493
863.372	21907
863.504	22010
863.636	21934
863.768	22131
863.9	21857
864.032	21876
864.164	21915
864.296	21941
864.428	22120
864.559	21991
864.691	22010
864.823	21876
864.954	22006
865.086	21831
865.217	21869
865.349	21793
865.48	21873
865.612	21747
865.743	22078
865.875	21835
866.006	21789
866.137	21819
866.269	21880
866.4	21880
866.531	21812
866.662	21831
866.793	21762
866.924	21892
867.055	21743
867.186	21739
867.317	21873
867.448	21576
867.579	21751
867.71	21618
867.841	21610
867.972	21888
868.103	21861
868.233	21759
868.364	21816
868.495	21945
868.625	22025
868.756	22097
868.886	22074
869.017	22074
869.147	22166
869.278	22120
869.408	22044
869.539	21953
869.669	22143
869.799	22105
869.929	22120
870.06	22109
870.19	22299
870.32	22265
870.45	22367
870.58	22470
870.71	22493
870.84	22577
870.97	22466
871.1	22443
871.23	22470
871.36	22599
871.489	22478
871.619	22607
871.749	22523
871.879	22626
872.008	22839
872.138	22637
872.267	22702
872.397	22554
872.526	22398
872.656	22440
872.785	22489
872.915	22462
873.044	22748
873.173	22672
873.303	22596
873.432	22710
873.561	22736
873.69	22649
873.819	22592
873.948	22645
874.077	22615
874.206	22550
874.335	22603
874.464	22733
874.593	22904
874.722	22862
874.851	22809
874.979	22847
875.108	22885
875.237	22778
875.365	22725
875.494	22793
875.623	22820
875.751	22774
875.88	22885
876.008	23067
876.136	23018
876.265	23246
876.393	23410
876.521	23284
876.65	23185
876.778	23117
876.906	23220
877.034	23132
877.162	23147
877.29	23178
877.418	23197
877.546	23322
877.674	23128
877.802	23170
877.93	23322
878.058	23098
878.185	23121
878.313	23181
878.441	23292
878.568	22938
878.696	23185
878.824	23155
878.951	23208
879.079	23391
879.206	23368
879.333	23330
879.461	23166
879.588	23303
879.715	23269
879.842	23398
879.97	23356
880.097	23151
880.224	23048
880.351	23121
880.478	22942
880.605	22850
880.732	22961
880.859	23143
880.986	23067
881.112	23132
881.239	22968
881.366	22679
881.493	22599
881.619	22535
881.746	22588
881.872	22584
881.999	22470
882.125	22459
882.252	22672
882.378	22519
882.505	22660
882.631	22394
882.757	22215
882.883	22447
883.01	22261
883.136	22204
883.262	22192
883.388	22131
883.514	22287
883.64	22162
883.766	22120
883.892	22010
884.018	22093
884.143	22135
884.269	22253
884.395	21998
884.52	21762
884.646	21804
884.772	21819
884.897	21876
885.023	21827
885.148	21899
885.274	21949
885.399	21960
885.524	21861
885.65	21899
885.775	21956
885.9	21838
886.025	21888
886.15	21899
886.275	21907
886.4	21823
886.525	21819
886.65	21819
886.775	21903
886.9	21892
887.025	22101
887.149	21785
887.274	21637
887.399	21656
887.523	21633
887.648	21599
887.773	21435
887.897	21739
888.021	21747
888.146	21504
888.27	21671
888.395	21644
888.519	21641
888.643	21675
888.767	21747
888.891	21428
889.015	21629
889.139	21405
889.263	21408
889.387	21496
889.511	21759
889.635	21462
889.759	21408
889.883	21488
890.006	21534
890.13	21576
890.254	21439
890.377	21359
890.501	21260
890.624	21127
890.748	21081
890.871	21150
890.995	20944
891.118	21009
891.241	21104
891.364	20994
891.488	21116
891.611	20948
891.734	21043
891.857	21024
891.98	21036
892.103	20967
892.226	21009
892.349	20826
892.471	20731
892.594	20910
892.717	20902
892.839	20891
892.962	20967
893.085	21013
893.207	20975
893.33	20743
893.452	20796
893.575	20990
893.697	20826
893.819	20971
893.941	21066
894.064	21039
894.186	20902
894.308	20781
894.43	21032
894.552	20891
894.674	20887
894.796	20693
894.918	20830
895.04	20857
895.161	20944
895.283	20982
895.405	20727
895.526	20853
895.648	20910
895.769	20887
895.891	20948
896.012	20937
896.134	20906
896.255	20895
896.376	20686
896.498	20883
896.619	20883
896.74	20754
896.861	20830
896.982	21241
897.103	21332
897.224	21013
897.345	21066
897.466	21039
897.587	21066
897.708	21214
897.828	21135
897.949	20929
898.07	20918
898.19	21032
898.311	21062
898.431	21039
898.552	21017
898.672	21100
898.792	21055
898.913	21047
899.033	20918
899.153	20944
899.273	20735
899.393	20785
899.513	20948
899.633	20769
899.753	20731
899.873	20739
899.993	20872
900.113	20682
900.232	20762
900.352	20670
900.472	20507
900.591	20625
900.711	20499
900.83	20507
900.95	20708
901.069	20663
901.189	20469
901.308	20092
901.427	20096
901.546	20149
901.665	20005
901.784	20244
901.904	20054
902.023	19944
902.141	19635
902.26	19605
902.379	19776
902.498	19655
902.617	19632
902.735	19685
902.854	19643
902.973	19540
903.091	19293
903.21	19335
903.328	19255
903.446	19202
903.565	19156
903.683	19179
903.801	18985
903.919	19126
904.038	19019
904.156	18840
904.274	18852
904.392	18829
904.51	18802
904.627	18821
904.745	18844
904.863	18905
904.981	18677
905.098	18654
905.216	18521
905.334	18665
905.451	18521
905.569	18464
905.686	18521
905.803	18502
905.921	18281
906.038	18391
906.155	18334
906.272	18254
906.389	18213
906.506	17988
906.623	18019
906.74	18076
906.857	17935
906.974	17923
907.091	18095
907.208	18114
907.324	18144
907.441	17874
907.557	17836
907.674	17866
907.79	17748
907.907	17703
908.023	17764
908.139	17832
908.256	17710
908.372	17699
908.488	17630
908.604	17551
908.72	17376
908.836	17429
908.952	17455
909.068	17482
909.184	17471
909.3	17452
909.415	17554
909.531	17436
909.647	17296
909.762	17117
909.878	17140
909.993	17193
910.108	17121
910.224	17109
910.339	17117
910.454	16953
910.57	17079
910.685	16862
910.8	17356
910.915	17143
911.03	16984
911.145	16904
911.259	16710
911.374	16771
911.489	16588
911.604	16656
911.718	16481
911.833	16493
911.947	16489
912.062	16333
912.176	16447
912.291	16497
912.405	16379
912.519	16649
912.633	16618
912.748	16508
912.862	16516
912.976	16333
913.09	16150
913.204	16207
913.318	16432
913.431	16394
913.545	16402
913.659	16386
913.772	16322
913.886	16188
914	16116
914.113	16154
914.226	16211
914.34	16173
914.453	16010
914.566	16200
914.68	15903
914.793	15907
914.906	15819
915.019	15724
915.132	15595
915.245	15686
915.358	15705
915.47	15663
915.583	15667
915.696	15641
915.809	15728
915.921	15789
916.034	15572
916.146	15568
916.259	15507
916.371	15652
916.483	15557
916.595	15534
916.708	15545
916.82	15610
916.932	15549
917.044	15523
917.156	15504
917.268	15378
917.38	15359
917.491	15325
917.603	15332
917.715	15348
917.826	15336
917.938	15207
918.049	15169
918.161	15180
918.272	15397
918.384	15382
918.495	15184
918.606	15135
918.717	15032
918.828	15085
918.939	15127
919.05	14925
919.161	15055
919.272	14807
919.383	15009
919.494	15089
919.604	15112
919.715	15047
919.826	14937
919.936	15036
920.047	15165
920.157	15081
920.267	15222
920.378	15005
920.488	14975
920.598	15127
920.708	15332
920.818	15150
920.928	15169
921.038	15363
921.148	15211
921.258	15001
921.368	14902
921.477	14872
921.587	14807
921.697	14598
921.806	14762
921.916	14556
922.025	14495
922.134	14423
922.244	14332
922.353	14298
922.462	14290
922.571	14187
922.68	14024
922.789	13982
922.898	14103
923.007	13978
923.116	14103
923.224	14005
923.333	14016
923.442	13871
923.55	13879
923.659	13860
923.767	13837
923.876	13795
923.984	13887
924.092	13738
924.201	13772
924.309	13715
924.417	13734
924.525	13696
924.633	13662
924.741	14571
924.849	13430
924.956	13643
925.064	13544
925.172	13430
925.279	13434
925.387	13449
925.494	13476
925.602	13529
925.709	13476
925.816	13335
925.924	13403
926.031	13392
926.138	13324
926.245	13358
926.352	13270
926.459	13308
926.566	13358
926.673	13304
926.779	13137
926.886	13122
926.993	13031
927.099	12916
927.206	12878
927.312	12973
927.419	13023
927.525	12970
927.631	12996
927.737	12821
927.843	12829
927.95	12715
928.056	12795
928.162	12787
928.267	12817
928.373	13400
928.479	12776
928.585	12578
928.69	12802
928.796	12840
928.901	12578
929.007	12521
929.112	12589
929.218	12555
929.323	12426
929.428	12403
929.533	12662
929.638	12334
929.743	12403
929.848	12445
929.953	12403
930.058	12292
930.163	12125
930.267	12205
930.372	12247
930.477	12098
930.581	12251
930.685	12167
930.79	11977
930.894	12019
930.998	12015
931.103	12098
931.207	11707
931.311	11688
931.415	11672
931.519	11452
931.623	11372
