Data from test_V78500241_2745.txt Node
Date: Fri Mar 25 15:28:58 CST 2022
User: usil
Spectrometer: V785-0024
Trigger mode: 0
Integration Time (sec): 4.000000E-1
Scans to average: 1
Nonlinearity correction enabled: false
Boxcar width: 0
Storing dark spectrum: false
XAxis mode: Wavelengths
Number of Pixels in Spectrum: 1024
>>>>>Begin Spectral Data<<<<<
801.071	27055
801.214	27154
801.356	27039
801.499	26807
801.641	26716
801.783	26484
801.926	26701
802.068	26689
802.211	26476
802.353	26545
802.496	26343
802.638	26298
802.78	26278
802.923	26225
803.065	26126
803.208	26202
803.35	26385
803.492	26488
803.635	26492
803.777	26309
803.919	26545
804.061	26838
804.204	26568
804.346	26461
804.488	26393
804.63	26560
804.773	26358
804.915	26374
805.057	26564
805.199	26469
805.341	26507
805.483	26701
805.626	26636
805.768	26492
805.91	26674
806.052	26598
806.194	26465
806.336	26609
806.478	26636
806.62	26655
806.762	26701
806.904	26693
807.046	27017
807.188	27055
807.33	27024
807.472	26880
807.614	26864
807.756	26979
807.898	26788
808.04	26796
808.182	26724
808.324	26792
808.465	26792
808.607	27043
808.749	27077
808.891	27096
809.033	27310
809.174	27176
809.316	26994
809.458	27020
809.6	27146
809.741	27195
809.883	27317
810.025	27405
810.166	27538
810.308	27427
810.45	27325
810.591	27386
810.733	27203
810.875	27138
811.016	27104
811.158	26986
811.299	27317
811.441	27294
811.582	27424
811.724	27237
811.865	27127
812.007	27043
812.148	27093
812.29	27176
812.431	27294
812.573	27481
812.714	27614
812.855	27587
812.997	27713
813.138	27736
813.279	27762
813.421	27473
813.562	27466
813.703	27389
813.845	27332
813.986	27039
814.127	26918
814.268	26826
814.41	26857
814.551	26754
814.692	26796
814.833	26735
814.974	26769
815.115	26796
815.256	26606
815.397	26621
815.539	26693
815.68	26560
815.821	26632
815.962	26609
816.103	26526
816.244	26431
816.385	26358
816.526	26317
816.666	26324
816.807	26046
816.948	25993
817.089	26218
817.23	25997
817.371	26134
817.512	26054
817.653	25966
817.793	25909
817.934	26088
818.075	25986
818.216	25951
818.356	26119
818.497	25925
818.638	25738
818.778	25788
818.919	25715
819.06	25852
819.2	25906
819.341	26077
819.481	26035
819.622	26233
819.762	26339
819.903	26358
820.043	26164
820.184	26221
820.324	26122
820.465	26149
820.605	26081
820.746	26100
820.886	25989
821.026	26142
821.167	26164
821.307	26161
821.447	26065
821.588	26039
821.728	25822
821.868	25620
822.008	25616
822.149	25533
822.289	25464
822.429	25232
822.569	25099
822.709	25209
822.849	25023
822.99	25126
823.13	25034
823.27	25023
823.41	24749
823.55	24787
823.69	24894
823.83	24947
823.97	24684
824.11	24741
824.25	24627
824.389	24631
824.529	24707
824.669	24608
824.809	24821
824.949	24722
825.089	24715
825.228	24665
825.368	24540
825.508	24544
825.648	24426
825.787	24498
825.927	24555
826.067	24426
826.206	24460
826.346	24612
826.485	24563
826.625	24525
826.765	24563
826.904	24471
827.044	24281
827.183	24201
827.323	24342
827.462	24327
827.601	24205
827.741	24235
827.88	24422
828.02	24167
828.159	24213
828.298	24209
828.437	24289
828.577	24186
828.716	24270
828.855	24095
828.994	23961
829.134	23859
829.273	23859
829.412	23843
829.551	23958
829.69	23904
829.829	23954
829.968	23973
830.107	23980
830.246	23923
830.385	23897
830.524	23798
830.663	23680
830.802	23604
830.941	23562
831.08	23417
831.219	23577
831.357	23577
831.496	23840
831.635	23547
831.774	23429
831.913	23391
832.051	23334
832.19	23318
832.329	23417
832.467	23273
832.606	23083
832.744	23094
832.883	23086
833.022	23056
833.16	23307
833.299	23265
833.437	23121
833.576	23246
833.714	23185
833.852	23326
833.991	23250
834.129	23398
834.267	23284
834.406	23284
834.544	23239
834.682	23261
834.821	23284
834.959	23376
835.097	23231
835.235	23280
835.373	23273
835.511	23231
835.65	23162
835.788	23102
835.926	22976
836.064	22877
836.202	22934
836.34	23159
836.478	23052
836.615	23105
836.753	23200
836.891	23208
837.029	23132
837.167	23071
837.305	23052
837.443	22923
837.58	22858
837.718	23079
837.856	22930
837.993	22858
838.131	22911
838.269	22850
838.406	22889
838.544	22721
838.681	22641
838.819	22554
838.956	22382
839.094	22360
839.231	22546
839.369	22592
839.506	22854
839.643	22675
839.781	22531
839.918	22432
840.055	22360
840.193	22497
840.33	22360
840.467	22386
840.604	22440
840.742	22577
840.879	22299
841.016	22325
841.153	22272
841.29	22489
841.427	22375
841.564	22379
841.701	22318
841.838	22424
841.975	22310
842.112	22405
842.249	22310
842.385	22109
842.522	22481
842.659	22318
842.796	22150
842.933	22093
843.069	22120
843.206	22029
843.343	22116
843.479	22204
843.616	22051
843.752	21956
843.889	21892
844.025	22013
844.162	21880
844.298	21983
844.435	21869
844.571	21854
844.708	21922
844.844	22101
844.98	22090
845.117	21994
845.253	21964
845.389	21648
845.525	21850
845.661	21793
845.798	21603
845.934	21595
846.07	21564
846.206	21648
846.342	21766
846.478	21587
846.614	21401
846.75	21260
846.886	21351
847.022	21500
847.158	21458
847.294	21355
847.429	21374
847.565	21298
847.701	21545
847.837	21131
847.972	20998
848.108	21222
848.244	21176
848.379	21085
848.515	20941
848.65	21032
848.786	20952
848.921	20933
849.057	21036
849.192	21020
849.328	20990
849.463	21032
849.598	20864
849.734	20792
849.869	20902
850.004	20788
850.14	20743
850.275	20777
850.41	20712
850.545	20746
850.68	20727
850.815	20815
850.95	20697
851.085	20842
851.22	20777
851.355	20773
851.49	20815
851.625	20621
851.76	20686
851.895	20788
852.03	20693
852.165	20682
852.299	20876
852.434	20796
852.569	20762
852.703	20777
852.838	20712
852.973	20883
853.107	20853
853.242	20705
853.376	20625
853.511	20514
853.645	20564
853.78	20609
853.914	20602
854.048	20613
854.183	20541
854.317	20549
854.451	20819
854.585	20594
854.72	20514
854.854	20575
854.988	20545
855.122	20659
855.256	20488
855.39	20552
855.524	20613
855.658	20655
855.792	20625
855.926	20598
856.06	20522
856.194	20651
856.327	20530
856.461	20469
856.595	20530
856.729	20587
856.862	20701
856.996	20488
857.13	20640
857.263	20644
857.397	20648
857.53	20533
857.664	20640
857.797	20571
857.931	20686
858.064	20598
858.197	20632
858.331	20564
858.464	20564
858.597	20511
858.731	20400
858.864	20427
858.997	20503
859.13	20503
859.263	20583
859.396	20571
859.529	20366
859.662	20514
859.795	20396
859.928	20594
860.061	20705
860.194	20629
860.327	20655
860.46	20636
860.592	20667
860.725	20754
860.858	20655
860.99	20602
861.123	20469
861.256	20537
861.388	20648
861.521	21218
861.653	20552
861.786	20377
861.918	20427
862.05	20495
862.183	20503
862.315	20438
862.447	20495
862.58	20503
862.712	20339
862.844	20286
862.976	20309
863.108	20389
863.24	20811
863.372	20328
863.504	20282
863.636	20229
863.768	20282
863.9	20332
864.032	20233
864.164	20332
864.296	20298
864.428	20389
864.559	20347
864.691	20412
864.823	20107
864.954	20240
865.086	20282
865.217	20054
865.349	20100
865.48	20233
865.612	20210
865.743	20366
865.875	20103
866.006	20218
866.137	20259
866.269	20286
866.4	20081
866.531	20020
866.662	20084
866.793	20138
866.924	20180
867.055	20278
867.186	20183
867.317	20058
867.448	20176
867.579	20130
867.71	20161
867.841	20111
867.972	20142
868.103	20096
868.233	20168
868.364	20096
868.495	20183
868.625	20320
868.756	20438
868.886	20396
869.017	20362
869.147	20511
869.278	20530
869.408	20450
869.539	20442
869.669	20492
869.799	20495
869.929	20473
870.06	20473
870.19	20697
870.32	20667
870.45	20781
870.58	20746
870.71	20986
870.84	20944
870.97	20785
871.1	20750
871.23	21070
871.36	20948
871.489	20956
871.619	21112
871.749	20891
871.879	21116
872.008	21036
872.138	21055
872.267	21066
872.397	20769
872.526	20735
872.656	20804
872.785	20861
872.915	21001
873.044	20994
873.173	21051
873.303	21100
873.432	21112
873.561	21142
873.69	21017
873.819	21074
873.948	21142
874.077	20975
874.206	21001
874.335	21032
874.464	21085
874.593	21272
874.722	21195
874.851	21325
874.979	21283
875.108	21279
875.237	21291
875.365	21138
875.494	21218
875.623	21260
875.751	21279
875.88	21336
876.008	21374
876.136	21485
876.265	21720
876.393	21698
876.521	21701
876.65	21682
876.778	21705
876.906	21656
877.034	21637
877.162	21705
877.29	21572
877.418	21625
877.546	21648
877.674	21614
877.802	21583
877.93	21599
878.058	21530
878.185	21359
878.313	21561
878.441	21591
878.568	21428
878.696	21580
878.824	21679
878.951	21682
879.079	21800
879.206	21964
879.333	21743
879.461	21603
879.588	21800
879.715	21781
879.842	21934
879.97	21679
880.097	21572
880.224	21454
880.351	21511
880.478	21561
880.605	21336
880.732	21412
880.859	21633
880.986	21511
881.112	21477
881.239	21211
881.366	21138
881.493	21169
881.619	21001
881.746	21104
881.872	20979
881.999	20982
882.125	20906
882.252	21062
882.378	20986
882.505	21135
882.631	20891
882.757	20762
882.883	20758
883.01	20705
883.136	20716
883.262	20678
883.388	20560
883.514	20686
883.64	20754
883.766	20712
883.892	20431
884.018	20518
884.143	20659
884.269	20663
884.395	20320
884.52	20469
884.646	20423
884.772	20225
884.897	20404
885.023	20530
885.148	20488
885.274	20514
885.399	20549
885.524	20408
885.65	20301
885.775	20343
885.9	20438
886.025	20530
886.15	20434
886.275	20343
886.4	20415
886.525	20385
886.65	20233
886.775	20210
886.9	20488
887.025	20701
887.149	20324
887.274	20244
887.399	20282
887.523	20210
887.648	20058
887.773	20084
887.897	20195
888.021	20237
888.146	20164
888.27	20389
888.395	20187
888.519	20202
888.643	20164
888.767	20161
888.891	20103
889.015	20077
889.139	20027
889.263	20024
889.387	20126
889.511	20202
889.635	20084
889.759	20005
889.883	19959
890.006	19906
890.13	20012
890.254	19913
890.377	19982
890.501	19742
890.624	19712
890.748	19826
890.871	19567
890.995	19655
891.118	19495
891.241	19468
891.364	19575
891.488	19677
891.611	19597
891.734	19495
891.857	19559
891.98	19548
892.103	19567
892.226	19540
892.349	19499
892.471	19384
892.594	19491
892.717	19476
892.839	19468
892.962	19487
893.085	19540
893.207	19464
893.33	19396
893.452	19377
893.575	19594
893.697	19472
893.819	19594
893.941	19681
894.064	19540
894.186	19457
894.308	19445
894.43	19514
894.552	19693
894.674	19647
894.796	19373
894.918	19495
895.04	19514
895.161	19487
895.283	19556
895.405	19426
895.526	19415
895.648	19403
895.769	19392
895.891	19639
896.012	19548
896.134	19415
896.255	19597
896.376	19407
896.498	19396
896.619	19472
896.74	19403
896.861	19597
896.982	19791
897.103	19902
897.224	19765
897.345	19765
897.466	19689
897.587	19704
897.708	19727
897.828	19715
897.949	19632
898.07	19613
898.19	19563
898.311	19746
898.431	19681
898.552	19731
898.672	19803
898.792	19826
898.913	19670
899.033	19655
899.153	19533
899.273	19468
899.393	19365
899.513	19510
899.633	19373
899.753	19510
899.873	19316
899.993	19559
900.113	19464
900.232	19358
900.352	19403
900.472	19244
900.591	19278
900.711	19278
900.83	19244
900.95	19415
901.069	19434
901.189	19148
901.308	18954
901.427	18894
901.546	18878
901.665	18757
901.784	18928
901.904	18768
902.023	18623
902.141	18388
902.26	18456
902.379	18464
902.498	18433
902.617	18235
902.735	18384
902.854	18452
902.973	18262
903.091	18095
903.21	17973
903.328	18106
903.446	17885
903.565	17870
903.683	17935
903.801	17703
903.919	17805
904.038	17748
904.156	17676
904.274	17748
904.392	17634
904.51	17535
904.627	17699
904.745	17764
904.863	17554
904.981	17425
905.098	17292
905.216	17315
905.334	17353
905.451	17372
905.569	17239
905.686	17322
905.803	17250
905.921	16972
906.038	17200
906.155	17166
906.272	16999
906.389	16968
906.506	16881
906.623	16790
906.74	16881
906.857	16744
906.974	16721
907.091	16896
907.208	16873
907.324	16816
907.441	16725
907.557	16584
907.674	16569
907.79	16580
907.907	16512
908.023	16577
908.139	16512
908.256	16577
908.372	16455
908.488	16390
908.604	16333
908.72	16284
908.836	16310
908.952	16268
909.068	16291
909.184	16394
909.3	16386
909.415	16375
909.531	16322
909.647	16097
909.762	16097
909.878	15979
909.993	16055
910.108	15918
910.224	15873
910.339	15892
910.454	15800
910.57	15785
910.685	15713
910.8	16139
910.915	15994
911.03	15778
911.145	15656
911.259	15671
911.374	15656
911.489	15492
911.604	15469
911.718	15336
911.833	15443
911.947	15401
912.062	15161
912.176	15439
912.291	15439
912.405	15439
912.519	15526
912.633	15553
912.748	15405
912.862	15344
912.976	15252
913.09	15036
913.204	15119
913.318	15188
913.431	15237
913.545	15222
913.659	15230
913.772	15028
913.886	15032
914	14952
914.113	15005
914.226	15100
914.34	15051
914.453	14826
914.566	15039
914.68	14845
914.793	14883
914.906	14708
915.019	14568
915.132	14564
915.245	14629
915.358	14598
915.47	14644
915.583	14533
915.696	14625
915.809	14697
915.921	14708
916.034	14533
916.146	14507
916.259	14530
916.371	14552
916.483	14537
916.595	14507
916.708	14488
916.82	14389
916.932	14404
917.044	14419
917.156	14385
917.268	14278
917.38	14290
917.491	14271
917.603	14336
917.715	14320
917.826	14408
917.938	14206
918.049	14153
918.161	14259
918.272	14351
918.384	14358
918.495	14328
918.606	14126
918.717	14043
918.828	14050
918.939	14161
919.05	14001
919.161	13997
919.272	13830
919.383	13921
919.494	14123
919.604	14161
919.715	14043
919.826	14008
919.936	13986
920.047	14130
920.157	14046
920.267	14263
920.378	14027
920.488	13997
920.598	14221
920.708	14172
920.818	14168
920.928	14187
921.038	14336
921.148	14294
921.258	13917
921.368	13784
921.477	13788
921.587	13731
921.697	13727
921.806	13799
921.916	13628
922.025	13540
922.134	13422
922.244	13430
922.353	13457
922.462	13354
922.571	13304
922.68	13015
922.789	12989
922.898	13080
923.007	13004
923.116	13069
923.224	13118
923.333	12924
923.442	12916
923.55	12947
923.659	12977
923.767	12989
923.876	12848
923.984	12947
924.092	12894
924.201	12928
924.309	12886
924.417	12882
924.525	12745
924.633	12798
924.741	13734
924.849	12380
924.956	12658
925.064	12585
925.172	12521
925.279	12452
925.387	12540
925.494	12517
925.602	12506
925.709	12521
925.816	12448
925.924	12429
926.031	12506
926.138	12441
926.245	12582
926.352	12338
926.459	12479
926.566	12532
926.673	12384
926.779	12270
926.886	12220
926.993	12102
927.099	12087
927.206	12053
927.312	12125
927.419	12114
927.525	12053
927.631	12140
927.737	11977
927.843	11984
927.95	11920
928.056	11893
928.162	11946
928.267	11965
928.373	12486
928.479	12026
928.585	11798
928.69	11904
928.796	11882
928.901	11847
929.007	11646
929.112	11805
929.218	11790
929.323	11680
929.428	11642
929.533	11821
929.638	11585
929.743	11630
929.848	11695
929.953	11596
930.058	11482
930.163	11356
930.267	11391
930.372	11520
930.477	11322
930.581	11585
930.685	11406
930.79	11299
930.894	11269
930.998	11201
931.103	11387
931.207	11025
931.311	11033
931.415	10797
931.519	10675
931.623	10683
