Data from test_V78500241_3360.txt Node
Date: Fri Mar 25 15:33:15 CST 2022
User: usil
Spectrometer: V785-0024
Trigger mode: 0
Integration Time (sec): 4.000000E-1
Scans to average: 1
Nonlinearity correction enabled: false
Boxcar width: 0
Storing dark spectrum: false
XAxis mode: Wavelengths
Number of Pixels in Spectrum: 1024
>>>>>Begin Spectral Data<<<<<
801.071	27093
801.214	27058
801.356	26891
801.499	26693
801.641	26686
801.783	26613
801.926	26727
802.068	26598
802.211	26636
802.353	26594
802.496	26393
802.638	26332
802.78	26237
802.923	26069
803.065	26221
803.208	26278
803.35	26115
803.492	26492
803.635	26446
803.777	26351
803.919	26336
804.061	26571
804.204	26499
804.346	26301
804.488	26248
804.63	26370
804.773	26202
804.915	26488
805.057	26484
805.199	26362
805.341	26408
805.483	26560
805.626	26659
805.768	26518
805.91	26480
806.052	26598
806.194	26320
806.336	26724
806.478	26484
806.62	26484
806.762	26705
806.904	26887
807.046	27279
807.188	27039
807.33	26982
807.472	26944
807.614	26933
807.756	26921
807.898	26868
808.04	26796
808.182	26678
808.324	26720
808.465	26842
808.607	27043
808.749	27138
808.891	27260
809.033	27252
809.174	27192
809.316	27138
809.458	27093
809.6	27074
809.741	27173
809.883	27302
810.025	27447
810.166	27462
810.308	27378
810.45	27386
810.591	27260
810.733	27146
810.875	27146
811.016	27005
811.158	27051
811.299	27260
811.441	27241
811.582	27237
811.724	27150
811.865	27100
812.007	27074
812.148	26967
812.29	27176
812.431	27332
812.573	27443
812.714	27488
812.855	27583
812.997	27778
813.138	27827
813.279	27698
813.421	27755
813.562	27500
813.703	27431
813.845	27203
813.986	26937
814.127	26940
814.268	26712
814.41	26712
814.551	26830
814.692	26655
814.833	26716
814.974	26731
815.115	26689
815.256	26769
815.397	26720
815.539	26583
815.68	26537
815.821	26438
815.962	26385
816.103	26549
816.244	26381
816.385	26332
816.526	26294
816.666	26065
816.807	26062
816.948	26062
817.089	26172
817.23	26111
817.371	26077
817.512	25906
817.653	25909
817.793	26039
817.934	25970
818.075	25970
818.216	26138
818.356	26046
818.497	25826
818.638	25795
818.778	25715
818.919	25750
819.06	25883
819.2	25966
819.341	25940
819.481	25940
819.622	26012
819.762	26298
819.903	26374
820.043	26237
820.184	26069
820.324	26069
820.465	26027
820.605	26161
820.746	26062
820.886	26001
821.026	26088
821.167	26046
821.307	26122
821.447	25970
821.588	25955
821.728	25784
821.868	25632
822.008	25537
822.149	25544
822.289	25540
822.429	25297
822.569	25164
822.709	25202
822.849	25065
822.99	25019
823.13	25046
823.27	25008
823.41	24741
823.55	24738
823.69	24886
823.83	24768
823.97	24825
824.11	24540
824.25	24578
824.389	24593
824.529	24681
824.669	24570
824.809	24749
824.949	24707
825.089	24764
825.228	24639
825.368	24494
825.508	24597
825.648	24429
825.787	24410
825.927	24486
826.067	24551
826.206	24502
826.346	24380
826.485	24593
826.625	24574
826.765	24673
826.904	24528
827.044	24167
827.183	24235
827.323	24247
827.462	24205
827.601	24300
827.741	24144
827.88	24133
828.02	24171
828.159	24239
828.298	24262
828.437	24197
828.577	24117
828.716	24292
828.855	24076
828.994	23920
829.134	23935
829.273	23942
829.412	23878
829.551	23916
829.69	23935
829.829	23950
829.968	23923
830.107	24011
830.246	23904
830.385	23832
830.524	23843
830.663	23836
830.802	23646
830.941	23562
831.08	23505
831.219	23581
831.357	23665
831.496	23840
831.635	23455
831.774	23486
831.913	23231
832.051	23376
832.19	23315
832.329	23337
832.467	23269
832.606	23185
832.744	23121
832.883	23166
833.022	23136
833.16	23242
833.299	23273
833.437	23235
833.576	23345
833.714	23174
833.852	23349
833.991	23345
834.129	23391
834.267	23277
834.406	23299
834.544	23326
834.682	23311
834.821	23223
834.959	23444
835.097	23299
835.235	23280
835.373	23227
835.511	23239
835.65	23174
835.788	23071
835.926	22965
836.064	22934
836.202	22995
836.34	23064
836.478	23185
836.615	23128
836.753	23178
836.891	23212
837.029	23159
837.167	23181
837.305	23181
837.443	23037
837.58	22999
837.718	23003
837.856	22953
837.993	23071
838.131	23056
838.269	22850
838.406	22835
838.544	22793
838.681	22641
838.819	22550
838.956	22504
839.094	22417
839.231	22500
839.369	22584
839.506	22869
839.643	22717
839.781	22379
839.918	22413
840.055	22519
840.193	22386
840.33	22432
840.467	22527
840.604	22325
840.742	22615
840.879	22204
841.016	22318
841.153	22379
841.29	22577
841.427	22341
841.564	22535
841.701	22363
841.838	22474
841.975	22310
842.112	22352
842.249	22249
842.385	22219
842.522	22333
842.659	22185
842.796	22078
842.933	22109
843.069	22173
843.206	22082
843.343	22268
843.479	22211
843.616	22238
843.752	22013
843.889	22010
844.025	22105
844.162	21880
844.298	22093
844.435	21934
844.571	21953
844.708	22101
844.844	22074
844.98	22051
845.117	22051
845.253	21812
845.389	21865
845.525	21937
845.661	21705
845.798	21690
845.934	21705
846.07	21637
846.206	21713
846.342	21770
846.478	21595
846.614	21591
846.75	21382
846.886	21443
847.022	21454
847.158	21644
847.294	21412
847.429	21466
847.565	21469
847.701	21717
847.837	21306
847.972	21146
848.108	21173
848.244	21306
848.379	21055
848.515	20937
848.65	21138
848.786	21039
848.921	21032
849.057	21192
849.192	21176
849.328	21074
849.463	21005
849.598	20952
849.734	21024
849.869	20933
850.004	20788
850.14	20849
850.275	20815
850.41	20659
850.545	20689
850.68	20727
850.815	20769
850.95	20876
851.085	20902
851.22	20883
851.355	20705
851.49	20800
851.625	20826
851.76	20811
851.895	20724
852.03	20781
852.165	20853
852.299	20838
852.434	20929
852.569	20796
852.703	20777
852.838	20819
852.973	20887
853.107	20743
853.242	20785
853.376	20648
853.511	20571
853.645	20644
853.78	20708
853.914	20556
854.048	20617
854.183	20598
854.317	20716
854.451	20800
854.585	20587
854.72	20651
854.854	20579
854.988	20511
855.122	20716
855.256	20552
855.39	20590
855.524	20609
855.658	20636
855.792	20598
855.926	20674
856.06	20571
856.194	20678
856.327	20552
856.461	20518
856.595	20613
856.729	20602
856.862	20629
856.996	20568
857.13	20712
857.263	20705
857.397	20743
857.53	20617
857.664	20712
857.797	20621
857.931	20670
858.064	20648
858.197	20765
858.331	20602
858.464	20655
858.597	20575
858.731	20552
858.864	20560
858.997	20617
859.13	20556
859.263	20522
859.396	20686
859.529	20712
859.662	20636
859.795	20613
859.928	20678
860.061	20857
860.194	20891
860.327	20644
860.46	20552
860.592	20743
860.725	20746
860.858	20754
860.99	20606
861.123	20697
861.256	20473
861.388	20537
861.521	21344
861.653	20419
861.786	20442
861.918	20347
862.05	20602
862.183	20552
862.315	20530
862.447	20769
862.58	20511
862.712	20336
862.844	20355
862.976	20446
863.108	20358
863.24	20632
863.372	20320
863.504	20294
863.636	20343
863.768	20267
863.9	20275
864.032	20294
864.164	20218
864.296	20339
864.428	20446
864.559	20309
864.691	20328
864.823	20377
864.954	20248
865.086	20320
865.217	20362
865.349	20168
865.48	20240
865.612	20088
865.743	20415
865.875	20298
866.006	20210
866.137	20320
866.269	20237
866.4	20389
866.531	20168
866.662	20248
866.793	20180
866.924	20103
867.055	20259
867.186	20298
867.317	20107
867.448	20149
867.579	20103
867.71	20172
867.841	20073
867.972	20278
868.103	20126
868.233	20206
868.364	20168
868.495	20176
868.625	20457
868.756	20446
868.886	20351
869.017	20404
869.147	20632
869.278	20609
869.408	20366
869.539	20438
869.669	20560
869.799	20476
869.929	20598
870.06	20438
870.19	20754
870.32	20678
870.45	20796
870.58	20868
870.71	20876
870.84	20941
870.97	20921
871.1	20796
871.23	20979
871.36	21013
871.489	20963
871.619	20921
871.749	20971
871.879	21051
872.008	21230
872.138	21112
872.267	20971
872.397	21005
872.526	20979
872.656	20914
872.785	20948
872.915	21100
873.044	21074
873.173	21005
873.303	21036
873.432	21222
873.561	21135
873.69	20990
873.819	21055
873.948	21093
874.077	21043
874.206	21020
874.335	21051
874.464	21245
874.593	21294
874.722	21233
874.851	21348
874.979	21473
875.108	21237
875.237	21188
875.365	21074
875.494	21279
875.623	21260
875.751	21275
875.88	21351
876.008	21572
876.136	21473
876.265	21797
876.393	21884
876.521	21770
876.65	21785
876.778	21774
876.906	21656
877.034	21564
877.162	21671
877.29	21660
877.418	21686
877.546	21694
877.674	21591
877.802	21709
877.93	21633
878.058	21652
878.185	21629
878.313	21675
878.441	21606
878.568	21603
878.696	21557
878.824	21728
878.951	21713
879.079	21854
879.206	21869
879.333	21785
879.461	21618
879.588	21854
879.715	21880
879.842	21850
879.97	21907
880.097	21447
880.224	21538
880.351	21629
880.478	21428
880.605	21355
880.732	21435
880.859	21717
880.986	21488
881.112	21469
881.239	21310
881.366	21199
881.493	21161
881.619	21009
881.746	21005
881.872	20941
881.999	20944
882.125	20941
882.252	21077
882.378	21005
882.505	21173
882.631	20925
882.757	20693
882.883	20629
883.01	20781
883.136	20758
883.262	20598
883.388	20492
883.514	20765
883.64	20720
883.766	20629
883.892	20511
884.018	20602
884.143	20743
884.269	20868
884.395	20564
884.52	20442
884.646	20347
884.772	20351
884.897	20317
885.023	20450
885.148	20587
885.274	20590
885.399	20552
885.524	20385
885.65	20377
885.775	20454
885.9	20396
886.025	20518
886.15	20541
886.275	20248
886.4	20339
886.525	20347
886.65	20343
886.775	20347
886.9	20518
887.025	20716
887.149	20366
887.274	20103
887.399	20195
887.523	20298
887.648	20145
887.773	20058
887.897	20237
888.021	20370
888.146	20096
888.27	20229
888.395	20183
888.519	20176
888.643	20237
888.767	20271
888.891	20100
889.015	20020
889.139	20168
889.263	20008
889.387	20153
889.511	20058
889.635	20077
889.759	19963
889.883	20024
890.006	19993
890.13	20077
890.254	19951
890.377	19997
890.501	19788
890.624	19795
890.748	19784
890.871	19655
890.995	19487
891.118	19559
891.241	19704
891.364	19521
891.488	19666
891.611	19521
891.734	19620
891.857	19704
891.98	19731
892.103	19727
892.226	19597
892.349	19521
892.471	19384
892.594	19487
892.717	19510
892.839	19514
892.962	19468
893.085	19582
893.207	19373
893.33	19354
893.452	19426
893.575	19499
893.697	19457
893.819	19601
893.941	19662
894.064	19651
894.186	19476
894.308	19422
894.43	19575
894.552	19597
894.674	19453
894.796	19422
894.918	19594
895.04	19407
895.161	19480
895.283	19499
895.405	19384
895.526	19415
895.648	19533
895.769	19510
895.891	19514
896.012	19510
896.134	19445
896.255	19575
896.376	19460
896.498	19472
896.619	19499
896.74	19556
896.861	19559
896.982	19837
897.103	19890
897.224	19830
897.345	19795
897.466	19647
897.587	19833
897.708	19826
897.828	19799
897.949	19613
898.07	19567
898.19	19582
898.311	19761
898.431	19586
898.552	19746
898.672	19791
898.792	19951
898.913	19666
899.033	19609
899.153	19552
899.273	19518
899.393	19491
899.513	19540
899.633	19502
899.753	19540
899.873	19396
899.993	19613
900.113	19430
900.232	19468
900.352	19495
900.472	19228
900.591	19301
900.711	19320
900.83	19312
900.95	19274
901.069	19426
901.189	19152
901.308	19004
901.427	18814
901.546	18897
901.665	18779
901.784	18905
901.904	18753
902.023	18631
902.141	18399
902.26	18422
902.379	18460
902.498	18388
902.617	18281
902.735	18418
902.854	18414
902.973	18304
903.091	18057
903.21	18068
903.328	18026
903.446	17950
903.565	17828
903.683	17901
903.801	17699
903.919	17707
904.038	17805
904.156	17634
904.274	17703
904.392	17649
904.51	17581
904.627	17684
904.745	17699
904.863	17699
904.981	17520
905.098	17379
905.216	17208
905.334	17341
905.451	17387
905.569	17330
905.686	17315
905.803	17299
905.921	17132
906.038	17155
906.155	17071
906.272	17014
906.389	17102
906.506	16946
906.623	16816
906.74	16828
906.857	16805
906.974	16755
907.091	16976
907.208	16980
907.324	16877
907.441	16759
907.557	16649
907.674	16538
907.79	16577
907.907	16554
908.023	16607
908.139	16626
908.256	16538
908.372	16550
908.488	16466
908.604	16371
908.72	16306
908.836	16299
908.952	16265
909.068	16280
909.184	16268
909.3	16379
909.415	16394
909.531	16287
909.647	16074
909.762	16044
909.878	15979
909.993	16112
910.108	15968
910.224	15945
910.339	15983
910.454	15956
910.57	15759
910.685	15728
910.8	15941
910.915	16078
911.03	15778
911.145	15591
911.259	15534
911.374	15629
911.489	15530
911.604	15504
911.718	15329
911.833	15340
911.947	15367
912.062	15138
912.176	15515
912.291	15374
912.405	15428
912.519	15667
912.633	15572
912.748	15477
912.862	15378
912.976	15161
913.09	15058
913.204	15195
913.318	15142
913.431	15298
913.545	15279
913.659	15332
913.772	15119
913.886	15066
914	15024
914.113	15036
914.226	15066
914.34	15032
914.453	14872
914.566	15089
914.68	14872
914.793	14735
914.906	14777
915.019	14655
915.132	14606
915.245	14564
915.358	14629
915.47	14705
915.583	14651
915.696	14598
915.809	14754
915.921	14720
916.034	14556
916.146	14423
916.259	14545
916.371	14644
916.483	14587
916.595	14484
916.708	14457
916.82	14484
916.932	14412
917.044	14404
917.156	14473
917.268	14275
917.38	14339
917.491	14237
917.603	14301
917.715	14267
917.826	14381
917.938	14199
918.049	14130
918.161	14328
918.272	14305
918.384	14366
918.495	14191
918.606	13993
918.717	14046
918.828	14073
918.939	14176
919.05	14046
919.161	14027
919.272	13940
919.383	13868
919.494	14168
919.604	14237
919.715	14081
919.826	13879
919.936	14058
920.047	14062
920.157	13974
920.267	14180
920.378	14088
920.488	14024
920.598	14248
920.708	14347
920.818	14187
920.928	14111
921.038	14339
921.148	14256
921.258	14027
921.368	13978
921.477	13887
921.587	13765
921.697	13715
921.806	13833
921.916	13655
922.025	13445
922.134	13483
922.244	13430
922.353	13453
922.462	13350
922.571	13274
922.68	13095
922.789	13088
922.898	13179
923.007	13015
923.116	13110
923.224	13076
923.333	12989
923.442	12939
923.55	12871
923.659	13004
923.767	13038
923.876	12833
923.984	12894
924.092	12848
924.201	12882
924.309	12840
924.417	12886
924.525	12814
924.633	12848
924.741	13666
924.849	12589
924.956	12703
925.064	12536
925.172	12490
925.279	12544
925.387	12604
925.494	12578
925.602	12631
925.709	12475
925.816	12369
925.924	12502
926.031	12547
926.138	12448
926.245	12574
926.352	12330
926.459	12547
926.566	12585
926.673	12452
926.779	12266
926.886	12308
926.993	12152
927.099	12144
927.206	12019
927.312	12114
927.419	12262
927.525	12091
927.631	12125
927.737	11939
927.843	11958
927.95	11950
928.056	11939
928.162	11939
928.267	11961
928.373	12475
928.479	12011
928.585	11798
928.69	11912
928.796	11931
928.901	11889
929.007	11611
929.112	11783
929.218	11802
929.323	11649
929.428	11634
929.533	11798
929.638	11566
929.743	11737
929.848	11767
929.953	11695
930.058	11558
930.163	11307
930.267	11379
930.372	11592
930.477	11307
930.581	11543
930.685	11414
930.79	11341
930.894	11258
930.998	11296
931.103	11436
931.207	10949
931.311	10915
931.415	10812
931.519	10694
931.623	10763
