Data from test_V78500241_983.txt Node
Date: Fri Mar 25 15:16:42 CST 2022
User: usil
Spectrometer: V785-0024
Trigger mode: 0
Integration Time (sec): 4.000000E-1
Scans to average: 1
Nonlinearity correction enabled: false
Boxcar width: 0
Storing dark spectrum: false
XAxis mode: Wavelengths
Number of Pixels in Spectrum: 1024
>>>>>Begin Spectral Data<<<<<
801.071	28303
801.214	28188
801.356	28032
801.499	28013
801.641	27846
801.783	27667
801.926	27797
802.068	27823
802.211	27690
802.353	27705
802.496	27439
802.638	27515
802.78	27496
802.923	27458
803.065	27496
803.208	27538
803.35	27477
803.492	27587
803.635	27625
803.777	27568
803.919	27690
804.061	27964
804.204	27698
804.346	27629
804.488	27679
804.63	27633
804.773	27572
804.915	27622
805.057	27774
805.199	27736
805.341	27671
805.483	27918
805.626	27937
805.768	27717
805.91	27717
806.052	27899
806.194	27690
806.336	27884
806.478	27914
806.62	27816
806.762	27964
806.904	28101
807.046	28333
807.188	28333
807.33	28246
807.472	28303
807.614	28223
807.756	28226
807.898	28025
808.04	28109
808.182	28090
808.324	28135
808.465	28207
808.607	28268
808.749	28432
808.891	28523
809.033	28596
809.174	28519
809.316	28645
809.458	28493
809.6	28459
809.741	28573
809.883	28641
810.025	28809
810.166	28771
810.308	28767
810.45	28771
810.591	28607
810.733	28485
810.875	28440
811.016	28440
811.158	28390
811.299	28561
811.441	28618
811.582	28694
811.724	28630
811.865	28615
812.007	28599
812.148	28550
812.29	28577
812.431	28519
812.573	28885
812.714	28923
812.855	28919
812.997	29132
813.138	29254
813.279	29227
813.421	29200
813.562	28961
813.703	28869
813.845	28927
813.986	28554
814.127	28382
814.268	28040
814.41	28181
814.551	28166
814.692	28348
814.833	28025
814.974	28238
815.115	28147
815.256	28120
815.397	28169
815.539	28116
815.68	27987
815.821	27914
815.962	28048
816.103	27964
816.244	27926
816.385	27854
816.526	27918
816.666	27606
816.807	27443
816.948	27492
817.089	27599
817.23	27580
817.371	27519
817.512	27595
817.653	27568
817.793	27458
817.934	27526
818.075	27724
818.216	27625
818.356	27454
818.497	27412
818.638	27233
818.778	27287
818.919	27237
819.06	27363
819.2	27519
819.341	27534
819.481	27564
819.622	27690
819.762	28010
819.903	27770
820.043	27819
820.184	27690
820.324	27751
820.465	27766
820.605	27774
820.746	27572
820.886	27427
821.026	27637
821.167	27625
821.307	27819
821.447	27572
821.588	27416
821.728	27329
821.868	27195
822.008	26979
822.149	27043
822.289	26948
822.429	26765
822.569	26701
822.709	26648
822.849	26606
822.99	26613
823.13	26442
823.27	26583
823.41	26210
823.55	26172
823.69	26347
823.83	26168
823.97	26252
824.11	26092
824.25	26092
824.389	26153
824.529	26176
824.669	26225
824.809	26149
824.949	26240
825.089	26343
825.228	26244
825.368	26199
825.508	26031
825.648	26050
825.787	25966
825.927	26164
826.067	26062
826.206	26016
826.346	26244
826.485	26073
826.625	26020
826.765	26126
826.904	25966
827.044	25753
827.183	25666
827.323	25704
827.462	25708
827.601	25833
827.741	25742
827.88	25841
828.02	25609
828.159	25776
828.298	25826
828.437	25860
828.577	25689
828.716	25940
828.855	25662
828.994	25510
829.134	25403
829.273	25499
829.412	25407
829.551	25354
829.69	25563
829.829	25438
829.968	25540
830.107	25556
830.246	25438
830.385	25460
830.524	25400
830.663	25304
830.802	25152
830.941	25053
831.08	25023
831.219	25069
831.357	25187
831.496	25274
831.635	24996
831.774	25091
831.913	24943
832.051	25084
832.19	24920
832.329	24894
832.467	24772
832.606	24684
832.744	24620
832.883	24795
833.022	24814
833.16	24734
833.299	24806
833.437	24871
833.576	24871
833.714	24821
833.852	24890
833.991	24943
834.129	24901
834.267	24814
834.406	24840
834.544	24833
834.682	24863
834.821	24802
834.959	25042
835.097	24890
835.235	24825
835.373	24795
835.511	24681
835.65	24673
835.788	24764
835.926	24498
836.064	24528
836.202	24673
836.34	24757
836.478	24779
836.615	24578
836.753	24715
836.891	24825
837.029	24715
837.167	24498
837.305	24452
837.443	24555
837.58	24582
837.718	24563
837.856	24642
837.993	24467
838.131	24578
838.269	24391
838.406	24376
838.544	24251
838.681	24228
838.819	24300
838.956	23996
839.094	24087
839.231	24060
839.369	24152
839.506	24323
839.643	24232
839.781	23965
839.918	24049
840.055	23977
840.193	23969
840.33	23961
840.467	23870
840.604	23927
840.742	24144
840.879	23699
841.016	23840
841.153	23771
841.29	24007
841.427	23893
841.564	24022
841.701	23965
841.838	23866
841.975	23764
842.112	23813
842.249	23611
842.385	23684
842.522	23859
842.659	23680
842.796	23680
842.933	23714
843.069	23520
843.206	23600
843.343	23630
843.479	23790
843.616	23657
843.752	23455
843.889	23440
844.025	23497
844.162	23406
844.298	23429
844.435	23410
844.571	23360
844.708	23581
844.844	23566
844.98	23619
845.117	23528
845.253	23246
845.389	23372
845.525	23345
845.661	23299
845.798	23140
845.934	23189
846.07	23037
846.206	23181
846.342	23273
846.478	23098
846.614	23086
846.75	22835
846.886	22976
847.022	22908
847.158	22812
847.294	22946
847.429	22877
847.565	22828
847.701	23102
847.837	22653
847.972	22664
848.108	22736
848.244	22527
848.379	22462
848.515	22489
848.65	22470
848.786	22561
848.921	22481
849.057	22580
849.192	22466
849.328	22432
849.463	22504
849.598	22432
849.734	22348
849.869	22344
850.004	22234
850.14	22226
850.275	22219
850.41	22055
850.545	22166
850.68	22242
850.815	22223
850.95	22238
851.085	22462
851.22	22382
851.355	22310
851.49	22253
851.625	22112
851.76	22188
851.895	22196
852.03	22139
852.165	22238
852.299	22253
852.434	22402
852.569	22333
852.703	22272
852.838	22367
852.973	22325
853.107	22371
853.242	22230
853.376	22055
853.511	21876
853.645	22109
853.78	22196
853.914	22101
854.048	22063
854.183	22090
854.317	22181
854.451	22234
854.585	22048
854.72	21991
854.854	22124
854.988	21907
855.122	22116
855.256	21994
855.39	22002
855.524	22158
855.658	22044
855.792	22036
855.926	22120
856.06	22105
856.194	22112
856.327	22021
856.461	21979
856.595	22097
856.729	21987
856.862	22200
856.996	22086
857.13	22093
857.263	22234
857.397	22116
857.53	22059
857.664	22147
857.797	22101
857.931	22158
858.064	22059
858.197	22265
858.331	21972
858.464	22090
858.597	21918
858.731	21937
858.864	21949
858.997	22029
859.13	22002
859.263	22112
859.396	22139
859.529	22006
859.662	21953
859.795	22013
859.928	22131
860.061	22150
860.194	22291
860.327	22105
860.46	22078
860.592	22029
860.725	22314
860.858	22162
860.99	21972
861.123	21941
861.256	22029
861.388	22067
861.521	22637
861.653	21922
861.786	21884
861.918	21816
862.05	21937
862.183	21960
862.315	21907
862.447	22070
862.58	21953
862.712	21732
862.844	21766
862.976	21857
863.108	21766
863.24	22147
863.372	21663
863.504	21789
863.636	21808
863.768	21823
863.9	21793
864.032	21637
864.164	21739
864.296	21812
864.428	21953
864.559	21892
864.691	21861
864.823	21800
864.954	21679
865.086	21705
865.217	21637
865.349	21778
865.48	21709
865.612	21576
865.743	21819
865.875	21648
866.006	21576
866.137	21591
866.269	21717
866.4	21644
866.531	21553
866.662	21610
866.793	21629
866.924	21523
867.055	21618
867.186	21580
867.317	21633
867.448	21606
867.579	21481
867.71	21450
867.841	21416
867.972	21583
868.103	21553
868.233	21618
868.364	21504
868.495	21793
868.625	21812
868.756	21800
868.886	21800
869.017	21819
869.147	21907
869.278	21911
869.408	21762
869.539	21846
869.669	21854
869.799	21930
869.929	21907
870.06	21979
870.19	22074
870.32	22143
870.45	22215
870.58	22177
870.71	22348
870.84	22280
870.97	22169
871.1	22211
871.23	22375
871.36	22432
871.489	22333
871.619	22341
871.749	22481
871.879	22280
872.008	22580
872.138	22306
872.267	22268
872.397	22192
872.526	22196
872.656	22135
872.785	22150
872.915	22379
873.044	22519
873.173	22337
873.303	22398
873.432	22504
873.561	22573
873.69	22443
873.819	22470
873.948	22447
874.077	22451
874.206	22352
874.335	22470
874.464	22557
874.593	22691
874.722	22717
874.851	22675
874.979	22740
875.108	22816
875.237	22512
875.365	22516
875.494	22637
875.623	22679
875.751	22649
875.88	22542
876.008	22824
876.136	22752
876.265	23025
876.393	23185
876.521	23185
876.65	23170
876.778	23037
876.906	22972
877.034	22991
877.162	23014
877.29	22923
877.418	22995
877.546	23090
877.674	22911
877.802	23025
877.93	23022
878.058	22930
878.185	22767
878.313	22976
878.441	22991
878.568	22915
878.696	22930
878.824	23041
878.951	22946
879.079	23155
879.206	23269
879.333	23159
879.461	23018
879.588	22965
879.715	23105
879.842	23178
879.97	23113
880.097	22847
880.224	22911
880.351	22930
880.478	22835
880.605	22679
880.732	22828
880.859	23041
880.986	22835
881.112	22847
881.239	22668
881.366	22626
881.493	22398
881.619	22329
881.746	22470
881.872	22272
881.999	22337
882.125	22379
882.252	22394
882.378	22379
882.505	22443
882.631	22371
882.757	22032
882.883	22162
883.01	21949
883.136	22097
883.262	21968
883.388	21857
883.514	22025
883.64	22090
883.766	21941
883.892	21835
884.018	21869
884.143	22078
884.269	21949
884.395	21781
884.52	21610
884.646	21781
884.772	21759
884.897	21648
885.023	21553
885.148	21816
885.274	21865
885.399	21709
885.524	21739
885.65	21644
885.775	21770
885.9	21606
886.025	21774
886.15	21728
886.275	21709
886.4	21785
886.525	21618
886.65	21526
886.775	21610
886.9	21781
887.025	21899
887.149	21591
887.274	21515
887.399	21511
887.523	21287
887.648	21306
887.773	21306
887.897	21466
888.021	21549
888.146	21325
888.27	21523
888.395	21557
888.519	21523
888.643	21462
888.767	21420
888.891	21374
889.015	21154
889.139	21340
889.263	21230
889.387	21310
889.511	21431
889.635	21355
889.759	21294
889.883	21154
890.006	21252
890.13	21374
890.254	21233
890.377	21264
890.501	21043
890.624	21066
890.748	20990
890.871	20868
890.995	20838
891.118	20735
891.241	20720
891.364	20857
891.488	20937
891.611	20815
891.734	20727
891.857	20921
891.98	20773
892.103	20811
892.226	20815
892.349	20804
892.471	20530
892.594	20762
892.717	20716
892.839	20724
892.962	20663
893.085	20678
893.207	20636
893.33	20564
893.452	20541
893.575	20792
893.697	20678
893.819	20800
893.941	20971
894.064	20777
894.186	20609
894.308	20606
894.43	20788
894.552	20861
894.674	20693
894.796	20613
894.918	20674
895.04	20617
895.161	20800
895.283	20754
895.405	20655
895.526	20697
895.648	20796
895.769	20682
895.891	20537
896.012	20651
896.134	20785
896.255	20686
896.376	20689
896.498	20670
896.619	20697
896.74	20598
896.861	20716
896.982	20975
897.103	21127
897.224	21020
897.345	20857
897.466	20765
897.587	20914
897.708	21077
897.828	20823
897.949	20720
898.07	20724
898.19	20807
898.311	20929
898.431	20739
898.552	20899
898.672	20994
898.792	20998
898.913	20811
899.033	20804
899.153	20743
899.273	20632
899.393	20705
899.513	20613
899.633	20621
899.753	20606
899.873	20564
899.993	20533
900.113	20461
900.232	20552
900.352	20549
900.472	20530
900.591	20271
900.711	20404
900.83	20244
900.95	20446
901.069	20522
901.189	20202
901.308	20035
901.427	20043
901.546	19906
901.665	20027
901.784	19936
901.904	19894
902.023	19719
902.141	19567
902.26	19548
902.379	19620
902.498	19552
902.617	19438
902.735	19419
902.854	19301
902.973	19483
903.091	19244
903.21	19099
903.328	19076
903.446	19084
903.565	18993
903.683	18993
903.801	18764
903.919	18886
904.038	18913
904.156	18703
904.274	18715
904.392	18639
904.51	18776
904.627	18684
904.745	18814
904.863	18760
904.981	18422
905.098	18437
905.216	18380
905.334	18357
905.451	18448
905.569	18342
905.686	18441
905.803	18448
905.921	18152
906.038	18232
906.155	18220
906.272	17996
906.389	18098
906.506	17916
906.623	17851
906.74	17901
906.857	17794
906.974	17764
907.091	17863
907.208	18053
907.324	17882
907.441	17764
907.557	17558
907.674	17680
907.79	17471
907.907	17558
908.023	17627
908.139	17608
908.256	17474
908.372	17543
908.488	17459
908.604	17379
908.72	17406
908.836	17334
908.952	17356
909.068	17387
909.184	17459
909.3	17299
909.415	17277
909.531	17303
909.647	17014
909.762	16953
909.878	17075
909.993	17079
910.108	17079
910.224	16976
910.339	17003
910.454	16797
910.57	16755
910.685	16672
910.8	17022
910.915	16968
911.03	16896
911.145	16668
911.259	16675
911.374	16615
911.489	16424
911.604	16485
911.718	16440
911.833	16325
911.947	16223
912.062	16128
912.176	16363
912.291	16348
912.405	16348
912.519	16561
912.633	16485
912.748	16352
912.862	16284
912.976	16188
913.09	16082
913.204	16074
913.318	16207
913.431	16204
913.545	16226
913.659	16154
913.772	16211
913.886	15930
914	15937
914.113	16010
914.226	16139
914.34	16097
914.453	15850
914.566	16032
914.68	15800
914.793	15797
914.906	15637
915.019	15576
915.132	15545
915.245	15519
915.358	15553
915.47	15572
915.583	15667
915.696	15591
915.809	15599
915.921	15656
916.034	15534
916.146	15523
916.259	15408
916.371	15557
916.483	15599
916.595	15424
916.708	15492
916.82	15367
916.932	15325
917.044	15226
917.156	15306
917.268	15188
917.38	15249
917.491	15131
917.603	15218
917.715	15241
917.826	15348
917.938	15089
918.049	14994
918.161	15085
918.272	15256
918.384	15176
918.495	15104
918.606	14971
918.717	14929
918.828	14986
918.939	14887
919.05	14845
919.161	14887
919.272	14731
919.383	14807
919.494	14883
919.604	15150
919.715	14998
919.826	14842
919.936	14899
920.047	15039
920.157	14883
920.267	15089
920.378	14906
920.488	14857
920.598	15047
920.708	15252
920.818	15001
920.928	14998
921.038	15211
921.148	15165
921.258	14678
921.368	14750
921.477	14556
921.587	14663
921.697	14415
921.806	14701
921.916	14469
922.025	14275
922.134	14317
922.244	14225
922.353	14191
922.462	14054
922.571	14043
922.68	13986
922.789	13909
922.898	13890
923.007	13803
923.116	13879
923.224	13902
923.333	13913
923.442	13727
923.55	13677
923.659	13753
923.767	13807
923.876	13632
923.984	13753
924.092	13609
924.201	13666
924.309	13514
924.417	13636
924.525	13578
924.633	13563
924.741	14537
924.849	13396
924.956	13468
925.064	13354
925.172	13324
925.279	13365
925.387	13422
925.494	13354
925.602	13392
925.709	13282
925.816	13183
925.924	13225
926.031	13320
926.138	13278
926.245	13213
926.352	13152
926.459	13285
926.566	13285
926.673	13152
926.779	13069
926.886	13023
926.993	12928
927.099	12890
927.206	12764
927.312	12833
927.419	12894
927.525	12859
927.631	12757
927.737	12722
927.843	12631
927.95	12544
928.056	12620
928.162	12650
928.267	12681
928.373	13251
928.479	12654
928.585	12490
928.69	12498
928.796	12623
928.901	12452
929.007	12391
929.112	12422
929.218	12471
929.323	12407
929.428	12376
929.533	12513
929.638	12330
929.743	12319
929.848	12315
929.953	12319
930.058	12243
930.163	12171
930.267	12110
930.372	12152
930.477	11954
930.581	12167
930.685	12095
930.79	11931
930.894	11980
930.998	11870
931.103	12098
931.207	11676
931.311	11592
931.415	11585
931.519	11311
931.623	11284
