Data from test_V78500241_2831.txt Node
Date: Fri Mar 25 15:29:34 CST 2022
User: usil
Spectrometer: V785-0024
Trigger mode: 0
Integration Time (sec): 4.000000E-1
Scans to average: 1
Nonlinearity correction enabled: false
Boxcar width: 0
Storing dark spectrum: false
XAxis mode: Wavelengths
Number of Pixels in Spectrum: 1024
>>>>>Begin Spectral Data<<<<<
801.071	27336
801.214	27233
801.356	27074
801.499	26948
801.641	26925
801.783	26830
801.926	26815
802.068	26811
802.211	26781
802.353	26708
802.496	26419
802.638	26522
802.78	26389
802.923	26366
803.065	26229
803.208	26336
803.35	26423
803.492	26488
803.635	26537
803.777	26476
803.919	26743
804.061	26834
804.204	26724
804.346	26629
804.488	26617
804.63	26731
804.773	26537
804.915	26640
805.057	26708
805.199	26556
805.341	26644
805.483	26765
805.626	26693
805.768	26575
805.91	26815
806.052	26792
806.194	26636
806.336	26918
806.478	26686
806.62	26678
806.762	26838
806.904	26982
807.046	27123
807.188	27055
807.33	27135
807.472	27203
807.614	27218
807.756	27024
807.898	26963
808.04	26899
808.182	26971
808.324	26861
808.465	26986
808.607	27264
808.749	27207
808.891	27416
809.033	27511
809.174	27397
809.316	27401
809.458	27313
809.6	27359
809.741	27405
809.883	27462
810.025	27656
810.166	27526
810.308	27549
810.45	27454
810.591	27485
810.733	27462
810.875	27291
811.016	27279
811.158	27211
811.299	27405
811.441	27599
811.582	27454
811.724	27351
811.865	27306
812.007	27287
812.148	27169
812.29	27306
812.431	27416
812.573	27580
812.714	27717
812.855	27698
812.997	27979
813.138	28097
813.279	27876
813.421	27922
813.562	27671
813.703	27660
813.845	27420
813.986	27279
814.127	27036
814.268	27020
814.41	27017
814.551	26971
814.692	27108
814.833	26857
814.974	26769
815.115	26838
815.256	26921
815.397	26701
815.539	26975
815.68	26735
815.821	26727
815.962	26564
816.103	26788
816.244	26568
816.385	26526
816.526	26427
816.666	26332
816.807	26237
816.948	26298
817.089	26358
817.23	26385
817.371	26096
817.512	26092
817.653	26168
817.793	26210
817.934	26126
818.075	26202
818.216	26195
818.356	26191
818.497	26100
818.638	26046
818.778	26012
818.919	26035
819.06	26005
819.2	26012
819.341	26065
819.481	26225
819.622	26240
819.762	26473
819.903	26446
820.043	26408
820.184	26385
820.324	26256
820.465	26465
820.605	26305
820.746	26206
820.886	26145
821.026	26267
821.167	26339
821.307	26290
821.447	26343
821.588	26145
821.728	26157
821.868	25963
822.008	25811
822.149	25814
822.289	25712
822.429	25331
822.569	25255
822.709	25354
822.849	25145
822.99	25266
823.13	25194
823.27	25099
823.41	25114
823.55	24924
823.69	24989
823.83	24973
823.97	24981
824.11	24916
824.25	24783
824.389	24829
824.529	25088
824.669	24852
824.809	24901
824.949	24928
825.089	24901
825.228	24852
825.368	24635
825.508	24635
825.648	24661
825.787	24783
825.927	24730
826.067	24623
826.206	24734
826.346	24795
826.485	24825
826.625	24734
826.765	24875
826.904	24681
827.044	24498
827.183	24426
827.323	24346
827.462	24414
827.601	24376
827.741	24456
827.88	24273
828.02	24323
828.159	24342
828.298	24342
828.437	24357
828.577	24365
828.716	24407
828.855	24266
828.994	24148
829.134	24072
829.273	24277
829.412	24060
829.551	24045
829.69	24167
829.829	24148
829.968	24159
830.107	24114
830.246	24174
830.385	24136
830.524	24007
830.663	23904
830.802	23935
830.941	23783
831.08	23687
831.219	23874
831.357	23802
831.496	24003
831.635	23737
831.774	23581
831.913	23729
832.051	23452
832.19	23512
832.329	23364
832.467	23459
832.606	23299
832.744	23341
832.883	23368
833.022	23372
833.16	23299
833.299	23459
833.437	23311
833.576	23421
833.714	23463
833.852	23596
833.991	23524
834.129	23490
834.267	23570
834.406	23490
834.544	23478
834.682	23318
834.821	23303
834.959	23573
835.097	23387
835.235	23482
835.373	23452
835.511	23395
835.65	23265
835.788	23212
835.926	23162
836.064	23136
836.202	23098
836.34	23368
836.478	23402
836.615	23235
836.753	23269
836.891	23410
837.029	23227
837.167	23178
837.305	23147
837.443	23098
837.58	23056
837.718	23178
837.856	23052
837.993	23098
838.131	23143
838.269	23060
838.406	23052
838.544	22904
838.681	22763
838.819	22866
838.956	22554
839.094	22523
839.231	22603
839.369	22805
839.506	23033
839.643	22934
839.781	22599
839.918	22508
840.055	22554
840.193	22596
840.33	22481
840.467	22569
840.604	22618
840.742	22733
840.879	22398
841.016	22493
841.153	22428
841.29	22641
841.427	22447
841.564	22599
841.701	22424
841.838	22402
841.975	22447
842.112	22398
842.249	22402
842.385	22322
842.522	22478
842.659	22371
842.796	22363
842.933	22200
843.069	22196
843.206	22242
843.343	22280
843.479	22272
843.616	22169
843.752	22112
843.889	22070
844.025	22234
844.162	22082
844.298	22177
844.435	22070
844.571	22101
844.708	22135
844.844	22276
844.98	22158
845.117	22169
845.253	21956
845.389	21808
845.525	21964
845.661	21876
845.798	21778
845.934	21827
846.07	21892
846.206	21884
846.342	21964
846.478	21827
846.614	21610
846.75	21568
846.886	21538
847.022	21633
847.158	21511
847.294	21568
847.429	21599
847.565	21580
847.701	21679
847.837	21313
847.972	21272
848.108	21260
848.244	21310
848.379	21214
848.515	21180
848.65	21150
848.786	21100
848.921	21165
849.057	21230
849.192	21100
849.328	21100
849.463	21062
849.598	21142
849.734	21013
849.869	20956
850.004	20941
850.14	20887
850.275	20872
850.41	20716
850.545	20880
850.68	20944
850.815	20826
850.95	20849
851.085	20994
851.22	20960
851.355	20849
851.49	20735
851.625	20785
851.76	20933
851.895	20876
852.03	20804
852.165	20998
852.299	20956
852.434	21020
852.569	20929
852.703	20777
852.838	20975
852.973	20944
853.107	20982
853.242	20876
853.376	20724
853.511	20594
853.645	20613
853.78	20800
853.914	20773
854.048	20758
854.183	20667
854.317	20674
854.451	20929
854.585	20781
854.72	20682
854.854	20880
854.988	20575
855.122	20594
855.256	20488
855.39	20644
855.524	20716
855.658	20682
855.792	20830
855.926	20689
856.06	20689
856.194	20819
856.327	20758
856.461	20663
856.595	20598
856.729	20651
856.862	20785
856.996	20727
857.13	20750
857.263	20731
857.397	20868
857.53	20689
857.664	20632
857.797	20720
857.931	20826
858.064	20804
858.197	20777
858.331	20712
858.464	20651
858.597	20564
858.731	20594
858.864	20674
858.997	20636
859.13	20735
859.263	20739
859.396	20849
859.529	20522
859.662	20674
859.795	20625
859.928	20693
860.061	20891
860.194	20887
860.327	20762
860.46	20689
860.592	20769
860.725	20815
860.858	20823
860.99	20731
861.123	20598
861.256	20594
861.388	20796
861.521	21287
861.653	20549
861.786	20549
861.918	20511
862.05	20575
862.183	20636
862.315	20609
862.447	20705
862.58	20545
862.712	20408
862.844	20305
862.976	20571
863.108	20473
863.24	20758
863.372	20457
863.504	20389
863.636	20518
863.768	20393
863.9	20339
864.032	20320
864.164	20256
864.296	20381
864.428	20526
864.559	20465
864.691	20431
864.823	20366
864.954	20374
865.086	20381
865.217	20256
865.349	20256
865.48	20423
865.612	20442
865.743	20454
865.875	20305
866.006	20248
866.137	20480
866.269	20248
866.4	20259
866.531	20301
866.662	20221
866.793	20214
866.924	20214
867.055	20309
867.186	20290
867.317	20202
867.448	20103
867.579	20278
867.71	20199
867.841	20164
867.972	20134
868.103	20221
868.233	20221
868.364	20206
868.495	20366
868.625	20484
868.756	20560
868.886	20385
869.017	20419
869.147	20636
869.278	20587
869.408	20575
869.539	20469
869.669	20522
869.799	20446
869.929	20670
870.06	20533
870.19	20887
870.32	20720
870.45	20842
870.58	20868
870.71	20975
870.84	20963
870.97	20891
871.1	20868
871.23	21039
871.36	21116
871.489	21020
871.619	21077
871.749	21100
871.879	21192
872.008	21184
872.138	21157
872.267	21256
872.397	21043
872.526	20857
872.656	20910
872.785	20986
872.915	21081
873.044	21230
873.173	21135
873.303	21138
873.432	21131
873.561	21272
873.69	21146
873.819	21211
873.948	21214
874.077	21180
874.206	21066
874.335	21138
874.464	21192
874.593	21450
874.722	21279
874.851	21359
874.979	21310
875.108	21492
875.237	21416
875.365	21386
875.494	21294
875.623	21428
875.751	21397
875.88	21351
876.008	21557
876.136	21583
876.265	21660
876.393	21888
876.521	21819
876.65	21831
876.778	21842
876.906	21785
877.034	21743
877.162	21675
877.29	21724
877.418	21682
877.546	21701
877.674	21789
877.802	21785
877.93	21709
878.058	21728
878.185	21682
878.313	21572
878.441	21656
878.568	21466
878.696	21679
878.824	21641
878.951	21785
879.079	21941
879.206	21892
879.333	21800
879.461	21705
879.588	21880
879.715	21793
879.842	22055
879.97	21781
880.097	21603
880.224	21542
880.351	21652
880.478	21618
880.605	21538
880.732	21618
880.859	21793
880.986	21447
881.112	21603
881.239	21386
881.366	21165
881.493	21093
881.619	21142
881.746	21089
881.872	21028
881.999	20941
882.125	20990
882.252	20979
882.378	21039
882.505	21176
882.631	20990
882.757	20933
882.883	20826
883.01	20845
883.136	20735
883.262	20689
883.388	20587
883.514	20823
883.64	20788
883.766	20754
883.892	20644
884.018	20556
884.143	20735
884.269	20864
884.395	20545
884.52	20503
884.646	20484
884.772	20336
884.897	20385
885.023	20370
885.148	20560
885.274	20693
885.399	20503
885.524	20473
885.65	20507
885.775	20484
885.9	20389
886.025	20499
886.15	20537
886.275	20404
886.4	20351
886.525	20412
886.65	20366
886.775	20396
886.9	20465
887.025	20587
887.149	20465
887.274	20286
887.399	20172
887.523	20206
887.648	20153
887.773	20218
887.897	20248
888.021	20256
888.146	20187
888.27	20259
888.395	20324
888.519	20229
888.643	20400
888.767	20240
888.891	20237
889.015	20027
889.139	20046
889.263	20031
889.387	20050
889.511	20229
889.635	20058
889.759	20092
889.883	20088
890.006	20039
890.13	20088
890.254	20005
890.377	19963
890.501	19746
890.624	19772
890.748	19833
890.871	19632
890.995	19620
891.118	19495
891.241	19731
891.364	19624
891.488	19731
891.611	19689
891.734	19632
891.857	19590
891.98	19689
892.103	19529
892.226	19670
892.349	19632
892.471	19365
892.594	19499
892.717	19552
892.839	19449
892.962	19544
893.085	19624
893.207	19445
893.33	19441
893.452	19571
893.575	19578
893.697	19525
893.819	19715
893.941	19780
894.064	19674
894.186	19422
894.308	19483
894.43	19544
894.552	19590
894.674	19601
894.796	19544
894.918	19487
895.04	19464
895.161	19658
895.283	19525
895.405	19396
895.526	19590
895.648	19502
895.769	19616
895.891	19597
896.012	19594
896.134	19582
896.255	19662
896.376	19567
896.498	19597
896.619	19563
896.74	19586
896.861	19613
896.982	19833
897.103	19951
897.224	19753
897.345	19791
897.466	19731
897.587	19738
897.708	19947
897.828	19750
897.949	19712
898.07	19594
898.19	19750
898.311	19837
898.431	19704
898.552	19776
898.672	19875
898.792	19795
898.913	19731
899.033	19753
899.153	19628
899.273	19499
899.393	19510
899.513	19597
899.633	19518
899.753	19586
899.873	19502
899.993	19514
900.113	19518
900.232	19594
900.352	19510
900.472	19441
900.591	19316
900.711	19369
900.83	19263
900.95	19415
901.069	19495
901.189	19270
901.308	19046
901.427	18905
901.546	18886
901.665	18943
901.784	18913
901.904	18829
902.023	18642
902.141	18642
902.26	18479
902.379	18582
902.498	18338
902.617	18380
902.735	18578
902.854	18388
902.973	18384
903.091	18133
903.21	18133
903.328	18129
903.446	18041
903.565	17942
903.683	17969
903.801	17828
903.919	17931
904.038	17882
904.156	17707
904.274	17794
904.392	17653
904.51	17703
904.627	17722
904.745	17680
904.863	17745
904.981	17402
905.098	17322
905.216	17425
905.334	17414
905.451	17395
905.569	17277
905.686	17440
905.803	17455
905.921	17143
906.038	17254
906.155	17136
906.272	17117
906.389	17098
906.506	16854
906.623	17025
906.74	16892
906.857	16812
906.974	16839
907.091	17014
907.208	17022
907.324	17003
907.441	16847
907.557	16649
907.674	16694
907.79	16535
907.907	16500
908.023	16710
908.139	16637
908.256	16550
908.372	16561
908.488	16489
908.604	16459
908.72	16325
908.836	16455
908.952	16303
909.068	16375
909.184	16447
909.3	16299
909.415	16280
909.531	16265
909.647	16078
909.762	16093
909.878	16010
909.993	16112
910.108	15945
910.224	16120
910.339	15960
910.454	15972
910.57	15949
910.685	15755
910.8	16032
910.915	16074
911.03	15922
911.145	15679
911.259	15778
911.374	15641
911.489	15526
911.604	15549
911.718	15439
911.833	15389
911.947	15386
912.062	15329
912.176	15473
912.291	15424
912.405	15473
912.519	15671
912.633	15591
912.748	15389
912.862	15382
912.976	15207
913.09	15108
913.204	15214
913.318	15287
913.431	15317
913.545	15272
913.659	15222
913.772	15184
913.886	15051
914	15043
914.113	15077
914.226	15249
914.34	15100
914.453	14952
914.566	15032
914.68	14982
914.793	14883
914.906	14564
915.019	14590
915.132	14644
915.245	14686
915.358	14697
915.47	14693
915.583	14712
915.696	14655
915.809	14796
915.921	14746
916.034	14682
916.146	14575
916.259	14469
916.371	14659
916.483	14560
916.595	14480
916.708	14518
916.82	14511
916.932	14427
917.044	14377
917.156	14404
917.268	14381
917.38	14400
917.491	14351
917.603	14320
917.715	14419
917.826	14446
917.938	14282
918.049	14202
918.161	14358
918.272	14446
918.384	14423
918.495	14210
918.606	14142
918.717	14077
918.828	14168
918.939	14183
919.05	14031
919.161	14035
919.272	13902
919.383	14008
919.494	14134
919.604	14313
919.715	14123
919.826	14046
919.936	14020
920.047	14134
920.157	14100
920.267	14313
920.378	14100
920.488	13989
920.598	14256
920.708	14362
920.818	14187
920.928	14206
921.038	14347
921.148	14298
921.258	14096
921.368	13944
921.477	13814
921.587	13849
921.697	13807
921.806	13776
921.916	13670
922.025	13563
922.134	13514
922.244	13502
922.353	13445
922.462	13369
922.571	13335
922.68	13084
922.789	13164
922.898	13145
923.007	13065
923.116	13129
923.224	13107
923.333	13038
923.442	12962
923.55	12947
923.659	12977
923.767	13057
923.876	12886
923.984	12966
924.092	12939
924.201	12871
924.309	12947
924.417	12981
924.525	12871
924.633	12795
924.741	13540
924.849	12612
924.956	12722
925.064	12665
925.172	12498
925.279	12563
925.387	12604
925.494	12528
925.602	12620
925.709	12631
925.816	12384
925.924	12540
926.031	12574
926.138	12582
926.245	12612
926.352	12441
926.459	12498
926.566	12612
926.673	12456
926.779	12323
926.886	12292
926.993	12167
927.099	12117
927.206	12095
927.312	12106
927.419	12205
927.525	12163
927.631	12224
927.737	12019
927.843	12057
927.95	11920
928.056	11977
928.162	11992
928.267	12007
928.373	12665
928.479	12045
928.585	11882
928.69	11954
928.796	11969
928.901	11809
929.007	11684
929.112	11824
929.218	11783
929.323	11722
929.428	11771
929.533	11889
929.638	11634
929.743	11608
929.848	11657
929.953	11615
930.058	11604
930.163	11337
930.267	11440
930.372	11528
930.477	11330
930.581	11646
930.685	11421
930.79	11318
930.894	11337
930.998	11296
931.103	11341
931.207	11052
931.311	10927
931.415	10923
931.519	10675
931.623	10706
