Data from test_V78500241_3341.txt Node
Date: Fri Mar 25 15:33:07 CST 2022
User: usil
Spectrometer: V785-0024
Trigger mode: 0
Integration Time (sec): 4.000000E-1
Scans to average: 1
Nonlinearity correction enabled: false
Boxcar width: 0
Storing dark spectrum: false
XAxis mode: Wavelengths
Number of Pixels in Spectrum: 1024
>>>>>Begin Spectral Data<<<<<
801.071	27325
801.214	27264
801.356	27005
801.499	26864
801.641	26792
801.783	26735
801.926	26853
802.068	26876
802.211	26765
802.353	26674
802.496	26514
802.638	26427
802.78	26343
802.923	26305
803.065	26362
803.208	26358
803.35	26450
803.492	26670
803.635	26648
803.777	26423
803.919	26640
804.061	26880
804.204	26629
804.346	26480
804.488	26377
804.63	26552
804.773	26503
804.915	26602
805.057	26746
805.199	26594
805.341	26621
805.483	26686
805.626	26632
805.768	26609
805.91	26727
806.052	26644
806.194	26617
806.336	26750
806.478	26788
806.62	26629
806.762	26739
806.904	26937
807.046	27245
807.188	27138
807.33	27089
807.472	27180
807.614	26891
807.756	27066
807.898	26933
808.04	26800
808.182	26967
808.324	26933
808.465	26956
808.607	27055
808.749	27264
808.891	27389
809.033	27454
809.174	27344
809.316	27226
809.458	27146
809.6	27169
809.741	27112
809.883	27298
810.025	27507
810.166	27564
810.308	27515
810.45	27424
810.591	27454
810.733	27218
810.875	27348
811.016	27268
811.158	27218
811.299	27435
811.441	27424
811.582	27618
811.724	27199
811.865	27051
812.007	27184
812.148	27173
812.29	27344
812.431	27397
812.573	27439
812.714	27526
812.855	27705
812.997	27751
813.138	27869
813.279	27861
813.421	27778
813.562	27663
813.703	27526
813.845	27534
813.986	27329
814.127	26994
814.268	26861
814.41	26960
814.551	26937
814.692	26823
814.833	26826
814.974	26842
815.115	26864
815.256	26773
815.397	26804
815.539	26777
815.68	26743
815.821	26682
815.962	26613
816.103	26682
816.244	26598
816.385	26469
816.526	26514
816.666	26206
816.807	26214
816.948	26240
817.089	26191
817.23	26180
817.371	26107
817.512	26221
817.653	26122
817.793	26202
817.934	26164
818.075	26221
818.216	26134
818.356	26157
818.497	26100
818.638	25856
818.778	25947
818.919	25898
819.06	26001
819.2	26073
819.341	26145
819.481	26172
819.622	26355
819.762	26389
819.903	26442
820.043	26195
820.184	26233
820.324	26164
820.465	26347
820.605	26309
820.746	26275
820.886	26008
821.026	26244
821.167	26176
821.307	26267
821.447	26195
821.588	26054
821.728	25944
821.868	25780
822.008	25521
822.149	25734
822.289	25552
822.429	25403
822.569	25274
822.709	25339
822.849	25175
822.99	25095
823.13	25122
823.27	25114
823.41	25034
823.55	24958
823.69	24970
823.83	24935
823.97	24932
824.11	24726
824.25	24783
824.389	24798
824.529	24848
824.669	24875
824.809	24913
824.949	24817
825.089	24844
825.228	24791
825.368	24616
825.508	24654
825.648	24616
825.787	24627
825.927	24696
826.067	24601
826.206	24620
826.346	24738
826.485	24650
826.625	24639
826.765	24760
826.904	24658
827.044	24433
827.183	24399
827.323	24285
827.462	24452
827.601	24464
827.741	24353
827.88	24418
828.02	24213
828.159	24395
828.298	24418
828.437	24547
828.577	24289
828.716	24521
828.855	24277
828.994	24079
829.134	24129
829.273	24148
829.412	24076
829.551	24053
829.69	24178
829.829	24144
829.968	24239
830.107	24140
830.246	24068
830.385	23958
830.524	23954
830.663	23973
830.802	23874
830.941	23638
831.08	23691
831.219	23741
831.357	23794
831.496	23996
831.635	23752
831.774	23752
831.913	23539
832.051	23558
832.19	23459
832.329	23596
832.467	23486
832.606	23280
832.744	23436
832.883	23493
833.022	23280
833.16	23299
833.299	23353
833.437	23425
833.576	23440
833.714	23524
833.852	23608
833.991	23398
834.129	23543
834.267	23543
834.406	23490
834.544	23539
834.682	23543
834.821	23452
834.959	23668
835.097	23356
835.235	23471
835.373	23436
835.511	23455
835.65	23406
835.788	23398
835.926	23246
836.064	23067
836.202	23113
836.34	23368
836.478	23497
836.615	23398
836.753	23269
836.891	23368
837.029	23372
837.167	23178
837.305	23216
837.443	23296
837.58	23166
837.718	23280
837.856	23208
837.993	23041
838.131	23162
838.269	22946
838.406	23143
838.544	22976
838.681	22961
838.819	22797
838.956	22733
839.094	22744
839.231	22767
839.369	22850
839.506	23048
839.643	22854
839.781	22672
839.918	22580
840.055	22580
840.193	22615
840.33	22535
840.467	22481
840.604	22599
840.742	22782
840.879	22485
841.016	22573
841.153	22538
841.29	22485
841.427	22626
841.564	22603
841.701	22599
841.838	22451
841.975	22455
842.112	22580
842.249	22489
842.385	22386
842.522	22649
842.659	22432
842.796	22360
842.933	22428
843.069	22181
843.206	22196
843.343	22375
843.479	22253
843.616	22314
843.752	22128
843.889	22162
844.025	22166
844.162	22207
844.298	22204
844.435	22051
844.571	22070
844.708	22173
844.844	22318
844.98	22367
845.117	22234
845.253	22067
845.389	21823
845.525	22032
845.661	22093
845.798	21827
845.934	21941
846.07	21713
846.206	21827
846.342	21994
846.478	21743
846.614	21603
846.75	21595
846.886	21709
847.022	21644
847.158	21500
847.294	21572
847.429	21641
847.565	21595
847.701	21865
847.837	21241
847.972	21260
848.108	21401
848.244	21367
848.379	21272
848.515	21169
848.65	21192
848.786	21138
848.921	21131
849.057	21256
849.192	21351
849.328	21176
849.463	21237
849.598	21112
849.734	21032
849.869	20967
850.004	20929
850.14	21142
850.275	20963
850.41	20853
850.545	20902
850.68	20952
850.815	20948
850.95	20929
851.085	21058
851.22	21066
851.355	20967
851.49	20819
851.625	20963
851.76	20864
851.895	20876
852.03	20933
852.165	20990
852.299	21017
852.434	21108
852.569	20944
852.703	20899
852.838	20986
852.973	21127
853.107	21020
853.242	20853
853.376	20792
853.511	20632
853.645	20823
853.78	20876
853.914	20769
854.048	20750
854.183	20602
854.317	20762
854.451	21009
854.585	20762
854.72	20864
854.854	20815
854.988	20735
855.122	20731
855.256	20727
855.39	20724
855.524	20842
855.658	20739
855.792	20948
855.926	20921
856.06	20811
856.194	20796
856.327	20739
856.461	20785
856.595	20849
856.729	20781
856.862	20963
856.996	20788
857.13	20883
857.263	20899
857.397	20933
857.53	20792
857.664	20804
857.797	20834
857.931	20876
858.064	20815
858.197	20769
858.331	20705
858.464	20788
858.597	20724
858.731	20712
858.864	20701
858.997	20724
859.13	20929
859.263	20720
859.396	20857
859.529	20807
859.662	20640
859.795	20792
859.928	20720
860.061	20994
860.194	21051
860.327	20864
860.46	20861
860.592	20785
860.725	20880
860.858	20762
860.99	20724
861.123	20686
861.256	20777
861.388	20826
861.521	21477
861.653	20663
861.786	20560
861.918	20609
862.05	20648
862.183	20746
862.315	20617
862.447	20834
862.58	20651
862.712	20545
862.844	20488
862.976	20549
863.108	20613
863.24	20941
863.372	20358
863.504	20442
863.636	20488
863.768	20484
863.9	20583
864.032	20408
864.164	20415
864.296	20480
864.428	20556
864.559	20511
864.691	20514
864.823	20674
864.954	20552
865.086	20423
865.217	20396
865.349	20240
865.48	20377
865.612	20423
865.743	20499
865.875	20427
866.006	20355
866.137	20396
866.269	20271
866.4	20393
866.531	20419
866.662	20244
866.793	20271
866.924	20195
867.055	20320
867.186	20301
867.317	20351
867.448	20240
867.579	20366
867.71	20199
867.841	20199
867.972	20336
868.103	20324
868.233	20229
868.364	20259
868.495	20450
868.625	20469
868.756	20629
868.886	20514
869.017	20469
869.147	20712
869.278	20571
869.408	20670
869.539	20674
869.669	20667
869.799	20682
869.929	20788
870.06	20594
870.19	20788
870.32	20956
870.45	20830
870.58	20887
870.71	21047
870.84	21131
870.97	20918
871.1	20914
871.23	21169
871.36	21268
871.489	21169
871.619	21005
871.749	21138
871.879	21291
872.008	21283
872.138	21241
872.267	21214
872.397	20963
872.526	20941
872.656	21036
872.785	21051
872.915	21233
873.044	21291
873.173	21127
873.303	21249
873.432	21230
873.561	21317
873.69	21218
873.819	21283
873.948	21412
874.077	21211
874.206	21116
874.335	21104
874.464	21264
874.593	21298
874.722	21378
874.851	21431
874.979	21466
875.108	21485
875.237	21363
875.365	21329
875.494	21454
875.623	21492
875.751	21477
875.88	21553
876.008	21595
876.136	21679
876.265	21964
876.393	21968
876.521	21880
876.65	21793
876.778	21854
876.906	21720
877.034	21770
877.162	21755
877.29	21819
877.418	21793
877.546	21785
877.674	21732
877.802	21819
877.93	21774
878.058	21838
878.185	21641
878.313	21747
878.441	21747
878.568	21682
878.696	21709
878.824	21804
878.951	21869
879.079	21945
879.206	22010
879.333	21808
879.461	21873
879.588	21884
879.715	22063
879.842	22166
879.97	21876
880.097	21667
880.224	21648
880.351	21576
880.478	21644
880.605	21583
880.732	21690
880.859	21895
880.986	21504
881.112	21686
881.239	21359
881.366	21382
881.493	21260
881.619	21146
881.746	21169
881.872	21203
881.999	21188
882.125	21180
882.252	21226
882.378	21161
882.505	21157
882.631	21108
882.757	20933
882.883	21001
883.01	20880
883.136	20876
883.262	20811
883.388	20781
883.514	20960
883.64	21047
883.766	20788
883.892	20602
884.018	20705
884.143	20815
884.269	20941
884.395	20552
884.52	20499
884.646	20568
884.772	20518
884.897	20488
885.023	20552
885.148	20492
885.274	20590
885.399	20571
885.524	20598
885.65	20602
885.775	20682
885.9	20465
886.025	20667
886.15	20530
886.275	20564
886.4	20355
886.525	20537
886.65	20568
886.775	20473
886.9	20594
887.025	20781
887.149	20537
887.274	20355
887.399	20339
887.523	20290
887.648	20218
887.773	20199
887.897	20419
888.021	20214
888.146	20263
888.27	20488
888.395	20480
888.519	20389
888.643	20366
888.767	20324
888.891	20202
889.015	20187
889.139	20168
889.263	20122
889.387	20259
889.511	20278
889.635	20221
889.759	20126
889.883	20130
890.006	20142
890.13	20298
890.254	20077
890.377	19993
890.501	19887
890.624	19791
890.748	19898
890.871	19765
890.995	19651
891.118	19620
891.241	19700
891.364	19666
891.488	19917
891.611	19727
891.734	19753
891.857	19750
891.98	19696
892.103	19788
892.226	19811
892.349	19670
892.471	19529
892.594	19582
892.717	19753
892.839	19586
892.962	19620
893.085	19712
893.207	19651
893.33	19502
893.452	19563
893.575	19647
893.697	19571
893.819	19822
893.941	19757
894.064	19666
894.186	19537
894.308	19521
894.43	19643
894.552	19909
894.674	19693
894.796	19605
894.918	19609
895.04	19685
895.161	19658
895.283	19685
895.405	19575
895.526	19597
895.648	19746
895.769	19674
895.891	19605
896.012	19693
896.134	19605
896.255	19586
896.376	19586
896.498	19590
896.619	19639
896.74	19502
896.861	19655
896.982	19818
897.103	19997
897.224	19940
897.345	19757
897.466	19879
897.587	19909
897.708	19986
897.828	19913
897.949	19841
898.07	19655
898.19	19769
898.311	19883
898.431	19849
898.552	19864
898.672	19841
898.792	19959
898.913	19917
899.033	19799
899.153	19849
899.273	19624
899.393	19605
899.513	19605
899.633	19635
899.753	19563
899.873	19571
899.993	19540
900.113	19624
900.232	19540
900.352	19529
900.472	19499
900.591	19354
900.711	19411
900.83	19377
900.95	19483
901.069	19499
901.189	19354
901.308	19103
901.427	18943
901.546	18939
901.665	19076
901.784	19019
901.904	18829
902.023	18738
902.141	18654
902.26	18589
902.379	18532
902.498	18433
902.617	18452
902.735	18486
902.854	18521
902.973	18399
903.091	18209
903.21	18148
903.328	18072
903.446	18079
903.565	18022
903.683	17897
903.801	17920
903.919	17920
904.038	18003
904.156	17699
904.274	17809
904.392	17752
904.51	17718
904.627	17733
904.745	17824
904.863	17828
904.981	17486
905.098	17478
905.216	17387
905.334	17395
905.451	17562
905.569	17448
905.686	17444
905.803	17379
905.921	17140
906.038	17223
906.155	17296
906.272	17124
906.389	17140
906.506	16987
906.623	17045
906.74	17010
906.857	16877
906.974	16904
907.091	17060
907.208	17041
907.324	16934
907.441	16881
907.557	16786
907.674	16660
907.79	16561
907.907	16607
908.023	16801
908.139	16687
908.256	16607
908.372	16535
908.488	16599
908.604	16474
908.72	16417
908.836	16459
908.952	16405
909.068	16451
909.184	16493
909.3	16432
909.415	16405
909.531	16390
909.647	16177
909.762	16090
909.878	16177
909.993	16185
910.108	16048
910.224	16017
910.339	16097
910.454	15987
910.57	15838
910.685	15892
910.8	16071
910.915	16010
911.03	15991
911.145	15705
911.259	15724
911.374	15747
911.489	15622
911.604	15580
911.718	15450
911.833	15466
911.947	15408
912.062	15306
912.176	15515
912.291	15485
912.405	15523
912.519	15595
912.633	15614
912.748	15557
912.862	15458
912.976	15317
913.09	15195
913.204	15222
913.318	15374
913.431	15420
913.545	15378
913.659	15321
913.772	15207
913.886	15161
914	15165
914.113	15214
914.226	15176
914.34	15119
914.453	14956
914.566	15097
914.68	15009
914.793	15013
914.906	14731
915.019	14640
915.132	14579
915.245	14648
915.358	14849
915.47	14750
915.583	14670
915.696	14705
915.809	14800
915.921	14849
916.034	14689
916.146	14655
916.259	14583
916.371	14701
916.483	14682
916.595	14533
916.708	14610
916.82	14533
916.932	14522
917.044	14503
917.156	14556
917.268	14484
917.38	14393
917.491	14415
917.603	14434
917.715	14461
917.826	14480
917.938	14290
918.049	14214
918.161	14404
918.272	14507
918.384	14476
918.495	14301
918.606	14225
918.717	14172
918.828	14149
918.939	14191
919.05	14050
919.161	14103
919.272	14008
919.383	14008
919.494	14233
919.604	14324
919.715	14153
919.826	13947
919.936	14081
920.047	14199
920.157	14092
920.267	14305
920.378	14149
920.488	14111
920.598	14221
920.708	14366
920.818	14180
920.928	14244
921.038	14412
921.148	14286
921.258	14058
921.368	13970
921.477	13936
921.587	13830
921.697	13769
921.806	13894
921.916	13704
922.025	13578
922.134	13525
922.244	13487
922.353	13502
922.462	13468
922.571	13282
922.68	13274
922.789	13213
922.898	13198
923.007	13133
923.116	13103
923.224	13149
923.333	13164
923.442	13012
923.55	12966
923.659	13042
923.767	13103
923.876	12981
923.984	13080
924.092	12916
924.201	12894
924.309	12913
924.417	12958
924.525	12817
924.633	12943
924.741	13769
924.849	12654
924.956	12833
925.064	12711
925.172	12426
925.279	12646
925.387	12635
925.494	12604
925.602	12757
925.709	12703
925.816	12460
925.924	12563
926.031	12620
926.138	12513
926.245	12513
926.352	12414
926.459	12544
926.566	12627
926.673	12559
926.779	12395
926.886	12361
926.993	12235
927.099	12140
927.206	12114
927.312	12121
927.419	12224
927.525	12190
927.631	12205
927.737	12068
927.843	12045
927.95	11927
928.056	12064
928.162	12034
928.267	12076
928.373	12544
928.479	12045
928.585	11859
928.69	12034
928.796	12038
928.901	11923
929.007	11741
929.112	11885
929.218	11916
929.323	11756
929.428	11688
929.533	11836
929.638	11596
929.743	11748
929.848	11764
929.953	11608
930.058	11634
930.163	11414
930.267	11455
930.372	11535
930.477	11471
930.581	11672
930.685	11471
930.79	11349
930.894	11284
930.998	11273
931.103	11406
931.207	11117
931.311	10987
931.415	10858
931.519	10733
931.623	10637
