Data from test_V78500241_1609.txt Node
Date: Fri Mar 25 15:21:03 CST 2022
User: usil
Spectrometer: V785-0024
Trigger mode: 0
Integration Time (sec): 4.000000E-1
Scans to average: 1
Nonlinearity correction enabled: false
Boxcar width: 0
Storing dark spectrum: false
XAxis mode: Wavelengths
Number of Pixels in Spectrum: 1024
>>>>>Begin Spectral Data<<<<<
801.071	27835
801.214	27633
801.356	27321
801.499	27401
801.641	27264
801.783	27192
801.926	27192
802.068	27146
802.211	27070
802.353	27032
802.496	27047
802.638	26830
802.78	26823
802.923	26815
803.065	26849
803.208	26815
803.35	26815
803.492	27096
803.635	27005
803.777	26838
803.919	27039
804.061	27435
804.204	27074
804.346	27051
804.488	27013
804.63	27005
804.773	26948
804.915	27123
805.057	27077
805.199	26933
805.341	27146
805.483	27313
805.626	27096
805.768	27123
805.91	27321
806.052	27077
806.194	27074
806.336	27367
806.478	27043
806.62	27264
806.762	27245
806.904	27412
807.046	27724
807.188	27591
807.33	27545
807.472	27671
807.614	27576
807.756	27458
807.898	27469
808.04	27443
808.182	27424
808.324	27488
808.465	27595
808.607	27667
808.749	27785
808.891	27918
809.033	27949
809.174	27895
809.316	27713
809.458	27759
809.6	27747
809.741	27968
809.883	27880
810.025	28200
810.166	28086
810.308	28063
810.45	28025
810.591	28070
810.733	27873
810.875	27827
811.016	27656
811.158	27705
811.299	27918
811.441	27861
811.582	27968
811.724	27679
811.865	27816
812.007	27861
812.148	27880
812.29	27846
812.431	27956
812.573	28226
812.714	28284
812.855	28497
812.997	28508
813.138	28592
813.279	28500
813.421	28333
813.562	28371
813.703	28169
813.845	28006
813.986	27713
814.127	27564
814.268	27591
814.41	27557
814.551	27427
814.692	27523
814.833	27412
814.974	27447
815.115	27477
815.256	27294
815.397	27336
815.539	27515
815.68	27249
815.821	27222
815.962	27195
816.103	27313
816.244	27116
816.385	26990
816.526	26971
816.666	26830
816.807	26788
816.948	27032
817.089	26830
817.23	26689
817.371	26815
817.512	26792
817.653	26735
817.793	26838
817.934	26712
818.075	26693
818.216	26750
818.356	26701
818.497	26450
818.638	26511
818.778	26465
818.919	26541
819.06	26640
819.2	26613
819.341	26762
819.481	26724
819.622	26906
819.762	27138
819.903	26967
820.043	26933
820.184	26887
820.324	26845
820.465	26929
820.605	26811
820.746	26857
820.886	26632
821.026	26971
821.167	26868
821.307	26838
821.447	26785
821.588	26678
821.728	26438
821.868	26305
822.008	26210
822.149	26278
822.289	26195
822.429	25974
822.569	25871
822.709	25978
822.849	25837
822.99	25746
823.13	25750
823.27	25704
823.41	25510
823.55	25487
823.69	25594
823.83	25521
823.97	25571
824.11	25403
824.25	25350
824.389	25468
824.529	25400
824.669	25445
824.809	25491
824.949	25392
825.089	25533
825.228	25438
825.368	25118
825.508	25240
825.648	25240
825.787	25392
825.927	25255
826.067	25278
826.206	25354
826.346	25236
826.485	25327
826.625	25255
826.765	25335
826.904	25160
827.044	25034
827.183	24916
827.323	24958
827.462	25004
827.601	25103
827.741	24985
827.88	24901
828.02	24886
828.159	25027
828.298	24939
828.437	25095
828.577	24962
828.716	24958
828.855	24852
828.994	24658
829.134	24650
829.273	24642
829.412	24551
829.551	24650
829.69	24597
829.829	24665
829.968	24677
830.107	24764
830.246	24738
830.385	24574
830.524	24422
830.663	24414
830.802	24350
830.941	24235
831.08	24201
831.219	24281
831.357	24353
831.496	24525
831.635	24144
831.774	24327
831.913	24178
832.051	24140
832.19	23977
832.329	23980
832.467	23805
832.606	23817
832.744	23954
832.883	24049
833.022	23843
833.16	23961
833.299	23904
833.437	23958
833.576	23923
833.714	24053
833.852	24087
833.991	24125
834.129	24114
834.267	24068
834.406	24018
834.544	24049
834.682	23923
834.821	23931
834.959	24068
835.097	23828
835.235	23999
835.373	24038
835.511	24018
835.65	23847
835.788	23676
835.926	23824
836.064	23623
836.202	23722
836.34	23771
836.478	23984
836.615	23878
836.753	23703
836.891	23832
837.029	23874
837.167	23756
837.305	23809
837.443	23733
837.58	23771
837.718	23661
837.856	23615
837.993	23657
838.131	23524
838.269	23687
838.406	23589
838.544	23471
838.681	23227
838.819	23417
838.956	23121
839.094	23143
839.231	23102
839.369	23189
839.506	23520
839.643	23383
839.781	23231
839.918	23197
840.055	23071
840.193	23113
840.33	22972
840.467	23102
840.604	23064
840.742	23292
840.879	22965
841.016	22995
841.153	22904
841.29	23166
841.427	23136
841.564	23121
841.701	22995
841.838	22862
841.975	23029
842.112	23025
842.249	22812
842.385	22835
842.522	22930
842.659	22812
842.796	22839
842.933	22679
843.069	22717
843.206	22786
843.343	22786
843.479	22771
843.616	22911
843.752	22573
843.889	22580
844.025	22729
844.162	22512
844.298	22717
844.435	22485
844.571	22493
844.708	22542
844.844	22687
844.98	22763
845.117	22782
845.253	22542
845.389	22516
845.525	22382
845.661	22360
845.798	22348
845.934	22333
846.07	22234
846.206	22394
846.342	22428
846.478	22287
846.614	22036
846.75	22032
846.886	22204
847.022	22070
847.158	22158
847.294	22177
847.429	22044
847.565	22105
847.701	22329
847.837	21778
847.972	21778
848.108	21964
848.244	21949
848.379	21660
848.515	21728
848.65	21622
848.786	21610
848.921	21698
849.057	21774
849.192	21698
849.328	21774
849.463	21656
849.598	21610
849.734	21595
849.869	21492
850.004	21329
850.14	21424
850.275	21408
850.41	21382
850.545	21450
850.68	21344
850.815	21450
850.95	21397
851.085	21606
851.22	21424
851.355	21454
851.49	21325
851.625	21408
851.76	21492
851.895	21340
852.03	21401
852.165	21412
852.299	21382
852.434	21447
852.569	21408
852.703	21526
852.838	21462
852.973	21614
853.107	21583
853.242	21298
853.376	21203
853.511	21203
853.645	21123
853.78	21397
853.914	21268
854.048	21294
854.183	21249
854.317	21192
854.451	21408
854.585	21211
854.72	21233
854.854	21306
854.988	21184
855.122	21173
855.256	21093
855.39	21260
855.524	21329
855.658	21218
855.792	21275
855.926	21283
856.06	21237
856.194	21332
856.327	21237
856.461	21017
856.595	21127
856.729	21298
856.862	21336
856.996	21211
857.13	21279
857.263	21264
857.397	21252
857.53	21233
857.664	21283
857.797	21298
857.931	21401
858.064	21359
858.197	21401
858.331	21222
858.464	21123
858.597	21001
858.731	21169
858.864	21249
858.997	21218
859.13	21344
859.263	21287
859.396	21192
859.529	21218
859.662	21283
859.795	21195
859.928	21154
860.061	21420
860.194	21378
860.327	21252
860.46	21233
860.592	21298
860.725	21485
860.858	21222
860.99	21142
861.123	21146
861.256	21192
861.388	21226
861.521	21930
861.653	21108
861.786	20971
861.918	21108
862.05	21070
862.183	21051
862.315	21138
862.447	21119
862.58	21112
862.712	20891
862.844	20861
862.976	21104
863.108	21108
863.24	21298
863.372	21009
863.504	20918
863.636	20925
863.768	21062
863.9	20883
864.032	20921
864.164	21001
864.296	20937
864.428	21089
864.559	21009
864.691	20998
864.823	20979
864.954	20994
865.086	20929
865.217	20765
865.349	20864
865.48	20842
865.612	20800
865.743	20963
865.875	20842
866.006	20731
866.137	20826
866.269	20826
866.4	20925
866.531	20807
866.662	20762
866.793	20815
866.924	20758
867.055	20845
867.186	20849
867.317	20743
867.448	20746
867.579	20765
867.71	20655
867.841	20693
867.972	20902
868.103	20807
868.233	20880
868.364	20804
868.495	20899
868.625	20998
868.756	21009
868.886	20986
869.017	20979
869.147	21032
869.278	21093
869.408	21070
869.539	20986
869.669	20960
869.799	21096
869.929	21039
870.06	21222
870.19	21359
870.32	21302
870.45	21351
870.58	21485
870.71	21622
870.84	21481
870.97	21378
871.1	21389
871.23	21469
871.36	21542
871.489	21408
871.619	21614
871.749	21530
871.879	21720
872.008	21625
872.138	21751
872.267	21625
872.397	21488
872.526	21538
872.656	21431
872.785	21431
872.915	21709
873.044	21675
873.173	21671
873.303	21705
873.432	21736
873.561	21835
873.69	21496
873.819	21724
873.948	21755
874.077	21717
874.206	21576
874.335	21724
874.464	21751
874.593	21835
874.722	21759
874.851	21937
874.979	21964
875.108	21922
875.237	21800
875.365	21743
875.494	21804
875.623	21888
875.751	21778
875.88	21861
876.008	22044
876.136	22032
876.265	22207
876.393	22424
876.521	22291
876.65	22261
876.778	22173
876.906	22139
877.034	22131
877.162	22261
877.29	22055
877.418	22226
877.546	22207
877.674	22131
877.802	22120
877.93	22242
878.058	22093
878.185	22185
878.313	22173
878.441	22188
878.568	22048
878.696	22109
878.824	22257
878.951	22272
879.079	22382
879.206	22519
879.333	22360
879.461	22238
879.588	22295
879.715	22413
879.842	22519
879.97	22360
880.097	22055
880.224	21964
880.351	22010
880.478	22135
880.605	21975
880.732	21994
880.859	22188
880.986	21956
881.112	22006
881.239	21949
881.366	21812
881.493	21747
881.619	21431
881.746	21652
881.872	21606
881.999	21561
882.125	21557
882.252	21568
882.378	21595
882.505	21698
882.631	21466
882.757	21306
882.883	21370
883.01	21310
883.136	21157
883.262	21214
883.388	21096
883.514	21363
883.64	21287
883.766	21233
883.892	21013
884.018	21062
884.143	21222
884.269	21336
884.395	20925
884.52	21039
884.646	21001
884.772	20811
884.897	20712
885.023	20952
885.148	21127
885.274	21131
885.399	21096
885.524	20921
885.65	20952
885.775	20910
885.9	20918
886.025	20963
886.15	20990
886.275	20914
886.4	20845
886.525	20872
886.65	20906
886.775	20785
886.9	21081
887.025	21188
887.149	20967
887.274	20708
887.399	20693
887.523	20777
887.648	20670
887.773	20602
887.897	20697
888.021	20880
888.146	20746
888.27	20750
888.395	20731
888.519	20697
888.643	20701
888.767	20830
888.891	20644
889.015	20526
889.139	20541
889.263	20461
889.387	20617
889.511	20743
889.635	20530
889.759	20495
889.883	20473
890.006	20408
890.13	20518
890.254	20427
890.377	20442
890.501	20199
890.624	20134
890.748	20339
890.871	20237
890.995	20111
891.118	20100
891.241	20126
891.364	20145
891.488	20168
891.611	20077
891.734	20153
891.857	20199
891.98	20130
892.103	20065
892.226	20092
892.349	20062
892.471	19909
892.594	19890
892.717	20043
892.839	19936
892.962	19932
893.085	20043
893.207	19978
893.33	19799
893.452	19791
893.575	20035
893.697	20024
893.819	20164
893.941	20225
894.064	20107
894.186	19898
894.308	19883
894.43	20168
894.552	20069
894.674	20035
894.796	19917
894.918	19940
895.04	19871
895.161	20043
895.283	20043
895.405	19917
895.526	19909
895.648	19982
895.769	19925
895.891	19993
896.012	20088
896.134	20024
896.255	20043
896.376	19921
896.498	19925
896.619	20065
896.74	20065
896.861	19974
896.982	20278
897.103	20454
897.224	20180
897.345	20168
897.466	20103
897.587	20202
897.708	20282
897.828	20161
897.949	20043
898.07	20020
898.19	20199
898.311	20282
898.431	20168
898.552	20202
898.672	20301
898.792	20313
898.913	20298
899.033	20126
899.153	20012
899.273	19784
899.393	20046
899.513	20027
899.633	19928
899.753	19978
899.873	19875
899.993	20130
900.113	19917
900.232	19883
900.352	19883
900.472	19704
900.591	19670
900.711	19799
900.83	19712
900.95	19845
901.069	19917
901.189	19616
901.308	19449
901.427	19236
901.546	19426
901.665	19304
901.784	19331
901.904	19324
902.023	19141
902.141	18985
902.26	18852
902.379	18875
902.498	18734
902.617	18814
902.735	18829
902.854	18837
902.973	18757
903.091	18555
903.21	18528
903.328	18574
903.446	18407
903.565	18467
903.683	18372
903.801	18296
903.919	18178
904.038	18220
904.156	18117
904.274	18205
904.392	18072
904.51	18136
904.627	18140
904.745	18174
904.863	18194
904.981	17794
905.098	17783
905.216	17760
905.334	17722
905.451	17786
905.569	17741
905.686	17684
905.803	17748
905.921	17532
906.038	17649
906.155	17589
906.272	17455
906.389	17463
906.506	17288
906.623	17220
906.74	17307
906.857	17227
906.974	17185
907.091	17387
907.208	17356
907.324	17379
907.441	17208
907.557	17056
907.674	17079
907.79	17025
907.907	16942
908.023	16991
908.139	17147
908.256	16976
908.372	16831
908.488	16889
908.604	16782
908.72	16771
908.836	16759
908.952	16725
909.068	16797
909.184	16843
909.3	16713
909.415	16786
909.531	16835
909.647	16466
909.762	16424
909.878	16474
909.993	16440
910.108	16409
910.224	16382
910.339	16386
910.454	16291
910.57	16150
910.685	16128
910.8	16481
910.915	16322
911.03	16303
911.145	16006
911.259	16021
911.374	15972
911.489	15960
911.604	15899
911.718	15766
911.833	15781
911.947	15724
912.062	15564
912.176	15728
912.291	15781
912.405	15736
912.519	15991
912.633	15922
912.748	15755
912.862	15797
912.976	15576
913.09	15564
913.204	15564
913.318	15610
913.431	15713
913.545	15690
913.659	15671
913.772	15488
913.886	15408
914	15443
914.113	15572
914.226	15629
914.34	15397
914.453	15412
914.566	15447
914.68	15268
914.793	15363
914.906	15146
915.019	15017
915.132	14998
915.245	15009
915.358	15036
915.47	15032
915.583	15055
915.696	15028
915.809	15077
915.921	15116
916.034	14944
916.146	14891
916.259	14887
916.371	15043
916.483	14941
916.595	14864
916.708	14807
916.82	14876
916.932	14796
917.044	14720
917.156	14838
917.268	14674
917.38	14644
917.491	14651
917.603	14705
917.715	14689
917.826	14724
917.938	14606
918.049	14564
918.161	14617
918.272	14697
918.384	14720
918.495	14602
918.606	14381
918.717	14336
918.828	14400
918.939	14389
919.05	14362
919.161	14355
919.272	14187
919.383	14290
919.494	14476
919.604	14625
919.715	14351
919.826	14358
919.936	14404
920.047	14495
920.157	14442
920.267	14518
920.378	14438
920.488	14336
920.598	14575
920.708	14678
920.818	14583
920.928	14552
921.038	14564
921.148	14644
921.258	14214
921.368	14199
921.477	14153
921.587	14149
921.697	14065
921.806	14130
921.916	13932
922.025	13845
922.134	13795
922.244	13719
922.353	13761
922.462	13620
922.571	13449
922.68	13491
922.789	13411
922.898	13430
923.007	13327
923.116	13445
923.224	13445
923.333	13388
923.442	13308
923.55	13164
923.659	13285
923.767	13320
923.876	13129
923.984	13251
924.092	13091
924.201	13145
924.309	13198
924.417	13072
924.525	13110
924.633	13061
924.741	14020
924.849	12916
924.956	12993
925.064	12905
925.172	12776
925.279	12776
925.387	12875
925.494	12829
925.602	13008
925.709	12989
925.816	12696
925.924	12829
926.031	12867
926.138	12833
926.245	12741
926.352	12665
926.459	12833
926.566	12878
926.673	12753
926.779	12669
926.886	12559
926.993	12464
927.099	12441
927.206	12361
927.312	12372
927.419	12467
927.525	12479
927.631	12384
927.737	12239
927.843	12304
927.95	12068
928.056	12239
928.162	12251
928.267	12262
928.373	12848
928.479	12403
928.585	12110
928.69	12102
928.796	12224
928.901	12053
929.007	11935
929.112	12098
929.218	11988
929.323	12007
929.428	11942
929.533	12060
929.638	11805
929.743	11927
929.848	11950
929.953	11931
930.058	11828
930.163	11596
930.267	11608
930.372	11733
930.477	11600
930.581	11821
930.685	11718
930.79	11497
930.894	11509
930.998	11547
931.103	11627
931.207	11235
931.311	11227
931.415	11117
931.519	10866
931.623	10980
