Data from test_V78500241_951.txt Node
Date: Fri Mar 25 15:16:28 CST 2022
User: usil
Spectrometer: V785-0024
Trigger mode: 0
Integration Time (sec): 4.000000E-1
Scans to average: 1
Nonlinearity correction enabled: false
Boxcar width: 0
Storing dark spectrum: false
XAxis mode: Wavelengths
Number of Pixels in Spectrum: 1024
>>>>>Begin Spectral Data<<<<<
801.071	27972
801.214	28029
801.356	27739
801.499	27694
801.641	27561
801.783	27595
801.926	27648
802.068	27641
802.211	27469
802.353	27302
802.496	27184
802.638	27116
802.78	27203
802.923	27176
803.065	27192
803.208	27348
803.35	27150
803.492	27382
803.635	27389
803.777	27408
803.919	27492
804.061	27675
804.204	27450
804.346	27298
804.488	27256
804.63	27355
804.773	27336
804.915	27568
805.057	27534
805.199	27523
805.341	27515
805.483	27557
805.626	27572
805.768	27374
805.91	27526
806.052	27576
806.194	27530
806.336	27884
806.478	27477
806.62	27564
806.762	27603
806.904	27751
807.046	28090
807.188	27956
807.33	27911
807.472	27998
807.614	27903
807.756	27857
807.898	27804
808.04	27686
808.182	27831
808.324	27884
808.465	27747
808.607	28154
808.749	28139
808.891	28185
809.033	28337
809.174	28314
809.316	28234
809.458	28234
809.6	28219
809.741	28440
809.883	28394
810.025	28523
810.166	28451
810.308	28649
810.45	28341
810.591	28531
810.733	28128
810.875	28234
811.016	28078
811.158	28044
811.299	28291
811.441	28356
811.582	28348
811.724	28249
811.865	28143
812.007	28109
812.148	28025
812.29	28223
812.431	28386
812.573	28459
812.714	28626
812.855	28691
812.997	28885
813.138	28987
813.279	28900
813.421	28660
813.562	28706
813.703	28489
813.845	28371
813.986	28070
814.127	28086
814.268	27857
814.41	27895
814.551	27876
814.692	27956
814.833	27884
814.974	27842
815.115	27869
815.256	27739
815.397	27823
815.539	27816
815.68	27603
815.821	27652
815.962	27759
816.103	27698
816.244	27671
816.385	27542
816.526	27572
816.666	27393
816.807	27233
816.948	27302
817.089	27199
817.23	27283
817.371	27146
817.512	27325
817.653	27264
817.793	27093
817.934	27119
818.075	27298
818.216	27154
818.356	27180
818.497	27180
818.638	27001
818.778	26857
818.919	26838
819.06	27104
819.2	27184
819.341	27176
819.481	27245
819.622	27104
819.762	27530
819.903	27450
820.043	27462
820.184	27237
820.324	27298
820.465	27389
820.605	27386
820.746	27363
820.886	27275
821.026	27222
821.167	27321
821.307	27256
821.447	27344
821.588	27173
821.728	27093
821.868	26899
822.008	26606
822.149	26636
822.289	26651
822.429	26415
822.569	26332
822.709	26313
822.849	26263
822.99	26336
823.13	26119
823.27	26164
823.41	26024
823.55	25871
823.69	25959
823.83	26077
823.97	26012
824.11	25811
824.25	25879
824.389	25811
824.529	25917
824.669	25871
824.809	26024
824.949	26039
825.089	25936
825.228	25788
825.368	25715
825.508	25601
825.648	25830
825.787	25590
825.927	25647
826.067	25655
826.206	25761
826.346	25788
826.485	25639
826.625	25715
826.765	25871
826.904	25674
827.044	25487
827.183	25586
827.323	25346
827.462	25529
827.601	25472
827.741	25396
827.88	25426
828.02	25362
828.159	25422
828.298	25506
828.437	25487
828.577	25324
828.716	25586
828.855	25422
828.994	25148
829.134	25072
829.273	25297
829.412	25069
829.551	25084
829.69	25107
829.829	25209
829.968	25095
830.107	25206
830.246	25122
830.385	25171
830.524	25061
830.663	25034
830.802	24848
830.941	24661
831.08	24658
831.219	24996
831.357	24859
831.496	24890
831.635	24696
831.774	24779
831.913	24635
832.051	24570
832.19	24540
832.329	24467
832.467	24551
832.606	24475
832.744	24361
832.883	24445
833.022	24380
833.16	24365
833.299	24460
833.437	24517
833.576	24517
833.714	24570
833.852	24696
833.991	24486
834.129	24502
834.267	24426
834.406	24593
834.544	24631
834.682	24555
834.821	24410
834.959	24642
835.097	24445
835.235	24414
835.373	24475
835.511	24395
835.65	24490
835.788	24456
835.926	24171
836.064	24133
836.202	24216
836.34	24281
836.478	24525
836.615	24251
836.753	24376
836.891	24418
837.029	24350
837.167	24239
837.305	24201
837.443	24251
837.58	24121
837.718	24258
837.856	24270
837.993	24136
838.131	24064
838.269	23977
838.406	24110
838.544	24060
838.681	23798
838.819	23840
838.956	23771
839.094	23661
839.231	23695
839.369	23851
839.506	24087
839.643	23992
839.781	23805
839.918	23630
840.055	23627
840.193	23646
840.33	23520
840.467	23619
840.604	23604
840.742	23802
840.879	23505
841.016	23497
841.153	23429
841.29	23562
841.427	23649
841.564	23467
841.701	23566
841.838	23402
841.975	23383
842.112	23360
842.249	23296
842.385	23391
842.522	23463
842.659	23273
842.796	23303
842.933	23337
843.069	23231
843.206	23181
843.343	23337
843.479	23299
843.616	23242
843.752	23140
843.889	23086
844.025	23220
844.162	23143
844.298	23246
844.435	23090
844.571	22976
844.708	23079
844.844	23296
844.98	23273
845.117	23166
845.253	22919
845.389	22923
845.525	22976
845.661	22927
845.798	22790
845.934	22881
846.07	22759
846.206	22904
846.342	22987
846.478	22649
846.614	22565
846.75	22519
846.886	22462
847.022	22569
847.158	22596
847.294	22531
847.429	22634
847.565	22550
847.701	22778
847.837	22333
847.972	22272
848.108	22314
848.244	22367
848.379	22097
848.515	22215
848.65	22040
848.786	22196
848.921	22147
849.057	22162
849.192	22173
849.328	22295
849.463	22249
849.598	22013
849.734	22086
849.869	22002
850.004	21968
850.14	22021
850.275	21945
850.41	21831
850.545	21903
850.68	21892
850.815	21998
850.95	21918
851.085	22063
851.22	22032
851.355	21998
851.49	21880
851.625	21789
851.76	21861
851.895	21816
852.03	21789
852.165	21846
852.299	21956
852.434	21956
852.569	21926
852.703	21960
852.838	21998
852.973	21956
853.107	22032
853.242	21907
853.376	21823
853.511	21633
853.645	21778
853.78	21766
853.914	21759
854.048	21701
854.183	21690
854.317	21903
854.451	21869
854.585	21736
854.72	21701
854.854	21781
854.988	21656
855.122	21705
855.256	21629
855.39	21690
855.524	21724
855.658	21728
855.792	21736
855.926	21762
856.06	21804
856.194	21785
856.327	21675
856.461	21728
856.595	21576
856.729	21705
856.862	21873
856.996	21800
857.13	21854
857.263	21880
857.397	21842
857.53	21747
857.664	21747
857.797	21812
857.931	21873
858.064	21785
858.197	21789
858.331	21720
858.464	21572
858.597	21660
858.731	21633
858.864	21622
858.997	21675
859.13	21709
859.263	21778
859.396	21770
859.529	21717
859.662	21789
859.795	21800
859.928	21652
860.061	21903
860.194	21994
860.327	21732
860.46	21766
860.592	21819
860.725	21865
860.858	21880
860.99	21720
861.123	21705
861.256	21599
861.388	21850
861.521	22344
861.653	21625
861.786	21477
861.918	21485
862.05	21595
862.183	21580
862.315	21595
862.447	21709
862.58	21641
862.712	21367
862.844	21329
862.976	21500
863.108	21500
863.24	21972
863.372	21313
863.504	21439
863.636	21393
863.768	21450
863.9	21401
864.032	21249
864.164	21317
864.296	21477
864.428	21492
864.559	21450
864.691	21458
864.823	21363
864.954	21530
865.086	21378
865.217	21313
865.349	21245
865.48	21275
865.612	21359
865.743	21492
865.875	21382
866.006	21496
866.137	21325
866.269	21355
866.4	21245
866.531	21336
866.662	21161
866.793	21264
866.924	21233
867.055	21226
867.186	21283
867.317	21176
867.448	21154
867.579	21146
867.71	21119
867.841	21165
867.972	21218
868.103	21173
868.233	21218
868.364	21279
868.495	21329
868.625	21428
868.756	21625
868.886	21519
869.017	21690
869.147	21568
869.278	21751
869.408	21511
869.539	21485
869.669	21614
869.799	21568
869.929	21614
870.06	21629
870.19	21713
870.32	21679
870.45	21781
870.58	21926
870.71	22010
870.84	21934
870.97	21895
871.1	21880
871.23	22055
871.36	22116
871.489	21934
871.619	22002
871.749	22055
871.879	22029
872.008	22204
872.138	22078
872.267	21983
872.397	21937
872.526	21937
872.656	21911
872.785	21888
872.915	22169
873.044	22105
873.173	22109
873.303	22067
873.432	22051
873.561	22215
873.69	22128
873.819	22048
873.948	22097
874.077	21998
874.206	22036
874.335	22078
874.464	22192
874.593	22405
874.722	22284
874.851	22356
874.979	22329
875.108	22314
875.237	22314
875.365	22204
875.494	22219
875.623	22417
875.751	22295
875.88	22375
876.008	22500
876.136	22611
876.265	22759
876.393	22790
876.521	22831
876.65	22752
876.778	22683
876.906	22675
877.034	22622
877.162	22679
877.29	22592
877.418	22634
877.546	22725
877.674	22691
877.802	22504
877.93	22603
878.058	22653
878.185	22481
878.313	22535
878.441	22603
878.568	22519
878.696	22733
878.824	22725
878.951	22820
879.079	22812
879.206	22873
879.333	22774
879.461	22668
879.588	22816
879.715	22767
879.842	22896
879.97	22797
880.097	22504
880.224	22478
880.351	22447
880.478	22489
880.605	22516
880.732	22516
880.859	22733
880.986	22508
881.112	22504
881.239	22348
881.366	22284
881.493	22139
881.619	22097
881.746	22093
881.872	21953
881.999	22128
882.125	22051
882.252	22116
882.378	22013
882.505	22013
882.631	21915
882.757	21671
882.883	21713
883.01	21736
883.136	21675
883.262	21633
883.388	21511
883.514	21720
883.64	21751
883.766	21591
883.892	21526
884.018	21511
884.143	21656
884.269	21747
884.395	21564
884.52	21302
884.646	21344
884.772	21405
884.897	21264
885.023	21386
885.148	21477
885.274	21599
885.399	21545
885.524	21348
885.65	21420
885.775	21340
885.9	21313
886.025	21439
886.15	21462
886.275	21424
886.4	21317
886.525	21420
886.65	21260
886.775	21359
886.9	21321
887.025	21553
887.149	21397
887.274	21336
887.399	21104
887.523	21150
887.648	21104
887.773	21146
887.897	21165
888.021	21207
888.146	21123
888.27	21218
888.395	21355
888.519	21100
888.643	21135
888.767	21192
888.891	21108
889.015	20944
889.139	21077
889.263	20834
889.387	21032
889.511	21131
889.635	21055
889.759	20906
889.883	20948
890.006	20914
890.13	20921
890.254	20918
890.377	20743
890.501	20708
890.624	20682
890.748	20659
890.871	20613
890.995	20583
891.118	20484
891.241	20587
891.364	20522
891.488	20659
891.611	20393
891.734	20560
891.857	20629
891.98	20480
892.103	20579
892.226	20537
892.349	20473
892.471	20275
892.594	20473
892.717	20514
892.839	20389
892.962	20530
893.085	20415
893.207	20423
893.33	20347
893.452	20351
893.575	20415
893.697	20396
893.819	20549
893.941	20587
894.064	20503
894.186	20298
894.308	20374
894.43	20492
894.552	20556
894.674	20442
894.796	20252
894.918	20556
895.04	20267
895.161	20457
895.283	20454
895.405	20381
895.526	20476
895.648	20374
895.769	20412
895.891	20480
896.012	20374
896.134	20560
896.255	20434
896.376	20396
896.498	20366
896.619	20434
896.74	20374
896.861	20507
896.982	20716
897.103	20880
897.224	20678
897.345	20606
897.466	20613
897.587	20667
897.708	20796
897.828	20465
897.949	20526
898.07	20480
898.19	20454
898.311	20724
898.431	20587
898.552	20613
898.672	20549
898.792	20583
898.913	20587
899.033	20590
899.153	20412
899.273	20282
899.393	20214
899.513	20389
899.633	20267
899.753	20355
899.873	20370
899.993	20389
900.113	20370
900.232	20317
900.352	20256
900.472	20202
900.591	20172
900.711	20134
900.83	20088
900.95	20180
901.069	20206
901.189	19928
901.308	19746
901.427	19620
901.546	19704
901.665	19666
901.784	19632
901.904	19597
902.023	19438
902.141	19255
902.26	19202
902.379	19316
902.498	19308
902.617	19187
902.735	19225
902.854	19171
902.973	19110
903.091	18882
903.21	18848
903.328	18871
903.446	18726
903.565	18734
903.683	18673
903.801	18715
903.919	18593
904.038	18635
904.156	18452
904.274	18540
904.392	18350
904.51	18399
904.627	18426
904.745	18460
904.863	18547
904.981	18266
905.098	18110
905.216	18243
905.334	18098
905.451	18155
905.569	18136
905.686	18041
905.803	18167
905.921	17961
906.038	17942
906.155	17904
906.272	17851
906.389	17866
906.506	17585
906.623	17745
906.74	17676
906.857	17520
906.974	17539
907.091	17790
907.208	17855
907.324	17649
907.441	17478
907.557	17512
907.674	17356
907.79	17387
907.907	17360
908.023	17322
908.139	17391
908.256	17299
908.372	17227
908.488	17273
908.604	17193
908.72	17140
908.836	17128
908.952	17109
909.068	16984
909.184	17223
909.3	17018
909.415	17075
909.531	17102
909.647	16843
909.762	16755
909.878	16797
909.993	16908
910.108	16805
910.224	16687
910.339	16774
910.454	16698
910.57	16698
910.685	16523
910.8	16763
910.915	16782
911.03	16592
911.145	16569
911.259	16379
911.374	16451
911.489	16386
911.604	16325
911.718	16226
911.833	16059
911.947	16002
912.062	15911
912.176	16154
912.291	16078
912.405	16135
912.519	16249
912.633	16226
912.748	16154
912.862	16006
912.976	15895
913.09	15816
913.204	15857
913.318	15998
913.431	15987
913.545	15968
913.659	16059
913.772	15937
913.886	15732
914	15717
914.113	15892
914.226	15797
914.34	15800
914.453	15686
914.566	15770
914.68	15603
914.793	15591
914.906	15397
915.019	15329
915.132	15325
915.245	15351
915.358	15389
915.47	15382
915.583	15283
915.696	15397
915.809	15485
915.921	15523
916.034	15207
916.146	15272
916.259	15321
916.371	15294
916.483	15245
916.595	15260
916.708	15146
916.82	15237
916.932	15173
917.044	15119
917.156	15028
917.268	14982
917.38	14944
917.491	14929
917.603	15097
917.715	15104
917.826	14971
917.938	14918
918.049	14876
918.161	14906
918.272	14982
918.384	15028
918.495	14849
918.606	14735
918.717	14674
918.828	14735
918.939	14739
919.05	14655
919.161	14731
919.272	14541
919.383	14549
919.494	14682
919.604	14971
919.715	14590
919.826	14636
919.936	14640
920.047	14769
920.157	14689
920.267	14845
920.378	14678
920.488	14674
920.598	14849
920.708	14986
920.818	14876
920.928	14830
921.038	14948
921.148	14906
921.258	14708
921.368	14488
921.477	14434
921.587	14351
921.697	14237
921.806	14457
921.916	14187
922.025	14050
922.134	14031
922.244	13993
922.353	14069
922.462	13940
922.571	13803
922.68	13715
922.789	13613
922.898	13658
923.007	13666
923.116	13700
923.224	13662
923.333	13647
923.442	13544
923.55	13521
923.659	13556
923.767	13605
923.876	13480
923.984	13567
924.092	13419
924.201	13480
924.309	13411
924.417	13422
924.525	13400
924.633	13312
924.741	14271
924.849	13190
924.956	13293
925.064	13164
925.172	13019
925.279	13099
925.387	13107
925.494	13145
925.602	13247
925.709	13194
925.816	12996
925.924	13046
926.031	13179
926.138	12981
926.245	13091
926.352	12924
926.459	13072
926.566	13107
926.673	12958
926.779	12837
926.886	12844
926.993	12681
927.099	12707
927.206	12646
927.312	12669
927.419	12650
927.525	12673
927.631	12669
927.737	12612
927.843	12525
927.95	12353
928.056	12521
928.162	12471
928.267	12570
928.373	13206
928.479	12547
928.585	12334
928.69	12433
928.796	12479
928.901	12270
929.007	12266
929.112	12346
929.218	12334
929.323	12235
929.428	12205
929.533	12334
929.638	12197
929.743	12098
929.848	12201
929.953	12213
930.058	12041
930.163	11836
930.267	11927
930.372	12030
930.477	11863
930.581	12125
930.685	11965
930.79	11790
930.894	11688
930.998	11737
931.103	11866
931.207	11505
931.311	11551
931.415	11364
931.519	11181
931.623	11208
