Data from test_V78500241_2002.txt Node
Date: Fri Mar 25 15:23:47 CST 2022
User: usil
Spectrometer: V785-0024
Trigger mode: 0
Integration Time (sec): 4.000000E-1
Scans to average: 1
Nonlinearity correction enabled: false
Boxcar width: 0
Storing dark spectrum: false
XAxis mode: Wavelengths
Number of Pixels in Spectrum: 1024
>>>>>Begin Spectral Data<<<<<
801.071	27713
801.214	27542
801.356	27378
801.499	27241
801.641	27279
801.783	27108
801.926	27268
802.068	27142
802.211	27032
802.353	27161
802.496	26944
802.638	26902
802.78	26883
802.923	26750
803.065	26724
803.208	26777
803.35	26762
803.492	26921
803.635	27051
803.777	26971
803.919	27093
804.061	27256
804.204	27116
804.346	26998
804.488	26937
804.63	26948
804.773	27020
804.915	27047
805.057	27032
805.199	27017
805.341	27081
805.483	27195
805.626	27176
805.768	27142
805.91	27211
806.052	27108
806.194	27055
806.336	27321
806.478	27108
806.62	27009
806.762	27252
806.904	27420
807.046	27549
807.188	27553
807.33	27492
807.472	27595
807.614	27416
807.756	27637
807.898	27427
808.04	27370
808.182	27317
808.324	27329
808.465	27473
808.607	27675
808.749	27812
808.891	27804
809.033	27964
809.174	27770
809.316	27739
809.458	27709
809.6	27842
809.741	27907
809.883	27857
810.025	27998
810.166	28211
810.308	28044
810.45	27953
810.591	27800
810.733	27739
810.875	27736
811.016	27648
811.158	27595
811.299	27854
811.441	27785
811.582	27876
811.724	27789
811.865	27641
812.007	27728
812.148	27816
812.29	27793
812.431	27975
812.573	28196
812.714	28070
812.855	28211
812.997	28287
813.138	28466
813.279	28299
813.421	28181
813.562	28185
813.703	28086
813.845	27949
813.986	27717
814.127	27443
814.268	27523
814.41	27412
814.551	27382
814.692	27545
814.833	27310
814.974	27424
815.115	27386
815.256	27287
815.397	27249
815.539	27401
815.68	27157
815.821	27089
815.962	27275
816.103	27150
816.244	27272
816.385	27028
816.526	27028
816.666	26727
816.807	26659
816.948	26743
817.089	26929
817.23	26731
817.371	26705
817.512	26621
817.653	26705
817.793	26678
817.934	26701
818.075	26708
818.216	26613
818.356	26754
818.497	26499
818.638	26461
818.778	26575
818.919	26495
819.06	26507
819.2	26590
819.341	26716
819.481	26674
819.622	26849
819.762	27074
819.903	26887
820.043	26963
820.184	26857
820.324	26807
820.465	26853
820.605	26792
820.746	26674
820.886	26575
821.026	26720
821.167	26758
821.307	26746
821.447	26655
821.588	26579
821.728	26389
821.868	26362
822.008	26157
822.149	26195
822.289	26161
822.429	25944
822.569	25788
822.709	25761
822.849	25594
822.99	25537
823.13	25696
823.27	25662
823.41	25518
823.55	25350
823.69	25578
823.83	25419
823.97	25499
824.11	25244
824.25	25251
824.389	25320
824.529	25331
824.669	25285
824.809	25335
824.949	25350
825.089	25289
825.228	25259
825.368	25179
825.508	25202
825.648	25202
825.787	25289
825.927	25198
826.067	25225
826.206	25304
826.346	25278
826.485	25160
826.625	25099
826.765	25259
826.904	25137
827.044	25061
827.183	24901
827.323	24878
827.462	25023
827.601	24878
827.741	24958
827.88	24901
828.02	24913
828.159	24894
828.298	24783
828.437	25023
828.577	24966
828.716	24962
828.855	24787
828.994	24540
829.134	24757
829.273	24547
829.412	24544
829.551	24437
829.69	24612
829.829	24574
829.968	24703
830.107	24665
830.246	24612
830.385	24513
830.524	24498
830.663	24498
830.802	24266
830.941	24262
831.08	24209
831.219	24239
831.357	24247
831.496	24353
831.635	24228
831.774	24155
831.913	23961
832.051	23939
832.19	23988
832.329	23923
832.467	23992
832.606	23855
832.744	23824
832.883	23710
833.022	23927
833.16	23897
833.299	23954
833.437	24011
833.576	23946
833.714	23920
833.852	24038
833.991	23973
834.129	24060
834.267	24015
834.406	23942
834.544	24038
834.682	23950
834.821	23927
834.959	24213
835.097	23916
835.235	23973
835.373	23980
835.511	23908
835.65	23703
835.788	23684
835.926	23828
836.064	23570
836.202	23695
836.34	23882
836.478	23805
836.615	23745
836.753	23817
836.891	23767
837.029	23824
837.167	23703
837.305	23672
837.443	23615
837.58	23566
837.718	23707
837.856	23741
837.993	23592
838.131	23512
838.269	23486
838.406	23463
838.544	23543
838.681	23261
838.819	23212
838.956	23124
839.094	23067
839.231	23109
839.369	23303
839.506	23444
839.643	23406
839.781	23102
839.918	23117
840.055	23174
840.193	23037
840.33	22999
840.467	23037
840.604	23064
840.742	23368
840.879	22809
841.016	22904
841.153	23006
841.29	23143
841.427	22911
841.564	23071
841.701	22980
841.838	23010
841.975	22904
842.112	22938
842.249	22755
842.385	22706
842.522	23079
842.659	22801
842.796	22797
842.933	22824
843.069	22653
843.206	22755
843.343	22885
843.479	22717
843.616	22729
843.752	22535
843.889	22580
844.025	22706
844.162	22580
844.298	22721
844.435	22542
844.571	22405
844.708	22660
844.844	22660
844.98	22790
845.117	22679
845.253	22519
845.389	22348
845.525	22405
845.661	22379
845.798	22253
845.934	22284
846.07	22348
846.206	22219
846.342	22478
846.478	22234
846.614	22021
846.75	22025
846.886	22013
847.022	22082
847.158	21869
847.294	22010
847.429	22032
847.565	21975
847.701	22166
847.837	21857
847.972	21819
848.108	21888
848.244	21766
848.379	21580
848.515	21622
848.65	21481
848.786	21656
848.921	21420
849.057	21675
849.192	21667
849.328	21694
849.463	21599
849.598	21633
849.734	21481
849.869	21564
850.004	21412
850.14	21488
850.275	21386
850.41	21275
850.545	21386
850.68	21275
850.815	21416
850.95	21351
851.085	21637
851.22	21561
851.355	21431
851.49	21439
851.625	21310
851.76	21142
851.895	21306
852.03	21264
852.165	21351
852.299	21359
852.434	21523
852.569	21401
852.703	21279
852.838	21424
852.973	21401
853.107	21439
853.242	21332
853.376	21100
853.511	21077
853.645	21195
853.78	21302
853.914	21310
854.048	21127
854.183	21066
854.317	21195
854.451	21374
854.585	21256
854.72	21108
854.854	21245
854.988	21176
855.122	21119
855.256	21093
855.39	21214
855.524	21245
855.658	21275
855.792	21195
855.926	21180
856.06	21256
856.194	21363
856.327	21260
856.461	20990
856.595	21214
856.729	21176
856.862	21264
856.996	21321
857.13	21195
857.263	21249
857.397	21192
857.53	21062
857.664	21203
857.797	21233
857.931	21344
858.064	21184
858.197	21302
858.331	21100
858.464	21150
858.597	21104
858.731	21207
858.864	21169
858.997	21192
859.13	21241
859.263	21207
859.396	21157
859.529	21146
859.662	21154
859.795	21138
859.928	21283
860.061	21439
860.194	21389
860.327	21207
860.46	21306
860.592	21241
860.725	21268
860.858	21325
860.99	21188
861.123	21096
861.256	21032
861.388	21279
861.521	21717
861.653	21138
861.786	20982
861.918	21066
862.05	21036
862.183	21123
862.315	21161
862.447	21089
862.58	21100
862.712	20838
862.844	21005
862.976	20910
863.108	20933
863.24	21450
863.372	20830
863.504	20921
863.636	20880
863.768	20990
863.9	20861
864.032	20823
864.164	20937
864.296	20975
864.428	20963
864.559	20944
864.691	21043
864.823	20910
864.954	20762
865.086	20971
865.217	20758
865.349	20705
865.48	20746
865.612	20830
865.743	20906
865.875	20880
866.006	20800
866.137	20804
866.269	20777
866.4	20758
866.531	20667
866.662	20746
866.793	20811
866.924	20739
867.055	20697
867.186	20765
867.317	20708
867.448	20632
867.579	20701
867.71	20598
867.841	20682
867.972	20762
868.103	20686
868.233	20705
868.364	20743
868.495	20769
868.625	20937
868.756	21116
868.886	20990
869.017	20941
869.147	21005
869.278	21028
869.408	21055
869.539	21062
869.669	21085
869.799	20929
869.929	21173
870.06	21150
870.19	21294
870.32	21195
870.45	21325
870.58	21241
870.71	21443
870.84	21481
870.97	21473
871.1	21428
871.23	21488
871.36	21648
871.489	21477
871.619	21504
871.749	21504
871.879	21561
872.008	21587
872.138	21663
872.267	21587
872.397	21526
872.526	21370
872.656	21336
872.785	21424
872.915	21572
873.044	21778
873.173	21648
873.303	21625
873.432	21641
873.561	21671
873.69	21606
873.819	21530
873.948	21671
874.077	21587
874.206	21507
874.335	21599
874.464	21785
874.593	21667
874.722	21720
874.851	22025
874.979	21793
875.108	21903
875.237	21717
875.365	21701
875.494	21831
875.623	21888
875.751	21846
875.88	21812
876.008	21934
876.136	22017
876.265	22158
876.393	22337
876.521	22291
876.65	22280
876.778	22249
876.906	22158
877.034	22135
877.162	22261
877.29	22078
877.418	22169
877.546	22219
877.674	22169
877.802	22238
877.93	22120
878.058	22139
878.185	22021
878.313	22013
878.441	22090
878.568	21975
878.696	22177
878.824	22181
878.951	22181
879.079	22272
879.206	22447
879.333	22211
879.461	22280
879.588	22223
879.715	22379
879.842	22478
879.97	22128
880.097	21926
880.224	21907
880.351	22082
880.478	21937
880.605	21911
880.732	21873
880.859	22188
880.986	21956
881.112	21956
881.239	21812
881.366	21759
881.493	21629
881.619	21606
881.746	21625
881.872	21515
881.999	21492
882.125	21473
882.252	21580
882.378	21523
882.505	21667
882.631	21416
882.757	21351
882.883	21332
883.01	21386
883.136	21146
883.262	21241
883.388	21093
883.514	21321
883.64	21332
883.766	21241
883.892	21028
884.018	21085
884.143	21275
884.269	21332
884.395	21017
884.52	20876
884.646	20914
884.772	20849
884.897	20781
885.023	20830
885.148	21009
885.274	21020
885.399	20952
885.524	20944
885.65	20910
885.775	20857
885.9	20979
886.025	20918
886.15	20956
886.275	20838
886.4	20785
886.525	20842
886.65	20819
886.775	20735
886.9	21001
887.025	21017
887.149	20811
887.274	20682
887.399	20762
887.523	20594
887.648	20609
887.773	20495
887.897	20686
888.021	20785
888.146	20613
888.27	20830
888.395	20773
888.519	20659
888.643	20769
888.767	20651
888.891	20442
889.015	20457
889.139	20492
889.263	20480
889.387	20571
889.511	20739
889.635	20621
889.759	20499
889.883	20339
890.006	20503
890.13	20530
890.254	20438
890.377	20431
890.501	20221
890.624	20218
890.748	20298
890.871	20225
890.995	20043
891.118	19970
891.241	20062
891.364	19993
891.488	20164
891.611	19989
891.734	20008
891.857	20176
891.98	20130
892.103	20039
892.226	20176
892.349	19967
892.471	19799
892.594	19868
892.717	20031
892.839	19856
892.962	19963
893.085	19997
893.207	19959
893.33	19875
893.452	19906
893.575	19917
893.697	19871
893.819	20142
893.941	20088
894.064	20149
894.186	19871
894.308	19887
894.43	20054
894.552	20046
894.674	20016
894.796	19925
894.918	19993
895.04	19856
895.161	20077
895.283	19978
895.405	19875
895.526	19879
895.648	19841
895.769	20008
895.891	19856
896.012	19989
896.134	20027
896.255	19967
896.376	19928
896.498	19944
896.619	19993
896.74	19940
896.861	19921
896.982	20339
897.103	20404
897.224	20069
897.345	20199
897.466	19978
897.587	20126
897.708	20244
897.828	20278
897.949	20145
898.07	20092
898.19	20134
898.311	20377
898.431	20168
898.552	20206
898.672	20187
898.792	20218
898.913	20134
899.033	20046
899.153	19925
899.273	19894
899.393	19974
899.513	20088
899.633	19993
899.753	19879
899.873	19890
899.993	19902
900.113	19883
900.232	19890
900.352	19875
900.472	19795
900.591	19689
900.711	19662
900.83	19765
900.95	19704
901.069	19811
901.189	19651
901.308	19464
901.427	19247
901.546	19316
901.665	19362
901.784	19346
901.904	19148
902.023	19179
902.141	18909
902.26	18753
902.379	18863
902.498	18837
902.617	18821
902.735	18913
902.854	18863
902.973	18700
903.091	18593
903.21	18464
903.328	18452
903.446	18403
903.565	18350
903.683	18426
903.801	18201
903.919	18144
904.038	18220
904.156	18030
904.274	18144
904.392	17996
904.51	18064
904.627	18087
904.745	18019
904.863	18072
904.981	17847
905.098	17691
905.216	17672
905.334	17771
905.451	17809
905.569	17695
905.686	17741
905.803	17714
905.921	17433
906.038	17532
906.155	17562
906.272	17421
906.389	17558
906.506	17307
906.623	17315
906.74	17311
906.857	17227
906.974	17193
907.091	17345
907.208	17360
907.324	17261
907.441	17242
907.557	17075
907.674	16972
907.79	16957
907.907	16965
908.023	17071
908.139	17105
908.256	16965
908.372	16896
908.488	16927
908.604	16778
908.72	16542
908.836	16622
908.952	16622
909.068	16679
909.184	16736
909.3	16759
909.415	16736
909.531	16717
909.647	16424
909.762	16352
909.878	16337
909.993	16474
910.108	16371
910.224	16390
910.339	16325
910.454	16253
910.57	16162
910.685	16128
910.8	16489
910.915	16360
911.03	16299
911.145	15987
911.259	15994
911.374	16044
911.489	15960
911.604	15911
911.718	15789
911.833	15751
911.947	15675
912.062	15580
912.176	15724
912.291	15709
912.405	15686
912.519	15907
912.633	15937
912.748	15698
912.862	15732
912.976	15614
913.09	15401
913.204	15561
913.318	15496
913.431	15667
913.545	15644
913.659	15641
913.772	15515
913.886	15344
914	15420
914.113	15469
914.226	15477
914.34	15363
914.453	15264
914.566	15374
914.68	15279
914.793	15154
914.906	15058
915.019	14880
915.132	14925
915.245	14883
915.358	14967
915.47	14914
915.583	15009
915.696	15028
915.809	15017
915.921	15074
916.034	14925
916.146	14815
916.259	14925
916.371	15005
916.483	14941
916.595	14838
916.708	14815
916.82	14777
916.932	14834
917.044	14697
917.156	14659
917.268	14712
917.38	14644
917.491	14590
917.603	14708
917.715	14758
917.826	14697
917.938	14678
918.049	14438
918.161	14659
918.272	14705
918.384	14750
918.495	14587
918.606	14537
918.717	14347
918.828	14469
918.939	14457
919.05	14381
919.161	14332
919.272	14210
919.383	14210
919.494	14427
919.604	14583
919.715	14457
919.826	14324
919.936	14347
920.047	14579
920.157	14328
920.267	14495
920.378	14355
920.488	14339
920.598	14545
920.708	14712
920.818	14461
920.928	14541
921.038	14625
921.148	14469
921.258	14286
921.368	14176
921.477	14073
921.587	14077
921.697	13970
921.806	14103
921.916	13989
922.025	13795
922.134	13811
922.244	13780
922.353	13811
922.462	13651
922.571	13525
922.68	13392
922.789	13403
922.898	13396
923.007	13381
923.116	13483
923.224	13438
923.333	13411
923.442	13202
923.55	13168
923.659	13236
923.767	13263
923.876	13187
923.984	13270
924.092	13042
924.201	13183
924.309	13122
924.417	13240
924.525	13031
924.633	13088
924.741	13784
924.849	12871
924.956	13088
925.064	12856
925.172	12764
925.279	12806
925.387	12886
925.494	12863
925.602	12886
925.709	12837
925.816	12681
925.924	12791
926.031	12901
926.138	12677
926.245	12817
926.352	12681
926.459	12817
926.566	12791
926.673	12749
926.779	12650
926.886	12658
926.993	12441
927.099	12433
927.206	12334
927.312	12399
927.419	12407
927.525	12350
927.631	12456
927.737	12251
927.843	12247
927.95	12106
928.056	12190
928.162	12190
928.267	12254
928.373	12806
928.479	12353
928.585	12087
928.69	12159
928.796	12213
928.901	12072
929.007	11988
929.112	12114
929.218	12079
929.323	11973
929.428	11942
929.533	12083
929.638	11939
929.743	11824
929.848	11916
929.953	11931
930.058	11722
930.163	11672
930.267	11573
930.372	11661
930.477	11596
930.581	11790
930.685	11627
930.79	11444
930.894	11592
930.998	11532
931.103	11676
931.207	11220
931.311	11212
931.415	11201
931.519	10938
931.623	10892
