Data from test_V78500241_431.txt Node
Date: Fri Mar 25 15:12:51 CST 2022
User: usil
Spectrometer: V785-0024
Trigger mode: 0
Integration Time (sec): 4.000000E-1
Scans to average: 1
Nonlinearity correction enabled: false
Boxcar width: 0
Storing dark spectrum: false
XAxis mode: Wavelengths
Number of Pixels in Spectrum: 1024
>>>>>Begin Spectral Data<<<<<
801.071	27058
801.214	26956
801.356	26823
801.499	26735
801.641	26689
801.783	26632
801.926	26640
802.068	26606
802.211	26522
802.353	26469
802.496	26294
802.638	26237
802.78	26317
802.923	26122
803.065	26195
803.208	26187
803.35	26324
803.492	26149
803.635	26465
803.777	26343
803.919	26408
804.061	26640
804.204	26480
804.346	26282
804.488	26187
804.63	26434
804.773	26385
804.915	26301
805.057	26423
805.199	26431
805.341	26385
805.483	26511
805.626	26442
805.768	26412
805.91	26514
806.052	26583
806.194	26453
806.336	26769
806.478	26461
806.62	26465
806.762	26705
806.904	26758
807.046	27043
807.188	26948
807.33	26906
807.472	26940
807.614	26853
807.756	26792
807.898	26743
808.04	26758
808.182	26667
808.324	26727
808.465	26689
808.607	26918
808.749	26914
808.891	27222
809.033	27294
809.174	27100
809.316	27119
809.458	27077
809.6	27058
809.741	27070
809.883	27169
810.025	27317
810.166	27420
810.308	27359
810.45	27355
810.591	27279
810.733	27207
810.875	27005
811.016	27066
811.158	27066
811.299	27249
811.441	27089
811.582	27138
811.724	26937
811.865	27013
812.007	27055
812.148	26929
812.29	27055
812.431	27165
812.573	27355
812.714	27504
812.855	27641
812.997	27743
813.138	27850
813.279	27644
813.421	27614
813.562	27519
813.703	27439
813.845	27199
813.986	27070
814.127	26678
814.268	26796
814.41	26830
814.551	26712
814.692	26765
814.833	26720
814.974	26640
815.115	26712
815.256	26522
815.397	26625
815.539	26431
815.68	26621
815.821	26473
815.962	26492
816.103	26453
816.244	26298
816.385	26267
816.526	26278
816.666	26107
816.807	25986
816.948	26111
817.089	26153
817.23	26088
817.371	25955
817.512	26058
817.653	26054
817.793	26058
817.934	26012
818.075	26100
818.216	26138
818.356	25974
818.497	25936
818.638	25780
818.778	25849
818.919	25738
819.06	25807
819.2	25959
819.341	25928
819.481	25932
819.622	26084
819.762	26370
819.903	26343
820.043	26187
820.184	26157
820.324	26035
820.465	26271
820.605	26050
820.746	26077
820.886	25944
821.026	26111
821.167	26119
821.307	26111
821.447	25947
821.588	25970
821.728	25826
821.868	25594
822.008	25445
822.149	25479
822.289	25358
822.429	25228
822.569	25274
822.709	25232
822.849	24935
822.99	25004
823.13	24966
823.27	24935
823.41	24878
823.55	24677
823.69	24863
823.83	24757
823.97	24684
824.11	24582
824.25	24490
824.389	24467
824.529	24650
824.669	24464
824.809	24753
824.949	24616
825.089	24703
825.228	24673
825.368	24460
825.508	24547
825.648	24505
825.787	24483
825.927	24509
826.067	24464
826.206	24395
826.346	24486
826.485	24505
826.625	24464
826.765	24585
826.904	24551
827.044	24197
827.183	24083
827.323	24125
827.462	24155
827.601	24228
827.741	24174
827.88	24018
828.02	23969
828.159	24163
828.298	24083
828.437	24350
828.577	24171
828.716	24319
828.855	24159
828.994	23851
829.134	23939
829.273	23901
829.412	23893
829.551	23973
829.69	23847
829.829	23863
829.968	24045
830.107	23805
830.246	24049
830.385	23771
830.524	23870
830.663	23710
830.802	23691
830.941	23535
831.08	23551
831.219	23547
831.357	23478
831.496	23687
831.635	23627
831.774	23292
831.913	23383
832.051	23337
832.19	23315
832.329	23421
832.467	23197
832.606	23216
832.744	23060
832.883	23079
833.022	23185
833.16	23227
833.299	23269
833.437	23307
833.576	23318
833.714	23280
833.852	23334
833.991	23166
834.129	23223
834.267	23299
834.406	23227
834.544	23269
834.682	23208
834.821	23307
834.959	23421
835.097	23162
835.235	23273
835.373	23345
835.511	23216
835.65	23147
835.788	23269
835.926	22946
836.064	22877
836.202	23048
836.34	23223
836.478	23223
836.615	23003
836.753	23029
836.891	23277
837.029	23071
837.167	23025
837.305	22919
837.443	23006
837.58	23006
837.718	22946
837.856	23029
837.993	22862
838.131	22877
838.269	22786
838.406	22915
838.544	22934
838.681	22634
838.819	22584
838.956	22341
839.094	22489
839.231	22489
839.369	22622
839.506	22877
839.643	22683
839.781	22485
839.918	22398
840.055	22459
840.193	22462
840.33	22318
840.467	22424
840.604	22500
840.742	22622
840.879	22253
841.016	22276
841.153	22303
841.29	22447
841.427	22497
841.564	22421
841.701	22432
841.838	22272
841.975	22287
842.112	22306
842.249	22162
842.385	22169
842.522	22424
842.659	22272
842.796	22067
842.933	22124
843.069	22158
843.206	22048
843.343	22261
843.479	22120
843.616	22112
843.752	21979
843.889	21880
844.025	22063
844.162	21934
844.298	22078
844.435	21785
844.571	21918
844.708	21949
844.844	22097
844.98	22128
845.117	22002
845.253	21953
845.389	21808
845.525	21838
845.661	21671
845.798	21633
845.934	21641
846.07	21648
846.206	21671
846.342	21717
846.478	21614
846.614	21405
846.75	21310
846.886	21359
847.022	21416
847.158	21428
847.294	21351
847.429	21393
847.565	21447
847.701	21515
847.837	21135
847.972	21123
848.108	21226
848.244	21138
848.379	21070
848.515	21001
848.65	20849
848.786	21066
848.921	20967
849.057	21176
849.192	21146
849.328	21074
849.463	20990
849.598	20906
849.734	20902
849.869	20880
850.004	20788
850.14	20815
850.275	20705
850.41	20750
850.545	20659
850.68	20682
850.815	20815
850.95	20682
851.085	20925
851.22	20838
851.355	20823
851.49	20731
851.625	20826
851.76	20785
851.895	20667
852.03	20727
852.165	20785
852.299	20701
852.434	20773
852.569	20788
852.703	20758
852.838	20800
852.973	20864
853.107	20838
853.242	20769
853.376	20560
853.511	20583
853.645	20511
853.78	20727
853.914	20533
854.048	20469
854.183	20560
854.317	20575
854.451	20826
854.585	20541
854.72	20648
854.854	20625
854.988	20530
855.122	20644
855.256	20457
855.39	20526
855.524	20716
855.658	20674
855.792	20606
855.926	20693
856.06	20659
856.194	20598
856.327	20461
856.461	20507
856.595	20549
856.729	20537
856.862	20670
856.996	20655
857.13	20697
857.263	20625
857.397	20697
857.53	20609
857.664	20655
857.797	20609
857.931	20632
858.064	20606
858.197	20670
858.331	20564
858.464	20522
858.597	20533
858.731	20518
858.864	20507
858.997	20370
859.13	20579
859.263	20594
859.396	20743
859.529	20473
859.662	20480
859.795	20629
859.928	20541
860.061	20739
860.194	20743
860.327	20674
860.46	20629
860.592	20716
860.725	20670
860.858	20606
860.99	20686
861.123	20609
861.256	20484
861.388	20541
861.521	21325
861.653	20465
861.786	20469
861.918	20404
862.05	20488
862.183	20594
862.315	20484
862.447	20556
862.58	20564
862.712	20275
862.844	20195
862.976	20324
863.108	20347
863.24	20853
863.372	20278
863.504	20358
863.636	20282
863.768	20396
863.9	20343
864.032	20229
864.164	20248
864.296	20347
864.428	20286
864.559	20396
864.691	20507
864.823	20473
864.954	20229
865.086	20290
865.217	20282
865.349	20142
865.48	20138
865.612	20111
865.743	20358
865.875	20214
866.006	20199
866.137	20176
866.269	20267
866.4	20240
866.531	20092
866.662	20107
866.793	20111
866.924	20145
867.055	20252
867.186	20081
867.317	20138
867.448	20122
867.579	20084
867.71	19997
867.841	20092
867.972	20050
868.103	20210
868.233	20183
868.364	20183
868.495	20225
868.625	20385
868.756	20412
868.886	20370
869.017	20324
869.147	20408
869.278	20537
869.408	20480
869.539	20355
869.669	20514
869.799	20339
869.929	20545
870.06	20556
870.19	20636
870.32	20655
870.45	20708
870.58	20712
870.71	20823
870.84	20891
870.97	20819
871.1	20682
871.23	20937
871.36	20975
871.489	20921
871.619	20906
871.749	20948
871.879	20986
872.008	21116
872.138	21032
872.267	20941
872.397	20781
872.526	20925
872.656	20788
872.785	20731
872.915	21043
873.044	21047
873.173	20941
873.303	21043
873.432	21150
873.561	21157
873.69	21020
873.819	20956
873.948	21116
874.077	20979
874.206	20910
874.335	20979
874.464	21192
874.593	21241
874.722	21241
874.851	21252
874.979	21138
875.108	21268
875.237	21173
875.365	21249
875.494	21237
875.623	21397
875.751	21256
875.88	21237
876.008	21359
876.136	21485
876.265	21572
876.393	21682
876.521	21667
876.65	21789
876.778	21603
876.906	21553
877.034	21492
877.162	21732
877.29	21724
877.418	21622
877.546	21553
877.674	21648
877.802	21572
877.93	21572
878.058	21667
878.185	21492
878.313	21644
878.441	21606
878.568	21408
878.696	21511
878.824	21682
878.951	21679
879.079	21759
879.206	21918
879.333	21751
879.461	21530
879.588	21675
879.715	21793
879.842	21835
879.97	21797
880.097	21336
880.224	21397
880.351	21420
880.478	21412
880.605	21492
880.732	21294
880.859	21557
880.986	21492
881.112	21462
881.239	21336
881.366	21199
881.493	21051
881.619	21020
881.746	21055
881.872	21032
881.999	21096
882.125	20979
882.252	20975
882.378	21013
882.505	20986
882.631	20815
882.757	20823
882.883	20792
883.01	20781
883.136	20609
883.262	20484
883.388	20625
883.514	20689
883.64	20735
883.766	20674
883.892	20583
884.018	20537
884.143	20735
884.269	20697
884.395	20389
884.52	20469
884.646	20533
884.772	20286
884.897	20286
885.023	20313
885.148	20495
885.274	20503
885.399	20476
885.524	20431
885.65	20358
885.775	20343
885.9	20309
886.025	20461
886.15	20393
886.275	20278
886.4	20290
886.525	20450
886.65	20206
886.775	20324
886.9	20476
887.025	20537
887.149	20275
887.274	20176
887.399	20210
887.523	20103
887.648	20164
887.773	19947
887.897	20225
888.021	20138
888.146	20130
888.27	20336
888.395	20248
888.519	20126
888.643	20229
888.767	20180
888.891	20100
889.015	19894
889.139	19951
889.263	19826
889.387	20073
889.511	20134
889.635	20122
889.759	20039
889.883	19967
890.006	19951
890.13	19993
890.254	19982
890.377	19799
890.501	19799
890.624	19685
890.748	19898
890.871	19563
890.995	19499
891.118	19487
891.241	19544
891.364	19601
891.488	19742
891.611	19548
891.734	19472
891.857	19575
891.98	19624
892.103	19594
892.226	19655
892.349	19464
892.471	19403
892.594	19605
892.717	19525
892.839	19422
892.962	19472
893.085	19575
893.207	19438
893.33	19384
893.452	19392
893.575	19457
893.697	19411
893.819	19647
893.941	19578
894.064	19632
894.186	19400
894.308	19457
894.43	19575
894.552	19624
894.674	19426
894.796	19419
894.918	19476
895.04	19506
895.161	19571
895.283	19457
895.405	19434
895.526	19362
895.648	19601
895.769	19521
895.891	19487
896.012	19575
896.134	19556
896.255	19392
896.376	19430
896.498	19449
896.619	19533
896.74	19514
896.861	19681
896.982	19837
897.103	19963
897.224	19841
897.345	19791
897.466	19696
897.587	19738
897.708	19849
897.828	19833
897.949	19719
898.07	19601
898.19	19578
898.311	19734
898.431	19738
898.552	19632
898.672	19734
898.792	19822
898.913	19696
899.033	19647
899.153	19571
899.273	19510
899.393	19499
899.513	19491
899.633	19552
899.753	19563
899.873	19384
899.993	19514
900.113	19491
900.232	19457
900.352	19377
900.472	19365
900.591	19301
900.711	19327
900.83	19213
900.95	19388
901.069	19312
901.189	19190
901.308	18943
901.427	18867
901.546	18760
901.665	18825
901.784	18783
901.904	18700
902.023	18688
902.141	18486
902.26	18433
902.379	18486
902.498	18414
902.617	18334
902.735	18346
902.854	18258
902.973	18296
903.091	18110
903.21	17969
903.328	17950
903.446	17965
903.565	17779
903.683	17828
903.801	17646
903.919	17847
904.038	17786
904.156	17627
904.274	17653
904.392	17611
904.51	17535
904.627	17623
904.745	17745
904.863	17680
904.981	17493
905.098	17178
905.216	17311
905.334	17334
905.451	17330
905.569	17296
905.686	17353
905.803	17425
905.921	17121
906.038	17174
906.155	17102
906.272	17045
906.389	17041
906.506	16896
906.623	16904
906.74	16862
906.857	16744
906.974	16816
907.091	16869
907.208	17006
907.324	16927
907.441	16786
907.557	16664
907.674	16569
907.79	16554
907.907	16504
908.023	16664
908.139	16618
908.256	16497
908.372	16535
908.488	16443
908.604	16268
908.72	16284
908.836	16375
908.952	16303
909.068	16348
909.184	16329
909.3	16394
909.415	16318
909.531	16333
909.647	16051
909.762	16036
909.878	16002
909.993	16051
910.108	15949
910.224	16017
910.339	15880
910.454	15892
910.57	15846
910.685	15698
910.8	16040
910.915	15972
911.03	15869
911.145	15663
911.259	15622
911.374	15542
911.489	15606
911.604	15557
911.718	15389
911.833	15386
911.947	15272
912.062	15176
912.176	15211
912.291	15416
912.405	15405
912.519	15473
912.633	15572
912.748	15405
912.862	15306
912.976	15294
913.09	15089
913.204	15077
913.318	15112
913.431	15287
913.545	15279
913.659	15279
913.772	15157
913.886	15039
914	14971
914.113	15112
914.226	15203
914.34	15093
914.453	14925
914.566	15093
914.68	14918
914.793	14845
914.906	14648
915.019	14701
915.132	14640
915.245	14648
915.358	14705
915.47	14686
915.583	14514
915.696	14629
915.809	14632
915.921	14731
916.034	14530
916.146	14636
916.259	14457
916.371	14621
916.483	14617
916.595	14522
916.708	14552
916.82	14484
916.932	14412
917.044	14393
917.156	14366
917.268	14206
917.38	14438
917.491	14214
917.603	14309
917.715	14317
917.826	14358
917.938	14248
918.049	14119
918.161	14240
918.272	14339
918.384	14476
918.495	14221
918.606	14054
918.717	13963
918.828	14024
918.939	14164
919.05	13989
919.161	14039
919.272	13921
919.383	13921
919.494	14050
919.604	14267
919.715	14027
919.826	13947
919.936	14001
920.047	14054
920.157	13951
920.267	14187
920.378	14096
920.488	13993
920.598	14294
920.708	14351
920.818	14123
920.928	14157
921.038	14286
921.148	14290
921.258	13944
921.368	13951
921.477	13849
921.587	13742
921.697	13693
921.806	13830
921.916	13567
922.025	13472
922.134	13411
922.244	13396
922.353	13628
922.462	13343
922.571	13236
922.68	13137
922.789	13027
922.898	13065
923.007	13019
923.116	13118
923.224	13050
923.333	13034
923.442	12894
923.55	12867
923.659	13050
923.767	13050
923.876	12970
923.984	12916
924.092	12840
924.201	12833
924.309	12821
924.417	12901
924.525	12711
924.633	12829
924.741	13837
924.849	12555
924.956	12707
925.064	12563
925.172	12536
925.279	12498
925.387	12627
925.494	12509
925.602	12623
925.709	12593
925.816	12418
925.924	12479
926.031	12578
926.138	12433
926.245	12513
926.352	12490
926.459	12551
926.566	12574
926.673	12479
926.779	12277
926.886	12327
926.993	12178
927.099	12121
927.206	12072
927.312	12030
927.419	12201
927.525	12148
927.631	12114
927.737	12034
927.843	11996
927.95	11760
928.056	11908
928.162	11980
928.267	11901
928.373	12673
928.479	12003
928.585	11824
928.69	11893
928.796	11923
928.901	11767
929.007	11661
929.112	11760
929.218	11779
929.323	11653
929.428	11611
929.533	11752
929.638	11623
929.743	11524
929.848	11646
929.953	11581
930.058	11547
930.163	11372
930.267	11376
930.372	11474
930.477	11334
930.581	11509
930.685	11353
930.79	11288
930.894	11296
930.998	11220
931.103	11372
931.207	11056
931.311	10927
931.415	10904
931.519	10706
931.623	10660
