Data from test_V78500241_1072.txt Node
Date: Fri Mar 25 15:17:19 CST 2022
User: usil
Spectrometer: V785-0024
Trigger mode: 0
Integration Time (sec): 4.000000E-1
Scans to average: 1
Nonlinearity correction enabled: false
Boxcar width: 0
Storing dark spectrum: false
XAxis mode: Wavelengths
Number of Pixels in Spectrum: 1024
>>>>>Begin Spectral Data<<<<<
801.071	28192
801.214	28169
801.356	27808
801.499	27686
801.641	27778
801.783	27903
801.926	27781
802.068	27675
802.211	27827
802.353	27663
802.496	27367
802.638	27386
802.78	27443
802.923	27435
803.065	27252
803.208	27374
803.35	27222
803.492	27507
803.635	27595
803.777	27367
803.919	27660
804.061	27865
804.204	27686
804.346	27641
804.488	27500
804.63	27583
804.773	27610
804.915	27576
805.057	27842
805.199	27857
805.341	27713
805.483	27804
805.626	27835
805.768	27568
805.91	27838
806.052	27682
806.194	27610
806.336	27987
806.478	27789
806.62	27819
806.762	27918
806.904	28040
807.046	28207
807.188	28029
807.33	28268
807.472	28105
807.614	28074
807.756	28162
807.898	27956
808.04	28116
808.182	28025
808.324	28139
808.465	28147
808.607	28177
808.749	28371
808.891	28569
809.033	28485
809.174	28344
809.316	28382
809.458	28363
809.6	28356
809.741	28706
809.883	28455
810.025	28569
810.166	28668
810.308	28672
810.45	28740
810.591	28546
810.733	28489
810.875	28409
811.016	28360
811.158	28344
811.299	28550
811.441	28698
811.582	28599
811.724	28322
811.865	28440
812.007	28318
812.148	28413
812.29	28428
812.431	28664
812.573	28687
812.714	28771
812.855	28938
812.997	29022
813.138	29147
813.279	29132
813.421	28938
813.562	28904
813.703	28748
813.845	28607
813.986	28424
814.127	28287
814.268	28105
814.41	28158
814.551	28040
814.692	28211
814.833	27907
814.974	28036
815.115	28109
815.256	27975
815.397	27926
815.539	28074
815.68	27918
815.821	27865
815.962	27911
816.103	27895
816.244	27812
816.385	27682
816.526	27762
816.666	27614
816.807	27329
816.948	27473
817.089	27622
817.23	27511
817.371	27458
817.512	27386
817.653	27420
817.793	27405
817.934	27367
818.075	27553
818.216	27511
818.356	27416
818.497	27462
818.638	27138
818.778	27237
818.919	27135
819.06	27317
819.2	27329
819.341	27420
819.481	27370
819.622	27542
819.762	27911
819.903	27728
820.043	27534
820.184	27622
820.324	27572
820.465	27739
820.605	27618
820.746	27481
820.886	27344
821.026	27538
821.167	27618
821.307	27504
821.447	27408
821.588	27306
821.728	27226
821.868	26952
822.008	26918
822.149	27005
822.289	26899
822.429	26590
822.569	26644
822.709	26609
822.849	26453
822.99	26473
823.13	26469
823.27	26339
823.41	26301
823.55	26100
823.69	26404
823.83	26240
823.97	26168
824.11	26062
824.25	26012
824.389	26020
824.529	26103
824.669	26138
824.809	26225
824.949	26191
825.089	26191
825.228	26199
825.368	25947
825.508	25799
825.648	26058
825.787	26092
825.927	26054
826.067	26008
826.206	25795
826.346	26058
826.485	25989
826.625	25784
826.765	26046
826.904	25913
827.044	25776
827.183	25727
827.323	25719
827.462	25685
827.601	25757
827.741	25662
827.88	25731
828.02	25548
828.159	25738
828.298	25738
828.437	25746
828.577	25818
828.716	25693
828.855	25559
828.994	25403
829.134	25350
829.273	25479
829.412	25263
829.551	25343
829.69	25400
829.829	25499
829.968	25559
830.107	25434
830.246	25388
830.385	25362
830.524	25301
830.663	25304
830.802	25137
830.941	24871
831.08	25000
831.219	25187
831.357	25088
831.496	25217
831.635	24916
831.774	25038
831.913	24909
832.051	24920
832.19	24768
832.329	24882
832.467	24631
832.606	24738
832.744	24631
832.883	24745
833.022	24578
833.16	24798
833.299	24840
833.437	24833
833.576	24817
833.714	24890
833.852	24859
833.991	24764
834.129	24882
834.267	24802
834.406	24798
834.544	24875
834.682	24829
834.821	24650
834.959	24992
835.097	24825
835.235	24825
835.373	24825
835.511	24722
835.65	24703
835.788	24665
835.926	24513
836.064	24357
836.202	24361
836.34	24696
836.478	24616
836.615	24563
836.753	24589
836.891	24726
837.029	24608
837.167	24555
837.305	24540
837.443	24380
837.58	24445
837.718	24540
837.856	24475
837.993	24403
838.131	24407
838.269	24327
838.406	24270
838.544	24262
838.681	24003
838.819	24155
838.956	23863
839.094	23988
839.231	24053
839.369	23969
839.506	24380
839.643	24205
839.781	23897
839.918	23923
840.055	23904
840.193	23748
840.33	23775
840.467	23726
840.604	23802
840.742	24159
840.879	23745
841.016	23729
841.153	23745
841.29	23946
841.427	23950
841.564	23779
841.701	23760
841.838	23707
841.975	23745
842.112	23775
842.249	23566
842.385	23589
842.522	23851
842.659	23718
842.796	23436
842.933	23531
843.069	23589
843.206	23528
843.343	23634
843.479	23497
843.616	23570
843.752	23372
843.889	23311
844.025	23440
844.162	23318
844.298	23463
844.435	23364
844.571	23318
844.708	23391
844.844	23459
844.98	23478
845.117	23433
845.253	23349
845.389	23189
845.525	23280
845.661	23250
845.798	23018
845.934	23124
846.07	23022
846.206	23048
846.342	23174
846.478	23079
846.614	22858
846.75	22706
846.886	22729
847.022	22915
847.158	22923
847.294	22816
847.429	22900
847.565	22869
847.701	23044
847.837	22493
847.972	22535
848.108	22790
848.244	22637
848.379	22497
848.515	22508
848.65	22371
848.786	22504
848.921	22493
849.057	22500
849.192	22451
849.328	22455
849.463	22268
849.598	22272
849.734	22356
849.869	22344
850.004	22291
850.14	22261
850.275	22226
850.41	22192
850.545	22116
850.68	22105
850.815	22268
850.95	22173
851.085	22325
851.22	22371
851.355	22185
851.49	22211
851.625	22185
851.76	22116
851.895	22078
852.03	22116
852.165	22223
852.299	22128
852.434	22310
852.569	22242
852.703	22105
852.838	22265
852.973	22337
853.107	22200
853.242	22040
853.376	22044
853.511	21922
853.645	21926
853.78	22166
853.914	22002
854.048	22040
854.183	21941
854.317	22078
854.451	22177
854.585	22048
854.72	22040
854.854	21975
854.988	21922
855.122	21915
855.256	21800
855.39	21991
855.524	22002
855.658	22010
855.792	21975
855.926	21991
856.06	22006
856.194	22002
856.327	21903
856.461	21926
856.595	21861
856.729	22036
856.862	22135
856.996	21964
857.13	22135
857.263	22063
857.397	22010
857.53	21968
857.664	22067
857.797	22173
857.931	22090
858.064	22070
858.197	22131
858.331	21972
858.464	21972
858.597	21937
858.731	21975
858.864	21816
858.997	21918
859.13	22002
859.263	21903
859.396	22059
859.529	22036
859.662	21911
859.795	21922
859.928	21994
860.061	22196
860.194	22078
860.327	22055
860.46	22120
860.592	22021
860.725	22139
860.858	22147
860.99	22021
861.123	21934
861.256	21892
861.388	21998
861.521	22634
861.653	21960
861.786	21915
861.918	21915
862.05	21789
862.183	21857
862.315	21800
862.447	21960
862.58	21884
862.712	21652
862.844	21625
862.976	21812
863.108	21816
863.24	22200
863.372	21701
863.504	21625
863.636	21682
863.768	21660
863.9	21652
864.032	21762
864.164	21641
864.296	21720
864.428	21812
864.559	21774
864.691	21827
864.823	21667
864.954	21774
865.086	21720
865.217	21648
865.349	21542
865.48	21622
865.612	21591
865.743	21766
865.875	21580
866.006	21595
866.137	21759
866.269	21572
866.4	21618
866.531	21542
866.662	21534
866.793	21538
866.924	21519
867.055	21530
867.186	21542
867.317	21583
867.448	21519
867.579	21542
867.71	21424
867.841	21469
867.972	21542
868.103	21534
868.233	21583
868.364	21485
868.495	21644
868.625	21808
868.756	21838
868.886	21671
869.017	21835
869.147	21793
869.278	21854
869.408	21781
869.539	21682
869.669	21838
869.799	21926
869.929	21728
870.06	21869
870.19	22131
870.32	21998
870.45	22109
870.58	21972
870.71	22204
870.84	22211
870.97	22105
871.1	22025
871.23	22303
871.36	22253
871.489	22246
871.619	22242
871.749	22390
871.879	22287
872.008	22478
872.138	22379
872.267	22421
872.397	22284
872.526	22291
872.656	22268
872.785	22207
872.915	22363
873.044	22470
873.173	22367
873.303	22405
873.432	22504
873.561	22489
873.69	22405
873.819	22352
873.948	22500
874.077	22451
874.206	22337
874.335	22261
874.464	22447
874.593	22554
874.722	22451
874.851	22653
874.979	22588
875.108	22683
875.237	22546
875.365	22554
875.494	22596
875.623	22626
875.751	22573
875.88	22557
876.008	22626
876.136	22812
876.265	22972
876.393	23090
876.521	23105
876.65	22968
876.778	22976
876.906	23033
877.034	22854
877.162	22843
877.29	22896
877.418	22927
877.546	22911
877.674	22930
877.802	23044
877.93	22953
878.058	22911
878.185	22854
878.313	22915
878.441	22885
878.568	22812
878.696	22812
878.824	23044
878.951	23064
879.079	23155
879.206	23189
879.333	23056
879.461	23067
879.588	23052
879.715	23083
879.842	23220
879.97	22999
880.097	22774
880.224	22683
880.351	22694
880.478	22839
880.605	22675
880.732	22828
880.859	23006
880.986	22706
881.112	22725
881.239	22622
881.366	22538
881.493	22417
881.619	22371
881.746	22325
881.872	22341
881.999	22230
882.125	22242
882.252	22390
882.378	22287
882.505	22363
882.631	22112
882.757	22097
882.883	22158
883.01	21998
883.136	21880
883.262	21846
883.388	21812
883.514	21884
883.64	22067
883.766	21979
883.892	21774
884.018	21880
884.143	22021
884.269	21937
884.395	21671
884.52	21705
884.646	21610
884.772	21610
884.897	21504
885.023	21717
885.148	21606
885.274	21751
885.399	21690
885.524	21568
885.65	21652
885.775	21641
885.9	21591
886.025	21816
886.15	21675
886.275	21564
886.4	21477
886.525	21580
886.65	21500
886.775	21530
886.9	21789
887.025	21747
887.149	21633
887.274	21363
887.399	21401
887.523	21405
887.648	21302
887.773	21363
887.897	21492
888.021	21393
888.146	21260
888.27	21359
888.395	21374
888.519	21367
888.643	21401
888.767	21408
888.891	21408
889.015	21233
889.139	21176
889.263	21287
889.387	21367
889.511	21306
889.635	21428
889.759	21317
889.883	21211
890.006	21249
890.13	21283
890.254	21058
890.377	21104
890.501	20948
890.624	20902
890.748	21039
890.871	20785
890.995	20735
891.118	20648
891.241	20762
891.364	20686
891.488	20857
891.611	20670
891.734	20815
891.857	20826
891.98	20750
892.103	20826
892.226	20735
892.349	20819
892.471	20480
892.594	20602
892.717	20571
892.839	20629
892.962	20617
893.085	20708
893.207	20659
893.33	20640
893.452	20541
893.575	20746
893.697	20613
893.819	20815
893.941	20819
894.064	20724
894.186	20469
894.308	20640
894.43	20651
894.552	20682
894.674	20678
894.796	20545
894.918	20488
895.04	20575
895.161	20697
895.283	20606
895.405	20659
895.526	20602
895.648	20640
895.769	20636
895.891	20571
896.012	20769
896.134	20689
896.255	20663
896.376	20568
896.498	20522
896.619	20629
896.74	20541
896.861	20792
896.982	20868
897.103	21047
897.224	20834
897.345	20834
897.466	20906
897.587	20872
897.708	21047
897.828	20842
897.949	20826
898.07	20617
898.19	20777
898.311	20849
898.431	20792
898.552	20800
898.672	20921
898.792	20807
898.913	20872
899.033	20648
899.153	20609
899.273	20514
899.393	20545
899.513	20461
899.633	20518
899.753	20590
899.873	20499
899.993	20583
900.113	20549
900.232	20541
900.352	20484
900.472	20427
900.591	20210
900.711	20400
900.83	20301
900.95	20450
901.069	20362
901.189	20103
901.308	20058
901.427	20050
901.546	19932
901.665	19898
901.784	19894
901.904	19761
902.023	19677
902.141	19472
902.26	19495
902.379	19540
902.498	19346
902.617	19373
902.735	19529
902.854	19373
902.973	19301
903.091	19110
903.21	19217
903.328	19053
903.446	19034
903.565	18970
903.683	18856
903.801	18749
903.919	18905
904.038	18711
904.156	18688
904.274	18692
904.392	18616
904.51	18566
904.627	18570
904.745	18673
904.863	18810
904.981	18532
905.098	18327
905.216	18266
905.334	18273
905.451	18311
905.569	18289
905.686	18471
905.803	18194
905.921	18102
906.038	18232
906.155	18140
906.272	18083
906.389	17942
906.506	17805
906.623	17980
906.74	17828
906.857	17729
906.974	17790
907.091	17855
907.208	17977
907.324	17855
907.441	17771
907.557	17512
907.674	17490
907.79	17474
907.907	17501
908.023	17627
908.139	17524
908.256	17482
908.372	17421
908.488	17383
908.604	17360
908.72	17322
908.836	17261
908.952	17315
909.068	17269
909.184	17360
909.3	17269
909.415	17311
909.531	17208
909.647	16927
909.762	17060
909.878	17022
909.993	16995
910.108	17052
910.224	17083
910.339	16938
910.454	16869
910.57	16748
910.685	16748
910.8	17010
910.915	16881
911.03	16847
911.145	16645
911.259	16508
911.374	16554
911.489	16470
911.604	16500
911.718	16367
911.833	16333
911.947	16249
912.062	16101
912.176	16219
912.291	16341
912.405	16253
912.519	16432
912.633	16500
912.748	16322
912.862	16325
912.976	16116
913.09	16006
913.204	16002
913.318	16124
913.431	16120
913.545	16185
913.659	16226
913.772	16158
913.886	15850
914	15998
914.113	15949
914.226	15918
914.34	15991
914.453	15762
914.566	15979
914.68	15804
914.793	15770
914.906	15595
915.019	15622
915.132	15488
915.245	15568
915.358	15523
915.47	15511
915.583	15553
915.696	15568
915.809	15644
915.921	15671
916.034	15469
916.146	15355
916.259	15306
916.371	15485
916.483	15355
916.595	15336
916.708	15336
916.82	15370
916.932	15279
917.044	15351
917.156	15268
917.268	15218
917.38	15199
917.491	15207
917.603	15138
917.715	15252
917.826	15237
917.938	15214
918.049	14994
918.161	15074
918.272	15218
918.384	15180
918.495	15100
918.606	14937
918.717	14800
918.828	14906
918.939	14948
919.05	14834
919.161	14914
919.272	14644
919.383	14743
919.494	14887
919.604	15081
919.715	14868
919.826	14800
919.936	14773
920.047	14887
920.157	14853
920.267	15005
920.378	14910
920.488	14762
920.598	15009
920.708	15195
920.818	15055
920.928	14921
921.038	15093
921.148	15070
921.258	14796
921.368	14758
921.477	14518
921.587	14564
921.697	14465
921.806	14552
921.916	14389
922.025	14336
922.134	14195
922.244	14176
922.353	14240
922.462	14039
922.571	14073
922.68	13959
922.789	13883
922.898	13803
923.007	13791
923.116	13955
923.224	13795
923.333	13822
923.442	13738
923.55	13666
923.659	13609
923.767	13807
923.876	13685
923.984	13643
924.092	13677
924.201	13601
924.309	13605
924.417	13658
924.525	13567
924.633	13502
924.741	14434
924.849	13373
924.956	13457
925.064	13316
925.172	13194
925.279	13331
925.387	13225
925.494	13293
925.602	13388
925.709	13350
925.816	13126
925.924	13183
926.031	13232
926.138	13088
926.245	13232
926.352	13099
926.459	13278
926.566	13255
926.673	13126
926.779	12962
926.886	13000
926.993	12966
927.099	12848
927.206	12688
927.312	12764
927.419	12802
927.525	12749
927.631	12795
927.737	12711
927.843	12642
927.95	12570
928.056	12665
928.162	12471
928.267	12642
928.373	13327
928.479	12715
928.585	12490
928.69	12578
928.796	12563
928.901	12490
929.007	12361
929.112	12513
929.218	12418
929.323	12334
929.428	12308
929.533	12448
929.638	12235
929.743	12300
929.848	12369
929.953	12258
930.058	12163
930.163	12076
930.267	12155
930.372	12098
930.477	12057
930.581	12213
930.685	11988
930.79	11893
930.894	11961
930.998	11980
931.103	11954
931.207	11657
931.311	11547
931.415	11490
931.519	11204
931.623	11410
