Data from test_V78500241_2524.txt Node
Date: Fri Mar 25 15:27:26 CST 2022
User: usil
Spectrometer: V785-0024
Trigger mode: 0
Integration Time (sec): 4.000000E-1
Scans to average: 1
Nonlinearity correction enabled: false
Boxcar width: 0
Storing dark spectrum: false
XAxis mode: Wavelengths
Number of Pixels in Spectrum: 1024
>>>>>Begin Spectral Data<<<<<
801.071	27161
801.214	27119
801.356	26853
801.499	26796
801.641	26697
801.783	26648
801.926	26735
802.068	26670
802.211	26541
802.353	26499
802.496	26309
802.638	26328
802.78	26290
802.923	26263
803.065	26153
803.208	26305
803.35	26229
803.492	26461
803.635	26442
803.777	26351
803.919	26632
804.061	26689
804.204	26560
804.346	26404
804.488	26461
804.63	26507
804.773	26370
804.915	26290
805.057	26461
805.199	26514
805.341	26533
805.483	26533
805.626	26587
805.768	26396
805.91	26549
806.052	26571
806.194	26434
806.336	26670
806.478	26606
806.62	26632
806.762	26739
806.904	26807
807.046	27070
807.188	26975
807.33	27085
807.472	26975
807.614	26849
807.756	26819
807.898	26739
808.04	26750
808.182	26754
808.324	26636
808.465	26845
808.607	26960
808.749	27070
808.891	27245
809.033	27199
809.174	27089
809.316	27043
809.458	27081
809.6	26963
809.741	27252
809.883	27119
810.025	27275
810.166	27412
810.308	27496
810.45	27401
810.591	27359
810.733	27089
810.875	27077
811.016	26971
811.158	27047
811.299	27332
811.441	27359
811.582	27268
811.724	27062
811.865	27127
812.007	27116
812.148	27096
812.29	27051
812.431	27207
812.573	27485
812.714	27553
812.855	27633
812.997	27614
813.138	27800
813.279	27667
813.421	27606
813.562	27515
813.703	27374
813.845	27264
813.986	27005
814.127	26960
814.268	26845
814.41	26838
814.551	26746
814.692	26910
814.833	26842
814.974	26701
815.115	26777
815.256	26552
815.397	26727
815.539	26674
815.68	26514
815.821	26511
815.962	26533
816.103	26552
816.244	26541
816.385	26442
816.526	26252
816.666	26176
816.807	25993
816.948	26065
817.089	26286
817.23	26237
817.371	26077
817.512	25902
817.653	26100
817.793	25883
817.934	26084
818.075	25864
818.216	26039
818.356	26096
818.497	25879
818.638	25723
818.778	25799
818.919	25818
819.06	25932
819.2	25932
819.341	26088
819.481	26092
819.622	26069
819.762	26366
819.903	26237
820.043	26214
820.184	26168
820.324	26126
820.465	26183
820.605	26100
820.746	26050
820.886	25932
821.026	26001
821.167	26054
821.307	26115
821.447	26092
821.588	26073
821.728	25708
821.868	25601
822.008	25506
822.149	25506
822.289	25453
822.429	25282
822.569	25194
822.709	25198
822.849	25038
822.99	25095
823.13	24947
823.27	25023
823.41	24878
823.55	24768
823.69	24848
823.83	24772
823.97	24661
824.11	24608
824.25	24684
824.389	24555
824.529	24566
824.669	24551
824.809	25004
824.949	24707
825.089	24806
825.228	24631
825.368	24464
825.508	24574
825.648	24483
825.787	24544
825.927	24604
826.067	24589
826.206	24483
826.346	24616
826.485	24616
826.625	24467
826.765	24585
826.904	24604
827.044	24300
827.183	24285
827.323	24216
827.462	24357
827.601	24213
827.741	24251
827.88	24380
828.02	24194
828.159	24273
828.298	24121
828.437	24361
828.577	24148
828.716	24277
828.855	24117
828.994	24022
829.134	23977
829.273	24053
829.412	23885
829.551	23878
829.69	23942
829.829	24011
829.968	23908
830.107	24133
830.246	24045
830.385	23901
830.524	23855
830.663	23790
830.802	23630
830.941	23615
831.08	23478
831.219	23615
831.357	23687
831.496	23691
831.635	23505
831.774	23516
831.913	23471
832.051	23414
832.19	23326
832.329	23372
832.467	23280
832.606	23220
832.744	23132
832.883	23189
833.022	23162
833.16	23284
833.299	23280
833.437	23280
833.576	23330
833.714	23387
833.852	23330
833.991	23372
834.129	23505
834.267	23455
834.406	23372
834.544	23326
834.682	23311
834.821	23303
834.959	23554
835.097	23368
835.235	23322
835.373	23258
835.511	23379
835.65	23094
835.788	23250
835.926	23121
836.064	22972
836.202	23174
836.34	23216
836.478	23242
836.615	23246
836.753	23334
836.891	23200
837.029	23162
837.167	23174
837.305	23083
837.443	23159
837.58	23083
837.718	23155
837.856	22987
837.993	22957
838.131	22942
838.269	22972
838.406	22896
838.544	22847
838.681	22706
838.819	22687
838.956	22626
839.094	22588
839.231	22672
839.369	22679
839.506	22877
839.643	22729
839.781	22440
839.918	22299
840.055	22523
840.193	22535
840.33	22516
840.467	22546
840.604	22508
840.742	22809
840.879	22306
841.016	22382
841.153	22348
841.29	22516
841.427	22402
841.564	22440
841.701	22466
841.838	22402
841.975	22363
842.112	22428
842.249	22390
842.385	22249
842.522	22519
842.659	22443
842.796	22238
842.933	22200
843.069	22112
843.206	22055
843.343	22234
843.479	22352
843.616	22147
843.752	21983
843.889	22135
844.025	22120
844.162	21831
844.298	22017
844.435	21956
844.571	21895
844.708	21953
844.844	22109
844.98	22097
845.117	22040
845.253	21922
845.389	21907
845.525	21892
845.661	21759
845.798	21728
845.934	21842
846.07	21568
846.206	21778
846.342	21892
846.478	21694
846.614	21572
846.75	21504
846.886	21488
847.022	21576
847.158	21557
847.294	21424
847.429	21507
847.565	21473
847.701	21671
847.837	21173
847.972	21173
848.108	21332
848.244	21287
848.379	21058
848.515	21108
848.65	21066
848.786	21032
848.921	21028
849.057	21188
849.192	21131
849.328	20963
849.463	21013
849.598	20937
849.734	20937
849.869	20853
850.004	20762
850.14	20880
850.275	20823
850.41	20629
850.545	20773
850.68	20739
850.815	20785
850.95	20819
851.085	20982
851.22	21062
851.355	20849
851.49	20899
851.625	20823
851.76	20819
851.895	20712
852.03	20773
852.165	20861
852.299	20895
852.434	20933
852.569	20918
852.703	20910
852.838	20845
852.973	21028
853.107	20975
853.242	20712
853.376	20739
853.511	20549
853.645	20640
853.78	20697
853.914	20648
854.048	20621
854.183	20689
854.317	20655
854.451	20788
854.585	20670
854.72	20697
854.854	20735
854.988	20674
855.122	20693
855.256	20511
855.39	20602
855.524	20590
855.658	20621
855.792	20663
855.926	20697
856.06	20655
856.194	20678
856.327	20655
856.461	20511
856.595	20655
856.729	20689
856.862	20777
856.996	20636
857.13	20845
857.263	20739
857.397	20769
857.53	20579
857.664	20621
857.797	20674
857.931	20708
858.064	20621
858.197	20712
858.331	20636
858.464	20560
858.597	20575
858.731	20518
858.864	20667
858.997	20640
859.13	20663
859.263	20701
859.396	20773
859.529	20571
859.662	20511
859.795	20667
859.928	20648
860.061	20773
860.194	20929
860.327	20735
860.46	20568
860.592	20777
860.725	20777
860.858	20686
860.99	20602
861.123	20552
861.256	20644
861.388	20651
861.521	21344
861.653	20522
861.786	20423
861.918	20446
862.05	20530
862.183	20473
862.315	20568
862.447	20697
862.58	20499
862.712	20473
862.844	20343
862.976	20564
863.108	20484
863.24	20864
863.372	20240
863.504	20298
863.636	20324
863.768	20434
863.9	20355
864.032	20282
864.164	20278
864.296	20366
864.428	20465
864.559	20465
864.691	20522
864.823	20434
864.954	20377
865.086	20423
865.217	20240
865.349	20271
865.48	20332
865.612	20377
865.743	20256
865.875	20473
866.006	20263
866.137	20248
866.269	20309
866.4	20408
866.531	20221
866.662	20180
866.793	20210
866.924	20252
867.055	20233
867.186	20172
867.317	20103
867.448	20176
867.579	20278
867.71	20081
867.841	20005
867.972	20103
868.103	20176
868.233	20256
868.364	20202
868.495	20286
868.625	20381
868.756	20606
868.886	20328
869.017	20423
869.147	20590
869.278	20556
869.408	20484
869.539	20434
869.669	20541
869.799	20530
869.929	20636
870.06	20587
870.19	20712
870.32	20716
870.45	20807
870.58	20792
870.71	20933
870.84	20941
870.97	20811
871.1	20883
871.23	21005
871.36	21074
871.489	20956
871.619	21043
871.749	21032
871.879	21119
872.008	21218
872.138	21138
872.267	21055
872.397	21020
872.526	20849
872.656	20902
872.785	20918
872.915	21119
873.044	21009
873.173	21207
873.303	21085
873.432	21161
873.561	21169
873.69	21112
873.819	21009
873.948	21123
874.077	21176
874.206	21036
874.335	21135
874.464	21256
874.593	21313
874.722	21355
874.851	21378
874.979	21302
875.108	21389
875.237	21161
875.365	21070
875.494	21317
875.623	21466
875.751	21218
875.88	21306
876.008	21500
876.136	21515
876.265	21663
876.393	21819
876.521	21854
876.65	21705
876.778	21686
876.906	21751
877.034	21698
877.162	21705
877.29	21618
877.418	21667
877.546	21720
877.674	21614
877.802	21694
877.93	21610
878.058	21724
878.185	21625
878.313	21629
878.441	21622
878.568	21511
878.696	21698
878.824	21694
878.951	21743
879.079	21755
879.206	22002
879.333	21846
879.461	21694
879.588	21789
879.715	21880
879.842	21953
879.97	21625
880.097	21568
880.224	21492
880.351	21663
880.478	21462
880.605	21435
880.732	21542
880.859	21762
880.986	21553
881.112	21549
881.239	21298
881.366	21203
881.493	21146
881.619	21188
881.746	21146
881.872	21154
881.999	21081
882.125	21005
882.252	21096
882.378	21005
882.505	21180
882.631	20929
882.757	20883
882.883	20849
883.01	20792
883.136	20735
883.262	20625
883.388	20670
883.514	20746
883.64	20819
883.766	20754
883.892	20530
884.018	20533
884.143	20754
884.269	20864
884.395	20480
884.52	20484
884.646	20571
884.772	20343
884.897	20248
885.023	20423
885.148	20530
885.274	20507
885.399	20602
885.524	20381
885.65	20560
885.775	20484
885.9	20415
886.025	20511
886.15	20480
886.275	20537
886.4	20366
886.525	20427
886.65	20396
886.775	20408
886.9	20552
887.025	20533
887.149	20347
887.274	20168
887.399	20187
887.523	20233
887.648	20134
887.773	20122
887.897	20233
888.021	20309
888.146	20149
888.27	20164
888.395	20446
888.519	20271
888.643	20294
888.767	20248
888.891	20157
889.015	20020
889.139	19993
889.263	20039
889.387	20176
889.511	20206
889.635	20126
889.759	20050
889.883	20062
890.006	19982
890.13	20046
890.254	20031
890.377	19978
890.501	19765
890.624	19795
890.748	19811
890.871	19677
890.995	19632
891.118	19491
891.241	19639
891.364	19582
891.488	19677
891.611	19571
891.734	19613
891.857	19605
891.98	19613
892.103	19704
892.226	19575
892.349	19556
892.471	19392
892.594	19578
892.717	19548
892.839	19419
892.962	19597
893.085	19609
893.207	19411
893.33	19411
893.452	19396
893.575	19495
893.697	19426
893.819	19696
893.941	19708
894.064	19780
894.186	19426
894.308	19445
894.43	19632
894.552	19670
894.674	19597
894.796	19438
894.918	19441
895.04	19499
895.161	19495
895.283	19635
895.405	19362
895.526	19464
895.648	19453
895.769	19502
895.891	19521
896.012	19518
896.134	19438
896.255	19548
896.376	19521
896.498	19529
896.619	19616
896.74	19483
896.861	19586
896.982	19742
897.103	19963
897.224	19864
897.345	19616
897.466	19693
897.587	19696
897.708	19902
897.828	19784
897.949	19616
898.07	19590
898.19	19586
898.311	19849
898.431	19708
898.552	19742
898.672	19742
898.792	19803
898.913	19738
899.033	19601
899.153	19552
899.273	19476
899.393	19457
899.513	19445
899.633	19518
899.753	19601
899.873	19476
899.993	19464
900.113	19400
900.232	19495
900.352	19468
900.472	19426
900.591	19152
900.711	19259
900.83	19263
900.95	19293
901.069	19411
901.189	19164
901.308	18977
901.427	18856
901.546	18863
901.665	18837
901.784	18894
901.904	18738
902.023	18673
902.141	18467
902.26	18452
902.379	18494
902.498	18376
902.617	18330
902.735	18418
902.854	18319
902.973	18384
903.091	18057
903.21	18159
903.328	17980
903.446	18068
903.565	17893
903.683	17965
903.801	17870
903.919	17805
904.038	17824
904.156	17695
904.274	17657
904.392	17558
904.51	17657
904.627	17722
904.745	17623
904.863	17573
904.981	17421
905.098	17254
905.216	17383
905.334	17440
905.451	17326
905.569	17261
905.686	17322
905.803	17322
905.921	17155
906.038	17280
906.155	17098
906.272	17056
906.389	17098
906.506	16889
906.623	16850
906.74	16908
906.857	16786
906.974	16847
907.091	16911
907.208	16980
907.324	16843
907.441	16793
907.557	16733
907.674	16516
907.79	16607
907.907	16656
908.023	16653
908.139	16596
908.256	16550
908.372	16523
908.488	16535
908.604	16337
908.72	16352
908.836	16337
908.952	16211
909.068	16424
909.184	16455
909.3	16314
909.415	16280
909.531	16261
909.647	16071
909.762	16010
909.878	16044
909.993	16067
910.108	15941
910.224	15949
910.339	16036
910.454	15857
910.57	15926
910.685	15682
910.8	16078
910.915	15998
911.03	15880
911.145	15690
911.259	15667
911.374	15667
911.489	15557
911.604	15496
911.718	15393
911.833	15416
911.947	15321
912.062	15298
912.176	15420
912.291	15408
912.405	15420
912.519	15576
912.633	15469
912.748	15405
912.862	15332
912.976	15203
913.09	15093
913.204	15157
913.318	15173
913.431	15287
913.545	15233
913.659	15359
913.772	15146
913.886	15123
914	15001
914.113	15112
914.226	15131
914.34	15036
914.453	14868
914.566	15089
914.68	14899
914.793	14769
914.906	14693
915.019	14556
915.132	14598
915.245	14712
915.358	14720
915.47	14667
915.583	14560
915.696	14625
915.809	14864
915.921	14796
916.034	14575
916.146	14518
916.259	14537
916.371	14617
916.483	14590
916.595	14495
916.708	14495
916.82	14511
916.932	14503
917.044	14507
917.156	14454
917.268	14358
917.38	14355
917.491	14298
917.603	14362
917.715	14339
917.826	14427
917.938	14256
918.049	14050
918.161	14263
918.272	14396
918.384	14465
918.495	14244
918.606	14142
918.717	13978
918.828	14161
918.939	14256
919.05	13978
919.161	14046
919.272	13803
919.383	13913
919.494	14039
919.604	14298
919.715	14103
919.826	13982
919.936	14016
920.047	14244
920.157	14043
920.267	14237
920.378	14043
920.488	13928
920.598	14210
920.708	14381
920.818	14164
920.928	14210
921.038	14214
921.148	14244
921.258	13955
921.368	13997
921.477	13818
921.587	13734
921.697	13624
921.806	13811
921.916	13601
922.025	13586
922.134	13449
922.244	13407
922.353	13495
922.462	13266
922.571	13236
922.68	13137
922.789	13091
922.898	13209
923.007	12985
923.116	13126
923.224	13000
923.333	13107
923.442	12939
923.55	12951
923.659	12863
923.767	12993
923.876	12897
923.984	12935
924.092	12878
924.201	12966
924.309	12802
924.417	12844
924.525	12665
924.633	12817
924.741	13704
924.849	12547
924.956	12692
925.064	12623
925.172	12445
925.279	12544
925.387	12521
925.494	12513
925.602	12696
925.709	12646
925.816	12467
925.924	12452
926.031	12551
926.138	12483
926.245	12494
926.352	12422
926.459	12513
926.566	12483
926.673	12407
926.779	12292
926.886	12296
926.993	12159
927.099	12057
927.206	12034
927.312	12038
927.419	12144
927.525	12060
927.631	12213
927.737	12011
927.843	11893
927.95	11843
928.056	11961
928.162	11969
928.267	12022
928.373	12604
928.479	12041
928.585	11752
928.69	11840
928.796	11920
928.901	11779
929.007	11661
929.112	11798
929.218	11802
929.323	11695
929.428	11710
929.533	11866
929.638	11558
929.743	11630
929.848	11726
929.953	11649
930.058	11459
930.163	11345
930.267	11410
930.372	11505
930.477	11353
930.581	11532
930.685	11410
930.79	11181
930.894	11330
930.998	11322
931.103	11395
931.207	10965
931.311	10904
931.415	10908
931.519	10698
931.623	10721
