Data from test_V78500241_2127.txt Node
Date: Fri Mar 25 15:24:40 CST 2022
User: usil
Spectrometer: V785-0024
Trigger mode: 0
Integration Time (sec): 4.000000E-1
Scans to average: 1
Nonlinearity correction enabled: false
Boxcar width: 0
Storing dark spectrum: false
XAxis mode: Wavelengths
Number of Pixels in Spectrum: 1024
>>>>>Begin Spectral Data<<<<<
801.071	27279
801.214	27184
801.356	27020
801.499	26899
801.641	26750
801.783	26746
801.926	26739
802.068	26804
802.211	26655
802.353	26568
802.496	26469
802.638	26358
802.78	26282
802.923	26240
803.065	26336
803.208	26218
803.35	26419
803.492	26533
803.635	26629
803.777	26560
803.919	26503
804.061	26826
804.204	26606
804.346	26537
804.488	26473
804.63	26598
804.773	26450
804.915	26651
805.057	26693
805.199	26556
805.341	26484
805.483	26629
805.626	26568
805.768	26583
805.91	26587
806.052	26686
806.194	26575
806.336	26773
806.478	26651
806.62	26674
806.762	26872
806.904	26914
807.046	27306
807.188	27089
807.33	26994
807.472	27233
807.614	26933
807.756	26963
807.898	26990
808.04	26891
808.182	26758
808.324	26994
808.465	26956
808.607	27169
808.749	27363
808.891	27382
809.033	27599
809.174	27249
809.316	27222
809.458	27264
809.6	27089
809.741	27424
809.883	27256
810.025	27549
810.166	27625
810.308	27511
810.45	27568
810.591	27496
810.733	27268
810.875	27188
811.016	27127
811.158	27043
811.299	27283
811.441	27199
811.582	27294
811.724	27268
811.865	27207
812.007	27138
812.148	27135
812.29	27348
812.431	27351
812.573	27515
812.714	27781
812.855	27583
812.997	27743
813.138	28067
813.279	27831
813.421	27701
813.562	27564
813.703	27652
813.845	27427
813.986	27142
814.127	27001
814.268	26925
814.41	26986
814.551	26868
814.692	26971
814.833	26971
814.974	26895
815.115	26929
815.256	26712
815.397	26701
815.539	26743
815.68	26587
815.821	26678
815.962	26853
816.103	26575
816.244	26552
816.385	26328
816.526	26271
816.666	26355
816.807	26164
816.948	26161
817.089	26259
817.23	26149
817.371	26119
817.512	26180
817.653	26187
817.793	25974
817.934	26062
818.075	26065
818.216	26187
818.356	26115
818.497	26100
818.638	25940
818.778	25750
818.919	25890
819.06	26005
819.2	26027
819.341	26100
819.481	26016
819.622	26336
819.762	26495
819.903	26419
820.043	26164
820.184	26339
820.324	26229
820.465	26393
820.605	26286
820.746	26328
820.886	26058
821.026	26176
821.167	26062
821.307	26244
821.447	26134
821.588	26096
821.728	25871
821.868	25719
822.008	25624
822.149	25655
822.289	25601
822.429	25415
822.569	25316
822.709	25232
822.849	25141
822.99	25110
823.13	25148
823.27	25091
823.41	25061
823.55	24852
823.69	24992
823.83	24939
823.97	24825
824.11	24707
824.25	24749
824.389	24627
824.529	24875
824.669	24760
824.809	24852
824.949	24894
825.089	24779
825.228	24867
825.368	24696
825.508	24559
825.648	24608
825.787	24700
825.927	24688
826.067	24665
826.206	24593
826.346	24631
826.485	24722
826.625	24578
826.765	24749
826.904	24692
827.044	24418
827.183	24490
827.323	24224
827.462	24433
827.601	24357
827.741	24300
827.88	24426
828.02	24174
828.159	24235
828.298	24403
828.437	24380
828.577	24216
828.716	24426
828.855	24144
828.994	24007
829.134	24060
829.273	24110
829.412	24079
829.551	23912
829.69	24015
829.829	24026
829.968	24171
830.107	24110
830.246	24011
830.385	24003
830.524	23958
830.663	23904
830.802	23767
830.941	23619
831.08	23634
831.219	23718
831.357	23726
831.496	23748
831.635	23649
831.774	23619
831.913	23570
832.051	23440
832.19	23467
832.329	23444
832.467	23303
832.606	23341
832.744	23220
832.883	23159
833.022	23261
833.16	23280
833.299	23440
833.437	23292
833.576	23360
833.714	23414
833.852	23410
833.991	23326
834.129	23383
834.267	23372
834.406	23372
834.544	23337
834.682	23227
834.821	23315
834.959	23604
835.097	23311
835.235	23436
835.373	23299
835.511	23277
835.65	23189
835.788	23113
835.926	23124
836.064	23083
836.202	23048
836.34	23166
836.478	23269
836.615	23208
836.753	23235
836.891	23296
837.029	23265
837.167	23102
837.305	23094
837.443	23140
837.58	23102
837.718	23223
837.856	23048
837.993	22987
838.131	22987
838.269	22892
838.406	22900
838.544	22896
838.681	22740
838.819	22687
838.956	22512
839.094	22599
839.231	22641
839.369	22653
839.506	23041
839.643	22725
839.781	22565
839.918	22421
840.055	22630
840.193	22417
840.33	22379
840.467	22500
840.604	22535
840.742	22698
840.879	22341
841.016	22318
841.153	22405
841.29	22440
841.427	22485
841.564	22424
841.701	22428
841.838	22550
841.975	22211
842.112	22409
842.249	22074
842.385	22162
842.522	22371
842.659	22166
842.796	22112
842.933	22226
843.069	22314
843.206	22109
843.343	22177
843.479	22295
843.616	22200
843.752	21945
843.889	21937
844.025	22120
844.162	21857
844.298	22040
844.435	21983
844.571	21926
844.708	21972
844.844	22177
844.98	22078
845.117	22124
845.253	21785
845.389	21865
845.525	21846
845.661	21888
845.798	21732
845.934	21755
846.07	21728
846.206	21808
846.342	21842
846.478	21778
846.614	21553
846.75	21401
846.886	21439
847.022	21496
847.158	21557
847.294	21572
847.429	21545
847.565	21450
847.701	21816
847.837	21386
847.972	21173
848.108	21268
848.244	21180
848.379	21169
848.515	21058
848.65	20998
848.786	21036
848.921	21142
849.057	21108
849.192	21024
849.328	21135
849.463	20975
849.598	20921
849.734	20842
849.869	20910
850.004	20838
850.14	20758
850.275	20792
850.41	20632
850.545	20678
850.68	20708
850.815	20777
850.95	20807
851.085	20986
851.22	20963
851.355	20796
851.49	20792
851.625	20746
851.76	20758
851.895	20731
852.03	20701
852.165	20762
852.299	20804
852.434	20918
852.569	20857
852.703	20963
852.838	20982
852.973	20796
853.107	20941
853.242	20598
853.376	20644
853.511	20518
853.645	20617
853.78	20796
853.914	20621
854.048	20560
854.183	20621
854.317	20617
854.451	20716
854.585	20636
854.72	20560
854.854	20705
854.988	20579
855.122	20617
855.256	20507
855.39	20625
855.524	20693
855.658	20689
855.792	20674
855.926	20640
856.06	20545
856.194	20743
856.327	20594
856.461	20587
856.595	20560
856.729	20644
856.862	20777
856.996	20632
857.13	20746
857.263	20697
857.397	20689
857.53	20606
857.664	20667
857.797	20743
857.931	20750
858.064	20602
858.197	20762
858.331	20598
858.464	20629
858.597	20454
858.731	20560
858.864	20480
858.997	20583
859.13	20667
859.263	20602
859.396	20785
859.529	20526
859.662	20507
859.795	20689
859.928	20609
860.061	20655
860.194	20785
860.327	20629
860.46	20571
860.592	20678
860.725	20746
860.858	20762
860.99	20587
861.123	20438
861.256	20629
861.388	20583
861.521	21272
861.653	20473
861.786	20427
861.918	20476
862.05	20537
862.183	20480
862.315	20617
862.447	20625
862.58	20518
862.712	20317
862.844	20229
862.976	20408
863.108	20484
863.24	20853
863.372	20320
863.504	20336
863.636	20347
863.768	20336
863.9	20328
864.032	20259
864.164	20145
864.296	20267
864.428	20347
864.559	20389
864.691	20484
864.823	20419
864.954	20324
865.086	20385
865.217	20187
865.349	20286
865.48	20176
865.612	20225
865.743	20385
865.875	20248
866.006	20275
866.137	20084
866.269	20168
866.4	20157
866.531	20176
866.662	20172
866.793	20100
866.924	20218
867.055	20229
867.186	20221
867.317	20164
867.448	20027
867.579	20100
867.71	20096
867.841	20096
867.972	20301
868.103	20183
868.233	20168
868.364	20138
868.495	20328
868.625	20374
868.756	20450
868.886	20324
869.017	20366
869.147	20492
869.278	20575
869.408	20465
869.539	20476
869.669	20514
869.799	20484
869.929	20450
870.06	20484
870.19	20781
870.32	20689
870.45	20705
870.58	20883
870.71	20906
870.84	20891
870.97	20883
871.1	20861
871.23	20937
871.36	20986
871.489	21001
871.619	20986
871.749	20937
871.879	21081
872.008	21264
872.138	21081
872.267	20971
872.397	20975
872.526	20876
872.656	20845
872.785	20796
872.915	21211
873.044	21043
873.173	21032
873.303	21104
873.432	21085
873.561	21077
873.69	21089
873.819	21085
873.948	21173
874.077	21093
874.206	20975
874.335	20982
874.464	21070
874.593	21218
874.722	21184
874.851	21401
874.979	21272
875.108	21351
875.237	21363
875.365	21108
875.494	21317
875.623	21359
875.751	21283
875.88	21256
876.008	21443
876.136	21492
876.265	21736
876.393	21793
876.521	21694
876.65	21797
876.778	21812
876.906	21572
877.034	21644
877.162	21698
877.29	21557
877.418	21595
877.546	21576
877.674	21545
877.802	21606
877.93	21705
878.058	21557
878.185	21466
878.313	21633
878.441	21553
878.568	21496
878.696	21660
878.824	21625
878.951	21698
879.079	21850
879.206	21827
879.333	21732
879.461	21648
879.588	21656
879.715	21724
879.842	21895
879.97	21667
880.097	21412
880.224	21310
880.351	21462
880.478	21523
880.605	21428
880.732	21374
880.859	21667
880.986	21526
881.112	21507
881.239	21313
881.366	21165
881.493	21089
881.619	21070
881.746	21009
881.872	21036
881.999	21024
882.125	20891
882.252	21047
882.378	20967
882.505	21028
882.631	20899
882.757	20796
882.883	20781
883.01	20800
883.136	20667
883.262	20564
883.388	20606
883.514	20754
883.64	20670
883.766	20590
883.892	20461
884.018	20629
884.143	20682
884.269	20807
884.395	20438
884.52	20328
884.646	20549
884.772	20400
884.897	20225
885.023	20370
885.148	20617
885.274	20488
885.399	20419
885.524	20339
885.65	20366
885.775	20389
885.9	20446
886.025	20385
886.15	20381
886.275	20358
886.4	20465
886.525	20294
886.65	20370
886.775	20423
886.9	20446
887.025	20568
887.149	20305
887.274	20103
887.399	20134
887.523	20142
887.648	20183
887.773	19993
887.897	20218
888.021	20339
888.146	20149
888.27	20172
888.395	20347
888.519	20214
888.643	20237
888.767	20240
888.891	19986
889.015	19826
889.139	19955
889.263	20043
889.387	20016
889.511	20088
889.635	20092
889.759	20027
889.883	19898
890.006	19974
890.13	19928
890.254	19803
890.377	19818
890.501	19799
890.624	19628
890.748	19795
890.871	19643
890.995	19518
891.118	19445
891.241	19491
891.364	19563
891.488	19662
891.611	19540
891.734	19578
891.857	19597
891.98	19556
892.103	19609
892.226	19540
892.349	19491
892.471	19362
892.594	19525
892.717	19487
892.839	19411
892.962	19472
893.085	19533
893.207	19449
893.33	19407
893.452	19533
893.575	19601
893.697	19438
893.819	19628
893.941	19601
894.064	19658
894.186	19499
894.308	19381
894.43	19552
894.552	19662
894.674	19590
894.796	19377
894.918	19453
895.04	19392
895.161	19533
895.283	19575
895.405	19388
895.526	19533
895.648	19430
895.769	19483
895.891	19533
896.012	19491
896.134	19464
896.255	19537
896.376	19518
896.498	19499
896.619	19487
896.74	19521
896.861	19552
896.982	19769
897.103	19814
897.224	19704
897.345	19723
897.466	19814
897.587	19670
897.708	19917
897.828	19776
897.949	19620
898.07	19510
898.19	19670
898.311	19738
898.431	19563
898.552	19750
898.672	19864
898.792	19734
898.913	19841
899.033	19639
899.153	19388
899.273	19464
899.393	19426
899.513	19594
899.633	19548
899.753	19537
899.873	19491
899.993	19499
900.113	19464
900.232	19487
900.352	19320
900.472	19381
900.591	19122
900.711	19301
900.83	19171
900.95	19407
901.069	19354
901.189	19206
901.308	18958
901.427	18738
901.546	18878
901.665	18913
901.784	18852
901.904	18734
902.023	18661
902.141	18475
902.26	18464
902.379	18570
902.498	18376
902.617	18323
902.735	18407
902.854	18365
902.973	18251
903.091	18133
903.21	17977
903.328	18026
903.446	17958
903.565	17912
903.683	17893
903.801	17832
903.919	17859
904.038	17726
904.156	17710
904.274	17843
904.392	17566
904.51	17501
904.627	17577
904.745	17642
904.863	17615
904.981	17414
905.098	17231
905.216	17414
905.334	17273
905.451	17200
905.569	17193
905.686	17269
905.803	17220
905.921	17045
906.038	17189
906.155	17132
906.272	16949
906.389	16938
906.506	16965
906.623	16858
906.74	16797
906.857	16713
906.974	16797
907.091	16896
907.208	16946
907.324	16889
907.441	16755
907.557	16558
907.674	16558
907.79	16455
907.907	16535
908.023	16550
908.139	16531
908.256	16451
908.372	16436
908.488	16375
908.604	16249
908.72	16310
908.836	16333
908.952	16257
909.068	16329
909.184	16379
909.3	16242
909.415	16352
909.531	16226
909.647	16082
909.762	15987
909.878	15930
909.993	16059
910.108	15918
910.224	15907
910.339	15953
910.454	15838
910.57	15884
910.685	15724
910.8	15949
910.915	15918
911.03	15720
911.145	15751
911.259	15610
911.374	15557
911.489	15572
911.604	15545
911.718	15344
911.833	15370
911.947	15169
912.062	15157
912.176	15321
912.291	15405
912.405	15233
912.519	15542
912.633	15545
912.748	15374
912.862	15313
912.976	15146
913.09	15066
913.204	15108
913.318	15176
913.431	15344
913.545	15306
913.659	15367
913.772	15146
913.886	14967
914	14937
914.113	15058
914.226	15058
914.34	15028
914.453	14876
914.566	14967
914.68	14868
914.793	14925
914.906	14682
915.019	14613
915.132	14575
915.245	14617
915.358	14594
915.47	14564
915.583	14587
915.696	14587
915.809	14655
915.921	14632
916.034	14480
916.146	14526
916.259	14492
916.371	14587
916.483	14434
916.595	14404
916.708	14549
916.82	14454
916.932	14454
917.044	14408
917.156	14438
917.268	14153
917.38	14309
917.491	14282
917.603	14294
917.715	14377
917.826	14389
917.938	14256
918.049	14191
918.161	14259
918.272	14362
918.384	14347
918.495	14282
918.606	14008
918.717	13951
918.828	14111
918.939	14088
919.05	14016
919.161	14065
919.272	13890
919.383	13940
919.494	14058
919.604	14267
919.715	14050
919.826	13875
919.936	13955
920.047	14077
920.157	13978
920.267	14256
920.378	13902
920.488	13902
920.598	14259
920.708	14278
920.818	14103
920.928	14161
921.038	14286
921.148	14218
921.258	13917
921.368	13795
921.477	13761
921.587	13731
921.697	13590
921.806	13761
921.916	13563
922.025	13571
922.134	13358
922.244	13460
922.353	13419
922.462	13289
922.571	13251
922.68	13133
922.789	13050
922.898	13107
923.007	13015
923.116	13061
923.224	13004
923.333	13080
923.442	12932
923.55	12882
923.659	12867
923.767	12943
923.876	12863
923.984	12924
924.092	12806
924.201	12844
924.309	12757
924.417	12901
924.525	12753
924.633	12779
924.741	13518
924.849	12456
924.956	12715
925.064	12486
925.172	12479
925.279	12540
925.387	12601
925.494	12486
925.602	12623
925.709	12486
925.816	12391
925.924	12475
926.031	12578
926.138	12479
926.245	12544
926.352	12384
926.459	12513
926.566	12589
926.673	12270
926.779	12262
926.886	12194
926.993	12068
927.099	12079
927.206	12026
927.312	12049
927.419	12136
927.525	12121
927.631	12049
927.737	12030
927.843	11878
927.95	11931
928.056	11836
928.162	11889
928.267	12015
928.373	12559
928.479	11942
928.585	11729
928.69	11824
928.796	11901
928.901	11726
929.007	11623
929.112	11870
929.218	11729
929.323	11627
929.428	11608
929.533	11813
929.638	11596
929.743	11562
929.848	11615
929.953	11615
930.058	11520
930.163	11261
930.267	11364
930.372	11421
930.477	11246
930.581	11543
930.685	11376
930.79	11250
930.894	11315
930.998	11189
931.103	11303
931.207	11014
931.311	10900
931.415	10934
931.519	10622
931.623	10675
