Data from test_V78500241_1685.txt Node
Date: Fri Mar 25 15:21:35 CST 2022
User: usil
Spectrometer: V785-0024
Trigger mode: 0
Integration Time (sec): 4.000000E-1
Scans to average: 1
Nonlinearity correction enabled: false
Boxcar width: 0
Storing dark spectrum: false
XAxis mode: Wavelengths
Number of Pixels in Spectrum: 1024
>>>>>Begin Spectral Data<<<<<
801.071	28040
801.214	27751
801.356	27705
801.499	27755
801.641	27603
801.783	27530
801.926	27549
802.068	27603
802.211	27500
802.353	27488
802.496	27317
802.638	27226
802.78	27249
802.923	27180
803.065	26998
803.208	27138
803.35	27222
803.492	27348
803.635	27401
803.777	27317
803.919	27496
804.061	27812
804.204	27355
804.346	27431
804.488	27306
804.63	27367
804.773	27302
804.915	27447
805.057	27545
805.199	27412
805.341	27447
805.483	27603
805.626	27603
805.768	27458
805.91	27641
806.052	27625
806.194	27469
806.336	27842
806.478	27583
806.62	27656
806.762	27698
806.904	27884
807.046	28070
807.188	27880
807.33	28036
807.472	28261
807.614	27991
807.756	27968
807.898	27850
808.04	27789
808.182	27835
808.324	27880
808.465	27823
808.607	28101
808.749	28287
808.891	28367
809.033	28363
809.174	28265
809.316	28105
809.458	28177
809.6	28257
809.741	28409
809.883	28306
810.025	28459
810.166	28500
810.308	28500
810.45	28386
810.591	28424
810.733	28204
810.875	28299
811.016	28067
811.158	28055
811.299	28314
811.441	28401
811.582	28276
811.724	28246
811.865	28177
812.007	28192
812.148	28109
812.29	28284
812.431	28272
812.573	28538
812.714	28641
812.855	28740
812.997	28820
813.138	28961
813.279	28904
813.421	28850
813.562	28592
813.703	28721
813.845	28421
813.986	28169
814.127	28128
814.268	27838
814.41	28025
814.551	27865
814.692	27964
814.833	27869
814.974	27956
815.115	28044
815.256	27922
815.397	27694
815.539	27751
815.68	27743
815.821	27682
815.962	27785
816.103	27736
816.244	27633
816.385	27408
816.526	27336
816.666	27222
816.807	27173
816.948	27260
817.089	27207
817.23	27154
817.371	27260
817.512	27135
817.653	27127
817.793	27214
817.934	27192
818.075	27089
818.216	27222
818.356	27245
818.497	27070
818.638	26914
818.778	26864
818.919	26937
819.06	26990
819.2	27047
819.341	27279
819.481	27161
819.622	27424
819.762	27511
819.903	27431
820.043	27386
820.184	27275
820.324	27447
820.465	27427
820.605	27298
820.746	27279
820.886	27028
821.026	27386
821.167	27192
821.307	27348
821.447	27283
821.588	27093
821.728	27024
821.868	26906
822.008	26762
822.149	26636
822.289	26659
822.429	26370
822.569	26453
822.709	26366
822.849	26172
822.99	26263
823.13	25978
823.27	26046
823.41	26122
823.55	25856
823.69	25982
823.83	25871
823.97	26073
824.11	25807
824.25	25833
824.389	25795
824.529	25909
824.669	25898
824.809	25898
824.949	25906
825.089	25970
825.228	25791
825.368	25761
825.508	25438
825.648	25715
825.787	25822
825.927	25784
826.067	25658
826.206	25635
826.346	25727
826.485	25753
826.625	25719
826.765	25719
826.904	25776
827.044	25449
827.183	25434
827.323	25430
827.462	25301
827.601	25518
827.741	25392
827.88	25453
828.02	25396
828.159	25441
828.298	25552
828.437	25499
828.577	25308
828.716	25548
828.855	25350
828.994	25148
829.134	25072
829.273	25091
829.412	25050
829.551	25126
829.69	25156
829.829	25137
829.968	25103
830.107	25141
830.246	25091
830.385	25122
830.524	25110
830.663	24992
830.802	24909
830.941	24760
831.08	24791
831.219	24920
831.357	24798
831.496	24954
831.635	24760
831.774	24665
831.913	24631
832.051	24490
832.19	24490
832.329	24642
832.467	24448
832.606	24414
832.744	24346
832.883	24330
833.022	24346
833.16	24338
833.299	24418
833.437	24437
833.576	24467
833.714	24391
833.852	24574
833.991	24525
834.129	24483
834.267	24517
834.406	24505
834.544	24525
834.682	24410
834.821	24277
834.959	24688
835.097	24513
835.235	24460
835.373	24448
835.511	24429
835.65	24403
835.788	24262
835.926	24186
836.064	24114
836.202	24095
836.34	24311
836.478	24334
836.615	24178
836.753	24414
836.891	24327
837.029	24190
837.167	24213
837.305	24186
837.443	24136
837.58	24235
837.718	24205
837.856	24258
837.993	24083
838.131	24155
838.269	24026
838.406	24060
838.544	23958
838.681	23771
838.819	23756
838.956	23577
839.094	23577
839.231	23684
839.369	23783
839.506	23996
839.643	23863
839.781	23665
839.918	23585
840.055	23596
840.193	23524
840.33	23493
840.467	23585
840.604	23573
840.742	23714
840.879	23337
841.016	23474
841.153	23383
841.29	23600
841.427	23486
841.564	23608
841.701	23581
841.838	23486
841.975	23330
842.112	23288
842.249	23341
842.385	23235
842.522	23482
842.659	23379
842.796	23261
842.933	23109
843.069	23140
843.206	23212
843.343	23455
843.479	23330
843.616	23242
843.752	22999
843.889	23006
844.025	23166
844.162	23044
844.298	23044
844.435	22938
844.571	23090
844.708	23079
844.844	23200
844.98	23212
845.117	23155
845.253	22957
845.389	23048
845.525	22790
845.661	22801
845.798	22702
845.934	22782
846.07	22736
846.206	22782
846.342	22976
846.478	22862
846.614	22626
846.75	22394
846.886	22512
847.022	22763
847.158	22470
847.294	22527
847.429	22561
847.565	22405
847.701	22710
847.837	22219
847.972	22314
848.108	22234
848.244	22204
848.379	22124
848.515	22139
848.65	22158
848.786	22086
848.921	22181
849.057	22147
849.192	22242
849.328	22150
849.463	22147
849.598	22166
849.734	21972
849.869	21869
850.004	21812
850.14	21884
850.275	21930
850.41	21846
850.545	21876
850.68	21804
850.815	21972
850.95	21949
851.085	22082
851.22	22006
851.355	21918
851.49	21857
851.625	21892
851.76	21816
851.895	21766
852.03	21835
852.165	21793
852.299	21774
852.434	21918
852.569	21892
852.703	21903
852.838	21926
852.973	21972
853.107	21998
853.242	21781
853.376	21694
853.511	21614
853.645	21534
853.78	21751
853.914	21762
854.048	21606
854.183	21580
854.317	21698
854.451	21949
854.585	21743
854.72	21637
854.854	21835
854.988	21637
855.122	21644
855.256	21523
855.39	21766
855.524	21679
855.658	21713
855.792	21705
855.926	21781
856.06	21736
856.194	21648
856.327	21633
856.461	21675
856.595	21583
856.729	21545
856.862	21766
856.996	21720
857.13	21736
857.263	21732
857.397	21682
857.53	21549
857.664	21804
857.797	21766
857.931	21907
858.064	21698
858.197	21781
858.331	21694
858.464	21519
858.597	21572
858.731	21523
858.864	21614
858.997	21614
859.13	21789
859.263	21720
859.396	21622
859.529	21713
859.662	21675
859.795	21591
859.928	21637
860.061	21888
860.194	21949
860.327	21732
860.46	21774
860.592	21873
860.725	21842
860.858	21911
860.99	21720
861.123	21652
861.256	21591
861.388	21667
861.521	22417
861.653	21553
861.786	21511
861.918	21648
862.05	21549
862.183	21637
862.315	21713
862.447	21743
862.58	21656
862.712	21382
862.844	21302
862.976	21466
863.108	21504
863.24	21713
863.372	21344
863.504	21386
863.636	21496
863.768	21424
863.9	21492
864.032	21283
864.164	21344
864.296	21336
864.428	21504
864.559	21481
864.691	21568
864.823	21492
864.954	21306
865.086	21359
865.217	21237
865.349	21256
865.48	21268
865.612	21332
865.743	21359
865.875	21344
866.006	21142
866.137	21344
866.269	21310
866.4	21260
866.531	21294
866.662	21230
866.793	21203
866.924	21340
867.055	21245
867.186	21283
867.317	21279
867.448	21233
867.579	21195
867.71	21146
867.841	21135
867.972	21203
868.103	21142
868.233	21222
868.364	21222
868.495	21325
868.625	21458
868.756	21610
868.886	21488
869.017	21420
869.147	21511
869.278	21488
869.408	21431
869.539	21389
869.669	21481
869.799	21477
869.929	21595
870.06	21549
870.19	21633
870.32	21660
870.45	21800
870.58	21846
870.71	21884
870.84	21892
870.97	21968
871.1	21804
871.23	22025
871.36	22040
871.489	21994
871.619	22086
871.749	22048
871.879	22078
872.008	22280
872.138	22040
872.267	21964
872.397	21903
872.526	21945
872.656	21907
872.785	21945
872.915	22078
873.044	22120
873.173	22150
873.303	22166
873.432	22192
873.561	22139
873.69	22010
873.819	21994
873.948	22032
874.077	22139
874.206	22029
874.335	22029
874.464	22181
874.593	22284
874.722	22200
874.851	22272
874.979	22337
875.108	22390
875.237	22246
875.365	22135
875.494	22246
875.623	22310
875.751	22344
875.88	22268
876.008	22542
876.136	22424
876.265	22675
876.393	22782
876.521	22801
876.65	22702
876.778	22679
876.906	22626
877.034	22755
877.162	22618
877.29	22550
877.418	22554
877.546	22626
877.674	22656
877.802	22615
877.93	22634
878.058	22561
878.185	22500
878.313	22546
878.441	22611
878.568	22443
878.696	22554
878.824	22698
878.951	22717
879.079	22763
879.206	22911
879.333	22740
879.461	22660
879.588	22801
879.715	22752
879.842	22805
879.97	22664
880.097	22554
880.224	22379
880.351	22523
880.478	22478
880.605	22417
880.732	22344
880.859	22679
880.986	22523
881.112	22478
881.239	22318
881.366	22219
881.493	22169
881.619	22013
881.746	22120
881.872	22067
881.999	21926
882.125	22021
882.252	22063
882.378	22010
882.505	22166
882.631	21816
882.757	21766
882.883	21808
883.01	21789
883.136	21599
883.262	21549
883.388	21500
883.514	21720
883.64	21561
883.766	21545
883.892	21534
884.018	21561
884.143	21705
884.269	21724
884.395	21534
884.52	21291
884.646	21317
884.772	21397
884.897	21180
885.023	21325
885.148	21359
885.274	21439
885.399	21420
885.524	21420
885.65	21336
885.775	21420
885.9	21275
886.025	21401
886.15	21496
886.275	21294
886.4	21233
886.525	21370
886.65	21344
886.775	21325
886.9	21336
887.025	21561
887.149	21348
887.274	21268
887.399	21077
887.523	21108
887.648	20998
887.773	21047
887.897	21188
888.021	21192
888.146	21135
888.27	21222
888.395	21203
888.519	21211
888.643	21138
888.767	21150
888.891	20971
889.015	20941
889.139	21001
889.263	20796
889.387	21009
889.511	21089
889.635	21058
889.759	20952
889.883	20834
890.006	20842
890.13	20941
890.254	20826
890.377	20811
890.501	20632
890.624	20678
890.748	20739
890.871	20598
890.995	20492
891.118	20488
891.241	20499
891.364	20571
891.488	20621
891.611	20530
891.734	20400
891.857	20552
891.98	20438
892.103	20442
892.226	20434
892.349	20476
892.471	20301
892.594	20488
892.717	20469
892.839	20336
892.962	20339
893.085	20389
893.207	20298
893.33	20259
893.452	20286
893.575	20431
893.697	20328
893.819	20488
893.941	20629
894.064	20575
894.186	20389
894.308	20237
894.43	20332
894.552	20495
894.674	20431
894.796	20317
894.918	20396
895.04	20324
895.161	20408
895.283	20374
895.405	20278
895.526	20355
895.648	20317
895.769	20438
895.891	20480
896.012	20408
896.134	20419
896.255	20412
896.376	20347
896.498	20332
896.619	20328
896.74	20476
896.861	20381
896.982	20765
897.103	20708
897.224	20663
897.345	20530
897.466	20488
897.587	20522
897.708	20708
897.828	20609
897.949	20564
898.07	20488
898.19	20480
898.311	20533
898.431	20549
898.552	20533
898.672	20682
898.792	20590
898.913	20488
899.033	20541
899.153	20393
899.273	20263
899.393	20221
899.513	20320
899.633	20214
899.753	20351
899.873	20176
899.993	20393
900.113	20218
900.232	20362
900.352	20244
900.472	20138
900.591	20024
900.711	20092
900.83	20069
900.95	20248
901.069	20145
901.189	19944
901.308	19776
901.427	19540
901.546	19613
901.665	19609
901.784	19670
901.904	19628
902.023	19411
902.141	19190
902.26	19202
902.379	19312
902.498	19247
902.617	19194
902.735	19308
902.854	19042
902.973	19072
903.091	18905
903.21	18848
903.328	18840
903.446	18764
903.565	18623
903.683	18642
903.801	18582
903.919	18703
904.038	18673
904.156	18403
904.274	18509
904.392	18365
904.51	18372
904.627	18441
904.745	18437
904.863	18540
904.981	18247
905.098	18083
905.216	18155
905.334	18213
905.451	18186
905.569	18011
905.686	18182
905.803	18015
905.921	17836
906.038	17980
906.155	17798
906.272	17729
906.389	17786
906.506	17703
906.623	17611
906.74	17619
906.857	17448
906.974	17528
907.091	17661
907.208	17748
907.324	17589
907.441	17512
907.557	17402
907.674	17433
907.79	17307
907.907	17208
908.023	17455
908.139	17356
908.256	17318
908.372	17307
908.488	17269
908.604	17014
908.72	17006
908.836	17014
908.952	17022
909.068	17090
909.184	17075
909.3	17006
909.415	17052
909.531	17018
909.647	16915
909.762	16774
909.878	16782
909.993	16763
910.108	16683
910.224	16767
910.339	16771
910.454	16618
910.57	16603
910.685	16462
910.8	16672
910.915	16687
911.03	16637
911.145	16390
911.259	16367
911.374	16386
911.489	16276
911.604	16215
911.718	16074
911.833	16128
911.947	15991
912.062	15975
912.176	15949
912.291	15987
912.405	16124
912.519	16280
912.633	16337
912.748	16036
912.862	15975
912.976	15949
913.09	15808
913.204	15861
913.318	15987
913.431	16078
913.545	15960
913.659	15941
913.772	15789
913.886	15831
914	15724
914.113	15793
914.226	15755
914.34	15739
914.453	15595
914.566	15789
914.68	15564
914.793	15603
914.906	15420
915.019	15344
915.132	15279
915.245	15298
915.358	15332
915.47	15279
915.583	15214
915.696	15283
915.809	15389
915.921	15401
916.034	15283
916.146	15169
916.259	15165
916.371	15214
916.483	15332
916.595	15074
916.708	15077
916.82	15100
916.932	15077
917.044	15135
917.156	15058
917.268	15032
917.38	14979
917.491	14956
917.603	14952
917.715	15028
917.826	15055
917.938	14895
918.049	14773
918.161	14948
918.272	15020
918.384	15020
918.495	14845
918.606	14724
918.717	14712
918.828	14727
918.939	14731
919.05	14629
919.161	14625
919.272	14552
919.383	14629
919.494	14826
919.604	14880
919.715	14727
919.826	14568
919.936	14716
920.047	14727
920.157	14606
920.267	14842
920.378	14701
920.488	14613
920.598	14765
920.708	14944
920.818	14819
920.928	14686
921.038	14944
921.148	14830
921.258	14617
921.368	14484
921.477	14377
921.587	14370
921.697	14248
921.806	14320
921.916	14324
922.025	14096
922.134	14020
922.244	14100
922.353	14058
922.462	13967
922.571	13772
922.68	13712
922.789	13765
922.898	13666
923.007	13723
923.116	13700
923.224	13727
923.333	13601
923.442	13480
923.55	13495
923.659	13559
923.767	13514
923.876	13476
923.984	13578
924.092	13365
924.201	13472
924.309	13419
924.417	13510
924.525	13396
924.633	13365
924.741	14077
924.849	13110
924.956	13263
925.064	13099
925.172	13053
925.279	13031
925.387	13095
925.494	13072
925.602	13221
925.709	13118
925.816	13034
925.924	13046
926.031	13209
926.138	13053
926.245	13110
926.352	13053
926.459	13053
926.566	13053
926.673	12913
926.779	12856
926.886	12795
926.993	12707
927.099	12642
927.206	12540
927.312	12604
927.419	12719
927.525	12692
927.631	12642
927.737	12525
927.843	12490
927.95	12433
928.056	12433
928.162	12433
928.267	12456
928.373	12954
928.479	12578
928.585	12251
928.69	12471
928.796	12490
928.901	12414
929.007	12148
929.112	12350
929.218	12311
929.323	12091
929.428	12182
929.533	12327
929.638	12095
929.743	12144
929.848	12175
929.953	12110
930.058	12011
930.163	11855
930.267	11840
930.372	12003
930.477	11882
930.581	12030
930.685	11908
930.79	11695
930.894	11794
930.998	11688
931.103	11756
931.207	11543
931.311	11395
931.415	11288
931.519	11086
931.623	11105
