Data from test_V78500241_1268.txt Node
Date: Fri Mar 25 15:18:41 CST 2022
User: usil
Spectrometer: V785-0024
Trigger mode: 0
Integration Time (sec): 4.000000E-1
Scans to average: 1
Nonlinearity correction enabled: false
Boxcar width: 0
Storing dark spectrum: false
XAxis mode: Wavelengths
Number of Pixels in Spectrum: 1024
>>>>>Begin Spectral Data<<<<<
801.071	28017
801.214	28002
801.356	27660
801.499	27675
801.641	27599
801.783	27439
801.926	27595
802.068	27526
802.211	27477
802.353	27431
802.496	27329
802.638	27154
802.78	27096
802.923	27131
803.065	27096
803.208	27218
803.35	27058
803.492	27386
803.635	27393
803.777	27252
803.919	27450
804.061	27785
804.204	27427
804.346	27386
804.488	27374
804.63	27344
804.773	27336
804.915	27637
805.057	27488
805.199	27405
805.341	27538
805.483	27603
805.626	27553
805.768	27427
805.91	27481
806.052	27473
806.194	27427
806.336	27610
806.478	27701
806.62	27580
806.762	27732
806.904	27766
807.046	28090
807.188	27873
807.33	27911
807.472	27922
807.614	27994
807.756	28135
807.898	27934
808.04	27823
808.182	27800
808.324	27918
808.465	28032
808.607	28017
808.749	28303
808.891	28204
809.033	28386
809.174	28303
809.316	28128
809.458	28223
809.6	28257
809.741	28287
809.883	28390
810.025	28622
810.166	28432
810.308	28573
810.45	28519
810.591	28432
810.733	28306
810.875	28329
811.016	28139
811.158	28105
811.299	28466
811.441	28401
811.582	28382
811.724	28234
811.865	28226
812.007	28169
812.148	28166
812.29	28124
812.431	28478
812.573	28569
812.714	28618
812.855	28786
812.997	28835
813.138	29060
813.279	28850
813.421	28763
813.562	28820
813.703	28493
813.845	28546
813.986	28162
814.127	28017
814.268	27922
814.41	27979
814.551	27895
814.692	28017
814.833	27972
814.974	27846
815.115	27899
815.256	27781
815.397	27850
815.539	27914
815.68	27846
815.821	27709
815.962	27694
816.103	27720
816.244	27507
816.385	27523
816.526	27488
816.666	27325
816.807	27192
816.948	27294
817.089	27317
817.23	27211
817.371	27161
817.512	27367
817.653	27260
817.793	27112
817.934	27336
818.075	27283
818.216	27310
818.356	27051
818.497	27116
818.638	27005
818.778	27013
818.919	26777
819.06	26986
819.2	27161
819.341	27249
819.481	27211
819.622	27340
819.762	27473
819.903	27557
820.043	27427
820.184	27256
820.324	27416
820.465	27477
820.605	27325
820.746	27256
820.886	27272
821.026	27245
821.167	27165
821.307	27412
821.447	27283
821.588	27154
821.728	26986
821.868	26819
822.008	26769
822.149	26720
822.289	26629
822.429	26522
822.569	26450
822.709	26298
822.849	26164
822.99	26183
823.13	26187
823.27	26073
823.41	26103
823.55	25849
823.69	26111
823.83	26024
823.97	26039
824.11	25921
824.25	25818
824.389	25963
824.529	26012
824.669	25894
824.809	25921
824.949	25951
825.089	25921
825.228	26062
825.368	25662
825.508	25742
825.648	25674
825.787	25799
825.927	25807
826.067	25582
826.206	25647
826.346	25791
826.485	25765
826.625	25795
826.765	25845
826.904	25803
827.044	25571
827.183	25537
827.323	25411
827.462	25571
827.601	25415
827.741	25362
827.88	25407
828.02	25354
828.159	25312
828.298	25533
828.437	25464
828.577	25483
828.716	25537
828.855	25316
828.994	25038
829.134	25141
829.273	25236
829.412	25202
829.551	25072
829.69	25095
829.829	25251
829.968	25148
830.107	25187
830.246	25179
830.385	25175
830.524	25080
830.663	25061
830.802	24844
830.941	24817
831.08	24825
831.219	24791
831.357	24840
831.496	25004
831.635	24760
831.774	24669
831.913	24627
832.051	24505
832.19	24661
832.329	24536
832.467	24528
832.606	24342
832.744	24388
832.883	24323
833.022	24426
833.16	24498
833.299	24540
833.437	24407
833.576	24612
833.714	24483
833.852	24536
833.991	24540
834.129	24601
834.267	24544
834.406	24486
834.544	24551
834.682	24612
834.821	24532
834.959	24684
835.097	24551
835.235	24532
835.373	24441
835.511	24540
835.65	24395
835.788	24426
835.926	24194
836.064	24361
836.202	24232
836.34	24433
836.478	24342
836.615	24357
836.753	24418
836.891	24517
837.029	24395
837.167	24285
837.305	24117
837.443	24205
837.58	24159
837.718	24216
837.856	24197
837.993	24262
838.131	24125
838.269	24045
838.406	24174
838.544	24060
838.681	23889
838.819	23802
838.956	23771
839.094	23657
839.231	23668
839.369	23783
839.506	23999
839.643	23874
839.781	23596
839.918	23558
840.055	23577
840.193	23657
840.33	23570
840.467	23619
840.604	23695
840.742	23809
840.879	23478
841.016	23535
841.153	23531
841.29	23573
841.427	23562
841.564	23551
841.701	23417
841.838	23554
841.975	23474
842.112	23585
842.249	23284
842.385	23318
842.522	23535
842.659	23330
842.796	23299
842.933	23239
843.069	23383
843.206	23330
843.343	23379
843.479	23322
843.616	23307
843.752	23155
843.889	23064
844.025	23311
844.162	23166
844.298	23162
844.435	23181
844.571	23048
844.708	23105
844.844	23284
844.98	23265
845.117	23121
845.253	23102
845.389	23022
845.525	23064
845.661	22957
845.798	22850
845.934	22942
846.07	22812
846.206	22919
846.342	23018
846.478	22805
846.614	22641
846.75	22554
846.886	22637
847.022	22683
847.158	22725
847.294	22569
847.429	22630
847.565	22687
847.701	22885
847.837	22333
847.972	22261
848.108	22382
848.244	22337
848.379	22238
848.515	22044
848.65	22124
848.786	22188
848.921	22268
849.057	22192
849.192	22257
849.328	22169
849.463	22253
849.598	22059
849.734	22090
849.869	22044
850.004	21903
850.14	22017
850.275	21956
850.41	21823
850.545	21934
850.68	21934
850.815	21991
850.95	21918
851.085	22147
851.22	22044
851.355	21956
851.49	21823
851.625	21876
851.76	21861
851.895	21892
852.03	21800
852.165	21865
852.299	22002
852.434	22078
852.569	21854
852.703	21922
852.838	21991
852.973	22036
853.107	21960
853.242	21960
853.376	21835
853.511	21709
853.645	21694
853.78	21778
853.914	21774
854.048	21652
854.183	21587
854.317	21850
854.451	21930
854.585	21739
854.72	21755
854.854	21781
854.988	21667
855.122	21698
855.256	21538
855.39	21610
855.524	21873
855.658	21797
855.792	21778
855.926	21720
856.06	21663
856.194	21850
856.327	21774
856.461	21660
856.595	21629
856.729	21724
856.862	21876
856.996	21823
857.13	21739
857.263	21911
857.397	21945
857.53	21831
857.664	21770
857.797	21675
857.931	21903
858.064	21667
858.197	21808
858.331	21660
858.464	21625
858.597	21614
858.731	21701
858.864	21747
858.997	21656
859.13	21743
859.263	21789
859.396	21903
859.529	21701
859.662	21720
859.795	21739
859.928	21656
860.061	21827
860.194	22124
860.327	21690
860.46	21778
860.592	21918
860.725	21926
860.858	21838
860.99	21800
861.123	21614
861.256	21713
861.388	21785
861.521	22538
861.653	21690
861.786	21530
861.918	21606
862.05	21622
862.183	21629
862.315	21705
862.447	21698
862.58	21572
862.712	21553
862.844	21370
862.976	21504
863.108	21500
863.24	21827
863.372	21420
863.504	21382
863.636	21424
863.768	21576
863.9	21408
864.032	21412
864.164	21412
864.296	21496
864.428	21519
864.559	21496
864.691	21492
864.823	21477
864.954	21500
865.086	21393
865.217	21420
865.349	21306
865.48	21401
865.612	21321
865.743	21507
865.875	21355
866.006	21287
866.137	21264
866.269	21332
866.4	21336
866.531	21154
866.662	21363
866.793	21340
866.924	21249
867.055	21306
867.186	21332
867.317	21367
867.448	21211
867.579	21214
867.71	21173
867.841	21161
867.972	21355
868.103	21226
868.233	21374
868.364	21256
868.495	21340
868.625	21473
868.756	21534
868.886	21355
869.017	21340
869.147	21504
869.278	21652
869.408	21488
869.539	21534
869.669	21644
869.799	21515
869.929	21675
870.06	21644
870.19	21930
870.32	21838
870.45	21838
870.58	21865
870.71	22010
870.84	21953
870.97	21880
871.1	21873
871.23	21979
871.36	21968
871.489	21968
871.619	21972
871.749	22169
871.879	22025
872.008	22223
872.138	22116
872.267	22048
872.397	21911
872.526	21975
872.656	21937
872.785	21945
872.915	22173
873.044	22188
873.173	22135
873.303	22230
873.432	22135
873.561	22223
873.69	22120
873.819	22158
873.948	22207
874.077	22162
874.206	22105
874.335	22131
874.464	22204
874.593	22280
874.722	22371
874.851	22367
874.979	22314
875.108	22481
875.237	22451
875.365	22211
875.494	22417
875.623	22352
875.751	22276
875.88	22303
876.008	22428
876.136	22573
876.265	22740
876.393	22698
876.521	22847
876.65	22824
876.778	22767
876.906	22752
877.034	22668
877.162	22660
877.29	22607
877.418	22725
877.546	22835
877.674	22721
877.802	22793
877.93	22653
878.058	22497
878.185	22535
878.313	22596
878.441	22733
878.568	22542
878.696	22508
878.824	22656
878.951	22828
879.079	22824
879.206	23025
879.333	22854
879.461	22736
879.588	22786
879.715	22835
879.842	22839
879.97	22653
880.097	22402
880.224	22443
880.351	22569
880.478	22561
880.605	22466
880.732	22500
880.859	22752
880.986	22592
881.112	22459
881.239	22379
881.366	22204
881.493	22253
881.619	22063
881.746	21994
881.872	22105
881.999	21994
882.125	21987
882.252	22128
882.378	21918
882.505	22139
882.631	21949
882.757	21728
882.883	21888
883.01	21660
883.136	21778
883.262	21633
883.388	21553
883.514	21660
883.64	21915
883.766	21652
883.892	21485
884.018	21488
884.143	21713
884.269	21774
884.395	21504
884.52	21401
884.646	21428
884.772	21359
884.897	21492
885.023	21447
885.148	21473
885.274	21492
885.399	21538
885.524	21386
885.65	21370
885.775	21450
885.9	21283
886.025	21492
886.15	21462
886.275	21359
886.4	21275
886.525	21420
886.65	21283
886.775	21260
886.9	21428
887.025	21705
887.149	21355
887.274	21310
887.399	21131
887.523	21142
887.648	21241
887.773	20998
887.897	21256
888.021	21207
888.146	21066
888.27	21180
888.395	21256
888.519	21241
888.643	21222
888.767	21256
888.891	21142
889.015	20998
889.139	21077
889.263	21058
889.387	21009
889.511	21169
889.635	21214
889.759	21043
889.883	20876
890.006	21123
890.13	21070
890.254	20990
890.377	20891
890.501	20758
890.624	20663
890.748	20800
890.871	20541
890.995	20564
891.118	20434
891.241	20636
891.364	20575
891.488	20701
891.611	20644
891.734	20598
891.857	20606
891.98	20594
892.103	20663
892.226	20659
892.349	20450
892.471	20457
892.594	20507
892.717	20549
892.839	20427
892.962	20396
893.085	20454
893.207	20423
893.33	20317
893.452	20457
893.575	20480
893.697	20442
893.819	20651
893.941	20564
894.064	20488
894.186	20419
894.308	20263
894.43	20476
894.552	20674
894.674	20434
894.796	20461
894.918	20442
895.04	20389
895.161	20385
895.283	20465
895.405	20339
895.526	20366
895.648	20511
895.769	20465
895.891	20412
896.012	20609
896.134	20499
896.255	20552
896.376	20431
896.498	20476
896.619	20469
896.74	20454
896.861	20533
896.982	20735
897.103	21001
897.224	20731
897.345	20632
897.466	20495
897.587	20686
897.708	20842
897.828	20632
897.949	20651
898.07	20370
898.19	20400
898.311	20625
898.431	20594
898.552	20659
898.672	20663
898.792	20716
898.913	20629
899.033	20526
899.153	20507
899.273	20434
899.393	20366
899.513	20408
899.633	20370
899.753	20301
899.873	20385
899.993	20461
900.113	20374
900.232	20294
900.352	20347
900.472	20142
900.591	20138
900.711	20130
900.83	20138
900.95	20320
901.069	20244
901.189	20073
901.308	19860
901.427	19776
901.546	19734
901.665	19772
901.784	19723
901.904	19609
902.023	19540
902.141	19426
902.26	19236
902.379	19381
902.498	19278
902.617	19217
902.735	19301
902.854	19228
902.973	19187
903.091	19019
903.21	18989
903.328	18989
903.446	18825
903.565	18719
903.683	18627
903.801	18650
903.919	18707
904.038	18707
904.156	18479
904.274	18471
904.392	18509
904.51	18372
904.627	18509
904.745	18483
904.863	18464
904.981	18319
905.098	18254
905.216	18224
905.334	18152
905.451	18178
905.569	18087
905.686	18239
905.803	18167
905.921	17927
906.038	18079
906.155	17961
906.272	17882
906.389	17893
906.506	17710
906.623	17771
906.74	17665
906.857	17589
906.974	17497
907.091	17836
907.208	17859
907.324	17695
907.441	17570
907.557	17406
907.674	17436
907.79	17345
907.907	17402
908.023	17482
908.139	17372
908.256	17383
908.372	17261
908.488	17223
908.604	17140
908.72	17037
908.836	17060
908.952	17045
909.068	17071
909.184	17273
909.3	17136
909.415	17109
909.531	17147
909.647	16877
909.762	16835
909.878	16816
909.993	16759
910.108	16824
910.224	16774
910.339	16702
910.454	16778
910.57	16687
910.685	16607
910.8	16847
910.915	16790
911.03	16626
911.145	16417
911.259	16402
911.374	16417
911.489	16291
911.604	16322
911.718	16196
911.833	16158
911.947	16101
912.062	15918
912.176	16040
912.291	16150
912.405	16074
912.519	16303
912.633	16352
912.748	16204
912.862	16124
912.976	15941
913.09	15774
913.204	16006
913.318	15899
913.431	16093
913.545	15945
913.659	16078
913.772	15819
913.886	15759
914	15667
914.113	15899
914.226	15922
914.34	15819
914.453	15717
914.566	15842
914.68	15660
914.793	15557
914.906	15428
915.019	15389
915.132	15302
915.245	15329
915.358	15439
915.47	15378
915.583	15291
915.696	15401
915.809	15450
915.921	15519
916.034	15367
916.146	15313
916.259	15241
916.371	15374
916.483	15306
916.595	15169
916.708	15214
916.82	15081
916.932	15123
917.044	15131
917.156	15173
917.268	14967
917.38	15047
917.491	14960
917.603	15005
917.715	15081
917.826	15100
917.938	14929
918.049	14864
918.161	14937
918.272	15017
918.384	15112
918.495	15009
918.606	14754
918.717	14636
918.828	14823
918.939	14819
919.05	14739
919.161	14640
919.272	14606
919.383	14625
919.494	14815
919.604	14842
919.715	14739
919.826	14735
919.936	14686
920.047	14777
920.157	14876
920.267	14960
920.378	14758
920.488	14708
920.598	14925
920.708	15036
920.818	14891
920.928	14826
921.038	15062
921.148	14883
921.258	14678
921.368	14484
921.477	14457
921.587	14377
921.697	14358
921.806	14507
921.916	14290
922.025	14111
922.134	14092
922.244	14149
922.353	14237
922.462	14024
922.571	13974
922.68	13799
922.789	13609
922.898	13681
923.007	13693
923.116	13658
923.224	13746
923.333	13655
923.442	13632
923.55	13506
923.659	13487
923.767	13636
923.876	13518
923.984	13518
924.092	13388
924.201	13499
924.309	13480
924.417	13533
924.525	13430
924.633	13426
924.741	14187
924.849	13247
924.956	13312
925.064	13152
925.172	13156
925.279	13156
925.387	13217
925.494	13099
925.602	13221
925.709	13217
925.816	13000
925.924	13000
926.031	13179
926.138	13076
926.245	13076
926.352	12958
926.459	13110
926.566	13099
926.673	12970
926.779	12935
926.886	12875
926.993	12734
927.099	12707
927.206	12749
927.312	12574
927.419	12722
927.525	12681
927.631	12692
927.737	12589
927.843	12578
927.95	12346
928.056	12578
928.162	12536
928.267	12517
928.373	13187
928.479	12642
928.585	12369
928.69	12513
928.796	12467
928.901	12391
929.007	12270
929.112	12403
929.218	12346
929.323	12266
929.428	12281
929.533	12418
929.638	12197
929.743	12205
929.848	12273
929.953	12148
930.058	11992
930.163	11901
930.267	11977
930.372	12041
930.477	11802
930.581	12125
930.685	11916
930.79	11824
930.894	11863
930.998	11840
931.103	11946
931.207	11585
931.311	11414
931.415	11353
931.519	11140
931.623	11166
