Data from test_V78500241_948.txt Node
Date: Fri Mar 25 15:16:27 CST 2022
User: usil
Spectrometer: V785-0024
Trigger mode: 0
Integration Time (sec): 4.000000E-1
Scans to average: 1
Nonlinearity correction enabled: false
Boxcar width: 0
Storing dark spectrum: false
XAxis mode: Wavelengths
Number of Pixels in Spectrum: 1024
>>>>>Begin Spectral Data<<<<<
801.071	28021
801.214	27892
801.356	27663
801.499	27572
801.641	27526
801.783	27443
801.926	27610
802.068	27534
802.211	27462
802.353	27321
802.496	27283
802.638	27104
802.78	27272
802.923	27081
803.065	27169
803.208	27032
803.35	27222
803.492	27195
803.635	27443
803.777	27294
803.919	27260
804.061	27686
804.204	27348
804.346	27222
804.488	27241
804.63	27382
804.773	27329
804.915	27355
805.057	27386
805.199	27351
805.341	27587
805.483	27469
805.626	27526
805.768	27469
805.91	27538
806.052	27462
806.194	27454
806.336	27682
806.478	27500
806.62	27488
806.762	27781
806.904	27682
807.046	28112
807.188	28044
807.33	27808
807.472	27956
807.614	27895
807.756	27956
807.898	27895
808.04	27781
808.182	27679
808.324	27819
808.465	27914
808.607	28158
808.749	28082
808.891	28329
809.033	28470
809.174	28223
809.316	28196
809.458	28173
809.6	28166
809.741	28268
809.883	28253
810.025	28497
810.166	28462
810.308	28481
810.45	28455
810.591	28478
810.733	28272
810.875	28192
811.016	28010
811.158	27972
811.299	28234
811.441	28257
811.582	28325
811.724	28234
811.865	28166
812.007	28048
812.148	28196
812.29	28200
812.431	28272
812.573	28352
812.714	28569
812.855	28664
812.997	28755
813.138	28805
813.279	28934
813.421	28698
813.562	28611
813.703	28527
813.845	28265
813.986	28223
814.127	27960
814.268	27983
814.41	27937
814.551	27762
814.692	27941
814.833	27800
814.974	27808
815.115	27949
815.256	27755
815.397	27743
815.539	27644
815.68	27671
815.821	27648
815.962	27625
816.103	27542
816.244	27515
816.385	27603
816.526	27469
816.666	27344
816.807	27241
816.948	27294
817.089	27203
817.23	27275
817.371	27062
817.512	27264
817.653	27203
817.793	27074
817.934	27241
818.075	27131
818.216	27180
818.356	27169
818.497	27100
818.638	26842
818.778	26937
818.919	26921
819.06	27032
819.2	27116
819.341	27127
819.481	27108
819.622	27412
819.762	27485
819.903	27416
820.043	27439
820.184	27268
820.324	27245
820.465	27340
820.605	27321
820.746	27321
820.886	27169
821.026	27264
821.167	27405
821.307	27192
821.447	27165
821.588	27192
821.728	26956
821.868	26849
822.008	26571
822.149	26648
822.289	26549
822.429	26461
822.569	26393
822.709	26393
822.849	26122
822.99	26172
823.13	26206
823.27	26187
823.41	25970
823.55	25887
823.69	26046
823.83	26058
823.97	25993
824.11	25734
824.25	25868
824.389	25890
824.529	25940
824.669	25780
824.809	26031
824.949	25989
825.089	25871
825.228	25852
825.368	25658
825.508	25693
825.648	25620
825.787	25635
825.927	25807
826.067	25708
826.206	25727
826.346	25715
826.485	25776
826.625	25803
826.765	25875
826.904	25670
827.044	25597
827.183	25483
827.323	25441
827.462	25559
827.601	25400
827.741	25419
827.88	25457
828.02	25282
828.159	25502
828.298	25441
828.437	25491
828.577	25419
828.716	25594
828.855	25278
828.994	25171
829.134	25365
829.273	25274
829.412	25202
829.551	25091
829.69	25133
829.829	25217
829.968	25343
830.107	25065
830.246	25122
830.385	25152
830.524	24958
830.663	25008
830.802	24859
830.941	24745
831.08	24772
831.219	24951
831.357	24871
831.496	25107
831.635	24871
831.774	24536
831.913	24722
832.051	24563
832.19	24498
832.329	24490
832.467	24582
832.606	24502
832.744	24441
832.883	24380
833.022	24498
833.16	24391
833.299	24559
833.437	24521
833.576	24464
833.714	24498
833.852	24559
833.991	24513
834.129	24616
834.267	24517
834.406	24384
834.544	24445
834.682	24365
834.821	24513
834.959	24547
835.097	24498
835.235	24563
835.373	24555
835.511	24464
835.65	24308
835.788	24330
835.926	24273
836.064	24106
836.202	24114
836.34	24213
836.478	24403
836.615	24232
836.753	24369
836.891	24369
837.029	24300
837.167	24300
837.305	24201
837.443	24277
837.58	24194
837.718	24338
837.856	24148
837.993	23965
838.131	24148
838.269	24095
838.406	24083
838.544	24015
838.681	23851
838.819	23855
838.956	23619
839.094	23684
839.231	23657
839.369	23809
839.506	24098
839.643	23874
839.781	23657
839.918	23657
840.055	23615
840.193	23611
840.33	23615
840.467	23455
840.604	23627
840.742	23809
840.879	23452
841.016	23387
841.153	23421
841.29	23642
841.427	23551
841.564	23642
841.701	23512
841.838	23528
841.975	23512
842.112	23421
842.249	23277
842.385	23208
842.522	23448
842.659	23376
842.796	23493
842.933	23353
843.069	23254
843.206	23292
843.343	23250
843.479	23223
843.616	23402
843.752	23128
843.889	23067
844.025	23239
844.162	23075
844.298	23185
844.435	23235
844.571	23052
844.708	23136
844.844	23239
844.98	23273
845.117	23090
845.253	23128
845.389	22919
845.525	22885
845.661	23022
845.798	22824
845.934	22911
846.07	22725
846.206	22854
846.342	22873
846.478	22869
846.614	22500
846.75	22531
846.886	22440
847.022	22698
847.158	22649
847.294	22546
847.429	22622
847.565	22561
847.701	22698
847.837	22352
847.972	22139
848.108	22337
848.244	22367
848.379	22109
848.515	22147
848.65	22120
848.786	22181
848.921	22181
849.057	22287
849.192	22348
849.328	22272
849.463	22295
849.598	22169
849.734	22048
849.869	21949
850.004	21934
850.14	21842
850.275	21972
850.41	21838
850.545	21857
850.68	21827
850.815	21857
850.95	21907
851.085	22188
851.22	21972
851.355	21983
851.49	21846
851.625	21892
851.76	21945
851.895	21846
852.03	21846
852.165	21873
852.299	21953
852.434	22055
852.569	21937
852.703	22017
852.838	21895
852.973	22063
853.107	22010
853.242	21823
853.376	21804
853.511	21641
853.645	21736
853.78	21842
853.914	21720
854.048	21713
854.183	21580
854.317	21812
854.451	21899
854.585	21762
854.72	21675
854.854	21835
854.988	21724
855.122	21762
855.256	21599
855.39	21591
855.524	21698
855.658	21823
855.792	21724
855.926	21762
856.06	21789
856.194	21804
856.327	21774
856.461	21732
856.595	21637
856.729	21671
856.862	21827
856.996	21671
857.13	21797
857.263	21911
857.397	21766
857.53	21686
857.664	21789
857.797	21823
857.931	21838
858.064	21778
858.197	21926
858.331	21755
858.464	21652
858.597	21736
858.731	21667
858.864	21743
858.997	21846
859.13	21903
859.263	21732
859.396	21713
859.529	21774
859.662	21686
859.795	21656
859.928	21781
860.061	21953
860.194	21964
860.327	21800
860.46	21622
860.592	21899
860.725	21778
860.858	21873
860.99	21732
861.123	21648
861.256	21766
861.388	21652
861.521	22466
861.653	21591
861.786	21526
861.918	21599
862.05	21587
862.183	21759
862.315	21648
862.447	21713
862.58	21553
862.712	21454
862.844	21477
862.976	21401
863.108	21466
863.24	22032
863.372	21321
863.504	21519
863.636	21367
863.768	21488
863.9	21466
864.032	21363
864.164	21424
864.296	21454
864.428	21561
864.559	21564
864.691	21443
864.823	21500
864.954	21344
865.086	21329
865.217	21329
865.349	21348
865.48	21310
865.612	21416
865.743	21408
865.875	21351
866.006	21157
866.137	21332
866.269	21412
866.4	21325
866.531	21359
866.662	21279
866.793	21214
866.924	21291
867.055	21325
867.186	21332
867.317	21226
867.448	21199
867.579	21252
867.71	21310
867.841	21203
867.972	21245
868.103	21203
868.233	21306
868.364	21306
868.495	21355
868.625	21496
868.756	21652
868.886	21405
869.017	21431
869.147	21610
869.278	21549
869.408	21454
869.539	21523
869.669	21507
869.799	21469
869.929	21675
870.06	21603
870.19	21701
870.32	21819
870.45	21804
870.58	21774
870.71	21991
870.84	21998
870.97	21899
871.1	21869
871.23	22032
871.36	22200
871.489	22070
871.619	21956
871.749	22124
871.879	22040
872.008	22211
872.138	22082
872.267	22055
872.397	21987
872.526	22044
872.656	21865
872.785	21892
872.915	22029
873.044	22116
873.173	22188
873.303	22158
873.432	22143
873.561	22272
873.69	22226
873.819	22051
873.948	22188
874.077	22158
874.206	21998
874.335	22143
874.464	22051
874.593	22417
874.722	22185
874.851	22295
874.979	22462
875.108	22310
875.237	22287
875.365	22074
875.494	22325
875.623	22375
875.751	22181
875.88	22417
876.008	22402
876.136	22489
876.265	22820
876.393	22873
876.521	22786
876.65	22702
876.778	22523
876.906	22634
877.034	22702
877.162	22637
877.29	22634
877.418	22828
877.546	22706
877.674	22634
877.802	22641
877.93	22630
878.058	22649
878.185	22519
878.313	22687
878.441	22622
878.568	22580
878.696	22573
878.824	22683
878.951	22691
879.079	22820
879.206	22923
879.333	22854
879.461	22733
879.588	22759
879.715	22774
879.842	22858
879.97	22771
880.097	22485
880.224	22531
880.351	22504
880.478	22531
880.605	22432
880.732	22489
880.859	22744
880.986	22493
881.112	22508
881.239	22341
881.366	22242
881.493	22173
881.619	22032
881.746	22010
881.872	22055
881.999	22029
882.125	22086
882.252	22086
882.378	22010
882.505	22032
882.631	21880
882.757	21842
882.883	21808
883.01	21603
883.136	21591
883.262	21576
883.388	21553
883.514	21705
883.64	21755
883.766	21587
883.892	21538
884.018	21500
884.143	21595
884.269	21686
884.395	21481
884.52	21439
884.646	21397
884.772	21351
884.897	21310
885.023	21477
885.148	21519
885.274	21507
885.399	21462
885.524	21416
885.65	21526
885.775	21344
885.9	21450
886.025	21424
886.15	21431
886.275	21302
886.4	21283
886.525	21443
886.65	21397
886.775	21241
886.9	21549
887.025	21633
887.149	21416
887.274	21222
887.399	21138
887.523	21089
887.648	21211
887.773	21085
887.897	21279
888.021	21154
888.146	21161
888.27	21127
888.395	21142
888.519	21104
888.643	21173
888.767	21249
888.891	21135
889.015	20960
889.139	20967
889.263	21005
889.387	21024
889.511	21066
889.635	20986
889.759	20899
889.883	20902
890.006	20998
890.13	21058
890.254	20792
890.377	20880
890.501	20629
890.624	20724
890.748	20727
890.871	20473
890.995	20438
891.118	20457
891.241	20579
891.364	20469
891.488	20575
891.611	20564
891.734	20442
891.857	20629
891.98	20499
892.103	20545
892.226	20556
892.349	20522
892.471	20343
892.594	20473
892.717	20404
892.839	20465
892.962	20522
893.085	20606
893.207	20355
893.33	20225
893.452	20389
893.575	20351
893.697	20434
893.819	20514
893.941	20492
894.064	20511
894.186	20343
894.308	20282
894.43	20533
894.552	20503
894.674	20431
894.796	20366
894.918	20488
895.04	20396
895.161	20412
895.283	20552
895.405	20412
895.526	20446
895.648	20404
895.769	20389
895.891	20404
896.012	20408
896.134	20309
896.255	20381
896.376	20347
896.498	20370
896.619	20404
896.74	20301
896.861	20499
896.982	20644
897.103	20785
897.224	20636
897.345	20590
897.466	20560
897.587	20705
897.708	20720
897.828	20590
897.949	20564
898.07	20454
898.19	20594
898.311	20670
898.431	20636
898.552	20674
898.672	20587
898.792	20701
898.913	20682
899.033	20442
899.153	20351
899.273	20309
899.393	20362
899.513	20503
899.633	20393
899.753	20362
899.873	20286
899.993	20229
900.113	20275
900.232	20263
900.352	20301
900.472	20119
900.591	20107
900.711	20088
900.83	20199
900.95	20221
901.069	20153
901.189	20001
901.308	19902
901.427	19613
901.546	19693
901.665	19780
901.784	19670
901.904	19514
902.023	19449
902.141	19358
902.26	19175
902.379	19168
902.498	19137
902.617	19099
902.735	19278
902.854	19126
902.973	19160
903.091	18848
903.21	18897
903.328	18871
903.446	18749
903.565	18627
903.683	18677
903.801	18525
903.919	18696
904.038	18722
904.156	18479
904.274	18544
904.392	18365
904.51	18445
904.627	18327
904.745	18456
904.863	18437
904.981	18174
905.098	18117
905.216	18152
905.334	18205
905.451	18102
905.569	18049
905.686	18106
905.803	18079
905.921	17923
906.038	18076
906.155	17950
906.272	17824
906.389	17893
906.506	17771
906.623	17771
906.74	17600
906.857	17558
906.974	17493
907.091	17638
907.208	17794
907.324	17722
907.441	17512
907.557	17425
907.674	17406
907.79	17250
907.907	17353
908.023	17326
908.139	17398
908.256	17296
908.372	17223
908.488	17140
908.604	17056
908.72	17037
908.836	17143
908.952	17071
909.068	17098
909.184	17124
909.3	17041
909.415	17128
909.531	17064
909.647	16900
909.762	16809
909.878	16778
909.993	16767
910.108	16790
910.224	16584
910.339	16713
910.454	16729
910.57	16634
910.685	16466
910.8	16885
910.915	16710
911.03	16554
911.145	16402
911.259	16303
911.374	16379
911.489	16440
911.604	16150
911.718	16173
911.833	16086
911.947	15972
912.062	15998
912.176	16074
912.291	16017
912.405	16078
912.519	16150
912.633	16185
912.748	16158
912.862	15994
912.976	15987
913.09	15842
913.204	15979
913.318	15953
913.431	15975
913.545	15869
913.659	16063
913.772	15888
913.886	15759
914	15728
914.113	15774
914.226	15876
914.34	15717
914.453	15625
914.566	15739
914.68	15625
914.793	15526
914.906	15363
915.019	15382
915.132	15264
915.245	15336
915.358	15317
915.47	15325
915.583	15317
915.696	15283
915.809	15481
915.921	15454
916.034	15329
916.146	15249
916.259	15233
916.371	15302
916.483	15279
916.595	15135
916.708	15119
916.82	15119
916.932	15203
917.044	15104
917.156	15047
917.268	14990
917.38	14994
917.491	14944
917.603	15047
917.715	15066
917.826	15009
917.938	14986
918.049	14785
918.161	14937
918.272	15112
918.384	14979
918.495	14823
918.606	14849
918.717	14678
918.828	14750
918.939	14796
919.05	14632
919.161	14686
919.272	14503
919.383	14522
919.494	14773
919.604	14933
919.715	14621
919.826	14533
919.936	14659
920.047	14746
920.157	14674
920.267	14956
920.378	14621
920.488	14545
920.598	14876
920.708	15009
920.818	14868
920.928	14864
921.038	14929
921.148	14960
921.258	14610
921.368	14518
921.477	14400
921.587	14495
921.697	14305
921.806	14366
921.916	14256
922.025	14073
922.134	14115
922.244	13963
922.353	14012
922.462	13894
922.571	13807
922.68	13677
922.789	13689
922.898	13700
923.007	13563
923.116	13696
923.224	13772
923.333	13582
923.442	13502
923.55	13537
923.659	13578
923.767	13525
923.876	13388
923.984	13544
924.092	13438
924.201	13491
924.309	13419
924.417	13384
924.525	13384
924.633	13419
924.741	14195
924.849	13171
924.956	13293
925.064	13069
925.172	13110
925.279	13171
925.387	13126
925.494	13107
925.602	13198
925.709	13065
925.816	13008
925.924	13076
926.031	13095
926.138	13072
926.245	13168
926.352	12981
926.459	13168
926.566	13103
926.673	12954
926.779	12844
926.886	12894
926.993	12696
927.099	12677
927.206	12677
927.312	12582
927.419	12700
927.525	12654
927.631	12582
927.737	12525
927.843	12528
927.95	12388
928.056	12418
928.162	12490
928.267	12544
928.373	13118
928.479	12502
928.585	12330
928.69	12456
928.796	12429
928.901	12433
929.007	12266
929.112	12361
929.218	12262
929.323	12292
929.428	12129
929.533	12422
929.638	12102
929.743	12098
929.848	12228
929.953	12213
930.058	12117
930.163	11912
930.267	11931
930.372	11969
930.477	11866
930.581	12026
930.685	11980
930.79	11874
930.894	11836
930.998	11836
931.103	11923
931.207	11509
931.311	11433
931.415	11364
931.519	11170
931.623	11086
