Data from test_V78500241_1650.txt Node
Date: Fri Mar 25 15:21:20 CST 2022
User: usil
Spectrometer: V785-0024
Trigger mode: 0
Integration Time (sec): 4.000000E-1
Scans to average: 1
Nonlinearity correction enabled: false
Boxcar width: 0
Storing dark spectrum: false
XAxis mode: Wavelengths
Number of Pixels in Spectrum: 1024
>>>>>Begin Spectral Data<<<<<
801.071	27918
801.214	27793
801.356	27709
801.499	27481
801.641	27458
801.783	27477
801.926	27427
802.068	27382
802.211	27325
802.353	27294
802.496	27100
802.638	26998
802.78	26994
802.923	26971
803.065	26956
803.208	27017
803.35	27283
803.492	27157
803.635	27249
803.777	27055
803.919	27188
804.061	27447
804.204	27401
804.346	27264
804.488	27180
804.63	27321
804.773	27173
804.915	27207
805.057	27283
805.199	27382
805.341	27386
805.483	27435
805.626	27427
805.768	27249
805.91	27241
806.052	27378
806.194	27226
806.336	27583
806.478	27492
806.62	27340
806.762	27443
806.904	27679
807.046	27884
807.188	27804
807.33	27701
807.472	27755
807.614	27759
807.756	27709
807.898	27778
808.04	27675
808.182	27587
808.324	27526
808.465	27812
808.607	27911
808.749	27914
808.891	28154
809.033	28185
809.174	28078
809.316	27934
809.458	27968
809.6	27956
809.741	28177
809.883	28162
810.025	28261
810.166	28284
810.308	28215
810.45	28196
810.591	28082
810.733	28067
810.875	27861
811.016	27907
811.158	27926
811.299	27949
811.441	28082
811.582	28173
811.724	28093
811.865	27983
812.007	28002
812.148	27937
812.29	28090
812.431	28135
812.573	28417
812.714	28557
812.855	28569
812.997	28649
813.138	28900
813.279	28683
813.421	28599
813.562	28531
813.703	28306
813.845	28226
813.986	27926
814.127	27797
814.268	27667
814.41	27686
814.551	27622
814.692	27911
814.833	27644
814.974	27686
815.115	27637
815.256	27485
815.397	27667
815.539	27526
815.68	27420
815.821	27374
815.962	27519
816.103	27572
816.244	27443
816.385	27294
816.526	27348
816.666	27245
816.807	26940
816.948	26986
817.089	27055
817.23	27077
817.371	26933
817.512	27074
817.653	26906
817.793	26830
817.934	27089
818.075	27032
818.216	26960
818.356	26982
818.497	26956
818.638	26667
818.778	26902
818.919	26693
819.06	26830
819.2	26788
819.341	26861
819.481	27195
819.622	27161
819.762	27272
819.903	27336
820.043	27237
820.184	27146
820.324	27096
820.465	27100
820.605	27013
820.746	27081
820.886	26906
821.026	27138
821.167	27066
821.307	27032
821.447	27093
821.588	26952
821.728	26788
821.868	26530
822.008	26473
822.149	26374
822.289	26552
822.429	26126
822.569	26149
822.709	26103
822.849	26062
822.99	25837
823.13	25894
823.27	25925
823.41	25803
823.55	25788
823.69	25772
823.83	25776
823.97	25761
824.11	25639
824.25	25632
824.389	25658
824.529	25662
824.669	25605
824.809	25719
824.949	25712
825.089	25658
825.228	25620
825.368	25639
825.508	25464
825.648	25438
825.787	25556
825.927	25453
826.067	25388
826.206	25327
826.346	25468
826.485	25453
826.625	25400
826.765	25518
826.904	25613
827.044	25308
827.183	25194
827.323	25236
827.462	25274
827.601	25232
827.741	25206
827.88	25118
828.02	25133
828.159	25217
828.298	25107
828.437	25327
828.577	25114
828.716	25160
828.855	25107
828.994	24954
829.134	24905
829.273	24825
829.412	24859
829.551	24886
829.69	24848
829.829	24840
829.968	24981
830.107	24859
830.246	24844
830.385	24684
830.524	24821
830.663	24753
830.802	24601
830.941	24559
831.08	24555
831.219	24601
831.357	24623
831.496	24719
831.635	24521
831.774	24350
831.913	24391
832.051	24308
832.19	24258
832.329	24285
832.467	24292
832.606	24079
832.744	24152
832.883	24152
833.022	24125
833.16	24095
833.299	24121
833.437	24315
833.576	24281
833.714	24129
833.852	24342
833.991	24292
834.129	24350
834.267	24437
834.406	24292
834.544	24167
834.682	24209
834.821	24216
834.959	24338
835.097	24159
835.235	24209
835.373	24220
835.511	24239
835.65	24114
835.788	24060
835.926	23882
836.064	23843
836.202	23889
836.34	24030
836.478	24060
836.615	23965
836.753	24114
836.891	24015
837.029	24083
837.167	24034
837.305	23851
837.443	23984
837.58	23950
837.718	23992
837.856	24038
837.993	23916
838.131	23859
838.269	23767
838.406	23695
838.544	23798
838.681	23592
838.819	23615
838.956	23459
839.094	23425
839.231	23414
839.369	23493
839.506	23863
839.643	23516
839.781	23410
839.918	23277
840.055	23296
840.193	23474
840.33	23284
840.467	23277
840.604	23284
840.742	23600
840.879	23166
841.016	23303
841.153	23273
841.29	23391
841.427	23303
841.564	23318
841.701	23235
841.838	23231
841.975	23132
842.112	23235
842.249	23025
842.385	23018
842.522	23166
842.659	23098
842.796	23075
842.933	23067
843.069	23003
843.206	23033
843.343	23140
843.479	23037
843.616	23048
843.752	22828
843.889	22755
844.025	22999
844.162	22660
844.298	22759
844.435	22763
844.571	22729
844.708	22965
844.844	22904
844.98	22915
845.117	22968
845.253	22797
845.389	22668
845.525	22733
845.661	22607
845.798	22538
845.934	22603
846.07	22500
846.206	22516
846.342	22596
846.478	22485
846.614	22322
846.75	22253
846.886	22257
847.022	22382
847.158	22371
847.294	22211
847.429	22306
847.565	22261
847.701	22554
847.837	22078
847.972	21930
848.108	22086
848.244	22082
848.379	22048
848.515	21880
848.65	21835
848.786	21918
848.921	21827
849.057	21857
849.192	22059
849.328	21869
849.463	21865
849.598	21774
849.734	21755
849.869	21652
850.004	21610
850.14	21709
850.275	21595
850.41	21599
850.545	21523
850.68	21713
850.815	21762
850.95	21599
851.085	21778
851.22	21838
851.355	21641
851.49	21713
851.625	21545
851.76	21534
851.895	21542
852.03	21428
852.165	21652
852.299	21618
852.434	21610
852.569	21526
852.703	21618
852.838	21549
852.973	21766
853.107	21808
853.242	21622
853.376	21599
853.511	21469
853.645	21439
853.78	21515
853.914	21435
854.048	21389
854.183	21431
854.317	21435
854.451	21644
854.585	21488
854.72	21450
854.854	21595
854.988	21287
855.122	21523
855.256	21348
855.39	21408
855.524	21447
855.658	21618
855.792	21393
855.926	21492
856.06	21450
856.194	21572
856.327	21401
856.461	21428
856.595	21481
856.729	21561
856.862	21481
856.996	21435
857.13	21496
857.263	21557
857.397	21408
857.53	21481
857.664	21526
857.797	21447
857.931	21431
858.064	21500
858.197	21633
858.331	21408
858.464	21340
858.597	21325
858.731	21416
858.864	21500
858.997	21428
859.13	21439
859.263	21462
859.396	21629
859.529	21397
859.662	21344
859.795	21363
859.928	21511
860.061	21637
860.194	21652
860.327	21458
860.46	21504
860.592	21599
860.725	21637
860.858	21614
860.99	21515
861.123	21511
861.256	21382
861.388	21378
861.521	22166
861.653	21351
861.786	21306
861.918	21416
862.05	21332
862.183	21447
862.315	21374
862.447	21526
862.58	21382
862.712	21226
862.844	21154
862.976	21294
863.108	21169
863.24	21511
863.372	21051
863.504	21127
863.636	21138
863.768	21180
863.9	21070
864.032	21024
864.164	21180
864.296	21119
864.428	21233
864.559	21230
864.691	21207
864.823	21169
864.954	21283
865.086	21142
865.217	21047
865.349	20906
865.48	21020
865.612	21096
865.743	21188
865.875	21013
866.006	21074
866.137	21138
866.269	21009
866.4	20967
866.531	20925
866.662	21001
866.793	20853
866.924	20948
867.055	21009
867.186	20982
867.317	20925
867.448	20918
867.579	20975
867.71	20883
867.841	20918
867.972	20925
868.103	20929
868.233	21058
868.364	21036
868.495	21096
868.625	21100
868.756	21397
868.886	21222
869.017	21241
869.147	21348
869.278	21306
869.408	21249
869.539	21241
869.669	21355
869.799	21104
869.929	21260
870.06	21283
870.19	21355
870.32	21454
870.45	21534
870.58	21641
870.71	21743
870.84	21580
870.97	21583
871.1	21591
871.23	21778
871.36	21842
871.489	21564
871.619	21759
871.749	21873
871.879	21736
872.008	21899
872.138	21873
872.267	21793
872.397	21686
872.526	21492
872.656	21618
872.785	21701
872.915	21800
873.044	21960
873.173	21926
873.303	21873
873.432	21892
873.561	21854
873.69	21899
873.819	21842
873.948	21873
874.077	21968
874.206	21880
874.335	21895
874.464	21892
874.593	22017
874.722	22029
874.851	22093
874.979	22124
875.108	22169
875.237	22048
875.365	21941
875.494	21972
875.623	22101
875.751	22063
875.88	22048
876.008	22223
876.136	22238
876.265	22485
876.393	22637
876.521	22607
876.65	22569
876.778	22459
876.906	22447
877.034	22314
877.162	22443
877.29	22363
877.418	22417
877.546	22390
877.674	22398
877.802	22405
877.93	22314
878.058	22310
878.185	22287
878.313	22424
878.441	22478
878.568	22314
878.696	22329
878.824	22519
878.951	22470
879.079	22542
879.206	22698
879.333	22485
879.461	22405
879.588	22398
879.715	22516
879.842	22611
879.97	22485
880.097	22249
880.224	22181
880.351	22169
880.478	22154
880.605	22196
880.732	22154
880.859	22413
880.986	22188
881.112	22363
881.239	22093
881.366	22090
881.493	21842
881.619	21884
881.746	21789
881.872	21709
881.999	21698
882.125	21724
882.252	21888
882.378	21739
882.505	21903
882.631	21797
882.757	21625
882.883	21568
883.01	21492
883.136	21511
883.262	21443
883.388	21355
883.514	21454
883.64	21492
883.766	21447
883.892	21363
884.018	21298
884.143	21431
884.269	21504
884.395	21268
884.52	21203
884.646	21214
884.772	21085
884.897	21039
885.023	21173
885.148	21195
885.274	21211
885.399	21154
885.524	21237
885.65	21180
885.775	21112
885.9	21070
886.025	21161
886.15	21173
886.275	21135
886.4	21131
886.525	21066
886.65	21017
886.775	21081
886.9	21302
887.025	21256
887.149	21100
887.274	20925
887.399	20914
887.523	20883
887.648	20902
887.773	20834
887.897	20979
888.021	20979
888.146	20800
888.27	20952
888.395	20853
888.519	20883
888.643	20944
888.767	20910
888.891	20800
889.015	20792
889.139	20727
889.263	20754
889.387	20815
889.511	20918
889.635	20861
889.759	20659
889.883	20636
890.006	20682
890.13	20861
890.254	20655
890.377	20629
890.501	20492
890.624	20514
890.748	20507
890.871	20332
890.995	20221
891.118	20142
891.241	20278
891.364	20252
891.488	20339
891.611	20389
891.734	20328
891.857	20278
891.98	20343
892.103	20259
892.226	20358
892.349	20237
892.471	20039
892.594	20180
892.717	20294
892.839	20237
892.962	20168
893.085	20195
893.207	20275
893.33	20081
893.452	20107
893.575	20275
893.697	20187
893.819	20305
893.941	20355
894.064	20294
894.186	20126
894.308	20168
894.43	20176
894.552	20320
894.674	20271
894.796	20092
894.918	20103
895.04	20092
895.161	20115
895.283	20210
895.405	20145
895.526	20145
895.648	20100
895.769	20278
895.891	20187
896.012	20161
896.134	20218
896.255	20153
896.376	20100
896.498	20065
896.619	20172
896.74	20214
896.861	20244
896.982	20518
897.103	20587
897.224	20385
897.345	20396
897.466	20305
897.587	20423
897.708	20533
897.828	20362
897.949	20309
898.07	20103
898.19	20317
898.311	20377
898.431	20370
898.552	20305
898.672	20461
898.792	20434
898.913	20415
899.033	20275
899.153	20183
899.273	20214
899.393	20168
899.513	20259
899.633	20157
899.753	20153
899.873	20126
899.993	20126
900.113	20126
900.232	20077
900.352	20096
900.472	19944
900.591	19947
900.711	20043
900.83	19944
900.95	19917
901.069	19970
901.189	19822
901.308	19597
901.427	19502
901.546	19495
901.665	19506
901.784	19571
901.904	19373
902.023	19373
902.141	19107
902.26	19038
902.379	18973
902.498	18993
902.617	18989
902.735	19027
902.854	18924
902.973	18905
903.091	18658
903.21	18715
903.328	18525
903.446	18528
903.565	18570
903.683	18528
903.801	18475
903.919	18429
904.038	18369
904.156	18155
904.274	18418
904.392	18296
904.51	18273
904.627	18152
904.745	18296
904.863	18304
904.981	18148
905.098	17969
905.216	17847
905.334	17927
905.451	17908
905.569	17961
905.686	17996
905.803	17931
905.921	17760
906.038	17786
906.155	17843
906.272	17627
906.389	17585
906.506	17463
906.623	17493
906.74	17410
906.857	17322
906.974	17391
907.091	17528
907.208	17596
907.324	17482
907.441	17254
907.557	17239
907.674	17273
907.79	17140
907.907	17174
908.023	17189
908.139	17170
908.256	17117
908.372	17140
908.488	16980
908.604	16942
908.72	16869
908.836	16915
908.952	16869
909.068	16957
909.184	16839
909.3	16828
909.415	16896
909.531	16831
909.647	16592
909.762	16672
909.878	16592
909.993	16599
910.108	16561
910.224	16527
910.339	16455
910.454	16455
910.57	16398
910.685	16348
910.8	16672
910.915	16493
911.03	16409
911.145	16257
911.259	16128
911.374	16272
911.489	16124
911.604	16059
911.718	15857
911.833	15857
911.947	15778
912.062	15732
912.176	15994
912.291	16006
912.405	15918
912.519	16093
912.633	16093
912.748	15987
912.862	15846
912.976	15736
913.09	15633
913.204	15751
913.318	15850
913.431	15732
913.545	15861
913.659	15915
913.772	15720
913.886	15515
914	15492
914.113	15667
914.226	15755
914.34	15728
914.453	15443
914.566	15572
914.68	15431
914.793	15233
914.906	15222
915.019	15195
915.132	15089
915.245	15161
915.358	15165
915.47	15192
915.583	15123
915.696	15180
915.809	15272
915.921	15199
916.034	15047
916.146	14986
916.259	15051
916.371	15081
916.483	15074
916.595	14990
916.708	14918
916.82	14929
916.932	14845
917.044	15005
917.156	14918
917.268	14765
917.38	14792
917.491	14739
917.603	14811
917.715	14811
917.826	14902
917.938	14773
918.049	14705
918.161	14674
918.272	14857
918.384	14895
918.495	14800
918.606	14606
918.717	14526
918.828	14594
918.939	14602
919.05	14484
919.161	14560
919.272	14366
919.383	14328
919.494	14689
919.604	14632
919.715	14518
919.826	14446
919.936	14549
920.047	14575
920.157	14549
920.267	14651
920.378	14606
920.488	14370
920.598	14617
920.708	14872
920.818	14556
920.928	14594
921.038	14792
921.148	14819
921.258	14434
921.368	14450
921.477	14351
921.587	14168
921.697	14149
921.806	14214
921.916	14145
922.025	13940
922.134	13936
922.244	13921
922.353	13921
922.462	13776
922.571	13734
922.68	13559
922.789	13590
922.898	13548
923.007	13544
923.116	13594
923.224	13525
923.333	13525
923.442	13460
923.55	13369
923.659	13415
923.767	13514
923.876	13362
923.984	13381
924.092	13335
924.201	13304
924.309	13285
924.417	13297
924.525	13145
924.633	13221
924.741	14111
924.849	13004
924.956	13118
925.064	13019
925.172	12932
925.279	12837
925.387	12951
925.494	13057
925.602	13099
925.709	13088
925.816	12928
925.924	12894
926.031	12966
926.138	12905
926.245	12825
926.352	12745
926.459	12890
926.566	12993
926.673	12757
926.779	12814
926.886	12711
926.993	12608
927.099	12578
927.206	12525
927.312	12429
927.419	12578
927.525	12536
927.631	12620
927.737	12391
927.843	12369
927.95	12346
928.056	12327
928.162	12308
928.267	12296
928.373	13000
928.479	12369
928.585	12190
928.69	12308
928.796	12281
928.901	12216
929.007	11999
929.112	12251
929.218	12117
929.323	12136
929.428	12034
929.533	12243
929.638	11980
929.743	11977
929.848	12091
929.953	12079
930.058	11931
930.163	11775
930.267	11745
930.372	11851
930.477	11665
930.581	11901
930.685	11790
930.79	11627
930.894	11684
930.998	11638
931.103	11790
931.207	11395
931.311	11307
931.415	11258
931.519	11033
931.623	10930
