Data from test_V78500241_2359.txt Node
Date: Fri Mar 25 15:26:17 CST 2022
User: usil
Spectrometer: V785-0024
Trigger mode: 0
Integration Time (sec): 4.000000E-1
Scans to average: 1
Nonlinearity correction enabled: false
Boxcar width: 0
Storing dark spectrum: false
XAxis mode: Wavelengths
Number of Pixels in Spectrum: 1024
>>>>>Begin Spectral Data<<<<<
801.071	27321
801.214	27173
801.356	27062
801.499	27036
801.641	26819
801.783	26765
801.926	26910
802.068	26910
802.211	26804
802.353	26830
802.496	26412
802.638	26518
802.78	26377
802.923	26389
803.065	26320
803.208	26446
803.35	26370
803.492	26526
803.635	26476
803.777	26480
803.919	26613
804.061	26971
804.204	26655
804.346	26473
804.488	26434
804.63	26617
804.773	26385
804.915	26617
805.057	26640
805.199	26590
805.341	26788
805.483	26743
805.626	26819
805.768	26503
805.91	26579
806.052	26777
806.194	26636
806.336	26956
806.478	26686
806.62	26651
806.762	26842
806.904	26883
807.046	27093
807.188	27165
807.33	27165
807.472	27154
807.614	26944
807.756	26994
807.898	26960
808.04	26933
808.182	26868
808.324	26994
808.465	26940
808.607	27317
808.749	27321
808.891	27424
809.033	27355
809.174	27397
809.316	27207
809.458	27237
809.6	27226
809.741	27431
809.883	27317
810.025	27542
810.166	27591
810.308	27633
810.45	27477
810.591	27450
810.733	27367
810.875	27077
811.016	27081
811.158	27127
811.299	27294
811.441	27408
811.582	27237
811.724	27325
811.865	27180
812.007	27207
812.148	27332
812.29	27291
812.431	27431
812.573	27507
812.714	27637
812.855	27694
812.997	27926
813.138	27922
813.279	27949
813.421	27827
813.562	27682
813.703	27610
813.845	27492
813.986	27226
814.127	26906
814.268	26868
814.41	26990
814.551	26781
814.692	27039
814.833	26796
814.974	26921
815.115	26982
815.256	26765
815.397	26933
815.539	26868
815.68	26834
815.821	26659
815.962	26705
816.103	26659
816.244	26739
816.385	26450
816.526	26446
816.666	26294
816.807	26172
816.948	26438
817.089	26396
817.23	26332
817.371	26202
817.512	26103
817.653	26324
817.793	26081
817.934	26153
818.075	26248
818.216	26092
818.356	26221
818.497	26005
818.638	26046
818.778	25852
818.919	25909
819.06	25955
819.2	26111
819.341	26187
819.481	26157
819.622	26415
819.762	26492
819.903	26393
820.043	26484
820.184	26415
820.324	26343
820.465	26438
820.605	26415
820.746	26385
820.886	26164
821.026	26419
821.167	26278
821.307	26233
821.447	26164
821.588	26096
821.728	25997
821.868	25887
822.008	25765
822.149	25693
822.289	25765
822.429	25278
822.569	25510
822.709	25350
822.849	25282
822.99	25175
823.13	25285
823.27	25072
823.41	25027
823.55	24947
823.69	25084
823.83	24954
823.97	25107
824.11	24795
824.25	24840
824.389	24749
824.529	24924
824.669	24757
824.809	24871
824.949	24939
825.089	24939
825.228	24882
825.368	24620
825.508	24677
825.648	24654
825.787	24677
825.927	24741
826.067	24623
826.206	24806
826.346	24730
826.485	24779
826.625	24642
826.765	24833
826.904	24738
827.044	24578
827.183	24433
827.323	24403
827.462	24456
827.601	24445
827.741	24429
827.88	24422
828.02	24201
828.159	24315
828.298	24410
828.437	24399
828.577	24384
828.716	24311
828.855	24304
828.994	24018
829.134	24064
829.273	24186
829.412	24159
829.551	24083
829.69	24251
829.829	24190
829.968	24163
830.107	24235
830.246	24087
830.385	24011
830.524	24011
830.663	23912
830.802	23832
830.941	23764
831.08	23684
831.219	23927
831.357	23786
831.496	24030
831.635	23687
831.774	23752
831.913	23558
832.051	23505
832.19	23539
832.329	23562
832.467	23368
832.606	23364
832.744	23318
832.883	23436
833.022	23349
833.16	23493
833.299	23486
833.437	23425
833.576	23539
833.714	23482
833.852	23490
833.991	23474
834.129	23459
834.267	23326
834.406	23562
834.544	23501
834.682	23531
834.821	23425
834.959	23592
835.097	23387
835.235	23448
835.373	23455
835.511	23410
835.65	23512
835.788	23250
835.926	23140
836.064	22999
836.202	23124
836.34	23269
836.478	23391
836.615	23254
836.753	23258
836.891	23444
837.029	23356
837.167	23155
837.305	23254
837.443	23261
837.58	23208
837.718	23261
837.856	23261
837.993	23136
838.131	23109
838.269	22957
838.406	23113
838.544	22942
838.681	22889
838.819	22816
838.956	22603
839.094	22611
839.231	22725
839.369	22755
839.506	22965
839.643	22820
839.781	22615
839.918	22584
840.055	22672
840.193	22592
840.33	22615
840.467	22504
840.604	22565
840.742	22786
840.879	22402
841.016	22466
841.153	22325
841.29	22611
841.427	22493
841.564	22542
841.701	22497
841.838	22462
841.975	22402
842.112	22375
842.249	22371
842.385	22341
842.522	22504
842.659	22447
842.796	22291
842.933	22333
843.069	22223
843.206	22169
843.343	22440
843.479	22325
843.616	22341
843.752	22188
843.889	22090
844.025	22200
844.162	22093
844.298	22082
844.435	22124
844.571	22013
844.708	22067
844.844	22272
844.98	22116
845.117	22128
845.253	22097
845.389	21960
845.525	21972
845.661	21922
845.798	21892
845.934	21873
846.07	21793
846.206	21930
846.342	21983
846.478	21781
846.614	21762
846.75	21515
846.886	21542
847.022	21781
847.158	21496
847.294	21568
847.429	21606
847.565	21622
847.701	21724
847.837	21237
847.972	21252
848.108	21363
848.244	21389
848.379	21150
848.515	21249
848.65	21013
848.786	21195
848.921	21184
849.057	21138
849.192	21211
849.328	21165
849.463	21192
849.598	21070
849.734	21085
849.869	20994
850.004	20952
850.14	20956
850.275	20910
850.41	20941
850.545	20902
850.68	20819
850.815	20933
850.95	20826
851.085	21009
851.22	21116
851.355	20883
851.49	20941
851.625	20883
851.76	20921
851.895	20765
852.03	20861
852.165	20838
852.299	20845
852.434	21024
852.569	20975
852.703	21036
852.838	20948
852.973	21077
853.107	20902
853.242	20910
853.376	20861
853.511	20670
853.645	20670
853.78	20792
853.914	20792
854.048	20765
854.183	20621
854.317	20724
854.451	20819
854.585	20785
854.72	20727
854.854	20773
854.988	20735
855.122	20705
855.256	20587
855.39	20583
855.524	20823
855.658	20811
855.792	20670
855.926	20724
856.06	20724
856.194	20792
856.327	20769
856.461	20697
856.595	20632
856.729	20773
856.862	20823
856.996	20773
857.13	20773
857.263	20823
857.397	20731
857.53	20708
857.664	20807
857.797	20815
857.931	20720
858.064	20769
858.197	20804
858.331	20735
858.464	20731
858.597	20598
858.731	20762
858.864	20705
858.997	20811
859.13	20674
859.263	20678
859.396	20815
859.529	20724
859.662	20655
859.795	20701
859.928	20826
860.061	20948
860.194	21036
860.327	20857
860.46	20708
860.592	20838
860.725	20849
860.858	20765
860.99	20674
861.123	20739
861.256	20617
861.388	20731
861.521	21317
861.653	20590
861.786	20590
861.918	20415
862.05	20621
862.183	20686
862.315	20712
862.447	20705
862.58	20674
862.712	20366
862.844	20415
862.976	20446
863.108	20457
863.24	20891
863.372	20362
863.504	20332
863.636	20366
863.768	20537
863.9	20476
864.032	20370
864.164	20457
864.296	20438
864.428	20594
864.559	20621
864.691	20606
864.823	20541
864.954	20480
865.086	20377
865.217	20317
865.349	20328
865.48	20294
865.612	20419
865.743	20476
865.875	20313
866.006	20256
866.137	20206
866.269	20294
866.4	20278
866.531	20358
866.662	20317
866.793	20324
866.924	20317
867.055	20237
867.186	20320
867.317	20210
867.448	20240
867.579	20206
867.71	20298
867.841	20237
867.972	20180
868.103	20294
868.233	20431
868.364	20229
868.495	20374
868.625	20552
868.756	20655
868.886	20499
869.017	20480
869.147	20541
869.278	20727
869.408	20575
869.539	20533
869.669	20564
869.799	20568
869.929	20739
870.06	20743
870.19	20804
870.32	20735
870.45	20796
870.58	20948
870.71	21017
870.84	21066
870.97	20960
871.1	20830
871.23	21043
871.36	21131
871.489	21024
871.619	21127
871.749	21131
871.879	21077
872.008	21332
872.138	21169
872.267	21100
872.397	20994
872.526	20941
872.656	20925
872.785	20994
872.915	21161
873.044	21279
873.173	21188
873.303	21222
873.432	21199
873.561	21302
873.69	21211
873.819	21176
873.948	21142
874.077	21024
874.206	21123
874.335	21085
874.464	21325
874.593	21447
874.722	21340
874.851	21382
874.979	21389
875.108	21386
875.237	21389
875.365	21382
875.494	21363
875.623	21530
875.751	21397
875.88	21378
876.008	21519
876.136	21583
876.265	21751
876.393	21842
876.521	21865
876.65	21770
876.778	21766
876.906	21778
877.034	21652
877.162	21800
877.29	21629
877.418	21781
877.546	21774
877.674	21770
877.802	21709
877.93	21747
878.058	21641
878.185	21587
878.313	21682
878.441	21755
878.568	21564
878.696	21587
878.824	21823
878.951	21899
879.079	21888
879.206	22109
879.333	22040
879.461	21736
879.588	21983
879.715	21812
879.842	21991
879.97	21869
880.097	21545
880.224	21534
880.351	21690
880.478	21599
880.605	21500
880.732	21576
880.859	21705
880.986	21496
881.112	21587
881.239	21389
881.366	21233
881.493	21260
881.619	21214
881.746	21062
881.872	21165
881.999	21161
882.125	21055
882.252	21127
882.378	21066
882.505	21230
882.631	21047
882.757	20781
882.883	20895
883.01	20746
883.136	20739
883.262	20670
883.388	20788
883.514	20853
883.64	20914
883.766	20708
883.892	20598
884.018	20678
884.143	20762
884.269	20921
884.395	20556
884.52	20385
884.646	20495
884.772	20457
884.897	20305
885.023	20434
885.148	20568
885.274	20670
885.399	20617
885.524	20530
885.65	20457
885.775	20530
885.9	20533
886.025	20602
886.15	20473
886.275	20408
886.4	20355
886.525	20457
886.65	20484
886.775	20438
886.9	20537
887.025	20549
887.149	20484
887.274	20214
887.399	20221
887.523	20351
887.648	20176
887.773	20206
887.897	20389
888.021	20218
888.146	20221
888.27	20427
888.395	20396
888.519	20305
888.643	20339
888.767	20370
888.891	20195
889.015	20058
889.139	20119
889.263	20020
889.387	20206
889.511	20237
889.635	20210
889.759	19951
889.883	20058
890.006	20054
890.13	20153
890.254	20077
890.377	20107
890.501	19925
890.624	19784
890.748	19875
890.871	19765
890.995	19559
891.118	19658
891.241	19693
891.364	19559
891.488	19738
891.611	19662
891.734	19685
891.857	19788
891.98	19628
892.103	19696
892.226	19647
892.349	19677
892.471	19506
892.594	19575
892.717	19594
892.839	19434
892.962	19620
893.085	19571
893.207	19552
893.33	19502
893.452	19472
893.575	19624
893.697	19605
893.819	19734
893.941	19769
894.064	19746
894.186	19514
894.308	19377
894.43	19639
894.552	19712
894.674	19670
894.796	19499
894.918	19521
895.04	19548
895.161	19704
895.283	19594
895.405	19540
895.526	19430
895.648	19544
895.769	19613
895.891	19575
896.012	19651
896.134	19655
896.255	19681
896.376	19620
896.498	19620
896.619	19666
896.74	19586
896.861	19601
896.982	19890
897.103	20073
897.224	19772
897.345	19780
897.466	19742
897.587	19742
897.708	19970
897.828	19868
897.949	19833
898.07	19651
898.19	19753
898.311	19864
898.431	19750
898.552	19712
898.672	19814
898.792	19879
898.913	19856
899.033	19582
899.153	19620
899.273	19453
899.393	19563
899.513	19632
899.633	19605
899.753	19662
899.873	19426
899.993	19639
900.113	19616
900.232	19529
900.352	19540
900.472	19388
900.591	19362
900.711	19270
900.83	19251
900.95	19400
901.069	19392
901.189	19274
901.308	19023
901.427	18932
901.546	18924
901.665	18985
901.784	19004
901.904	18882
902.023	18719
902.141	18486
902.26	18456
902.379	18551
902.498	18319
902.617	18494
902.735	18479
902.854	18441
902.973	18418
903.091	18262
903.21	18144
903.328	18129
903.446	18087
903.565	18049
903.683	17996
903.801	17866
903.919	17870
904.038	17870
904.156	17630
904.274	17855
904.392	17745
904.51	17672
904.627	17630
904.745	17737
904.863	17714
904.981	17604
905.098	17452
905.216	17360
905.334	17406
905.451	17364
905.569	17383
905.686	17395
905.803	17398
905.921	17086
906.038	17223
906.155	17223
906.272	17029
906.389	17010
906.506	16930
906.623	16953
906.74	16938
906.857	16763
906.974	16881
907.091	16930
907.208	17018
907.324	16835
907.441	16797
907.557	16660
907.674	16717
907.79	16630
907.907	16611
908.023	16618
908.139	16733
908.256	16596
908.372	16470
908.488	16588
908.604	16428
908.72	16352
908.836	16360
908.952	16310
909.068	16459
909.184	16485
909.3	16344
909.415	16447
909.531	16344
909.647	16162
909.762	16131
909.878	16082
909.993	16109
910.108	16055
910.224	16120
910.339	16002
910.454	15918
910.57	15937
910.685	15793
910.8	16086
910.915	16120
911.03	15949
911.145	15755
911.259	15755
911.374	15709
911.489	15587
911.604	15584
911.718	15370
911.833	15374
911.947	15420
912.062	15348
912.176	15321
912.291	15477
912.405	15370
912.519	15686
912.633	15633
912.748	15473
912.862	15348
912.976	15241
913.09	15188
913.204	15218
913.318	15279
913.431	15302
913.545	15237
913.659	15306
913.772	15207
913.886	15051
914	15028
914.113	15142
914.226	15150
914.34	15150
914.453	15013
914.566	15085
914.68	14925
914.793	14960
914.906	14701
915.019	14632
915.132	14655
915.245	14724
915.358	14724
915.47	14670
915.583	14712
915.696	14568
915.809	14781
915.921	14838
916.034	14583
916.146	14632
916.259	14670
916.371	14613
916.483	14606
916.595	14427
916.708	14541
916.82	14457
916.932	14454
917.044	14415
917.156	14427
917.268	14454
917.38	14358
917.491	14366
917.603	14343
917.715	14385
917.826	14336
917.938	14324
918.049	14199
918.161	14320
918.272	14446
918.384	14427
918.495	14248
918.606	14164
918.717	14035
918.828	14202
918.939	14180
919.05	14050
919.161	14088
919.272	13978
919.383	14008
919.494	14202
919.604	14385
919.715	14100
919.826	14046
919.936	14130
920.047	14107
920.157	14100
920.267	14347
920.378	14130
920.488	14031
920.598	14317
920.708	14317
920.818	14157
920.928	14218
921.038	14412
921.148	14343
921.258	13978
921.368	13955
921.477	13845
921.587	13849
921.697	13765
921.806	13807
921.916	13662
922.025	13537
922.134	13438
922.244	13396
922.353	13559
922.462	13365
922.571	13236
922.68	13129
922.789	13213
922.898	13141
923.007	13137
923.116	13141
923.224	13149
923.333	13038
923.442	12973
923.55	13015
923.659	12962
923.767	13053
923.876	12951
923.984	13061
924.092	12776
924.201	12932
924.309	12844
924.417	12943
924.525	12764
924.633	12833
924.741	13799
924.849	12639
924.956	12776
925.064	12627
925.172	12494
925.279	12509
925.387	12494
925.494	12578
925.602	12760
925.709	12635
925.816	12498
925.924	12471
926.031	12563
926.138	12494
926.245	12521
926.352	12365
926.459	12528
926.566	12521
926.673	12479
926.779	12410
926.886	12372
926.993	12213
927.099	12110
927.206	12041
927.312	12072
927.419	12243
927.525	12175
927.631	12175
927.737	12121
927.843	12038
927.95	11882
928.056	11977
928.162	12011
928.267	12045
928.373	12467
928.479	12125
928.585	11874
928.69	11931
928.796	11999
928.901	11878
929.007	11710
929.112	11832
929.218	11901
929.323	11802
929.428	11733
929.533	11847
929.638	11638
929.743	11657
929.848	11741
929.953	11619
930.058	11608
930.163	11414
930.267	11501
930.372	11478
930.477	11337
930.581	11611
930.685	11410
930.79	11250
930.894	11372
930.998	11311
931.103	11448
931.207	11086
931.311	10957
931.415	10881
931.519	10736
931.623	10706
