Data from test_V78500241_2026.txt Node
Date: Fri Mar 25 15:23:57 CST 2022
User: usil
Spectrometer: V785-0024
Trigger mode: 0
Integration Time (sec): 4.000000E-1
Scans to average: 1
Nonlinearity correction enabled: false
Boxcar width: 0
Storing dark spectrum: false
XAxis mode: Wavelengths
Number of Pixels in Spectrum: 1024
>>>>>Begin Spectral Data<<<<<
801.071	27926
801.214	27857
801.356	27549
801.499	27606
801.641	27405
801.783	27378
801.926	27530
802.068	27389
802.211	27321
802.353	27291
802.496	27112
802.638	27077
802.78	27017
802.923	27112
803.065	26960
803.208	27112
803.35	27032
803.492	27176
803.635	27359
803.777	27283
803.919	27321
804.061	27641
804.204	27367
804.346	27268
804.488	27230
804.63	27154
804.773	27131
804.915	27298
805.057	27355
805.199	27260
805.341	27386
805.483	27557
805.626	27370
805.768	27306
805.91	27279
806.052	27545
806.194	27401
806.336	27549
806.478	27386
806.62	27454
806.762	27591
806.904	27564
807.046	27926
807.188	27918
807.33	27812
807.472	28036
807.614	27861
807.756	27819
807.898	27770
808.04	27656
808.182	27724
808.324	27831
808.465	27800
808.607	28048
808.749	28074
808.891	28204
809.033	28207
809.174	28135
809.316	28070
809.458	28120
809.6	28013
809.741	28246
809.883	28219
810.025	28257
810.166	28432
810.308	28424
810.45	28344
810.591	28287
810.733	28101
810.875	27964
811.016	27972
811.158	27918
811.299	27956
811.441	28185
811.582	28150
811.724	28105
811.865	28017
812.007	27934
812.148	27998
812.29	27991
812.431	28242
812.573	28242
812.714	28344
812.855	28645
812.997	28771
813.138	28698
813.279	28596
813.421	28592
813.562	28531
813.703	28287
813.845	28234
813.986	28017
814.127	27797
814.268	27827
814.41	27709
814.551	27724
814.692	27873
814.833	27747
814.974	27759
815.115	27667
815.256	27679
815.397	27701
815.539	27549
815.68	27534
815.821	27397
815.962	27511
816.103	27614
816.244	27389
816.385	27405
816.526	27275
816.666	27203
816.807	26979
816.948	27081
817.089	27085
817.23	27009
817.371	26960
817.512	26940
817.653	27062
817.793	26948
817.934	26998
818.075	27093
818.216	26990
818.356	26960
818.497	26830
818.638	26712
818.778	26735
818.919	26670
819.06	26845
819.2	26918
819.341	27024
819.481	27108
819.622	27165
819.762	27313
819.903	27344
820.043	27180
820.184	27108
820.324	27104
820.465	27211
820.605	27123
820.746	27051
820.886	26899
821.026	27211
821.167	27013
821.307	27093
821.447	26960
821.588	26925
821.728	26727
821.868	26598
822.008	26461
822.149	26518
822.289	26560
822.429	26115
822.569	26138
822.709	26161
822.849	25974
822.99	25944
823.13	26043
823.27	25875
823.41	25788
823.55	25822
823.69	25803
823.83	25803
823.97	25689
824.11	25624
824.25	25700
824.389	25601
824.529	25677
824.669	25639
824.809	25620
824.949	25712
825.089	25681
825.228	25693
825.368	25491
825.508	25582
825.648	25495
825.787	25552
825.927	25407
826.067	25350
826.206	25438
826.346	25472
826.485	25514
826.625	25396
826.765	25575
826.904	25460
827.044	25285
827.183	25301
827.323	25278
827.462	25240
827.601	25270
827.741	25289
827.88	25266
828.02	25164
828.159	25225
828.298	25206
828.437	25278
828.577	25118
828.716	25266
828.855	25133
828.994	24745
829.134	25023
829.273	24924
829.412	24962
829.551	24871
829.69	24920
829.829	24951
829.968	24958
830.107	24996
830.246	24894
830.385	24814
830.524	24806
830.663	24760
830.802	24612
830.941	24498
831.08	24536
831.219	24574
831.357	24620
831.496	24757
831.635	24517
831.774	24509
831.913	24483
832.051	24258
832.19	24311
832.329	24292
832.467	24228
832.606	24087
832.744	24083
832.883	24152
833.022	24243
833.16	24171
833.299	24228
833.437	24239
833.576	24182
833.714	24300
833.852	24304
833.991	24365
834.129	24270
834.267	24281
834.406	24281
834.544	24178
834.682	24277
834.821	24213
834.959	24357
835.097	24247
835.235	24254
835.373	24213
835.511	24239
835.65	24083
835.788	24102
835.926	23916
836.064	23980
836.202	23874
836.34	24110
836.478	24144
836.615	24018
836.753	24102
836.891	24155
837.029	24045
837.167	24083
837.305	24003
837.443	23958
837.58	23939
837.718	24034
837.856	24034
837.993	23882
838.131	23882
838.269	23802
838.406	23687
838.544	23634
838.681	23600
838.819	23547
838.956	23421
839.094	23341
839.231	23406
839.369	23615
839.506	23840
839.643	23619
839.781	23337
839.918	23429
840.055	23452
840.193	23330
840.33	23444
840.467	23261
840.604	23239
840.742	23627
840.879	23143
841.016	23277
841.153	23151
841.29	23387
841.427	23280
841.564	23326
841.701	23318
841.838	23311
841.975	23231
842.112	23349
842.249	22987
842.385	23037
842.522	23269
842.659	23185
842.796	23140
842.933	23010
843.069	22934
843.206	22953
843.343	23098
843.479	22968
843.616	23098
843.752	22984
843.889	22862
844.025	22946
844.162	22706
844.298	22980
844.435	22919
844.571	22900
844.708	22965
844.844	22957
844.98	22946
845.117	22934
845.253	22752
845.389	22561
845.525	22694
845.661	22694
845.798	22443
845.934	22649
846.07	22474
846.206	22615
846.342	22744
846.478	22493
846.614	22421
846.75	22303
846.886	22322
847.022	22344
847.158	22314
847.294	22341
847.429	22348
847.565	22284
847.701	22474
847.837	22070
847.972	22013
848.108	22150
848.244	22013
848.379	22025
848.515	21937
848.65	21956
848.786	21975
848.921	21895
849.057	22070
849.192	22002
849.328	21975
849.463	21964
849.598	21804
849.734	21709
849.869	21800
850.004	21762
850.14	21865
850.275	21625
850.41	21622
850.545	21606
850.68	21610
850.815	21583
850.95	21614
851.085	21831
851.22	21785
851.355	21587
851.49	21625
851.625	21599
851.76	21587
851.895	21458
852.03	21481
852.165	21682
852.299	21648
852.434	21762
852.569	21793
852.703	21671
852.838	21705
852.973	21728
853.107	21747
853.242	21656
853.376	21618
853.511	21336
853.645	21450
853.78	21542
853.914	21454
854.048	21424
854.183	21542
854.317	21450
854.451	21701
854.585	21435
854.72	21572
854.854	21576
854.988	21363
855.122	21447
855.256	21405
855.39	21435
855.524	21477
855.658	21382
855.792	21526
855.926	21492
856.06	21595
856.194	21595
856.327	21382
856.461	21454
856.595	21355
856.729	21458
856.862	21507
856.996	21591
857.13	21397
857.263	21587
857.397	21652
857.53	21511
857.664	21466
857.797	21534
857.931	21595
858.064	21523
858.197	21618
858.331	21416
858.464	21378
858.597	21374
858.731	21477
858.864	21321
858.997	21370
859.13	21473
859.263	21382
859.396	21481
859.529	21416
859.662	21397
859.795	21450
859.928	21515
860.061	21591
860.194	21705
860.327	21488
860.46	21408
860.592	21606
860.725	21739
860.858	21580
860.99	21488
861.123	21367
861.256	21485
861.388	21519
861.521	22181
861.653	21245
861.786	21351
861.918	21252
862.05	21340
862.183	21435
862.315	21420
862.447	21397
862.58	21374
862.712	21104
862.844	21291
862.976	21169
863.108	21222
863.24	21641
863.372	21138
863.504	21192
863.636	21112
863.768	21237
863.9	21222
864.032	21154
864.164	21195
864.296	21180
864.428	21294
864.559	21241
864.691	21211
864.823	21203
864.954	21237
865.086	21043
865.217	21093
865.349	20952
865.48	21039
865.612	21081
865.743	21256
865.875	21146
866.006	21070
866.137	21013
866.269	21192
866.4	20941
866.531	20941
866.662	20994
866.793	21017
866.924	21020
867.055	21074
867.186	21036
867.317	20944
867.448	20883
867.579	20937
867.71	20994
867.841	20864
867.972	21112
868.103	20933
868.233	21013
868.364	21009
868.495	21032
868.625	21233
868.756	21443
868.886	21161
869.017	21302
869.147	21203
869.278	21332
869.408	21363
869.539	21294
869.669	21264
869.799	21264
869.929	21367
870.06	21329
870.19	21534
870.32	21488
870.45	21583
870.58	21564
870.71	21682
870.84	21838
870.97	21682
871.1	21564
871.23	21751
871.36	21831
871.489	21762
871.619	21732
871.749	21846
871.879	21983
872.008	21876
872.138	21781
872.267	21720
872.397	21770
872.526	21671
872.656	21663
872.785	21770
872.915	21808
873.044	21987
873.173	21869
873.303	21922
873.432	21956
873.561	21827
873.69	21812
873.819	21838
873.948	22044
874.077	21850
874.206	21800
874.335	21934
874.464	21945
874.593	22109
874.722	22078
874.851	22044
874.979	22063
875.108	22105
875.237	22105
875.365	21972
875.494	22048
875.623	22147
875.751	22128
875.88	22185
876.008	22188
876.136	22249
876.265	22462
876.393	22599
876.521	22588
876.65	22588
876.778	22489
876.906	22390
877.034	22390
877.162	22405
877.29	22333
877.418	22413
877.546	22516
877.674	22390
877.802	22462
877.93	22497
878.058	22424
878.185	22386
878.313	22371
878.441	22409
878.568	22238
878.696	22322
878.824	22466
878.951	22508
879.079	22516
879.206	22645
879.333	22569
879.461	22337
879.588	22516
879.715	22569
879.842	22698
879.97	22424
880.097	22261
880.224	22226
880.351	22322
880.478	22177
880.605	22215
880.732	22230
880.859	22557
880.986	22253
881.112	22417
881.239	21998
881.366	21975
881.493	21964
881.619	21857
881.746	21778
881.872	21705
881.999	21865
882.125	21739
882.252	21793
882.378	21846
882.505	21934
882.631	21644
882.757	21553
882.883	21759
883.01	21454
883.136	21530
883.262	21431
883.388	21469
883.514	21507
883.64	21515
883.766	21450
883.892	21222
884.018	21355
884.143	21439
884.269	21667
884.395	21268
884.52	21089
884.646	21233
884.772	21146
884.897	21093
885.023	21146
885.148	21279
885.274	21249
885.399	21226
885.524	21100
885.65	21142
885.775	21192
885.9	21180
886.025	21272
886.15	21279
886.275	21100
886.4	21112
886.525	21211
886.65	21138
886.775	21024
886.9	21252
887.025	21355
887.149	21176
887.274	20937
887.399	20929
887.523	20948
887.648	20876
887.773	20872
887.897	21081
888.021	21085
888.146	20918
888.27	21093
888.395	21017
888.519	21024
888.643	20902
888.767	21005
888.891	20815
889.015	20727
889.139	20830
889.263	20682
889.387	20788
889.511	20887
889.635	20826
889.759	20754
889.883	20758
890.006	20674
890.13	20727
890.254	20609
890.377	20587
890.501	20518
890.624	20434
890.748	20552
890.871	20366
890.995	20298
891.118	20290
891.241	20347
891.364	20320
891.488	20431
891.611	20362
891.734	20419
891.857	20339
891.98	20233
892.103	20240
892.226	20366
892.349	20301
892.471	19967
892.594	20161
892.717	20305
892.839	20263
892.962	20290
893.085	20290
893.207	20225
893.33	20039
893.452	20054
893.575	20259
893.697	20103
893.819	20309
893.941	20305
894.064	20377
894.186	20180
894.308	20202
894.43	20252
894.552	20415
894.674	20195
894.796	20088
894.918	20199
895.04	20214
895.161	20301
895.283	20138
895.405	20183
895.526	20240
895.648	20126
895.769	20168
895.891	20256
896.012	20317
896.134	20218
896.255	20180
896.376	20012
896.498	20229
896.619	20168
896.74	20142
896.861	20267
896.982	20533
897.103	20617
897.224	20442
897.345	20370
897.466	20423
897.587	20404
897.708	20473
897.828	20438
897.949	20366
898.07	20214
898.19	20324
898.311	20362
898.431	20347
898.552	20286
898.672	20461
898.792	20480
898.913	20366
899.033	20256
899.153	20282
899.273	20142
899.393	20221
899.513	20164
899.633	20237
899.753	20180
899.873	20092
899.993	20180
900.113	20092
900.232	20103
900.352	20016
900.472	20058
900.591	19807
900.711	20039
900.83	19833
900.95	19993
901.069	20058
901.189	19795
901.308	19563
901.427	19620
901.546	19457
901.665	19480
901.784	19518
901.904	19411
902.023	19293
902.141	19050
902.26	18928
902.379	19171
902.498	19034
902.617	18951
902.735	19031
902.854	19019
902.973	18943
903.091	18776
903.21	18696
903.328	18726
903.446	18658
903.565	18551
903.683	18521
903.801	18448
903.919	18403
904.038	18380
904.156	18334
904.274	18433
904.392	18209
904.51	18292
904.627	18258
904.745	18330
904.863	18334
904.981	18026
905.098	17885
905.216	17874
905.334	17882
905.451	17935
905.569	17897
905.686	17973
905.803	17851
905.921	17623
906.038	17870
906.155	17748
906.272	17558
906.389	17589
906.506	17505
906.623	17463
906.74	17524
906.857	17326
906.974	17246
907.091	17570
907.208	17516
907.324	17535
907.441	17376
907.557	17143
907.674	17170
907.79	17132
907.907	17155
908.023	17155
908.139	17250
908.256	17174
908.372	17246
908.488	17067
908.604	16877
908.72	16953
908.836	16915
908.952	16919
909.068	16946
909.184	17056
909.3	16885
909.415	16949
909.531	16953
909.647	16622
909.762	16622
909.878	16603
909.993	16713
910.108	16516
910.224	16611
910.339	16565
910.454	16447
910.57	16352
910.685	16303
910.8	16599
910.915	16462
911.03	16375
911.145	16333
911.259	16147
911.374	16299
911.489	16105
911.604	16109
911.718	15998
911.833	15960
911.947	15835
912.062	15778
912.176	15956
912.291	16002
912.405	15956
912.519	16082
912.633	16112
912.748	15998
912.862	15869
912.976	15698
913.09	15717
913.204	15709
913.318	15766
913.431	15880
913.545	15846
913.659	15774
913.772	15698
913.886	15595
914	15549
914.113	15618
914.226	15743
914.34	15622
914.453	15526
914.566	15477
914.68	15454
914.793	15374
914.906	15329
915.019	15211
915.132	15043
915.245	15127
915.358	15195
915.47	15043
915.583	15127
915.696	15195
915.809	15195
915.921	15310
916.034	15017
916.146	15100
916.259	15005
916.371	15116
916.483	15089
916.595	15051
916.708	15024
916.82	14979
916.932	14918
917.044	15001
917.156	14899
917.268	14826
917.38	14849
917.491	14777
917.603	14906
917.715	14880
917.826	14880
917.938	14800
918.049	14689
918.161	14697
918.272	14906
918.384	14952
918.495	14731
918.606	14560
918.717	14552
918.828	14632
918.939	14644
919.05	14552
919.161	14423
919.272	14434
919.383	14457
919.494	14659
919.604	14773
919.715	14526
919.826	14465
919.936	14473
920.047	14632
920.157	14560
920.267	14659
920.378	14613
920.488	14511
920.598	14663
920.708	14792
920.818	14659
920.928	14644
921.038	14872
921.148	14834
921.258	14492
921.368	14423
921.477	14267
921.587	14370
921.697	14187
921.806	14317
921.916	14161
922.025	13955
922.134	13932
922.244	13845
922.353	13944
922.462	13875
922.571	13662
922.68	13571
922.789	13518
922.898	13556
923.007	13521
923.116	13571
923.224	13491
923.333	13506
923.442	13403
923.55	13304
923.659	13499
923.767	13343
923.876	13327
923.984	13476
924.092	13240
924.201	13304
924.309	13320
924.417	13282
924.525	13263
924.633	13270
924.741	13936
924.849	13061
924.956	13251
925.064	13012
925.172	12958
925.279	12943
925.387	13027
925.494	13072
925.602	13095
925.709	13069
925.816	12867
925.924	13015
926.031	13000
926.138	12802
926.245	12951
926.352	12810
926.459	12871
926.566	12970
926.673	12833
926.779	12798
926.886	12715
926.993	12563
927.099	12521
927.206	12498
927.312	12475
927.419	12525
927.525	12483
927.631	12536
927.737	12437
927.843	12369
927.95	12273
928.056	12308
928.162	12346
928.267	12467
928.373	13023
928.479	12369
928.585	12235
928.69	12300
928.796	12384
928.901	12270
929.007	12053
929.112	12273
929.218	12190
929.323	12102
929.428	12064
929.533	12251
929.638	12030
929.743	11942
929.848	12155
929.953	11965
930.058	11874
930.163	11821
930.267	11775
930.372	11950
930.477	11783
930.581	11999
930.685	11798
930.79	11684
930.894	11733
930.998	11611
931.103	11821
931.207	11425
931.311	11376
931.415	11299
931.519	11060
931.623	11029
