Data from test_V78500241_2346.txt Node
Date: Fri Mar 25 15:26:11 CST 2022
User: usil
Spectrometer: V785-0024
Trigger mode: 0
Integration Time (sec): 4.000000E-1
Scans to average: 1
Nonlinearity correction enabled: false
Boxcar width: 0
Storing dark spectrum: false
XAxis mode: Wavelengths
Number of Pixels in Spectrum: 1024
>>>>>Begin Spectral Data<<<<<
801.071	27454
801.214	27412
801.356	27100
801.499	27070
801.641	27051
801.783	26956
801.926	26998
802.068	26975
802.211	26891
802.353	26765
802.496	26594
802.638	26716
802.78	26689
802.923	26507
803.065	26541
803.208	26450
803.35	26640
803.492	26727
803.635	26876
803.777	26636
803.919	26811
804.061	27127
804.204	26857
804.346	26701
804.488	26842
804.63	26648
804.773	26750
804.915	26648
805.057	26933
805.199	26826
805.341	26861
805.483	26914
805.626	26830
805.768	26796
805.91	26986
806.052	26906
806.194	26792
806.336	27032
806.478	26910
806.62	26861
806.762	26960
806.904	27154
807.046	27214
807.188	27435
807.33	27348
807.472	27287
807.614	27249
807.756	27252
807.898	27123
808.04	27100
808.182	27154
808.324	27104
808.465	27245
808.607	27272
808.749	27500
808.891	27538
809.033	27637
809.174	27526
809.316	27515
809.458	27401
809.6	27424
809.741	27557
809.883	27614
810.025	27622
810.166	27861
810.308	27686
810.45	27789
810.591	27663
810.733	27698
810.875	27382
811.016	27397
811.158	27382
811.299	27549
811.441	27614
811.582	27583
811.724	27485
811.865	27492
812.007	27466
812.148	27488
812.29	27504
812.431	27663
812.573	27816
812.714	27850
812.855	27953
812.997	28090
813.138	28192
813.279	28124
813.421	28029
813.562	27869
813.703	27759
813.845	27625
813.986	27401
814.127	27287
814.268	27256
814.41	27222
814.551	27100
814.692	27287
814.833	27066
814.974	27173
815.115	27146
815.256	27070
815.397	26998
815.539	26952
815.68	26842
815.821	26998
815.962	27013
816.103	26807
816.244	26735
816.385	26804
816.526	26781
816.666	26587
816.807	26347
816.948	26488
817.089	26575
817.23	26526
817.371	26415
817.512	26370
817.653	26339
817.793	26263
817.934	26518
818.075	26366
818.216	26370
818.356	26404
818.497	26358
818.638	26103
818.778	26122
818.919	26317
819.06	26168
819.2	26450
819.341	26389
819.481	26377
819.622	26556
819.762	26670
819.903	26545
820.043	26602
820.184	26533
820.324	26552
820.465	26533
820.605	26522
820.746	26431
820.886	26317
821.026	26461
821.167	26419
821.307	26689
821.447	26526
821.588	26332
821.728	26362
821.868	26069
822.008	25951
822.149	25852
822.289	25955
822.429	25681
822.569	25472
822.709	25601
822.849	25430
822.99	25312
823.13	25354
823.27	25346
823.41	25259
823.55	25160
823.69	25225
823.83	25289
823.97	25175
824.11	25012
824.25	24924
824.389	25012
824.529	25148
824.669	25034
824.809	25004
824.949	25137
825.089	25050
825.228	25107
825.368	24962
825.508	24947
825.648	24859
825.787	24943
825.927	24825
826.067	24886
826.206	24772
826.346	24856
826.485	24757
826.625	24837
826.765	24943
826.904	24859
827.044	24711
827.183	24730
827.323	24719
827.462	24570
827.601	24639
827.741	24574
827.88	24608
828.02	24505
828.159	24513
828.298	24585
828.437	24753
828.577	24631
828.716	24665
828.855	24528
828.994	24323
829.134	24205
829.273	24266
829.412	24270
829.551	24201
829.69	24369
829.829	24273
829.968	24388
830.107	24346
830.246	24273
830.385	24384
830.524	24334
830.663	24034
830.802	23969
830.941	23992
831.08	23882
831.219	23958
831.357	23916
831.496	24167
831.635	24026
831.774	23965
831.913	23805
832.051	23760
832.19	23638
832.329	23760
832.467	23676
832.606	23524
832.744	23570
832.883	23596
833.022	23554
833.16	23539
833.299	23665
833.437	23558
833.576	23767
833.714	23707
833.852	23687
833.991	23562
834.129	23653
834.267	23756
834.406	23665
834.544	23676
834.682	23531
834.821	23585
834.959	23882
835.097	23551
835.235	23767
835.373	23695
835.511	23672
835.65	23531
835.788	23600
835.926	23471
836.064	23288
836.202	23303
836.34	23501
836.478	23482
836.615	23455
836.753	23627
836.891	23570
837.029	23478
837.167	23436
837.305	23356
837.443	23395
837.58	23406
837.718	23417
837.856	23444
837.993	23364
838.131	23242
838.269	23071
838.406	23277
838.544	23166
838.681	22995
838.819	23033
838.956	22869
839.094	22771
839.231	22858
839.369	23044
839.506	23200
839.643	23128
839.781	22759
839.918	22736
840.055	22812
840.193	22782
840.33	22717
840.467	22736
840.604	22717
840.742	22961
840.879	22607
841.016	22599
841.153	22603
841.29	22793
841.427	22694
841.564	22755
841.701	22801
841.838	22580
841.975	22630
842.112	22713
842.249	22481
842.385	22554
842.522	22660
842.659	22478
842.796	22470
842.933	22554
843.069	22398
843.206	22497
843.343	22497
843.479	22474
843.616	22451
843.752	22284
843.889	22360
844.025	22363
844.162	22192
844.298	22500
844.435	22158
844.571	22166
844.708	22230
844.844	22409
844.98	22337
845.117	22253
845.253	22082
845.389	22097
845.525	22055
845.661	22044
845.798	21994
845.934	22044
846.07	22025
846.206	22006
846.342	22063
846.478	22067
846.614	21816
846.75	21606
846.886	21774
847.022	21774
847.158	21804
847.294	21743
847.429	21762
847.565	21663
847.701	21835
847.837	21492
847.972	21408
848.108	21542
848.244	21545
848.379	21310
848.515	21298
848.65	21428
848.786	21359
848.921	21348
849.057	21500
849.192	21317
849.328	21389
849.463	21317
849.598	21302
849.734	21211
849.869	21112
850.004	21108
850.14	21138
850.275	21070
850.41	21085
850.545	20986
850.68	20941
850.815	21112
850.95	21089
851.085	21310
851.22	21252
851.355	20990
851.49	21032
851.625	21096
851.76	21032
851.895	20887
852.03	20929
852.165	21169
852.299	21032
852.434	21127
852.569	20998
852.703	21070
852.838	21119
852.973	21116
853.107	21123
853.242	21005
853.376	20921
853.511	20819
853.645	20891
853.78	21055
853.914	20933
854.048	20857
854.183	20876
854.317	20979
854.451	21157
854.585	20937
854.72	20883
854.854	21032
854.988	20781
855.122	20921
855.256	20830
855.39	20948
855.524	21024
855.658	20944
855.792	20921
855.926	20895
856.06	21001
856.194	20956
856.327	20899
856.461	20804
856.595	20861
856.729	20925
856.862	20952
856.996	20819
857.13	21043
857.263	20986
857.397	20952
857.53	20956
857.664	20963
857.797	21047
857.931	20994
858.064	20914
858.197	20895
858.331	20895
858.464	20765
858.597	20811
858.731	20910
858.864	20743
858.997	20838
859.13	20986
859.263	20929
859.396	20990
859.529	20811
859.662	20925
859.795	20880
859.928	20937
860.061	21028
860.194	21096
860.327	20960
860.46	20883
860.592	21001
860.725	20998
860.858	20937
860.99	20864
861.123	20796
861.256	20834
861.388	20910
861.521	21473
861.653	20811
861.786	20781
861.918	20674
862.05	20830
862.183	20861
862.315	20819
862.447	20883
862.58	20891
862.712	20625
862.844	20598
862.976	20727
863.108	20659
863.24	21055
863.372	20568
863.504	20541
863.636	20568
863.768	20686
863.9	20670
864.032	20514
864.164	20636
864.296	20651
864.428	20724
864.559	20746
864.691	20583
864.823	20632
864.954	20590
865.086	20606
865.217	20541
865.349	20438
865.48	20552
865.612	20442
865.743	20724
865.875	20511
866.006	20625
866.137	20556
866.269	20408
866.4	20537
866.531	20423
866.662	20442
866.793	20461
866.924	20556
867.055	20530
867.186	20465
867.317	20484
867.448	20317
867.579	20503
867.71	20351
867.841	20473
867.972	20526
868.103	20518
868.233	20446
868.364	20393
868.495	20552
868.625	20621
868.756	20705
868.886	20629
869.017	20746
869.147	20815
869.278	20701
869.408	20788
869.539	20842
869.669	20838
869.799	20758
869.929	20792
870.06	20743
870.19	21051
870.32	20982
870.45	21173
870.58	21066
870.71	21161
870.84	21176
870.97	21089
871.1	21093
871.23	21237
871.36	21230
871.489	21138
871.619	21233
871.749	21268
871.879	21397
872.008	21473
872.138	21443
872.267	21291
872.397	21157
872.526	21077
872.656	21237
872.785	21089
872.915	21298
873.044	21367
873.173	21447
873.303	21336
873.432	21268
873.561	21428
873.69	21298
873.819	21367
873.948	21359
874.077	21412
874.206	21355
874.335	21424
874.464	21428
874.593	21568
874.722	21450
874.851	21564
874.979	21549
875.108	21648
875.237	21450
875.365	21469
875.494	21580
875.623	21671
875.751	21542
875.88	21469
876.008	21641
876.136	21793
876.265	21998
876.393	22109
876.521	22082
876.65	22051
876.778	21934
876.906	21972
877.034	21781
877.162	21888
877.29	21911
877.418	21941
877.546	21975
877.674	21831
877.802	21960
877.93	21960
878.058	21956
878.185	21739
878.313	21838
878.441	21975
878.568	21682
878.696	21679
878.824	21930
878.951	22032
879.079	22070
879.206	22207
879.333	21956
879.461	22017
879.588	22044
879.715	22032
879.842	22150
879.97	22025
880.097	21770
880.224	21759
880.351	21789
880.478	21770
880.605	21713
880.732	21838
880.859	21956
880.986	21724
881.112	21679
881.239	21797
881.366	21500
881.493	21454
881.619	21336
881.746	21351
881.872	21275
881.999	21256
882.125	21317
882.252	21264
882.378	21367
882.505	21329
882.631	21207
882.757	20982
882.883	21138
883.01	21146
883.136	20960
883.262	20956
883.388	20765
883.514	20941
883.64	21051
883.766	20967
883.892	20785
884.018	20678
884.143	20937
884.269	20975
884.395	20670
884.52	20674
884.646	20796
884.772	20526
884.897	20568
885.023	20739
885.148	20667
885.274	20765
885.399	20800
885.524	20556
885.65	20575
885.775	20621
885.9	20758
886.025	20796
886.15	20853
886.275	20670
886.4	20499
886.525	20636
886.65	20606
886.775	20507
886.9	20796
887.025	20842
887.149	20629
887.274	20408
887.399	20423
887.523	20404
887.648	20503
887.773	20351
887.897	20469
888.021	20507
888.146	20343
888.27	20522
888.395	20606
888.519	20389
888.643	20522
888.767	20503
888.891	20393
889.015	20168
889.139	20362
889.263	20248
889.387	20374
889.511	20389
889.635	20370
889.759	20298
889.883	20180
890.006	20214
890.13	20343
890.254	19986
890.377	20187
890.501	19894
890.624	19951
890.748	20062
890.871	19826
890.995	19776
891.118	19727
891.241	19830
891.364	19845
891.488	19947
891.611	19807
891.734	19913
891.857	19742
891.98	19830
892.103	19909
892.226	19947
892.349	19746
892.471	19556
892.594	19769
892.717	19704
892.839	19715
892.962	19803
893.085	19799
893.207	19776
893.33	19590
893.452	19632
893.575	19795
893.697	19651
893.819	19906
893.941	19871
894.064	19868
894.186	19689
894.308	19624
894.43	19727
894.552	19803
894.674	19833
894.796	19643
894.918	19734
895.04	19685
895.161	19750
895.283	19795
895.405	19799
895.526	19685
895.648	19647
895.769	19818
895.891	19788
896.012	19799
896.134	19814
896.255	19727
896.376	19693
896.498	19753
896.619	19906
896.74	19674
896.861	19693
896.982	19970
897.103	20161
897.224	19997
897.345	19921
897.466	19845
897.587	19928
897.708	20027
897.828	19951
897.949	19928
898.07	19795
898.19	19917
898.311	20050
898.431	19906
898.552	19917
898.672	19986
898.792	20020
898.913	19947
899.033	19765
899.153	19807
899.273	19655
899.393	19620
899.513	19757
899.633	19677
899.753	19734
899.873	19643
899.993	19742
900.113	19578
900.232	19609
900.352	19662
900.472	19605
900.591	19441
900.711	19552
900.83	19430
900.95	19571
901.069	19571
901.189	19343
901.308	19175
901.427	19103
901.546	19164
901.665	19091
901.784	19114
901.904	19015
902.023	18924
902.141	18711
902.26	18646
902.379	18673
902.498	18627
902.617	18563
902.735	18726
902.854	18563
902.973	18467
903.091	18323
903.21	18247
903.328	18266
903.446	18311
903.565	18003
903.683	18068
903.801	17954
903.919	17939
904.038	17961
904.156	17836
904.274	17973
904.392	17805
904.51	17741
904.627	17840
904.745	17813
904.863	17954
904.981	17600
905.098	17562
905.216	17501
905.334	17543
905.451	17573
905.569	17566
905.686	17528
905.803	17440
905.921	17315
906.038	17353
906.155	17364
906.272	17189
906.389	17181
906.506	17124
906.623	17117
906.74	17098
906.857	16953
906.974	16968
907.091	17140
907.208	17318
907.324	17037
907.441	17060
907.557	16790
907.674	16850
907.79	16717
907.907	16736
908.023	16733
908.139	16717
908.256	16721
908.372	16683
908.488	16778
908.604	16561
908.72	16447
908.836	16618
908.952	16489
909.068	16504
909.184	16577
909.3	16470
909.415	16599
909.531	16531
909.647	16192
909.762	16306
909.878	16139
909.993	16177
910.108	16188
910.224	16048
910.339	16230
910.454	16082
910.57	16021
910.685	15880
910.8	16188
910.915	16154
911.03	15930
911.145	15850
911.259	15816
911.374	15766
911.489	15599
911.604	15728
911.718	15656
911.833	15538
911.947	15519
912.062	15329
912.176	15523
912.291	15496
912.405	15515
912.519	15686
912.633	15698
912.748	15599
912.862	15435
912.976	15321
913.09	15378
913.204	15317
913.318	15466
913.431	15450
913.545	15454
913.659	15564
913.772	15256
913.886	15192
914	15135
914.113	15169
914.226	15317
914.34	15275
914.453	15131
914.566	15218
914.68	15005
914.793	15154
914.906	14952
915.019	14762
915.132	14781
915.245	14606
915.358	14811
915.47	14785
915.583	14788
915.696	14807
915.809	14830
915.921	14899
916.034	14735
916.146	14750
916.259	14678
916.371	14758
916.483	14781
916.595	14731
916.708	14682
916.82	14667
916.932	14594
917.044	14697
917.156	14541
917.268	14415
917.38	14507
917.491	14530
917.603	14514
917.715	14606
917.826	14545
917.938	14434
918.049	14377
918.161	14450
918.272	14469
918.384	14560
918.495	14480
918.606	14328
918.717	14199
918.828	14282
918.939	14240
919.05	14240
919.161	14176
919.272	14020
919.383	14096
919.494	14248
919.604	14434
919.715	14202
919.826	14123
919.936	14195
920.047	14229
920.157	14161
920.267	14389
920.378	14244
920.488	14138
920.598	14355
920.708	14495
920.818	14358
920.928	14275
921.038	14526
921.148	14408
921.258	14206
921.368	14046
921.477	13970
921.587	13959
921.697	13887
921.806	13906
921.916	13814
922.025	13750
922.134	13632
922.244	13571
922.353	13571
922.462	13457
922.571	13434
922.68	13244
922.789	13293
922.898	13190
923.007	13175
923.116	13304
923.224	13126
923.333	13217
923.442	13183
923.55	13072
923.659	13141
923.767	13110
923.876	12981
923.984	13050
924.092	12947
924.201	13023
924.309	13034
924.417	13004
924.525	12886
924.633	12897
924.741	13780
924.849	12768
924.956	12829
925.064	12707
925.172	12665
925.279	12707
925.387	12692
925.494	12608
925.602	12821
925.709	12642
925.816	12631
925.924	12696
926.031	12711
926.138	12582
926.245	12662
926.352	12589
926.459	12726
926.566	12734
926.673	12597
926.779	12494
926.886	12399
926.993	12422
927.099	12235
927.206	12254
927.312	12232
927.419	12308
927.525	12251
927.631	12281
927.737	12106
927.843	12155
927.95	12038
928.056	12098
928.162	12011
928.267	12201
928.373	12715
928.479	12194
928.585	11980
928.69	12049
928.796	12106
928.901	11980
929.007	11790
929.112	11973
929.218	11927
929.323	11855
929.428	11752
929.533	11908
929.638	11767
929.743	11741
929.848	11870
929.953	11752
930.058	11684
930.163	11535
930.267	11528
930.372	11676
930.477	11452
930.581	11771
930.685	11585
930.79	11452
930.894	11395
930.998	11402
931.103	11562
931.207	11204
931.311	11102
931.415	10961
931.519	10812
931.623	10839
