Data from test_V78500241_3380.txt Node
Date: Fri Mar 25 15:33:23 CST 2022
User: usil
Spectrometer: V785-0024
Trigger mode: 0
Integration Time (sec): 4.000000E-1
Scans to average: 1
Nonlinearity correction enabled: false
Boxcar width: 0
Storing dark spectrum: false
XAxis mode: Wavelengths
Number of Pixels in Spectrum: 1024
>>>>>Begin Spectral Data<<<<<
801.071	27256
801.214	27310
801.356	27055
801.499	26861
801.641	26963
801.783	26785
801.926	26887
802.068	26937
802.211	26609
802.353	26621
802.496	26579
802.638	26465
802.78	26336
802.923	26343
803.065	26282
803.208	26415
803.35	26431
803.492	26514
803.635	26564
803.777	26526
803.919	26689
804.061	26944
804.204	26682
804.346	26606
804.488	26514
804.63	26598
804.773	26549
804.915	26659
805.057	26701
805.199	26503
805.341	26651
805.483	26804
805.626	26602
805.768	26518
805.91	26651
806.052	26644
806.194	26606
806.336	26842
806.478	26629
806.62	26686
806.762	26811
806.904	26921
807.046	27283
807.188	27123
807.33	27074
807.472	27161
807.614	27047
807.756	27188
807.898	27013
808.04	26842
808.182	26963
808.324	26906
808.465	27127
808.607	27173
808.749	27252
808.891	27466
809.033	27473
809.174	27302
809.316	27329
809.458	27310
809.6	27214
809.741	27389
809.883	27450
810.025	27519
810.166	27545
810.308	27424
810.45	27534
810.591	27511
810.733	27180
810.875	27249
811.016	27184
811.158	27131
811.299	27237
811.441	27329
811.582	27412
811.724	27317
811.865	27154
812.007	27264
812.148	27283
812.29	27382
812.431	27504
812.573	27606
812.714	27675
812.855	27816
812.997	27911
813.138	27979
813.279	27865
813.421	27770
813.562	27842
813.703	27724
813.845	27466
813.986	27260
814.127	27028
814.268	27001
814.41	27001
814.551	26990
814.692	27100
814.833	26979
814.974	26971
815.115	26929
815.256	26724
815.397	26762
815.539	26807
815.68	26773
815.821	26701
815.962	26568
816.103	26765
816.244	26541
816.385	26469
816.526	26431
816.666	26332
816.807	26111
816.948	26248
817.089	26370
817.23	26248
817.371	26259
817.512	26206
817.653	26149
817.793	26161
817.934	26233
818.075	26176
818.216	26256
818.356	26218
818.497	25906
818.638	26035
818.778	25898
818.919	25936
819.06	26050
819.2	26100
819.341	26214
819.481	26161
819.622	26336
819.762	26480
819.903	26469
820.043	26339
820.184	26282
820.324	26271
820.465	26275
820.605	26286
820.746	26355
820.886	26248
821.026	26343
821.167	26180
821.307	26286
821.447	26225
821.588	26084
821.728	25913
821.868	25837
822.008	25666
822.149	25738
822.289	25685
822.429	25441
822.569	25369
822.709	25331
822.849	25289
822.99	25183
823.13	25168
823.27	25084
823.41	24916
823.55	24833
823.69	25034
823.83	24973
823.97	24829
824.11	24734
824.25	24673
824.389	24776
824.529	24768
824.669	24894
824.809	25042
824.949	24970
825.089	24844
825.228	24859
825.368	24677
825.508	24692
825.648	24608
825.787	24738
825.927	24730
826.067	24631
826.206	24677
826.346	24768
826.485	24692
826.625	24601
826.765	24913
826.904	24661
827.044	24505
827.183	24540
827.323	24426
827.462	24498
827.601	24323
827.741	24395
827.88	24414
828.02	24251
828.159	24300
828.298	24471
828.437	24372
828.577	24418
828.716	24464
828.855	24315
828.994	24041
829.134	24110
829.273	24163
829.412	24049
829.551	23939
829.69	24049
829.829	24022
829.968	24254
830.107	24174
830.246	24038
830.385	24098
830.524	23980
830.663	23916
830.802	23901
830.941	23794
831.08	23615
831.219	23855
831.357	23779
831.496	23977
831.635	23828
831.774	23714
831.913	23600
832.051	23493
832.19	23509
832.329	23729
832.467	23326
832.606	23356
832.744	23303
832.883	23318
833.022	23334
833.16	23429
833.299	23512
833.437	23589
833.576	23490
833.714	23406
833.852	23615
833.991	23551
834.129	23535
834.267	23452
834.406	23592
834.544	23448
834.682	23474
834.821	23486
834.959	23562
835.097	23535
835.235	23497
835.373	23326
835.511	23452
835.65	23341
835.788	23265
835.926	23189
836.064	23189
836.202	23231
836.34	23398
836.478	23421
836.615	23360
836.753	23330
836.891	23429
837.029	23455
837.167	23353
837.305	23277
837.443	23254
837.58	23159
837.718	23094
837.856	23147
837.993	23105
838.131	23231
838.269	23056
838.406	23067
838.544	22980
838.681	22797
838.819	22816
838.956	22790
839.094	22664
839.231	22824
839.369	22835
839.506	23052
839.643	22889
839.781	22641
839.918	22577
840.055	22664
840.193	22698
840.33	22660
840.467	22557
840.604	22584
840.742	22812
840.879	22436
841.016	22500
841.153	22417
841.29	22740
841.427	22607
841.564	22660
841.701	22694
841.838	22531
841.975	22462
842.112	22474
842.249	22455
842.385	22516
842.522	22546
842.659	22405
842.796	22436
842.933	22337
843.069	22440
843.206	22257
843.343	22344
843.479	22428
843.616	22382
843.752	22105
843.889	22078
844.025	22398
844.162	22154
844.298	22318
844.435	22070
844.571	22063
844.708	22162
844.844	22318
844.98	22306
845.117	22207
845.253	22097
845.389	22036
845.525	21983
845.661	21994
845.798	21907
845.934	21827
846.07	21812
846.206	21907
846.342	21854
846.478	21865
846.614	21671
846.75	21572
846.886	21663
847.022	21637
847.158	21557
847.294	21603
847.429	21583
847.565	21561
847.701	21869
847.837	21416
847.972	21332
848.108	21469
848.244	21408
848.379	21127
848.515	21165
848.65	21222
848.786	21157
848.921	21272
849.057	21386
849.192	21260
849.328	21226
849.463	21222
849.598	21184
849.734	21077
849.869	21051
850.004	20937
850.14	20979
850.275	21051
850.41	20925
850.545	21005
850.68	20842
850.815	21039
850.95	20899
851.085	21116
851.22	21112
851.355	20986
851.49	20929
851.625	20792
851.76	20895
851.895	20826
852.03	20872
852.165	20929
852.299	20994
852.434	20971
852.569	21009
852.703	20914
852.838	21051
852.973	21089
853.107	20975
853.242	20845
853.376	20800
853.511	20750
853.645	20716
853.78	20819
853.914	20785
854.048	20785
854.183	20724
854.317	20796
854.451	20979
854.585	20765
854.72	20788
854.854	20883
854.988	20697
855.122	20750
855.256	20785
855.39	20716
855.524	20788
855.658	20735
855.792	20883
855.926	20804
856.06	20785
856.194	20868
856.327	20629
856.461	20838
856.595	20716
856.729	20785
856.862	20982
856.996	20834
857.13	20800
857.263	20963
857.397	20845
857.53	20678
857.664	20826
857.797	20792
857.931	20895
858.064	20899
858.197	20929
858.331	20735
858.464	20754
858.597	20625
858.731	20724
858.864	20819
858.997	20876
859.13	20773
859.263	20758
859.396	20830
859.529	20781
859.662	20819
859.795	20644
859.928	20880
860.061	21047
860.194	20956
860.327	20853
860.46	20921
860.592	20902
860.725	21001
860.858	20918
860.99	20769
861.123	20670
861.256	20716
861.388	20720
861.521	21663
861.653	20682
861.786	20606
861.918	20678
862.05	20606
862.183	20735
862.315	20853
862.447	20693
862.58	20663
862.712	20476
862.844	20575
862.976	20674
863.108	20602
863.24	20956
863.372	20465
863.504	20404
863.636	20495
863.768	20526
863.9	20473
864.032	20377
864.164	20469
864.296	20602
864.428	20583
864.559	20533
864.691	20556
864.823	20492
864.954	20583
865.086	20526
865.217	20598
865.349	20301
865.48	20393
865.612	20545
865.743	20583
865.875	20488
866.006	20469
866.137	20294
866.269	20404
866.4	20301
866.531	20469
866.662	20240
866.793	20450
866.924	20389
867.055	20393
867.186	20252
867.317	20339
867.448	20336
867.579	20271
867.71	20324
867.841	20214
867.972	20263
868.103	20271
868.233	20381
868.364	20351
868.495	20423
868.625	20537
868.756	20613
868.886	20465
869.017	20575
869.147	20640
869.278	20648
869.408	20613
869.539	20560
869.669	20731
869.799	20705
869.929	20727
870.06	20693
870.19	20876
870.32	20845
870.45	20895
870.58	21070
870.71	21036
870.84	21051
870.97	20929
871.1	21001
871.23	21173
871.36	21127
871.489	21165
871.619	21157
871.749	21252
871.879	21169
872.008	21241
872.138	21192
872.267	21051
872.397	21100
872.526	21051
872.656	21020
872.785	21146
872.915	21249
873.044	21336
873.173	21157
873.303	21279
873.432	21310
873.561	21321
873.69	21306
873.819	21230
873.948	21237
874.077	21188
874.206	21142
874.335	21184
874.464	21386
874.593	21443
874.722	21443
874.851	21507
874.979	21355
875.108	21523
875.237	21542
875.365	21378
875.494	21378
875.623	21561
875.751	21435
875.88	21462
876.008	21667
876.136	21739
876.265	21838
876.393	22002
876.521	21934
876.65	22006
876.778	21953
876.906	21762
877.034	21781
877.162	21800
877.29	21736
877.418	21766
877.546	21812
877.674	21793
877.802	21686
877.93	21876
878.058	21656
878.185	21739
878.313	21781
878.441	21770
878.568	21667
878.696	21720
878.824	21941
878.951	21911
879.079	21915
879.206	22029
879.333	21979
879.461	21861
879.588	21975
879.715	21972
879.842	22078
879.97	21819
880.097	21622
880.224	21625
880.351	21625
880.478	21701
880.605	21564
880.732	21667
880.859	21880
880.986	21652
881.112	21728
881.239	21344
881.366	21393
881.493	21260
881.619	21428
881.746	21408
881.872	21294
881.999	21188
882.125	21093
882.252	21176
882.378	21169
882.505	21351
882.631	21142
882.757	20933
882.883	21001
883.01	20918
883.136	20880
883.262	20902
883.388	20769
883.514	21001
883.64	21020
883.766	20796
883.892	20746
884.018	20765
884.143	20807
884.269	20895
884.395	20651
884.52	20564
884.646	20537
884.772	20533
884.897	20507
885.023	20678
885.148	20708
885.274	20724
885.399	20727
885.524	20549
885.65	20648
885.775	20518
885.9	20571
886.025	20697
886.15	20655
886.275	20587
886.4	20495
886.525	20590
886.65	20366
886.775	20499
886.9	20689
887.025	20750
887.149	20594
887.274	20366
887.399	20313
887.523	20355
887.648	20233
887.773	20191
887.897	20374
888.021	20393
888.146	20271
888.27	20431
888.395	20396
888.519	20366
888.643	20431
888.767	20457
888.891	20210
889.015	20305
889.139	20309
889.263	20176
889.387	20252
889.511	20377
889.635	20370
889.759	20077
889.883	20145
890.006	20092
890.13	20298
890.254	20195
890.377	20088
890.501	19947
890.624	19894
890.748	20115
890.871	19734
890.995	19685
891.118	19674
891.241	19727
891.364	19727
891.488	19712
891.611	19776
891.734	19788
891.857	19674
891.98	19799
892.103	19761
892.226	19723
892.349	19628
892.471	19457
892.594	19696
892.717	19670
892.839	19696
892.962	19658
893.085	19708
893.207	19605
893.33	19567
893.452	19552
893.575	19769
893.697	19696
893.819	19647
893.941	19845
894.064	19841
894.186	19521
894.308	19594
894.43	19811
894.552	19757
894.674	19696
894.796	19609
894.918	19533
895.04	19582
895.161	19727
895.283	19784
895.405	19548
895.526	19620
895.648	19639
895.769	19696
895.891	19723
896.012	19635
896.134	19624
896.255	19670
896.376	19540
896.498	19666
896.619	19715
896.74	19681
896.861	19776
896.982	19944
897.103	20058
897.224	19868
897.345	19814
897.466	19860
897.587	19837
897.708	20145
897.828	19925
897.949	19788
898.07	19628
898.19	19830
898.311	19970
898.431	19909
898.552	19890
898.672	19906
898.792	20024
898.913	19928
899.033	19837
899.153	19616
899.273	19624
899.393	19605
899.513	19559
899.633	19540
899.753	19704
899.873	19613
899.993	19651
900.113	19495
900.232	19559
900.352	19476
900.472	19422
900.591	19365
900.711	19449
900.83	19350
900.95	19540
901.069	19521
901.189	19255
901.308	19164
901.427	19031
901.546	19050
901.665	18882
901.784	19023
901.904	18848
902.023	18878
902.141	18471
902.26	18426
902.379	18654
902.498	18528
902.617	18513
902.735	18490
902.854	18471
902.973	18441
903.091	18266
903.21	18232
903.328	18254
903.446	18041
903.565	17969
903.683	17965
903.801	17802
903.919	17954
904.038	17935
904.156	17733
904.274	17980
904.392	17813
904.51	17714
904.627	17775
904.745	17767
904.863	17901
904.981	17589
905.098	17444
905.216	17501
905.334	17581
905.451	17406
905.569	17478
905.686	17471
905.803	17402
905.921	17045
906.038	17429
906.155	17299
906.272	17033
906.389	17174
906.506	16987
906.623	17022
906.74	16946
906.857	16911
906.974	16957
907.091	16984
907.208	17064
907.324	17006
907.441	16915
907.557	16679
907.674	16653
907.79	16611
907.907	16759
908.023	16706
908.139	16656
908.256	16679
908.372	16573
908.488	16535
908.604	16554
908.72	16360
908.836	16451
908.952	16424
909.068	16436
909.184	16500
909.3	16390
909.415	16478
909.531	16371
909.647	16291
909.762	16181
909.878	16150
909.993	16238
910.108	16017
910.224	16109
910.339	16154
910.454	16002
910.57	15953
910.685	15774
910.8	16200
910.915	16139
911.03	15903
911.145	15774
911.259	15739
911.374	15724
911.489	15701
911.604	15618
911.718	15473
911.833	15485
911.947	15332
912.062	15389
912.176	15462
912.291	15488
912.405	15557
912.519	15663
912.633	15679
912.748	15477
912.862	15542
912.976	15298
913.09	15207
913.204	15279
913.318	15279
913.431	15363
913.545	15332
913.659	15382
913.772	15218
913.886	15138
914	15089
914.113	15222
914.226	15241
914.34	15116
914.453	15058
914.566	15043
914.68	14994
914.793	15005
914.906	14796
915.019	14735
915.132	14689
915.245	14773
915.358	14701
915.47	14686
915.583	14682
915.696	14705
915.809	14842
915.921	14815
916.034	14735
916.146	14629
916.259	14659
916.371	14762
916.483	14655
916.595	14594
916.708	14507
916.82	14533
916.932	14594
917.044	14579
917.156	14621
917.268	14355
917.38	14518
917.491	14339
917.603	14393
917.715	14583
917.826	14476
917.938	14339
918.049	14214
918.161	14336
918.272	14431
918.384	14476
918.495	14393
918.606	14195
918.717	14073
918.828	14164
918.939	14275
919.05	14039
919.161	14172
919.272	13913
919.383	13997
919.494	14271
919.604	14408
919.715	14103
919.826	14039
919.936	14138
920.047	14180
920.157	14069
920.267	14332
920.378	14149
920.488	14084
920.598	14282
920.708	14518
920.818	14275
920.928	14275
921.038	14419
921.148	14377
921.258	14031
921.368	14084
921.477	13944
921.587	13921
921.697	13769
921.806	13902
921.916	13822
922.025	13616
922.134	13556
922.244	13506
922.353	13518
922.462	13472
922.571	13228
922.68	13133
922.789	13149
922.898	13206
923.007	13164
923.116	13263
923.224	13247
923.333	13118
923.442	12966
923.55	12924
923.659	13008
923.767	13129
923.876	12993
923.984	13084
924.092	12973
924.201	12943
924.309	12916
924.417	12943
924.525	12798
924.633	12905
924.741	13811
924.849	12741
924.956	12760
925.064	12585
925.172	12536
925.279	12650
925.387	12673
925.494	12616
925.602	12669
925.709	12669
925.816	12483
925.924	12627
926.031	12601
926.138	12559
926.245	12536
926.352	12452
926.459	12646
926.566	12646
926.673	12536
926.779	12330
926.886	12388
926.993	12285
927.099	12213
927.206	12228
927.312	12178
927.419	12285
927.525	12308
927.631	12205
927.737	12114
927.843	12049
927.95	11961
928.056	12053
928.162	12045
928.267	11992
928.373	12597
928.479	12011
928.585	11828
928.69	11977
928.796	11954
928.901	11863
929.007	11786
929.112	11908
929.218	11752
929.323	11775
929.428	11653
929.533	11863
929.638	11699
929.743	11752
929.848	11649
929.953	11699
930.058	11592
930.163	11410
930.267	11433
930.372	11551
930.477	11417
930.581	11623
930.685	11425
930.79	11315
930.894	11296
930.998	11292
931.103	11444
931.207	11041
931.311	11025
931.415	10972
931.519	10752
931.623	10790
