Data from test_V78500241_894.txt Node
Date: Fri Mar 25 15:16:05 CST 2022
User: usil
Spectrometer: V785-0024
Trigger mode: 0
Integration Time (sec): 4.000000E-1
Scans to average: 1
Nonlinearity correction enabled: false
Boxcar width: 0
Storing dark spectrum: false
XAxis mode: Wavelengths
Number of Pixels in Spectrum: 1024
>>>>>Begin Spectral Data<<<<<
801.071	28329
801.214	28196
801.356	27956
801.499	28082
801.641	27652
801.783	27892
801.926	27808
802.068	27831
802.211	27728
802.353	27622
802.496	27492
802.638	27393
802.78	27420
802.923	27431
803.065	27374
803.208	27401
803.35	27454
803.492	27671
803.635	27663
803.777	27492
803.919	27759
804.061	27991
804.204	27743
804.346	27526
804.488	27629
804.63	27686
804.773	27515
804.915	27724
805.057	27793
805.199	27591
805.341	27827
805.483	27804
805.626	27850
805.768	27732
805.91	27888
806.052	27827
806.194	27663
806.336	28055
806.478	27857
806.62	27888
806.762	27888
806.904	28082
807.046	28280
807.188	28124
807.33	28116
807.472	28234
807.614	28276
807.756	28093
807.898	28135
808.04	28059
808.182	28109
808.324	28139
808.465	28196
808.607	28272
808.749	28432
808.891	28459
809.033	28489
809.174	28607
809.316	28504
809.458	28466
809.6	28409
809.741	28584
809.883	28626
810.025	28771
810.166	28763
810.308	28797
810.45	28744
810.591	28577
810.733	28523
810.875	28557
811.016	28485
811.158	28455
811.299	28573
811.441	28694
811.582	28561
811.724	28531
811.865	28367
812.007	28489
812.148	28512
812.29	28721
812.431	28717
812.573	28881
812.714	28820
812.855	29098
812.997	29155
813.138	29265
813.279	29277
813.421	29041
813.562	29140
813.703	29025
813.845	28778
813.986	28421
814.127	28436
814.268	28234
814.41	28124
814.551	28310
814.692	28280
814.833	28211
814.974	28177
815.115	28093
815.256	28139
815.397	28200
815.539	28173
815.68	27934
815.821	27892
815.962	28002
816.103	27953
816.244	27873
816.385	27808
816.526	27804
816.666	27736
816.807	27477
816.948	27485
817.089	27739
817.23	27629
817.371	27431
817.512	27561
817.653	27496
817.793	27412
817.934	27439
818.075	27671
818.216	27500
818.356	27351
818.497	27435
818.638	27241
818.778	27264
818.919	27218
819.06	27367
819.2	27355
819.341	27420
819.481	27545
819.622	27526
819.762	27922
819.903	27736
820.043	27865
820.184	27698
820.324	27477
820.465	27622
820.605	27743
820.746	27587
820.886	27397
821.026	27572
821.167	27648
821.307	27557
821.447	27561
821.588	27485
821.728	27302
821.868	27165
822.008	27142
822.149	27020
822.289	27005
822.429	26933
822.569	26549
822.709	26777
822.849	26488
822.99	26453
823.13	26495
823.27	26343
823.41	26290
823.55	26225
823.69	26263
823.83	26381
823.97	26199
824.11	26096
824.25	26012
824.389	26282
824.529	26218
824.669	26145
824.809	26183
824.949	26081
825.089	26271
825.228	26142
825.368	26062
825.508	25966
825.648	26077
825.787	26020
825.927	26187
826.067	26001
826.206	25970
826.346	26092
826.485	26062
826.625	26233
826.765	26062
826.904	26130
827.044	25807
827.183	25784
827.323	25655
827.462	25780
827.601	25689
827.741	25750
827.88	25826
828.02	25822
828.159	25685
828.298	25738
828.437	25674
828.577	25594
828.716	25788
828.855	25559
828.994	25457
829.134	25525
829.273	25476
829.412	25419
829.551	25274
829.69	25419
829.829	25422
829.968	25670
830.107	25468
830.246	25453
830.385	25422
830.524	25316
830.663	25247
830.802	25232
830.941	25164
831.08	25164
831.219	25031
831.357	25175
831.496	25297
831.635	25084
831.774	25107
831.913	24954
832.051	24768
832.19	24749
832.329	24848
832.467	24829
832.606	24673
832.744	24734
832.883	24859
833.022	24806
833.16	24783
833.299	24829
833.437	24795
833.576	24776
833.714	24734
833.852	24973
833.991	24996
834.129	24958
834.267	24977
834.406	24795
834.544	24829
834.682	24863
834.821	24859
834.959	24970
835.097	24848
835.235	24817
835.373	24715
835.511	24795
835.65	24650
835.788	24616
835.926	24410
836.064	24399
836.202	24456
836.34	24787
836.478	24829
836.615	24540
836.753	24502
836.891	24730
837.029	24768
837.167	24589
837.305	24418
837.443	24410
837.58	24441
837.718	24407
837.856	24365
837.993	24475
838.131	24540
838.269	24376
838.406	24300
838.544	24357
838.681	23950
838.819	24114
838.956	23821
839.094	23927
839.231	23904
839.369	24133
839.506	24300
839.643	24136
839.781	23973
839.918	23916
840.055	23874
840.193	23908
840.33	23870
840.467	23832
840.604	23805
840.742	24038
840.879	23653
841.016	23722
841.153	23771
841.29	23912
841.427	23794
841.564	23969
841.701	23748
841.838	23668
841.975	23786
842.112	23863
842.249	23577
842.385	23611
842.522	23821
842.659	23505
842.796	23531
842.933	23695
843.069	23573
843.206	23444
843.343	23512
843.479	23676
843.616	23581
843.752	23425
843.889	23410
844.025	23490
844.162	23239
844.298	23474
844.435	23296
844.571	23269
844.708	23531
844.844	23478
844.98	23558
845.117	23395
845.253	23364
845.389	23174
845.525	23227
845.661	23280
845.798	23143
845.934	23022
846.07	23071
846.206	23178
846.342	23246
846.478	23052
846.614	22725
846.75	22710
846.886	22904
847.022	22866
847.158	22873
847.294	22801
847.429	22892
847.565	22771
847.701	23098
847.837	22660
847.972	22573
848.108	22546
848.244	22554
848.379	22398
848.515	22504
848.65	22382
848.786	22470
848.921	22519
849.057	22542
849.192	22694
849.328	22386
849.463	22508
849.598	22436
849.734	22291
849.869	22261
850.004	22112
850.14	22230
850.275	22226
850.41	22025
850.545	22192
850.68	22154
850.815	22238
850.95	22177
851.085	22436
851.22	22249
851.355	22219
851.49	22116
851.625	22162
851.76	22143
851.895	22036
852.03	22158
852.165	22143
852.299	22223
852.434	22356
852.569	22173
852.703	22147
852.838	22329
852.973	22276
853.107	22230
853.242	22234
853.376	22162
853.511	21937
853.645	22013
853.78	22181
853.914	22090
854.048	22044
854.183	22044
854.317	22070
854.451	22169
854.585	21975
854.72	22093
854.854	22147
854.988	21972
855.122	22025
855.256	21865
855.39	21892
855.524	22196
855.658	22025
855.792	22112
855.926	22017
856.06	22070
856.194	22112
856.327	21903
856.461	21968
856.595	21857
856.729	22040
856.862	22246
856.996	22051
857.13	22109
857.263	22044
857.397	22059
857.53	22078
857.664	22143
857.797	22109
857.931	22192
858.064	22067
858.197	22135
858.331	21960
858.464	22017
858.597	21956
858.731	21979
858.864	22017
858.997	21945
859.13	22029
859.263	21953
859.396	22173
859.529	22025
859.662	22006
859.795	21975
859.928	22059
860.061	22268
860.194	22116
860.327	22116
860.46	22044
860.592	22238
860.725	22211
860.858	22249
860.99	22021
861.123	22013
861.256	21968
861.388	22002
861.521	22771
861.653	21850
861.786	21747
861.918	21797
862.05	22067
862.183	22010
862.315	21994
862.447	22025
862.58	22025
862.712	21819
862.844	21671
862.976	21865
863.108	21732
863.24	22082
863.372	21736
863.504	21857
863.636	21720
863.768	21694
863.9	21675
864.032	21614
864.164	21717
864.296	21728
864.428	21804
864.559	21808
864.691	21823
864.823	21774
864.954	21686
865.086	21606
865.217	21587
865.349	21507
865.48	21561
865.612	21534
865.743	21766
865.875	21637
866.006	21561
866.137	21610
866.269	21561
866.4	21568
866.531	21564
866.662	21424
866.793	21431
866.924	21564
867.055	21530
867.186	21629
867.317	21504
867.448	21557
867.579	21500
867.71	21340
867.841	21515
867.972	21568
868.103	21538
868.233	21583
868.364	21618
868.495	21736
868.625	21857
868.756	21922
868.886	21743
869.017	21812
869.147	21766
869.278	21953
869.408	21831
869.539	21751
869.669	21895
869.799	21857
869.929	21949
870.06	21892
870.19	22093
870.32	22070
870.45	22067
870.58	22188
870.71	22230
870.84	22246
870.97	22097
871.1	22120
871.23	22322
871.36	22402
871.489	22211
871.619	22234
871.749	22462
871.879	22474
872.008	22234
872.138	22299
872.267	22329
872.397	22154
872.526	22223
872.656	22185
872.785	22322
872.915	22386
873.044	22405
873.173	22405
873.303	22417
873.432	22432
873.561	22535
873.69	22356
873.819	22405
873.948	22470
874.077	22379
874.206	22299
874.335	22394
874.464	22500
874.593	22713
874.722	22535
874.851	22653
874.979	22679
875.108	22683
875.237	22542
875.365	22481
875.494	22672
875.623	22649
875.751	22588
875.88	22634
876.008	22809
876.136	22793
876.265	23044
876.393	23044
876.521	23060
876.65	23064
876.778	22972
876.906	22915
877.034	22858
877.162	22991
877.29	22896
877.418	22858
877.546	23102
877.674	22896
877.802	22869
877.93	22934
878.058	22828
878.185	22790
878.313	22908
878.441	22934
878.568	22889
878.696	22835
878.824	22961
878.951	22900
879.079	23052
879.206	23261
879.333	23079
879.461	22885
879.588	23033
879.715	23037
879.842	23166
879.97	23037
880.097	22748
880.224	22782
880.351	22740
880.478	22782
880.605	22782
880.732	22847
880.859	23014
880.986	22679
881.112	22755
881.239	22771
881.366	22485
881.493	22405
881.619	22352
881.746	22402
881.872	22291
881.999	22196
882.125	22249
882.252	22253
882.378	22185
882.505	22459
882.631	22268
882.757	21991
882.883	22112
883.01	22109
883.136	21956
883.262	21854
883.388	21911
883.514	21953
883.64	22109
883.766	21941
883.892	21846
884.018	21755
884.143	21975
884.269	21991
884.395	21671
884.52	21606
884.646	21538
884.772	21595
884.897	21408
885.023	21591
885.148	21736
885.274	21812
885.399	21762
885.524	21572
885.65	21564
885.775	21701
885.9	21606
886.025	21686
886.15	21743
886.275	21538
886.4	21477
886.525	21473
886.65	21542
886.775	21618
886.9	21583
887.025	21808
887.149	21572
887.274	21397
887.399	21450
887.523	21416
887.648	21405
887.773	21302
887.897	21473
888.021	21359
888.146	21458
888.27	21431
888.395	21564
888.519	21416
888.643	21397
888.767	21439
888.891	21355
889.015	21093
889.139	21325
889.263	21230
889.387	21302
889.511	21496
889.635	21302
889.759	21089
889.883	21214
890.006	21252
890.13	21386
890.254	21230
890.377	21176
890.501	20952
890.624	21077
890.748	21058
890.871	20765
890.995	20739
891.118	20674
891.241	20663
891.364	20697
891.488	20952
891.611	20792
891.734	20743
891.857	20796
891.98	20769
892.103	20849
892.226	20724
892.349	20686
892.471	20598
892.594	20708
892.717	20678
892.839	20621
892.962	20686
893.085	20651
893.207	20743
893.33	20514
893.452	20583
893.575	20724
893.697	20625
893.819	20762
893.941	20807
894.064	20929
894.186	20484
894.308	20499
894.43	20697
894.552	20769
894.674	20735
894.796	20590
894.918	20552
895.04	20686
895.161	20754
895.283	20697
895.405	20522
895.526	20632
895.648	20705
895.769	20708
895.891	20579
896.012	20587
896.134	20667
896.255	20708
896.376	20590
896.498	20583
896.619	20754
896.74	20514
896.861	20613
896.982	21032
897.103	21085
897.224	21017
897.345	20815
897.466	20785
897.587	20807
897.708	20986
897.828	20853
897.949	20845
898.07	20678
898.19	20781
898.311	20864
898.431	20838
898.552	20880
898.672	20823
898.792	20933
898.913	20872
899.033	20705
899.153	20545
899.273	20644
899.393	20640
899.513	20598
899.633	20598
899.753	20564
899.873	20450
899.993	20537
900.113	20541
900.232	20564
900.352	20518
900.472	20427
900.591	20313
900.711	20404
900.83	20320
900.95	20473
901.069	20450
901.189	20149
901.308	20024
901.427	19944
901.546	19917
901.665	19928
901.784	19944
901.904	19761
902.023	19742
902.141	19441
902.26	19457
902.379	19525
902.498	19441
902.617	19403
902.735	19449
902.854	19369
902.973	19331
903.091	19080
903.21	19080
903.328	19046
903.446	19012
903.565	18905
903.683	18943
903.801	18734
903.919	18837
904.038	18730
904.156	18696
904.274	18844
904.392	18627
904.51	18707
904.627	18597
904.745	18677
904.863	18673
904.981	18479
905.098	18357
905.216	18380
905.334	18429
905.451	18270
905.569	18330
905.686	18407
905.803	18361
905.921	18140
906.038	18243
906.155	18129
906.272	18087
906.389	18030
906.506	17916
906.623	17832
906.74	17954
906.857	17760
906.974	17710
907.091	17950
907.208	17855
907.324	17882
907.441	17775
907.557	17512
907.674	17596
907.79	17497
907.907	17570
908.023	17573
908.139	17474
908.256	17547
908.372	17547
908.488	17474
908.604	17353
908.72	17303
908.836	17364
908.952	17258
909.068	17273
909.184	17387
909.3	17345
909.415	17216
909.531	17250
909.647	17098
909.762	16999
909.878	17025
909.993	16923
910.108	16991
910.224	16987
910.339	16953
910.454	16881
910.57	16706
910.685	16786
910.8	16965
910.915	16881
911.03	16858
911.145	16538
911.259	16531
911.374	16596
911.489	16569
911.604	16481
911.718	16337
911.833	16424
911.947	16242
912.062	16055
912.176	16291
912.291	16246
912.405	16379
912.519	16500
912.633	16573
912.748	16341
912.862	16405
912.976	16204
913.09	16021
913.204	16112
913.318	16280
913.431	16211
913.545	16272
913.659	16226
913.772	16090
913.886	15926
914	15865
914.113	15949
914.226	15968
914.34	16120
914.453	15865
914.566	15903
914.68	15804
914.793	15713
914.906	15614
915.019	15519
915.132	15378
915.245	15557
915.358	15515
915.47	15644
915.583	15561
915.696	15564
915.809	15656
915.921	15644
916.034	15416
916.146	15428
916.259	15393
916.371	15378
916.483	15412
916.595	15325
916.708	15306
916.82	15317
916.932	15329
917.044	15321
917.156	15252
917.268	15184
917.38	15230
917.491	15070
917.603	15108
917.715	15192
917.826	15222
917.938	15074
918.049	15005
918.161	15062
918.272	15192
918.384	15119
918.495	15093
918.606	14982
918.717	14887
918.828	14941
918.939	14963
919.05	14811
919.161	14895
919.272	14693
919.383	14750
919.494	14952
919.604	15039
919.715	14868
919.826	14746
919.936	14724
920.047	14952
920.157	14785
920.267	15036
920.378	14902
920.488	14697
920.598	15051
920.708	15116
920.818	15039
920.928	14952
921.038	15146
921.148	15176
921.258	14826
921.368	14754
921.477	14499
921.587	14545
921.697	14503
921.806	14644
921.916	14377
922.025	14317
922.134	14191
922.244	14195
922.353	14298
922.462	14119
922.571	14020
922.68	13890
922.789	13864
922.898	13791
923.007	13769
923.116	13841
923.224	13818
923.333	13791
923.442	13731
923.55	13620
923.659	13670
923.767	13658
923.876	13715
923.984	13658
924.092	13548
924.201	13704
924.309	13575
924.417	13540
924.525	13605
924.633	13529
924.741	14252
924.849	13373
924.956	13384
925.064	13297
925.172	13232
925.279	13312
925.387	13301
925.494	13327
925.602	13407
925.709	13274
925.816	13183
925.924	13221
926.031	13320
926.138	13179
926.245	13206
926.352	13171
926.459	13236
926.566	13324
926.673	13065
926.779	12935
926.886	12947
926.993	12905
927.099	12817
927.206	12703
927.312	12772
927.419	12833
927.525	12802
927.631	12871
927.737	12703
927.843	12726
927.95	12498
928.056	12555
928.162	12669
928.267	12597
928.373	13247
928.479	12741
928.585	12437
928.69	12635
928.796	12616
928.901	12585
929.007	12452
929.112	12479
929.218	12407
929.323	12407
929.428	12399
929.533	12525
929.638	12270
929.743	12369
929.848	12361
929.953	12342
930.058	12235
930.163	12030
930.267	12003
930.372	12228
930.477	11973
930.581	12186
930.685	12053
930.79	11942
930.894	11942
930.998	11927
931.103	12072
931.207	11604
931.311	11592
931.415	11528
931.519	11250
931.623	11299
