Data from test_V78500241_1129.txt Node
Date: Fri Mar 25 15:17:43 CST 2022
User: usil
Spectrometer: V785-0024
Trigger mode: 0
Integration Time (sec): 4.000000E-1
Scans to average: 1
Nonlinearity correction enabled: false
Boxcar width: 0
Storing dark spectrum: false
XAxis mode: Wavelengths
Number of Pixels in Spectrum: 1024
>>>>>Begin Spectral Data<<<<<
801.071	28280
801.214	28306
801.356	28078
801.499	27899
801.641	27846
801.783	27899
801.926	27812
802.068	27857
802.211	27755
802.353	27682
802.496	27568
802.638	27443
802.78	27435
802.923	27504
803.065	27340
803.208	27454
803.35	27553
803.492	27576
803.635	27557
803.777	27614
803.919	27637
804.061	28006
804.204	27679
804.346	27762
804.488	27561
804.63	27717
804.773	27545
804.915	27709
805.057	27827
805.199	27660
805.341	27789
805.483	27914
805.626	27979
805.768	27713
805.91	27679
806.052	27835
806.194	27762
806.336	28078
806.478	27903
806.62	27907
806.762	27945
806.904	28109
807.046	28257
807.188	28272
807.33	28295
807.472	28166
807.614	28219
807.756	28158
807.898	28158
808.04	28074
808.182	28097
808.324	28131
808.465	28238
808.607	28337
808.749	28516
808.891	28599
809.033	28668
809.174	28569
809.316	28428
809.458	28630
809.6	28413
809.741	28717
809.883	28599
810.025	28877
810.166	28767
810.308	28748
810.45	28733
810.591	28691
810.733	28565
810.875	28546
811.016	28474
811.158	28341
811.299	28421
811.441	28771
811.582	28618
811.724	28413
811.865	28519
812.007	28466
812.148	28478
812.29	28542
812.431	28755
812.573	28976
812.714	29022
812.855	29162
812.997	29181
813.138	29429
813.279	29258
813.421	29185
813.562	28965
813.703	28755
813.845	28858
813.986	28573
814.127	28382
814.268	28162
814.41	28417
814.551	28249
814.692	28306
814.833	28070
814.974	28223
815.115	28344
815.256	28177
815.397	28082
815.539	28166
815.68	28109
815.821	27895
815.962	28051
816.103	27983
816.244	27964
816.385	27922
816.526	27869
816.666	27713
816.807	27523
816.948	27618
817.089	27625
817.23	27622
817.371	27519
817.512	27694
817.653	27523
817.793	27416
817.934	27553
818.075	27587
818.216	27591
818.356	27542
818.497	27275
818.638	27279
818.778	27287
818.919	27393
819.06	27302
819.2	27386
819.341	27488
819.481	27625
819.622	27663
819.762	27975
819.903	27934
820.043	27975
820.184	27709
820.324	27690
820.465	27728
820.605	27869
820.746	27637
820.886	27583
821.026	27705
821.167	27690
821.307	27686
821.447	27515
821.588	27568
821.728	27355
821.868	27108
822.008	27184
822.149	26921
822.289	26914
822.429	26663
822.569	26762
822.709	26727
822.849	26533
822.99	26617
823.13	26473
823.27	26385
823.41	26377
823.55	26271
823.69	26442
823.83	26461
823.97	26221
824.11	26134
824.25	26263
824.389	26259
824.529	26320
824.669	26267
824.809	26347
824.949	26446
825.089	26237
825.228	26313
825.368	26084
825.508	25997
825.648	26031
825.787	26145
825.927	26172
826.067	26043
826.206	26111
826.346	26062
826.485	26202
826.625	26218
826.765	26180
826.904	26161
827.044	25879
827.183	25951
827.323	25807
827.462	25909
827.601	25982
827.741	25662
827.88	25738
828.02	25696
828.159	25849
828.298	25932
828.437	25772
828.577	25795
828.716	25818
828.855	25833
828.994	25525
829.134	25620
829.273	25624
829.412	25407
829.551	25453
829.69	25472
829.829	25472
829.968	25658
830.107	25727
830.246	25559
830.385	25449
830.524	25350
830.663	25396
830.802	25194
830.941	25137
831.08	24985
831.219	25312
831.357	25350
831.496	25438
831.635	25122
831.774	24985
831.913	25133
832.051	24920
832.19	24878
832.329	25031
832.467	24741
832.606	24951
832.744	24867
832.883	24886
833.022	24684
833.16	24802
833.299	24954
833.437	24840
833.576	24954
833.714	24924
833.852	24897
833.991	25000
834.129	25027
834.267	24977
834.406	24897
834.544	24951
834.682	24730
834.821	24852
834.959	25072
835.097	24913
835.235	24943
835.373	24928
835.511	24837
835.65	24768
835.788	24802
835.926	24673
836.064	24585
836.202	24741
836.34	24601
836.478	24741
836.615	24711
836.753	24757
836.891	24829
837.029	24719
837.167	24654
837.305	24536
837.443	24578
837.58	24475
837.718	24719
837.856	24597
837.993	24479
838.131	24589
838.269	24433
838.406	24445
838.544	24388
838.681	24209
838.819	24194
838.956	24106
839.094	24060
839.231	23984
839.369	24296
839.506	24361
839.643	24190
839.781	23996
839.918	24057
840.055	23950
840.193	23939
840.33	24060
840.467	23965
840.604	24083
840.742	24270
840.879	23805
841.016	23889
841.153	23866
841.29	24022
841.427	23958
841.564	23939
841.701	23866
841.838	23851
841.975	23821
842.112	23859
842.249	23802
842.385	23802
842.522	23859
842.659	23802
842.796	23687
842.933	23699
843.069	23585
843.206	23748
843.343	23764
843.479	23714
843.616	23775
843.752	23452
843.889	23646
844.025	23642
844.162	23570
844.298	23619
844.435	23539
844.571	23501
844.708	23444
844.844	23748
844.98	23577
845.117	23566
845.253	23493
845.389	23223
845.525	23296
845.661	23452
845.798	23212
845.934	23277
846.07	23337
846.206	23307
846.342	23258
846.478	23151
846.614	23022
846.75	22850
846.886	22934
847.022	23006
847.158	23010
847.294	22854
847.429	23006
847.565	23006
847.701	23166
847.837	22683
847.972	22729
848.108	22752
848.244	22596
848.379	22546
848.515	22493
848.65	22565
848.786	22478
848.921	22565
849.057	22523
849.192	22588
849.328	22637
849.463	22497
849.598	22398
849.734	22459
849.869	22413
850.004	22329
850.14	22402
850.275	22295
850.41	22318
850.545	22242
850.68	22291
850.815	22352
850.95	22207
851.085	22432
851.22	22455
851.355	22329
851.49	22318
851.625	22287
851.76	22303
851.895	22147
852.03	22124
852.165	22284
852.299	22268
852.434	22265
852.569	22405
852.703	22272
852.838	22443
852.973	22451
853.107	22337
853.242	22363
853.376	22173
853.511	22044
853.645	22090
853.78	22234
853.914	22097
854.048	22101
854.183	22135
854.317	22120
854.451	22363
854.585	22150
854.72	22067
854.854	22246
854.988	22070
855.122	22143
855.256	22051
855.39	22051
855.524	22257
855.658	22082
855.792	22131
855.926	22196
856.06	22257
856.194	22120
856.327	21994
856.461	22021
856.595	22128
856.729	22211
856.862	22124
856.996	22101
857.13	22158
857.263	22150
857.397	22169
857.53	22021
857.664	22177
857.797	22124
857.931	22246
858.064	22223
858.197	22226
858.331	22036
858.464	22059
858.597	22021
858.731	22185
858.864	22207
858.997	22017
859.13	22158
859.263	22101
859.396	22082
859.529	22135
859.662	22128
859.795	22029
859.928	22040
860.061	22382
860.194	22341
860.327	22067
860.46	22299
860.592	22185
860.725	22185
860.858	22200
860.99	22188
861.123	21934
861.256	21998
861.388	22055
861.521	22858
861.653	21998
861.786	21865
861.918	21915
862.05	22013
862.183	22173
862.315	22093
862.447	22169
862.58	21911
862.712	21873
862.844	21781
862.976	21884
863.108	21941
863.24	22432
863.372	21800
863.504	21865
863.636	21838
863.768	21827
863.9	21842
864.032	21816
864.164	21747
864.296	21903
864.428	22010
864.559	21797
864.691	21854
864.823	21895
864.954	21778
865.086	21778
865.217	21781
865.349	21686
865.48	21583
865.612	21823
865.743	21907
865.875	21762
866.006	21686
866.137	21682
866.269	21751
866.4	21690
866.531	21705
866.662	21557
866.793	21648
866.924	21663
867.055	21660
867.186	21675
867.317	21595
867.448	21511
867.579	21656
867.71	21629
867.841	21549
867.972	21538
868.103	21629
868.233	21778
868.364	21614
868.495	21652
868.625	21880
868.756	22002
868.886	21717
869.017	21903
869.147	21960
869.278	21998
869.408	21846
869.539	21880
869.669	21922
869.799	22017
869.929	21918
870.06	21991
870.19	22162
870.32	22154
870.45	22310
870.58	22276
870.71	22352
870.84	22295
870.97	22147
871.1	22344
871.23	22413
871.36	22455
871.489	22325
871.619	22470
871.749	22478
871.879	22497
872.008	22557
872.138	22299
872.267	22405
872.397	22386
872.526	22280
872.656	22284
872.785	22333
872.915	22394
873.044	22584
873.173	22565
873.303	22504
873.432	22478
873.561	22580
873.69	22584
873.819	22466
873.948	22512
874.077	22504
874.206	22466
874.335	22432
874.464	22459
874.593	22698
874.722	22664
874.851	22698
874.979	22843
875.108	22816
875.237	22717
875.365	22554
875.494	22679
875.623	22683
875.751	22607
875.88	22634
876.008	22816
876.136	22900
876.265	23037
876.393	23227
876.521	23258
876.65	23044
876.778	23132
876.906	22987
877.034	23025
877.162	23075
877.29	23006
877.418	22892
877.546	23155
877.674	23102
877.802	23029
877.93	23022
878.058	22911
878.185	22919
878.313	22987
878.441	23006
878.568	22873
878.696	22892
878.824	23033
878.951	23124
879.079	23166
879.206	23474
879.333	23166
879.461	23029
879.588	23041
879.715	23216
879.842	23345
879.97	23064
880.097	22908
880.224	22919
880.351	22877
880.478	22828
880.605	22942
880.732	22873
880.859	22972
880.986	22869
881.112	22759
881.239	22767
881.366	22577
881.493	22527
881.619	22314
881.746	22455
881.872	22367
881.999	22409
882.125	22440
882.252	22478
882.378	22329
882.505	22546
882.631	22238
882.757	22116
882.883	22215
883.01	22120
883.136	22070
883.262	21987
883.388	21899
883.514	21998
883.64	22131
883.766	21991
883.892	21835
884.018	21915
884.143	22017
884.269	21979
884.395	21823
884.52	21701
884.646	21728
884.772	21789
884.897	21603
885.023	21686
885.148	21816
885.274	21846
885.399	21789
885.524	21736
885.65	21781
885.775	21789
885.9	21656
886.025	21861
886.15	21774
886.275	21698
886.4	21648
886.525	21686
886.65	21698
886.775	21732
886.9	21838
887.025	21949
887.149	21842
887.274	21606
887.399	21477
887.523	21583
887.648	21416
887.773	21416
887.897	21618
888.021	21587
888.146	21481
888.27	21701
888.395	21694
888.519	21485
888.643	21458
888.767	21538
888.891	21336
889.015	21325
889.139	21321
889.263	21199
889.387	21412
889.511	21587
889.635	21348
889.759	21306
889.883	21291
890.006	21306
890.13	21428
890.254	21207
890.377	21241
890.501	21028
890.624	20971
890.748	21192
890.871	20811
890.995	20925
891.118	20750
891.241	20838
891.364	20849
891.488	21051
891.611	20952
891.734	20781
891.857	20872
891.98	20815
892.103	20914
892.226	20800
892.349	20853
892.471	20629
892.594	20686
892.717	20739
892.839	20811
892.962	20781
893.085	20693
893.207	20705
893.33	20727
893.452	20655
893.575	20689
893.697	20644
893.819	20929
893.941	20902
894.064	20880
894.186	20735
894.308	20712
894.43	20845
894.552	20834
894.674	20804
894.796	20564
894.918	20682
895.04	20613
895.161	20834
895.283	20724
895.405	20686
895.526	20735
895.648	20655
895.769	20765
895.891	20735
896.012	20864
896.134	20716
896.255	20712
896.376	20674
896.498	20830
896.619	20644
896.74	20682
896.861	20708
896.982	21077
897.103	21135
897.224	21119
897.345	20975
897.466	20925
897.587	20994
897.708	21074
897.828	20941
897.949	20777
898.07	20705
898.19	20861
898.311	20960
898.431	20918
898.552	20948
898.672	20982
898.792	20925
898.913	20899
899.033	20781
899.153	20765
899.273	20606
899.393	20632
899.513	20636
899.633	20609
899.753	20617
899.873	20648
899.993	20746
900.113	20625
900.232	20659
900.352	20598
900.472	20427
900.591	20362
900.711	20480
900.83	20381
900.95	20495
901.069	20537
901.189	20351
901.308	20092
901.427	20050
901.546	20054
901.665	19890
901.784	20027
901.904	19719
902.023	19643
902.141	19514
902.26	19483
902.379	19658
902.498	19510
902.617	19521
902.735	19540
902.854	19483
902.973	19403
903.091	19194
903.21	19061
903.328	19050
903.446	19019
903.565	18993
903.683	18894
903.801	18875
903.919	18943
904.038	18848
904.156	18764
904.274	18886
904.392	18700
904.51	18612
904.627	18741
904.745	18817
904.863	18798
904.981	18578
905.098	18350
905.216	18395
905.334	18452
905.451	18460
905.569	18350
905.686	18388
905.803	18494
905.921	18327
906.038	18414
906.155	18353
906.272	18140
906.389	18174
906.506	17950
906.623	17946
906.74	17870
906.857	17824
906.974	17821
907.091	17904
907.208	17901
907.324	17950
907.441	17870
907.557	17680
907.674	17703
907.79	17623
907.907	17543
908.023	17646
908.139	17627
908.256	17600
908.372	17611
908.488	17429
908.604	17353
908.72	17398
908.836	17330
908.952	17303
909.068	17360
909.184	17406
909.3	17364
909.415	17349
909.531	17299
909.647	17132
909.762	17018
909.878	17048
909.993	17010
910.108	17025
910.224	16927
910.339	17094
910.454	16915
910.57	16892
910.685	16793
910.8	17010
910.915	16976
911.03	16847
911.145	16710
911.259	16649
911.374	16771
911.489	16538
911.604	16558
911.718	16375
911.833	16390
911.947	16287
912.062	16234
912.176	16284
912.291	16360
912.405	16360
912.519	16592
912.633	16519
912.748	16348
912.862	16291
912.976	16196
913.09	16196
913.204	16105
913.318	16257
913.431	16253
913.545	16276
913.659	16382
913.772	16109
913.886	15991
914	16006
914.113	16093
914.226	16067
914.34	16071
914.453	15835
914.566	16036
914.68	15781
914.793	15778
914.906	15698
915.019	15603
915.132	15637
915.245	15637
915.358	15572
915.47	15561
915.583	15622
915.696	15561
915.809	15663
915.921	15743
916.034	15572
916.146	15526
916.259	15488
916.371	15549
916.483	15500
916.595	15386
916.708	15393
916.82	15310
916.932	15420
917.044	15317
917.156	15298
917.268	15218
917.38	15249
917.491	15138
917.603	15211
917.715	15226
917.826	15275
917.938	15157
918.049	15013
918.161	15214
918.272	15317
918.384	15199
918.495	15154
918.606	14914
918.717	15039
918.828	14990
918.939	14918
919.05	14853
919.161	14906
919.272	14724
919.383	14811
919.494	15017
919.604	15192
919.715	14929
919.826	14960
919.936	14902
920.047	14971
920.157	14933
920.267	15089
920.378	15020
920.488	14956
920.598	15123
920.708	15237
920.818	14994
920.928	15070
921.038	15294
921.148	15131
921.258	14811
921.368	14746
921.477	14564
921.587	14621
921.697	14575
921.806	14663
921.916	14499
922.025	14385
922.134	14256
922.244	14290
922.353	14286
922.462	14199
922.571	14164
922.68	14035
922.789	13811
922.898	13917
923.007	13951
923.116	13906
923.224	13963
923.333	13871
923.442	13864
923.55	13753
923.659	13727
923.767	13826
923.876	13658
923.984	13784
924.092	13643
924.201	13651
924.309	13632
924.417	13632
924.525	13556
924.633	13616
924.741	14511
924.849	13460
924.956	13544
925.064	13514
925.172	13263
925.279	13304
925.387	13320
925.494	13270
925.602	13438
925.709	13373
925.816	13244
925.924	13343
926.031	13297
926.138	13259
926.245	13285
926.352	13168
926.459	13415
926.566	13403
926.673	13114
926.779	13034
926.886	12981
926.993	12924
927.099	12913
927.206	12840
927.312	12806
927.419	12901
927.525	12943
927.631	12817
927.737	12669
927.843	12749
927.95	12612
928.056	12764
928.162	12703
928.267	12760
928.373	13270
928.479	12764
928.585	12502
928.69	12734
928.796	12654
928.901	12544
929.007	12441
929.112	12547
929.218	12574
929.323	12319
929.428	12445
929.533	12506
929.638	12365
929.743	12369
929.848	12380
929.953	12357
930.058	12289
930.163	12068
930.267	12095
930.372	12228
930.477	12026
930.581	12308
930.685	12110
930.79	11980
930.894	11996
930.998	11920
931.103	12049
931.207	11733
931.311	11638
931.415	11566
931.519	11417
931.623	11353
