Data from test_V78500241_2667.txt Node
Date: Fri Mar 25 15:28:25 CST 2022
User: usil
Spectrometer: V785-0024
Trigger mode: 0
Integration Time (sec): 4.000000E-1
Scans to average: 1
Nonlinearity correction enabled: false
Boxcar width: 0
Storing dark spectrum: false
XAxis mode: Wavelengths
Number of Pixels in Spectrum: 1024
>>>>>Begin Spectral Data<<<<<
801.071	27112
801.214	27058
801.356	26842
801.499	26891
801.641	26693
801.783	26594
801.926	26724
802.068	26632
802.211	26560
802.353	26537
802.496	26343
802.638	26370
802.78	26210
802.923	26191
803.065	26221
803.208	26119
803.35	26218
803.492	26298
803.635	26526
803.777	26278
803.919	26381
804.061	26598
804.204	26400
804.346	26294
804.488	26324
804.63	26381
804.773	26324
804.915	26492
805.057	26469
805.199	26404
805.341	26530
805.483	26404
805.626	26514
805.768	26571
805.91	26514
806.052	26541
806.194	26374
806.336	26609
806.478	26408
806.62	26552
806.762	26682
806.904	26724
807.046	27039
807.188	26876
807.33	26834
807.472	27024
807.614	26739
807.756	26788
807.898	26659
808.04	26617
808.182	26720
808.324	26731
808.465	26765
808.607	27028
808.749	27096
808.891	27195
809.033	27184
809.174	27074
809.316	27066
809.458	27001
809.6	26998
809.741	27218
809.883	27264
810.025	27416
810.166	27313
810.308	27382
810.45	27294
810.591	27245
810.733	27123
810.875	27100
811.016	26956
811.158	27055
811.299	27188
811.441	27279
811.582	27237
811.724	27165
811.865	27020
812.007	27028
812.148	27127
812.29	27039
812.431	27119
812.573	27332
812.714	27393
812.855	27545
812.997	27751
813.138	27789
813.279	27709
813.421	27572
813.562	27416
813.703	27287
813.845	27287
813.986	26933
814.127	26788
814.268	26762
814.41	26765
814.551	26724
814.692	26754
814.833	26629
814.974	26785
815.115	26655
815.256	26495
815.397	26689
815.539	26537
815.68	26469
815.821	26492
815.962	26564
816.103	26495
816.244	26355
816.385	26362
816.526	26221
816.666	26027
816.807	25925
816.948	26046
817.089	26050
817.23	25966
817.371	26031
817.512	25986
817.653	26008
817.793	25890
817.934	26107
818.075	25894
818.216	26058
818.356	26012
818.497	25814
818.638	25632
818.778	25750
818.919	25731
819.06	25822
819.2	25909
819.341	25955
819.481	26046
819.622	26259
819.762	26259
819.903	26225
820.043	25997
820.184	26206
820.324	26088
820.465	26126
820.605	26187
820.746	26164
820.886	25997
821.026	26001
821.167	26035
821.307	26050
821.447	26069
821.588	25963
821.728	25871
821.868	25689
822.008	25468
822.149	25426
822.289	25464
822.429	25202
822.569	25183
822.709	25213
822.849	24966
822.99	24966
823.13	24863
823.27	25004
823.41	24779
823.55	24673
823.69	24772
823.83	24749
823.97	24741
824.11	24608
824.25	24582
824.389	24563
824.529	24688
824.669	24608
824.809	24745
824.949	24696
825.089	24650
825.228	24646
825.368	24490
825.508	24525
825.648	24585
825.787	24467
825.927	24578
826.067	24517
826.206	24441
826.346	24441
826.485	24445
826.625	24410
826.765	24551
826.904	24517
827.044	24285
827.183	24220
827.323	24079
827.462	24190
827.601	24251
827.741	24186
827.88	24194
828.02	24106
828.159	24144
828.298	24178
828.437	24098
828.577	24186
828.716	24369
828.855	24087
828.994	23901
829.134	23874
829.273	23969
829.412	23923
829.551	23847
829.69	23824
829.829	23973
829.968	24022
830.107	23980
830.246	23908
830.385	23870
830.524	23779
830.663	23638
830.802	23570
830.941	23467
831.08	23497
831.219	23657
831.357	23577
831.496	23805
831.635	23547
831.774	23482
831.913	23387
832.051	23258
832.19	23227
832.329	23315
832.467	23288
832.606	23151
832.744	23258
832.883	23212
833.022	23098
833.16	23265
833.299	23170
833.437	23250
833.576	23227
833.714	23254
833.852	23395
833.991	23383
834.129	23448
834.267	23315
834.406	23178
834.544	23353
834.682	23227
834.821	23311
834.959	23376
835.097	23200
835.235	23235
835.373	23189
835.511	23265
835.65	23113
835.788	23136
835.926	22968
836.064	22854
836.202	22938
836.34	23037
836.478	23140
836.615	23041
836.753	23159
836.891	23280
837.029	23185
837.167	23155
837.305	23071
837.443	23003
837.58	23003
837.718	23044
837.856	22911
837.993	22885
838.131	22995
838.269	22694
838.406	22847
838.544	22831
838.681	22778
838.819	22679
838.956	22432
839.094	22508
839.231	22630
839.369	22535
839.506	22896
839.643	22790
839.781	22516
839.918	22322
840.055	22466
840.193	22394
840.33	22348
840.467	22371
840.604	22417
840.742	22531
840.879	22363
841.016	22325
841.153	22249
841.29	22443
841.427	22367
841.564	22344
841.701	22325
841.838	22356
841.975	22169
842.112	22261
842.249	22253
842.385	22173
842.522	22341
842.659	22249
842.796	22093
842.933	22044
843.069	22090
843.206	22177
843.343	22150
843.479	22093
843.616	22207
843.752	21876
843.889	21918
844.025	22063
844.162	21842
844.298	21930
844.435	21770
844.571	21865
844.708	21975
844.844	22109
844.98	21979
845.117	21979
845.253	21755
845.389	21739
845.525	21736
845.661	21743
845.798	21675
845.934	21728
846.07	21599
846.206	21599
846.342	21861
846.478	21561
846.614	21496
846.75	21367
846.886	21241
847.022	21492
847.158	21492
847.294	21386
847.429	21454
847.565	21329
847.701	21466
847.837	21085
847.972	20963
848.108	21195
848.244	21051
848.379	21077
848.515	20906
848.65	20982
848.786	20937
848.921	20963
849.057	21051
849.192	21032
849.328	20975
849.463	21001
849.598	20899
849.734	20910
849.869	20735
850.004	20819
850.14	20750
850.275	20746
850.41	20590
850.545	20682
850.68	20769
850.815	20727
850.95	20800
851.085	20921
851.22	20826
851.355	20754
851.49	20720
851.625	20636
851.76	20651
851.895	20743
852.03	20651
852.165	20720
852.299	20769
852.434	20853
852.569	20849
852.703	20781
852.838	20819
852.973	20895
853.107	20921
853.242	20693
853.376	20640
853.511	20560
853.645	20549
853.78	20663
853.914	20648
854.048	20613
854.183	20617
854.317	20579
854.451	20777
854.585	20629
854.72	20648
854.854	20568
854.988	20609
855.122	20602
855.256	20450
855.39	20541
855.524	20632
855.658	20549
855.792	20530
855.926	20609
856.06	20587
856.194	20613
856.327	20606
856.461	20492
856.595	20541
856.729	20556
856.862	20689
856.996	20617
857.13	20613
857.263	20823
857.397	20556
857.53	20549
857.664	20644
857.797	20674
857.931	20629
858.064	20625
858.197	20667
858.331	20632
858.464	20476
858.597	20457
858.731	20621
858.864	20602
858.997	20545
859.13	20564
859.263	20602
859.396	20667
859.529	20568
859.662	20446
859.795	20511
859.928	20526
860.061	20682
860.194	20754
860.327	20583
860.46	20587
860.592	20617
860.725	20826
860.858	20693
860.99	20579
861.123	20415
861.256	20533
861.388	20644
861.521	21241
861.653	20473
861.786	20385
861.918	20374
862.05	20415
862.183	20389
862.315	20415
862.447	20636
862.58	20492
862.712	20294
862.844	20290
862.976	20499
863.108	20324
863.24	20716
863.372	20263
863.504	20240
863.636	20206
863.768	20339
863.9	20301
864.032	20107
864.164	20218
864.296	20355
864.428	20374
864.559	20263
864.691	20328
864.823	20278
864.954	20275
865.086	20336
865.217	20191
865.349	20138
865.48	20153
865.612	20191
865.743	20275
865.875	20191
866.006	20153
866.137	20195
866.269	20145
866.4	20225
866.531	20180
866.662	20138
866.793	20107
866.924	20134
867.055	20172
867.186	20130
867.317	20119
867.448	20126
867.579	20214
867.71	20130
867.841	19993
867.972	20115
868.103	20115
868.233	20069
868.364	20058
868.495	20199
868.625	20305
868.756	20522
868.886	20366
869.017	20355
869.147	20408
869.278	20400
869.408	20389
869.539	20374
869.669	20446
869.799	20431
869.929	20473
870.06	20503
870.19	20743
870.32	20609
870.45	20727
870.58	20663
870.71	20815
870.84	20796
870.97	20804
871.1	20739
871.23	20944
871.36	20918
871.489	20921
871.619	20891
871.749	20948
871.879	21020
872.008	20975
872.138	20864
872.267	20963
872.397	20842
872.526	20769
872.656	20861
872.785	20861
872.915	20967
873.044	21039
873.173	20891
873.303	21039
873.432	21100
873.561	21173
873.69	21047
873.819	21024
873.948	21157
874.077	20941
874.206	20792
874.335	21077
874.464	21062
874.593	21203
874.722	21154
874.851	21348
874.979	21283
875.108	21268
875.237	21203
875.365	21188
875.494	21150
875.623	21249
875.751	21127
875.88	21233
876.008	21279
876.136	21428
876.265	21610
876.393	21816
876.521	21743
876.65	21743
876.778	21511
876.906	21576
877.034	21583
877.162	21637
877.29	21587
877.418	21580
877.546	21648
877.674	21523
877.802	21481
877.93	21625
878.058	21526
878.185	21576
878.313	21557
878.441	21652
878.568	21500
878.696	21587
878.824	21595
878.951	21701
879.079	21739
879.206	21850
879.333	21778
879.461	21804
879.588	21667
879.715	21736
879.842	21911
879.97	21736
880.097	21523
880.224	21496
880.351	21545
880.478	21420
880.605	21279
880.732	21332
880.859	21660
880.986	21416
881.112	21454
881.239	21256
881.366	21104
881.493	20994
881.619	21112
881.746	20990
881.872	20849
881.999	20990
882.125	20868
882.252	21036
882.378	20868
882.505	21104
882.631	20918
882.757	20712
882.883	20785
883.01	20693
883.136	20594
883.262	20541
883.388	20579
883.514	20746
883.64	20895
883.766	20648
883.892	20522
884.018	20442
884.143	20537
884.269	20785
884.395	20415
884.52	20256
884.646	20450
884.772	20240
884.897	20339
885.023	20393
885.148	20541
885.274	20469
885.399	20507
885.524	20320
885.65	20408
885.775	20419
885.9	20267
886.025	20518
886.15	20503
886.275	20339
886.4	20259
886.525	20267
886.65	20370
886.775	20305
886.9	20275
887.025	20415
887.149	20229
887.274	20210
887.399	20187
887.523	20138
887.648	20153
887.773	19955
887.897	20111
888.021	20161
888.146	19986
888.27	20096
888.395	20202
888.519	20202
888.643	20229
888.767	20161
888.891	20103
889.015	19875
889.139	19989
889.263	19921
889.387	20111
889.511	20062
889.635	20035
889.759	19936
889.883	19982
890.006	19947
890.13	20050
890.254	19731
890.377	19864
890.501	19658
890.624	19662
890.748	19723
890.871	19499
890.995	19506
891.118	19365
891.241	19594
891.364	19419
891.488	19616
891.611	19491
891.734	19476
891.857	19525
891.98	19518
892.103	19525
892.226	19499
892.349	19419
892.471	19362
892.594	19518
892.717	19445
892.839	19384
892.962	19426
893.085	19510
893.207	19335
893.33	19301
893.452	19453
893.575	19518
893.697	19403
893.819	19670
893.941	19495
894.064	19518
894.186	19403
894.308	19308
894.43	19502
894.552	19544
894.674	19506
894.796	19320
894.918	19464
895.04	19403
895.161	19434
895.283	19392
895.405	19377
895.526	19499
895.648	19373
895.769	19411
895.891	19495
896.012	19499
896.134	19483
896.255	19480
896.376	19400
896.498	19510
896.619	19476
896.74	19499
896.861	19533
896.982	19742
897.103	19871
897.224	19753
897.345	19647
897.466	19666
897.587	19651
897.708	19803
897.828	19696
897.949	19635
898.07	19460
898.19	19487
898.311	19761
898.431	19628
898.552	19674
898.672	19658
898.792	19795
898.913	19700
899.033	19620
899.153	19426
899.273	19434
899.393	19346
899.513	19529
899.633	19411
899.753	19457
899.873	19396
899.993	19411
900.113	19308
900.232	19373
900.352	19430
900.472	19179
900.591	19118
900.711	19247
900.83	19103
900.95	19297
901.069	19339
901.189	19065
901.308	18905
901.427	18837
901.546	18749
901.665	18844
901.784	18890
901.904	18639
902.023	18540
902.141	18403
902.26	18361
902.379	18426
902.498	18414
902.617	18330
902.735	18395
902.854	18251
902.973	18323
903.091	18144
903.21	18045
903.328	18079
903.446	17969
903.565	17832
903.683	17737
903.801	17695
903.919	17790
904.038	17695
904.156	17554
904.274	17566
904.392	17562
904.51	17562
904.627	17608
904.745	17668
904.863	17532
904.981	17318
905.098	17227
905.216	17265
905.334	17330
905.451	17311
905.569	17280
905.686	17311
905.803	17220
905.921	17113
906.038	17132
906.155	17098
906.272	16968
906.389	16946
906.506	16850
906.623	16752
906.74	16733
906.857	16626
906.974	16683
907.091	16892
907.208	16896
907.324	16847
907.441	16660
907.557	16607
907.674	16504
907.79	16493
907.907	16493
908.023	16580
908.139	16569
908.256	16504
908.372	16394
908.488	16443
908.604	16322
908.72	16204
908.836	16211
908.952	16219
909.068	16261
909.184	16386
909.3	16268
909.415	16287
909.531	16226
909.647	16010
909.762	15964
909.878	15880
909.993	16021
910.108	15876
910.224	15918
910.339	15911
910.454	15880
910.57	15732
910.685	15690
910.8	15983
910.915	15949
911.03	15785
911.145	15618
911.259	15568
911.374	15701
911.489	15549
911.604	15397
911.718	15332
911.833	15325
911.947	15264
912.062	15283
912.176	15325
912.291	15382
912.405	15492
912.519	15530
912.633	15538
912.748	15291
912.862	15325
912.976	15180
913.09	15074
913.204	15150
913.318	15157
913.431	15211
913.545	15245
913.659	15279
913.772	15138
913.886	15043
914	14982
914.113	15089
914.226	15146
914.34	15013
914.453	14826
914.566	15039
914.68	14815
914.793	14796
914.906	14636
915.019	14606
915.132	14518
915.245	14495
915.358	14621
915.47	14530
915.583	14556
915.696	14575
915.809	14686
915.921	14644
916.034	14564
916.146	14385
916.259	14446
916.371	14518
916.483	14484
916.595	14408
916.708	14492
916.82	14423
916.932	14332
917.044	14336
917.156	14324
917.268	14233
917.38	14240
917.491	14149
917.603	14191
917.715	14351
917.826	14355
917.938	14183
918.049	14130
918.161	14092
918.272	14313
918.384	14328
918.495	14229
918.606	14024
918.717	14035
918.828	14069
918.939	13993
919.05	13909
919.161	13959
919.272	13795
919.383	13830
919.494	14016
919.604	14115
919.715	13913
919.826	13989
919.936	13860
920.047	14073
920.157	13970
920.267	14206
920.378	13978
920.488	13909
920.598	14077
920.708	14336
920.818	14081
920.928	14111
921.038	14237
921.148	14195
921.258	13906
921.368	13909
921.477	13742
921.587	13734
921.697	13639
921.806	13833
921.916	13571
922.025	13499
922.134	13438
922.244	13392
922.353	13384
922.462	13373
922.571	13297
922.68	13004
922.789	13023
922.898	13046
923.007	13080
923.116	13038
923.224	13015
923.333	13000
923.442	12875
923.55	12863
923.659	12825
923.767	12973
923.876	12890
923.984	12909
924.092	12779
924.201	12867
924.309	12730
924.417	12848
924.525	12677
924.633	12776
924.741	13674
924.849	12528
924.956	12665
925.064	12547
925.172	12437
925.279	12525
925.387	12559
925.494	12483
925.602	12620
925.709	12509
925.816	12376
925.924	12388
926.031	12517
926.138	12471
926.245	12407
926.352	12357
926.459	12544
926.566	12544
926.673	12350
926.779	12270
926.886	12304
926.993	12148
927.099	12060
927.206	11984
927.312	12068
927.419	12076
927.525	12060
927.631	12140
927.737	12019
927.843	11893
927.95	11821
928.056	11927
928.162	11863
928.267	12068
928.373	12471
928.479	12007
928.585	11695
928.69	11897
928.796	11863
928.901	11798
929.007	11680
929.112	11767
929.218	11733
929.323	11604
929.428	11615
929.533	11703
929.638	11630
929.743	11547
929.848	11668
929.953	11581
930.058	11478
930.163	11315
930.267	11395
930.372	11482
930.477	11284
930.581	11520
930.685	11391
930.79	11258
930.894	11220
930.998	11166
931.103	11345
931.207	10942
931.311	10850
931.415	10790
931.519	10714
931.623	10618
