Data from test_V78500241_1606.txt Node
Date: Fri Mar 25 15:21:02 CST 2022
User: usil
Spectrometer: V785-0024
Trigger mode: 0
Integration Time (sec): 4.000000E-1
Scans to average: 1
Nonlinearity correction enabled: false
Boxcar width: 0
Storing dark spectrum: false
XAxis mode: Wavelengths
Number of Pixels in Spectrum: 1024
>>>>>Begin Spectral Data<<<<<
801.071	27713
801.214	27606
801.356	27568
801.499	27462
801.641	27211
801.783	27275
801.926	27351
802.068	27214
802.211	27233
802.353	27093
802.496	27028
802.638	26861
802.78	26777
802.923	26861
803.065	26823
803.208	26876
803.35	26891
803.492	27047
803.635	27100
803.777	27020
803.919	27173
804.061	27485
804.204	27165
804.346	27222
804.488	27081
804.63	27207
804.773	26921
804.915	27199
805.057	27241
805.199	27066
805.341	27218
805.483	27382
805.626	27340
805.768	27108
805.91	27272
806.052	27302
806.194	27241
806.336	27405
806.478	27272
806.62	27188
806.762	27325
806.904	27641
807.046	27656
807.188	27679
807.33	27671
807.472	27831
807.614	27553
807.756	27599
807.898	27473
808.04	27469
808.182	27549
808.324	27572
808.465	27629
808.607	27838
808.749	27937
808.891	28013
809.033	28124
809.174	28150
809.316	27876
809.458	27972
809.6	27762
809.741	28025
809.883	28173
810.025	28238
810.166	28291
810.308	28207
810.45	28074
810.591	27960
810.733	27907
810.875	27800
811.016	27720
811.158	27679
811.299	28074
811.441	28090
811.582	28070
811.724	27888
811.865	27842
812.007	27937
812.148	27816
812.29	27865
812.431	28215
812.573	28249
812.714	28314
812.855	28417
812.997	28637
813.138	28752
813.279	28694
813.421	28497
813.562	28417
813.703	28211
813.845	28109
813.986	27812
814.127	27583
814.268	27561
814.41	27622
814.551	27458
814.692	27751
814.833	27557
814.974	27553
815.115	27519
815.256	27469
815.397	27610
815.539	27424
815.68	27572
815.821	27386
815.962	27408
816.103	27458
816.244	27317
816.385	27146
816.526	27104
816.666	27024
816.807	26849
816.948	26914
817.089	27066
817.23	26891
817.371	26758
817.512	26933
817.653	26724
817.793	26686
817.934	26777
818.075	26982
818.216	26895
818.356	26796
818.497	26758
818.638	26632
818.778	26590
818.919	26625
819.06	26720
819.2	26834
819.341	26891
819.481	26716
819.622	26986
819.762	27272
819.903	27096
820.043	26880
820.184	26933
820.324	26895
820.465	27138
820.605	26952
820.746	27017
820.886	26895
821.026	26986
821.167	26834
821.307	27135
821.447	26944
821.588	26914
821.728	26686
821.868	26457
822.008	26377
822.149	26355
822.289	26400
822.429	26115
822.569	26020
822.709	25944
822.849	25845
822.99	25947
823.13	25906
823.27	25693
823.41	25597
823.55	25594
823.69	25738
823.83	25715
823.97	25540
824.11	25567
824.25	25403
824.389	25354
824.529	25582
824.669	25514
824.809	25506
824.949	25533
825.089	25643
825.228	25396
825.368	25270
825.508	25266
825.648	25441
825.787	25381
825.927	25460
826.067	25316
826.206	25407
826.346	25476
826.485	25335
826.625	25354
826.765	25441
826.904	25365
827.044	25171
827.183	25202
827.323	24875
827.462	25209
827.601	25114
827.741	25069
827.88	25076
828.02	25023
828.159	25080
828.298	25038
828.437	25027
828.577	25038
828.716	25141
828.855	24943
828.994	24802
829.134	24863
829.273	24753
829.412	24635
829.551	24616
829.69	24779
829.829	24635
829.968	24791
830.107	24920
830.246	24738
830.385	24738
830.524	24700
830.663	24661
830.802	24559
830.941	24426
831.08	24251
831.219	24342
831.357	24547
831.496	24616
831.635	24441
831.774	24247
831.913	24292
832.051	24228
832.19	24190
832.329	24159
832.467	24178
832.606	24018
832.744	24095
832.883	24007
833.022	24057
833.16	24136
833.299	24091
833.437	24072
833.576	24220
833.714	24155
833.852	24136
833.991	24159
834.129	24133
834.267	24140
834.406	24091
834.544	24159
834.682	24136
834.821	24041
834.959	24251
835.097	24026
835.235	24190
835.373	24133
835.511	24091
835.65	24003
835.788	24030
835.926	23840
836.064	23695
836.202	23798
836.34	23999
836.478	23920
836.615	23828
836.753	23901
836.891	24079
837.029	24018
837.167	23847
837.305	23824
837.443	23767
837.58	23828
837.718	23771
837.856	23866
837.993	23878
838.131	23756
838.269	23421
838.406	23608
838.544	23554
838.681	23402
838.819	23379
838.956	23311
839.094	23136
839.231	23395
839.369	23429
839.506	23668
839.643	23528
839.781	23223
839.918	23178
840.055	23265
840.193	23212
840.33	23143
840.467	23105
840.604	23315
840.742	23379
840.879	23200
841.016	23060
841.153	23117
841.29	23265
841.427	23162
841.564	23109
841.701	23254
841.838	23098
841.975	23014
842.112	23098
842.249	23018
842.385	22961
842.522	23098
842.659	22987
842.796	22930
842.933	22927
843.069	22858
843.206	22938
843.343	22877
843.479	22957
843.616	22850
843.752	22729
843.889	22687
844.025	22816
844.162	22767
844.298	22771
844.435	22580
844.571	22679
844.708	22858
844.844	22771
844.98	22801
845.117	22904
845.253	22672
845.389	22462
845.525	22527
845.661	22626
845.798	22280
845.934	22531
846.07	22596
846.206	22341
846.342	22569
846.478	22478
846.614	22226
846.75	22040
846.886	22246
847.022	22276
847.158	22090
847.294	22215
847.429	22219
847.565	22166
847.701	22459
847.837	21979
847.972	21846
848.108	22055
848.244	21949
848.379	21816
848.515	21797
848.65	21660
848.786	21701
848.921	21854
849.057	21915
849.192	21751
849.328	21766
849.463	21774
849.598	21713
849.734	21568
849.869	21629
850.004	21564
850.14	21629
850.275	21500
850.41	21447
850.545	21485
850.68	21515
850.815	21572
850.95	21542
851.085	21557
851.22	21629
851.355	21553
851.49	21587
851.625	21507
851.76	21492
851.895	21507
852.03	21348
852.165	21485
852.299	21534
852.434	21625
852.569	21504
852.703	21485
852.838	21507
852.973	21447
853.107	21549
853.242	21321
853.376	21321
853.511	21348
853.645	21332
853.78	21473
853.914	21424
854.048	21313
854.183	21245
854.317	21348
854.451	21481
854.585	21408
854.72	21222
854.854	21386
854.988	21321
855.122	21359
855.256	21279
855.39	21447
855.524	21378
855.658	21367
855.792	21325
855.926	21344
856.06	21401
856.194	21393
856.327	21340
856.461	21287
856.595	21237
856.729	21306
856.862	21340
856.996	21287
857.13	21336
857.263	21374
857.397	21412
857.53	21370
857.664	21226
857.797	21329
857.931	21466
858.064	21382
858.197	21466
858.331	21351
858.464	21279
858.597	21218
858.731	21344
858.864	21302
858.997	21310
859.13	21272
859.263	21481
859.396	21370
859.529	21264
859.662	21256
859.795	21332
859.928	21447
860.061	21485
860.194	21405
860.327	21325
860.46	21325
860.592	21386
860.725	21595
860.858	21397
860.99	21397
861.123	21222
861.256	21340
861.388	21264
861.521	22021
861.653	21252
861.786	21100
861.918	21150
862.05	21176
862.183	21211
862.315	21195
862.447	21268
862.58	21268
862.712	20971
862.844	21047
862.976	21146
863.108	21096
863.24	21530
863.372	20941
863.504	20960
863.636	21066
863.768	21058
863.9	21074
864.032	21024
864.164	20979
864.296	20998
864.428	21093
864.559	21093
864.691	21055
864.823	21055
864.954	21074
865.086	21112
865.217	20967
865.349	20868
865.48	20895
865.612	20933
865.743	21077
865.875	20933
866.006	20990
866.137	21020
866.269	20891
866.4	20929
866.531	20891
866.662	20811
866.793	20887
866.924	20887
867.055	20960
867.186	20853
867.317	20785
867.448	20804
867.579	20899
867.71	20804
867.841	20712
867.972	20899
868.103	20800
868.233	20929
868.364	20792
868.495	20948
868.625	21062
868.756	21142
868.886	20929
869.017	21036
869.147	21165
869.278	21233
869.408	21180
869.539	21188
869.669	21051
869.799	21161
869.929	21222
870.06	21245
870.19	21355
870.32	21355
870.45	21473
870.58	21450
870.71	21549
870.84	21618
870.97	21447
871.1	21610
871.23	21759
871.36	21705
871.489	21709
871.619	21751
871.749	21694
871.879	21690
872.008	21800
872.138	21690
872.267	21530
872.397	21660
872.526	21538
872.656	21485
872.785	21606
872.915	21804
873.044	21751
873.173	21682
873.303	21755
873.432	21686
873.561	21861
873.69	21751
873.819	21713
873.948	21709
874.077	21724
874.206	21686
874.335	21781
874.464	21778
874.593	21884
874.722	21972
874.851	22017
874.979	21937
875.108	22006
875.237	21930
875.365	21915
875.494	21907
875.623	22051
875.751	21789
875.88	21983
876.008	22063
876.136	22150
876.265	22402
876.393	22382
876.521	22489
876.65	22363
876.778	22318
876.906	22265
877.034	22318
877.162	22287
877.29	22192
877.418	22322
877.546	22356
877.674	22249
877.802	22382
877.93	22348
878.058	22238
878.185	22177
878.313	22230
878.441	22291
878.568	22074
878.696	22177
878.824	22341
878.951	22447
879.079	22485
879.206	22569
879.333	22489
879.461	22329
879.588	22440
879.715	22554
879.842	22592
879.97	22280
880.097	22188
880.224	22097
880.351	22063
880.478	22185
880.605	22135
880.732	22135
880.859	22402
880.986	22124
881.112	22044
881.239	21953
881.366	22006
881.493	21770
881.619	21656
881.746	21713
881.872	21736
881.999	21629
882.125	21717
882.252	21724
882.378	21690
882.505	21789
882.631	21724
882.757	21466
882.883	21458
883.01	21447
883.136	21386
883.262	21283
883.388	21298
883.514	21382
883.64	21519
883.766	21275
883.892	21249
884.018	21310
884.143	21279
884.269	21477
884.395	21055
884.52	21024
884.646	21157
884.772	21001
884.897	20929
885.023	21039
885.148	21135
885.274	21195
885.399	21077
885.524	20960
885.65	21005
885.775	21028
885.9	21070
886.025	21119
886.15	21070
886.275	21055
886.4	20956
886.525	21085
886.65	20876
886.775	20956
886.9	21089
887.025	21131
887.149	21077
887.274	20845
887.399	20944
887.523	20868
887.648	20788
887.773	20716
887.897	20845
888.021	20971
888.146	20899
888.27	20933
888.395	20967
888.519	20960
888.643	20880
888.767	20777
888.891	20716
889.015	20636
889.139	20754
889.263	20560
889.387	20754
889.511	20746
889.635	20788
889.759	20632
889.883	20686
890.006	20693
890.13	20819
890.254	20530
890.377	20495
890.501	20370
890.624	20377
890.748	20328
890.871	20225
890.995	20218
891.118	20161
891.241	20134
891.364	20180
891.488	20290
891.611	20202
891.734	20263
891.857	20362
891.98	20214
892.103	20263
892.226	20161
892.349	20096
892.471	20046
892.594	20092
892.717	20145
892.839	20088
892.962	19970
893.085	20145
893.207	20187
893.33	19955
893.452	19993
893.575	20142
893.697	20016
893.819	20282
893.941	20286
894.064	20278
894.186	19997
894.308	20005
894.43	20149
894.552	20103
894.674	20164
894.796	20077
894.918	20062
895.04	20035
895.161	20180
895.283	20168
895.405	19963
895.526	20096
895.648	20153
895.769	20168
895.891	20054
896.012	20240
896.134	20149
896.255	20149
896.376	19944
896.498	20065
896.619	20100
896.74	20084
896.861	20275
896.982	20404
897.103	20568
897.224	20480
897.345	20282
897.466	20248
897.587	20343
897.708	20480
897.828	20343
897.949	20259
898.07	20210
898.19	20267
898.311	20381
898.431	20290
898.552	20396
898.672	20358
898.792	20393
898.913	20237
899.033	20259
899.153	20115
899.273	20027
899.393	20069
899.513	20142
899.633	20119
899.753	20039
899.873	20020
899.993	20077
900.113	20027
900.232	20062
900.352	19913
900.472	19784
900.591	19841
900.711	19898
900.83	19845
900.95	20031
901.069	19963
901.189	19769
901.308	19556
901.427	19335
901.546	19468
901.665	19369
901.784	19464
901.904	19293
902.023	19209
902.141	18951
902.26	18973
902.379	19034
902.498	18989
902.617	18943
902.735	19000
902.854	18989
902.973	18920
903.091	18684
903.21	18681
903.328	18494
903.446	18445
903.565	18361
903.683	18479
903.801	18285
903.919	18380
904.038	18281
904.156	18247
904.274	18334
904.392	18167
904.51	18232
904.627	18152
904.745	18243
904.863	18197
904.981	17942
905.098	17832
905.216	17859
905.334	17935
905.451	17893
905.569	17779
905.686	17950
905.803	17771
905.921	17615
906.038	17767
906.155	17638
906.272	17516
906.389	17596
906.506	17455
906.623	17383
906.74	17387
906.857	17269
906.974	17181
907.091	17421
907.208	17452
907.324	17440
907.441	17364
907.557	17121
907.674	17128
907.79	17006
907.907	17006
908.023	17094
908.139	17109
908.256	17083
908.372	16869
908.488	17086
908.604	16869
908.72	16881
908.836	16824
908.952	16866
909.068	16885
909.184	16911
909.3	16866
909.415	16782
909.531	16809
909.647	16698
909.762	16481
909.878	16440
909.993	16451
910.108	16405
910.224	16538
910.339	16508
910.454	16493
910.57	16382
910.685	16310
910.8	16577
910.915	16481
911.03	16417
911.145	16124
911.259	16192
911.374	16188
911.489	16032
911.604	15994
911.718	15854
911.833	15800
911.947	15671
912.062	15762
912.176	15857
912.291	15861
912.405	15819
912.519	15972
912.633	16002
912.748	15926
912.862	15816
912.976	15698
913.09	15492
913.204	15584
913.318	15663
913.431	15778
913.545	15671
913.659	15835
913.772	15652
913.886	15523
914	15439
914.113	15587
914.226	15629
914.34	15511
914.453	15374
914.566	15515
914.68	15313
914.793	15313
914.906	15138
915.019	15138
915.132	15028
915.245	15055
915.358	15100
915.47	15112
915.583	15020
915.696	15150
915.809	15230
915.921	15233
916.034	15043
916.146	14982
916.259	14891
916.371	15005
916.483	15131
916.595	14963
916.708	15089
916.82	14906
916.932	14918
917.044	14864
917.156	14815
917.268	14762
917.38	14788
917.491	14708
917.603	14754
917.715	14819
917.826	14807
917.938	14701
918.049	14629
918.161	14621
918.272	14864
918.384	14705
918.495	14689
918.606	14549
918.717	14454
918.828	14484
918.939	14560
919.05	14427
919.161	14473
919.272	14248
919.383	14320
919.494	14613
919.604	14758
919.715	14480
919.826	14408
919.936	14457
920.047	14602
920.157	14465
920.267	14602
920.378	14511
920.488	14503
920.598	14587
920.708	14792
920.818	14549
920.928	14625
921.038	14826
921.148	14701
921.258	14377
921.368	14336
921.477	14233
921.587	14199
921.697	14081
921.806	14130
921.916	14012
922.025	13833
922.134	13841
922.244	13772
922.353	13860
922.462	13738
922.571	13609
922.68	13472
922.789	13487
922.898	13594
923.007	13460
923.116	13529
923.224	13533
923.333	13510
923.442	13346
923.55	13331
923.659	13362
923.767	13411
923.876	13236
923.984	13331
924.092	13183
924.201	13263
924.309	13263
924.417	13164
924.525	13190
924.633	13175
924.741	14077
924.849	12867
924.956	13088
925.064	12966
925.172	12928
925.279	12901
925.387	12932
925.494	12848
925.602	13110
925.709	12958
925.816	12817
925.924	12856
926.031	12977
926.138	12776
926.245	12787
926.352	12810
926.459	12905
926.566	12954
926.673	12768
926.779	12627
926.886	12593
926.993	12467
927.099	12509
927.206	12464
927.312	12422
927.419	12532
927.525	12479
927.631	12578
927.737	12399
927.843	12338
927.95	12216
928.056	12323
928.162	12273
928.267	12300
928.373	13000
928.479	12422
928.585	12182
928.69	12258
928.796	12194
928.901	12140
929.007	12015
929.112	12060
929.218	12079
929.323	12034
929.428	11984
929.533	12110
929.638	11931
929.743	11927
929.848	11999
929.953	11931
930.058	11798
930.163	11756
930.267	11638
930.372	11855
930.477	11646
930.581	11821
930.685	11779
930.79	11524
930.894	11554
930.998	11592
931.103	11691
931.207	11315
931.311	11197
931.415	11159
931.519	11022
931.623	10980
