Data from test_V78500241_2488.txt Node
Date: Fri Mar 25 15:27:11 CST 2022
User: usil
Spectrometer: V785-0024
Trigger mode: 0
Integration Time (sec): 4.000000E-1
Scans to average: 1
Nonlinearity correction enabled: false
Boxcar width: 0
Storing dark spectrum: false
XAxis mode: Wavelengths
Number of Pixels in Spectrum: 1024
>>>>>Begin Spectral Data<<<<<
801.071	27157
801.214	27123
801.356	26807
801.499	26743
801.641	26739
801.783	26655
801.926	26587
802.068	26594
802.211	26602
802.353	26583
802.496	26339
802.638	26187
802.78	26259
802.923	26210
803.065	26206
803.208	26237
803.35	26221
803.492	26446
803.635	26408
803.777	26385
803.919	26469
804.061	26800
804.204	26503
804.346	26355
804.488	26362
804.63	26431
804.773	26355
804.915	26317
805.057	26549
805.199	26404
805.341	26583
805.483	26594
805.626	26492
805.768	26427
805.91	26549
806.052	26488
806.194	26526
806.336	26727
806.478	26465
806.62	26682
806.762	26651
806.904	26712
807.046	27096
807.188	27024
807.33	26910
807.472	26902
807.614	26940
807.756	26861
807.898	26811
808.04	26743
808.182	26743
808.324	26823
808.465	26807
808.607	26925
808.749	27180
808.891	27173
809.033	27329
809.174	27112
809.316	27108
809.458	27173
809.6	27028
809.741	27264
809.883	27256
810.025	27511
810.166	27363
810.308	27401
810.45	27393
810.591	27325
810.733	27150
810.875	27058
811.016	27047
811.158	27028
811.299	27344
811.441	27382
811.582	27355
811.724	27176
811.865	27081
812.007	27051
812.148	27116
812.29	27089
812.431	27093
812.573	27405
812.714	27481
812.855	27583
812.997	27690
813.138	27717
813.279	27705
813.421	27595
813.562	27420
813.703	27336
813.845	27344
813.986	26940
814.127	26800
814.268	26762
814.41	26845
814.551	26735
814.692	26853
814.833	26678
814.974	26769
815.115	26830
815.256	26488
815.397	26621
815.539	26533
815.68	26651
815.821	26522
815.962	26518
816.103	26583
816.244	26358
816.385	26465
816.526	26336
816.666	26103
816.807	26005
816.948	25978
817.089	26073
817.23	26145
817.371	26084
817.512	25963
817.653	25974
817.793	25928
817.934	25997
818.075	26096
818.216	26012
818.356	26081
818.497	25875
818.638	25689
818.778	25658
818.919	25750
819.06	25970
819.2	26001
819.341	26012
819.481	25978
819.622	26065
819.762	26358
819.903	26176
820.043	26210
820.184	26077
820.324	26134
820.465	26199
820.605	26122
820.746	26153
820.886	26008
821.026	26142
821.167	26046
821.307	26168
821.447	25955
821.588	25769
821.728	25715
821.868	25704
822.008	25510
822.149	25441
822.289	25495
822.429	25293
822.569	25251
822.709	25209
822.849	24970
822.99	24977
823.13	25053
823.27	24981
823.41	24852
823.55	24700
823.69	24905
823.83	24741
823.97	24757
824.11	24559
824.25	24559
824.389	24540
824.529	24703
824.669	24559
824.809	24722
824.949	24631
825.089	24684
825.228	24635
825.368	24410
825.508	24403
825.648	24536
825.787	24589
825.927	24604
826.067	24475
826.206	24574
826.346	24471
826.485	24589
826.625	24395
826.765	24673
826.904	24582
827.044	24327
827.183	24300
827.323	24163
827.462	24224
827.601	24083
827.741	24079
827.88	24194
828.02	24095
828.159	24117
828.298	24262
828.437	24228
828.577	24064
828.716	24232
828.855	24167
828.994	23885
829.134	23988
829.273	23977
829.412	23901
829.551	23863
829.69	23885
829.829	24076
829.968	24102
830.107	24083
830.246	23851
830.385	23885
830.524	23821
830.663	23634
830.802	23570
830.941	23611
831.08	23501
831.219	23619
831.357	23657
831.496	23809
831.635	23585
831.774	23391
831.913	23368
832.051	23421
832.19	23303
832.329	23349
832.467	23113
832.606	23162
832.744	23189
832.883	23166
833.022	23250
833.16	23315
833.299	23379
833.437	23280
833.576	23296
833.714	23322
833.852	23391
833.991	23303
834.129	23204
834.267	23421
834.406	23322
834.544	23406
834.682	23220
834.821	23185
834.959	23455
835.097	23212
835.235	23402
835.373	23356
835.511	23170
835.65	23185
835.788	23079
835.926	23010
836.064	22919
836.202	23064
836.34	23075
836.478	23277
836.615	23128
836.753	23094
836.891	23227
837.029	23147
837.167	23060
837.305	23056
837.443	23025
837.58	23014
837.718	23029
837.856	23018
837.993	22885
838.131	22968
838.269	22873
838.406	23010
838.544	22801
838.681	22622
838.819	22584
838.956	22485
839.094	22421
839.231	22538
839.369	22653
839.506	22805
839.643	22691
839.781	22531
839.918	22402
840.055	22497
840.193	22440
840.33	22325
840.467	22481
840.604	22451
840.742	22752
840.879	22287
841.016	22382
841.153	22303
841.29	22508
841.427	22455
841.564	22466
841.701	22394
841.838	22375
841.975	22360
842.112	22299
842.249	22295
842.385	22223
842.522	22402
842.659	22268
842.796	22158
842.933	22036
843.069	22086
843.206	22006
843.343	22249
843.479	22147
843.616	22124
843.752	21964
843.889	21899
844.025	22025
844.162	21857
844.298	22051
844.435	21915
844.571	21823
844.708	22006
844.844	22048
844.98	22124
845.117	22025
845.253	21922
845.389	21774
845.525	21819
845.661	21675
845.798	21572
845.934	21838
846.07	21591
846.206	21667
846.342	21854
846.478	21587
846.614	21481
846.75	21351
846.886	21435
847.022	21511
847.158	21500
847.294	21469
847.429	21500
847.565	21325
847.701	21690
847.837	21233
847.972	21112
848.108	21218
848.244	21313
848.379	21077
848.515	20990
848.65	20921
848.786	20952
848.921	21013
849.057	21123
849.192	21119
849.328	21024
849.463	21013
849.598	20895
849.734	20838
849.869	20857
850.004	20678
850.14	20826
850.275	20807
850.41	20667
850.545	20716
850.68	20746
850.815	20876
850.95	20758
851.085	20937
851.22	20796
851.355	20777
851.49	20895
851.625	20693
851.76	20883
851.895	20762
852.03	20663
852.165	20864
852.299	20788
852.434	20842
852.569	20826
852.703	20693
852.838	20781
852.973	20811
853.107	20902
853.242	20724
853.376	20659
853.511	20476
853.645	20469
853.78	20705
853.914	20609
854.048	20507
854.183	20594
854.317	20731
854.451	20845
854.585	20583
854.72	20670
854.854	20651
854.988	20495
855.122	20511
855.256	20457
855.39	20492
855.524	20552
855.658	20781
855.792	20590
855.926	20636
856.06	20644
856.194	20701
856.327	20606
856.461	20583
856.595	20556
856.729	20606
856.862	20629
856.996	20556
857.13	20575
857.263	20689
857.397	20716
857.53	20465
857.664	20571
857.797	20720
857.931	20689
858.064	20701
858.197	20708
858.331	20571
858.464	20587
858.597	20396
858.731	20545
858.864	20518
858.997	20488
859.13	20564
859.263	20530
859.396	20701
859.529	20434
859.662	20514
859.795	20621
859.928	20533
860.061	20750
860.194	20853
860.327	20511
860.46	20632
860.592	20678
860.725	20724
860.858	20686
860.99	20587
861.123	20571
861.256	20518
861.388	20556
861.521	21116
861.653	20545
861.786	20412
861.918	20530
862.05	20530
862.183	20507
862.315	20571
862.447	20579
862.58	20514
862.712	20362
862.844	20309
862.976	20377
863.108	20469
863.24	20785
863.372	20317
863.504	20313
863.636	20355
863.768	20313
863.9	20267
864.032	20271
864.164	20275
864.296	20362
864.428	20396
864.559	20415
864.691	20343
864.823	20389
864.954	20248
865.086	20180
865.217	20210
865.349	20221
865.48	20119
865.612	20286
865.743	20355
865.875	20320
866.006	20180
866.137	20218
866.269	20054
866.4	20225
866.531	20157
866.662	20142
866.793	20183
866.924	20195
867.055	20233
867.186	20157
867.317	20142
867.448	20138
867.579	20210
867.71	20088
867.841	20176
867.972	20122
868.103	20237
868.233	20122
868.364	20134
868.495	20103
868.625	20298
868.756	20480
868.886	20282
869.017	20362
869.147	20537
869.278	20552
869.408	20377
869.539	20408
869.669	20556
869.799	20393
869.929	20476
870.06	20385
870.19	20731
870.32	20609
870.45	20765
870.58	20731
870.71	20845
870.84	20967
870.97	20739
871.1	20682
871.23	21074
871.36	21017
871.489	20868
871.619	20899
871.749	21074
871.879	20967
872.008	21001
872.138	21001
872.267	20899
872.397	20895
872.526	20758
872.656	20743
872.785	20781
872.915	20963
873.044	21077
873.173	21081
873.303	21138
873.432	21066
873.561	21207
873.69	20982
873.819	21017
873.948	20990
874.077	20982
874.206	20990
874.335	21001
874.464	21230
874.593	21275
874.722	21207
874.851	21214
874.979	21363
875.108	21264
875.237	21093
875.365	21199
875.494	21287
875.623	21428
875.751	21195
875.88	21294
876.008	21450
876.136	21382
876.265	21580
876.393	21717
876.521	21663
876.65	21781
876.778	21770
876.906	21564
877.034	21599
877.162	21637
877.29	21599
877.418	21720
877.546	21698
877.674	21686
877.802	21576
877.93	21625
878.058	21667
878.185	21466
878.313	21504
878.441	21553
878.568	21367
878.696	21549
878.824	21660
878.951	21629
879.079	21873
879.206	21972
879.333	21816
879.461	21595
879.588	21694
879.715	21816
879.842	21918
879.97	21656
880.097	21466
880.224	21397
880.351	21462
880.478	21504
880.605	21306
880.732	21408
880.859	21671
880.986	21473
881.112	21564
881.239	21355
881.366	21169
881.493	21154
881.619	21062
881.746	21047
881.872	21066
881.999	21032
882.125	20929
882.252	21085
882.378	21062
882.505	21089
882.631	20853
882.757	20883
882.883	20830
883.01	20792
883.136	20640
883.262	20686
883.388	20590
883.514	20754
883.64	20701
883.766	20716
883.892	20556
884.018	20431
884.143	20693
884.269	20667
884.395	20465
884.52	20381
884.646	20362
884.772	20191
884.897	20294
885.023	20492
885.148	20564
885.274	20400
885.399	20625
885.524	20530
885.65	20419
885.775	20503
885.9	20328
886.025	20507
886.15	20412
886.275	20415
886.4	20347
886.525	20324
886.65	20317
886.775	20294
886.9	20351
887.025	20594
887.149	20317
887.274	20218
887.399	20199
887.523	20172
887.648	20168
887.773	20218
887.897	20278
888.021	20199
888.146	20115
888.27	20161
888.395	20248
888.519	20237
888.643	20126
888.767	20218
888.891	20081
889.015	19913
889.139	20046
889.263	19936
889.387	20050
889.511	20107
889.635	20248
889.759	19989
889.883	20058
890.006	19970
890.13	20065
890.254	19841
890.377	19932
890.501	19784
890.624	19807
890.748	19670
890.871	19616
890.995	19605
891.118	19491
891.241	19586
891.364	19578
891.488	19655
891.611	19529
891.734	19514
891.857	19651
891.98	19559
892.103	19696
892.226	19464
892.349	19476
892.471	19407
892.594	19445
892.717	19514
892.839	19422
892.962	19457
893.085	19529
893.207	19426
893.33	19381
893.452	19354
893.575	19537
893.697	19499
893.819	19605
893.941	19685
894.064	19620
894.186	19445
894.308	19358
894.43	19685
894.552	19639
894.674	19571
894.796	19331
894.918	19544
895.04	19373
895.161	19552
895.283	19525
895.405	19331
895.526	19510
895.648	19563
895.769	19480
895.891	19548
896.012	19624
896.134	19616
896.255	19457
896.376	19419
896.498	19533
896.619	19468
896.74	19403
896.861	19506
896.982	19818
897.103	19833
897.224	19746
897.345	19776
897.466	19643
897.587	19693
897.708	19776
897.828	19761
897.949	19689
898.07	19499
898.19	19628
898.311	19746
898.431	19590
898.552	19826
898.672	19769
898.792	19765
898.913	19807
899.033	19578
899.153	19495
899.273	19377
899.393	19430
899.513	19525
899.633	19468
899.753	19510
899.873	19491
899.993	19449
900.113	19502
900.232	19403
900.352	19464
900.472	19339
900.591	19206
900.711	19312
900.83	19194
900.95	19339
901.069	19297
901.189	19168
901.308	19027
901.427	18878
901.546	18738
901.665	18837
901.784	18859
901.904	18783
902.023	18722
902.141	18464
902.26	18304
902.379	18551
902.498	18315
902.617	18254
902.735	18327
902.854	18338
902.973	18186
903.091	18022
903.21	18057
903.328	18041
903.446	18003
903.565	17821
903.683	17809
903.801	17642
903.919	17885
904.038	17760
904.156	17722
904.274	17756
904.392	17577
904.51	17551
904.627	17528
904.745	17722
904.863	17718
904.981	17364
905.098	17288
905.216	17280
905.334	17330
905.451	17273
905.569	17326
905.686	17326
905.803	17330
905.921	17033
906.038	17140
906.155	17037
906.272	17022
906.389	16999
906.506	16934
906.623	16790
906.74	16801
906.857	16694
906.974	16725
907.091	16904
907.208	16946
907.324	16755
907.441	16850
907.557	16649
907.674	16565
907.79	16554
907.907	16527
908.023	16493
908.139	16531
908.256	16508
908.372	16504
908.488	16481
908.604	16276
908.72	16200
908.836	16268
908.952	16265
909.068	16261
909.184	16485
909.3	16265
909.415	16280
909.531	16215
909.647	15994
909.762	15937
909.878	16017
909.993	15915
910.108	15960
910.224	16025
910.339	16063
910.454	15808
910.57	15819
910.685	15660
910.8	16029
910.915	15880
911.03	15819
911.145	15564
911.259	15526
911.374	15641
911.489	15534
911.604	15523
911.718	15294
911.833	15447
911.947	15268
912.062	15306
912.176	15488
912.291	15458
912.405	15340
912.519	15606
912.633	15511
912.748	15443
912.862	15431
912.976	15146
913.09	15017
913.204	15039
913.318	15097
913.431	15287
913.545	15169
913.659	15252
913.772	15108
913.886	14998
914	14941
914.113	15074
914.226	15089
914.34	15009
914.453	14891
914.566	15009
914.68	14830
914.793	14788
914.906	14716
915.019	14667
915.132	14625
915.245	14625
915.358	14659
915.47	14651
915.583	14583
915.696	14708
915.809	14727
915.921	14758
916.034	14518
916.146	14556
916.259	14423
916.371	14526
916.483	14537
916.595	14488
916.708	14465
916.82	14492
916.932	14381
917.044	14492
917.156	14450
917.268	14313
917.38	14263
917.491	14320
917.603	14294
917.715	14336
917.826	14423
917.938	14240
918.049	14248
918.161	14206
918.272	14366
918.384	14377
918.495	14206
918.606	14119
918.717	14065
918.828	14103
918.939	14001
919.05	14062
919.161	14130
919.272	13898
919.383	13944
919.494	14119
919.604	14233
919.715	14115
919.826	14016
919.936	13955
920.047	14107
920.157	13951
920.267	14195
920.378	14119
920.488	14031
920.598	14237
920.708	14256
920.818	14088
920.928	14130
921.038	14248
921.148	14347
921.258	14005
921.368	13932
921.477	13837
921.587	13765
921.697	13742
921.806	13776
921.916	13727
922.025	13601
922.134	13506
922.244	13449
922.353	13540
922.462	13464
922.571	13377
922.68	13202
922.789	13217
922.898	13084
923.007	13072
923.116	13114
923.224	13012
923.333	13099
923.442	12981
923.55	12867
923.659	12897
923.767	13065
923.876	12943
923.984	12890
924.092	12867
924.201	12878
924.309	12856
924.417	12875
924.525	12779
924.633	12772
924.741	13734
924.849	12616
924.956	12764
925.064	12589
925.172	12555
925.279	12475
925.387	12574
925.494	12589
925.602	12719
925.709	12536
925.816	12422
925.924	12448
926.031	12578
926.138	12486
926.245	12532
926.352	12399
926.459	12456
926.566	12585
926.673	12407
926.779	12365
926.886	12319
926.993	12186
927.099	12121
927.206	12079
927.312	12030
927.419	12121
927.525	12064
927.631	12133
927.737	12015
927.843	11908
927.95	11828
928.056	11897
928.162	11908
928.267	11984
928.373	12597
928.479	12072
928.585	11908
928.69	11996
928.796	11980
928.901	11874
929.007	11634
929.112	11802
929.218	11836
929.323	11722
929.428	11589
929.533	11771
929.638	11615
929.743	11589
929.848	11714
929.953	11695
930.058	11535
930.163	11425
930.267	11360
930.372	11493
930.477	11326
930.581	11589
930.685	11349
930.79	11284
930.894	11383
930.998	11273
931.103	11444
931.207	11006
931.311	10919
931.415	10900
931.519	10664
931.623	10607
