Data from test_V78500241_857.txt Node
Date: Fri Mar 25 15:15:49 CST 2022
User: usil
Spectrometer: V785-0024
Trigger mode: 0
Integration Time (sec): 4.000000E-1
Scans to average: 1
Nonlinearity correction enabled: false
Boxcar width: 0
Storing dark spectrum: false
XAxis mode: Wavelengths
Number of Pixels in Spectrum: 1024
>>>>>Begin Spectral Data<<<<<
801.071	28215
801.214	28196
801.356	27911
801.499	27895
801.641	27701
801.783	27770
801.926	27846
802.068	27956
802.211	27599
802.353	27652
802.496	27538
802.638	27405
802.78	27435
802.923	27447
803.065	27370
803.208	27420
803.35	27580
803.492	27599
803.635	27720
803.777	27618
803.919	27793
804.061	27964
804.204	27652
804.346	27682
804.488	27473
804.63	27648
804.773	27542
804.915	27644
805.057	27835
805.199	27644
805.341	27823
805.483	27732
805.626	27739
805.768	27603
805.91	27751
806.052	27835
806.194	27884
806.336	28067
806.478	27804
806.62	27903
806.762	27956
806.904	28109
807.046	28261
807.188	28158
807.33	28147
807.472	28223
807.614	28124
807.756	28253
807.898	28154
808.04	28067
808.182	28112
808.324	28158
808.465	28109
808.607	28523
808.749	28470
808.891	28527
809.033	28531
809.174	28428
809.316	28508
809.458	28508
809.6	28401
809.741	28637
809.883	28489
810.025	28793
810.166	28679
810.308	28763
810.45	28641
810.591	28675
810.733	28516
810.875	28622
811.016	28360
811.158	28398
811.299	28516
811.441	28618
811.582	28649
811.724	28516
811.865	28489
812.007	28470
812.148	28447
812.29	28538
812.431	28740
812.573	28908
812.714	28904
812.855	29128
812.997	29105
813.138	29254
813.279	29212
813.421	28999
813.562	29113
813.703	29086
813.845	28767
813.986	28516
814.127	28257
814.268	28135
814.41	28143
814.551	28192
814.692	28322
814.833	28112
814.974	28200
815.115	28348
815.256	28086
815.397	28223
815.539	28188
815.68	27987
815.821	28044
815.962	28105
816.103	28010
816.244	27819
816.385	27926
816.526	27876
816.666	27690
816.807	27519
816.948	27701
817.089	27667
817.23	27583
817.371	27431
817.512	27553
817.653	27534
817.793	27523
817.934	27568
818.075	27618
818.216	27500
818.356	27519
818.497	27443
818.638	27203
818.778	27287
818.919	27355
819.06	27393
819.2	27408
819.341	27477
819.481	27466
819.622	27583
819.762	27816
819.903	27838
820.043	27797
820.184	27690
820.324	27580
820.465	27656
820.605	27652
820.746	27694
820.886	27504
821.026	27561
821.167	27656
821.307	27739
821.447	27538
821.588	27473
821.728	27367
821.868	27203
822.008	27024
822.149	26910
822.289	26937
822.429	26693
822.569	26724
822.709	26682
822.849	26541
822.99	26617
823.13	26320
823.27	26278
823.41	26377
823.55	26286
823.69	26385
823.83	26415
823.97	26400
824.11	26134
824.25	26035
824.389	26229
824.529	26164
824.669	26138
824.809	26180
824.949	26263
825.089	26126
825.228	26229
825.368	26046
825.508	26039
825.648	26081
825.787	25970
825.927	26172
826.067	25993
826.206	25963
826.346	25993
826.485	26050
826.625	25978
826.765	26081
826.904	25989
827.044	25841
827.183	25807
827.323	25761
827.462	25852
827.601	25719
827.741	25696
827.88	25784
828.02	25670
828.159	25765
828.298	25708
828.437	25765
828.577	25624
828.716	25841
828.855	25674
828.994	25491
829.134	25377
829.273	25438
829.412	25388
829.551	25350
829.69	25457
829.829	25392
829.968	25552
830.107	25594
830.246	25510
830.385	25377
830.524	25274
830.663	25377
830.802	25236
830.941	25091
831.08	25122
831.219	25232
831.357	25137
831.496	25263
831.635	25023
831.774	25015
831.913	24859
832.051	24867
832.19	24852
832.329	24833
832.467	24840
832.606	24608
832.744	24642
832.883	24730
833.022	24688
833.16	24791
833.299	24810
833.437	24760
833.576	24875
833.714	24772
833.852	24856
833.991	24806
834.129	24890
834.267	24837
834.406	24840
834.544	24909
834.682	24817
834.821	24707
834.959	24932
835.097	24696
835.235	24867
835.373	24768
835.511	24791
835.65	24665
835.788	24802
835.926	24684
836.064	24445
836.202	24525
836.34	24654
836.478	24650
836.615	24688
836.753	24650
836.891	24646
837.029	24730
837.167	24673
837.305	24574
837.443	24429
837.58	24300
837.718	24467
837.856	24540
837.993	24437
838.131	24414
838.269	24296
838.406	24380
838.544	24194
838.681	24041
838.819	24102
838.956	23942
839.094	23870
839.231	24114
839.369	23996
839.506	24361
839.643	24220
839.781	23923
839.918	23718
840.055	23760
840.193	23901
840.33	23897
840.467	23756
840.604	23904
840.742	24091
840.879	23741
841.016	23764
841.153	23714
841.29	23859
841.427	23802
841.564	23946
841.701	23859
841.838	23539
841.975	23733
842.112	23729
842.249	23691
842.385	23554
842.522	23653
842.659	23627
842.796	23452
842.933	23444
843.069	23512
843.206	23558
843.343	23699
843.479	23478
843.616	23573
843.752	23417
843.889	23406
844.025	23524
844.162	23349
844.298	23444
844.435	23345
844.571	23417
844.708	23364
844.844	23486
844.98	23531
845.117	23391
845.253	23159
845.389	23208
845.525	23315
845.661	23181
845.798	23109
845.934	23181
846.07	23041
846.206	23079
846.342	23254
846.478	23064
846.614	22869
846.75	22839
846.886	22729
847.022	22816
847.158	22889
847.294	22660
847.429	22873
847.565	22755
847.701	23014
847.837	22588
847.972	22584
848.108	22588
848.244	22557
848.379	22436
848.515	22466
848.65	22519
848.786	22436
848.921	22489
849.057	22462
849.192	22432
849.328	22542
849.463	22268
849.598	22333
849.734	22325
849.869	22219
850.004	22211
850.14	22242
850.275	22215
850.41	22074
850.545	22230
850.68	22162
850.815	22276
850.95	22143
851.085	22333
851.22	22322
851.355	22200
851.49	22204
851.625	22166
851.76	22177
851.895	22112
852.03	22124
852.165	22135
852.299	22226
852.434	22325
852.569	22207
852.703	22173
852.838	22226
852.973	22344
853.107	22405
853.242	22105
853.376	22188
853.511	22006
853.645	22067
853.78	22207
853.914	22070
854.048	22006
854.183	21983
854.317	22124
854.451	22128
854.585	21934
854.72	21979
854.854	22059
854.988	21934
855.122	21987
855.256	22063
855.39	22055
855.524	22086
855.658	22017
855.792	21972
855.926	22086
856.06	22051
856.194	22025
856.327	22036
856.461	22006
856.595	21983
856.729	21918
856.862	22078
856.996	22029
857.13	22013
857.263	22200
857.397	22234
857.53	22017
857.664	21964
857.797	22147
857.931	22185
858.064	22063
858.197	22154
858.331	21964
858.464	21953
858.597	22010
858.731	21975
858.864	21899
858.997	21888
859.13	22135
859.263	22044
859.396	22055
859.529	21873
859.662	21899
859.795	21903
859.928	21979
860.061	22261
860.194	22215
860.327	22078
860.46	22048
860.592	22215
860.725	22166
860.858	22086
860.99	22025
861.123	21964
861.256	22017
861.388	22105
861.521	22847
861.653	21907
861.786	21876
861.918	21926
862.05	21926
862.183	22082
862.315	21979
862.447	22010
862.58	21884
862.712	21739
862.844	21755
862.976	21865
863.108	21732
863.24	22055
863.372	21736
863.504	21701
863.636	21705
863.768	21682
863.9	21720
864.032	21663
864.164	21633
864.296	21599
864.428	21831
864.559	21823
864.691	21816
864.823	21797
864.954	21663
865.086	21561
865.217	21728
865.349	21557
865.48	21610
865.612	21580
865.743	21778
865.875	21511
866.006	21583
866.137	21637
866.269	21580
866.4	21530
866.531	21511
866.662	21481
866.793	21481
866.924	21450
867.055	21641
867.186	21603
867.317	21458
867.448	21542
867.579	21420
867.71	21382
867.841	21538
867.972	21420
868.103	21488
868.233	21549
868.364	21587
868.495	21629
868.625	21671
868.756	21884
868.886	21781
869.017	21694
869.147	21915
869.278	21797
869.408	21819
869.539	21812
869.669	21915
869.799	21762
869.929	21838
870.06	21762
870.19	22116
870.32	22116
870.45	22036
870.58	22010
870.71	22219
870.84	22246
870.97	22211
871.1	22051
871.23	22341
871.36	22394
871.489	22352
871.619	22337
871.749	22303
871.879	22432
872.008	22459
872.138	22314
872.267	22470
872.397	22188
872.526	22169
872.656	22090
872.785	22169
872.915	22348
873.044	22413
873.173	22436
873.303	22390
873.432	22447
873.561	22489
873.69	22428
873.819	22413
873.948	22512
874.077	22379
874.206	22367
874.335	22516
874.464	22341
874.593	22500
874.722	22698
874.851	22607
874.979	22554
875.108	22653
875.237	22580
875.365	22565
875.494	22569
875.623	22653
875.751	22634
875.88	22713
876.008	22653
876.136	22797
876.265	22976
876.393	23185
876.521	23075
876.65	23075
876.778	22957
876.906	22911
877.034	22828
877.162	22923
877.29	22850
877.418	22953
877.546	22904
877.674	22984
877.802	22812
877.93	22991
878.058	22774
878.185	22771
878.313	22873
878.441	22869
878.568	22748
878.696	22797
878.824	22923
878.951	22965
879.079	23071
879.206	23299
879.333	23003
879.461	22972
879.588	23075
879.715	23025
879.842	23006
879.97	23117
880.097	22759
880.224	22759
880.351	22733
880.478	22694
880.605	22634
880.732	22733
880.859	23090
880.986	22778
881.112	22683
881.239	22645
881.366	22432
881.493	22440
881.619	22341
881.746	22310
881.872	22234
881.999	22261
882.125	22246
882.252	22223
882.378	22287
882.505	22405
882.631	22181
882.757	22010
882.883	22067
883.01	22059
883.136	21884
883.262	21941
883.388	21926
883.514	22181
883.64	21934
883.766	22048
883.892	21823
884.018	21762
884.143	21926
884.269	22067
884.395	21770
884.52	21591
884.646	21549
884.772	21564
884.897	21412
885.023	21568
885.148	21762
885.274	21766
885.399	21789
885.524	21698
885.65	21682
885.775	21614
885.9	21625
886.025	21660
886.15	21675
886.275	21519
886.4	21488
886.525	21580
886.65	21500
886.775	21538
886.9	21671
887.025	21785
887.149	21663
887.274	21549
887.399	21488
887.523	21272
887.648	21424
887.773	21340
887.897	21526
888.021	21534
888.146	21405
888.27	21481
888.395	21469
888.519	21374
888.643	21500
888.767	21549
888.891	21260
889.015	21081
889.139	21192
889.263	21108
889.387	21245
889.511	21401
889.635	21249
889.759	21081
889.883	21058
890.006	21241
890.13	21192
890.254	21093
890.377	21127
890.501	21024
890.624	20880
890.748	20941
890.871	20781
890.995	20773
891.118	20648
891.241	20731
891.364	20674
891.488	20838
891.611	20727
891.734	20629
891.857	20716
891.98	20693
892.103	20807
892.226	20842
892.349	20750
892.471	20564
892.594	20648
892.717	20598
892.839	20556
892.962	20670
893.085	20758
893.207	20575
893.33	20598
893.452	20473
893.575	20701
893.697	20594
893.819	20754
893.941	20796
894.064	20819
894.186	20526
894.308	20571
894.43	20716
894.552	20765
894.674	20682
894.796	20587
894.918	20708
895.04	20636
895.161	20693
895.283	20758
895.405	20594
895.526	20602
895.648	20556
895.769	20590
895.891	20571
896.012	20693
896.134	20796
896.255	20533
896.376	20686
896.498	20670
896.619	20575
896.74	20701
896.861	20781
896.982	20986
897.103	21020
897.224	20918
897.345	20849
897.466	20788
897.587	20849
897.708	20986
897.828	20895
897.949	20731
898.07	20625
898.19	20667
898.311	20906
898.431	20712
898.552	20800
898.672	20876
898.792	20937
898.913	20834
899.033	20705
899.153	20701
899.273	20552
899.393	20545
899.513	20655
899.633	20587
899.753	20644
899.873	20454
899.993	20609
900.113	20461
900.232	20465
900.352	20492
900.472	20431
900.591	20328
900.711	20336
900.83	20294
900.95	20412
901.069	20518
901.189	20130
901.308	20020
901.427	19936
901.546	19909
901.665	19959
901.784	19837
901.904	19757
902.023	19674
902.141	19578
902.26	19430
902.379	19616
902.498	19422
902.617	19396
902.735	19620
902.854	19350
902.973	19289
903.091	19126
903.21	19023
903.328	19122
903.446	19004
903.565	18878
903.683	18966
903.801	18852
903.919	18802
904.038	18764
904.156	18631
904.274	18734
904.392	18692
904.51	18532
904.627	18616
904.745	18635
904.863	18738
904.981	18494
905.098	18262
905.216	18388
905.334	18414
905.451	18254
905.569	18213
905.686	18353
905.803	18369
905.921	18144
906.038	18243
906.155	18068
906.272	18022
906.389	18186
906.506	17798
906.623	17897
906.74	17798
906.857	17680
906.974	17863
907.091	17954
907.208	18019
907.324	17969
907.441	17756
907.557	17737
907.674	17592
907.79	17410
907.907	17566
908.023	17630
908.139	17615
908.256	17497
908.372	17566
908.488	17516
908.604	17372
908.72	17292
908.836	17307
908.952	17265
909.068	17341
909.184	17360
909.3	17239
909.415	17227
909.531	17376
909.647	17064
909.762	16999
909.878	16942
909.993	16942
910.108	16999
910.224	16881
910.339	16919
910.454	16752
910.57	16801
910.685	16736
910.8	17037
910.915	16904
911.03	16866
911.145	16538
911.259	16527
911.374	16474
911.489	16451
911.604	16443
911.718	16234
911.833	16280
911.947	16147
912.062	16082
912.176	16249
912.291	16333
912.405	16280
912.519	16421
912.633	16504
912.748	16398
912.862	16360
912.976	16147
913.09	15983
913.204	16048
913.318	16086
913.431	16287
913.545	16230
913.659	16276
913.772	15972
913.886	16048
914	15960
914.113	15987
914.226	16071
914.34	15949
914.453	15713
914.566	15911
914.68	15857
914.793	15816
914.906	15682
915.019	15485
915.132	15428
915.245	15526
915.358	15488
915.47	15454
915.583	15530
915.696	15614
915.809	15584
915.921	15553
916.034	15469
916.146	15412
916.259	15374
916.371	15557
916.483	15526
916.595	15378
916.708	15272
916.82	15412
916.932	15325
917.044	15275
917.156	15245
917.268	15245
917.38	15199
917.491	15161
917.603	15165
917.715	15298
917.826	15226
917.938	15119
918.049	15028
918.161	15112
918.272	15306
918.384	15283
918.495	15074
918.606	14952
918.717	14853
918.828	14941
918.939	14982
919.05	14746
919.161	14910
919.272	14773
919.383	14834
919.494	14880
919.604	15150
919.715	14971
919.826	14857
919.936	14857
920.047	14925
920.157	14979
920.267	15055
920.378	14967
920.488	14838
920.598	15032
920.708	15097
920.818	14906
920.928	15020
921.038	15081
921.148	15131
921.258	14902
921.368	14708
921.477	14689
921.587	14632
921.697	14431
921.806	14659
921.916	14514
922.025	14355
922.134	14195
922.244	14195
922.353	14328
922.462	14153
922.571	14031
922.68	13906
922.789	13909
922.898	13868
923.007	13951
923.116	13932
923.224	13875
923.333	13868
923.442	13727
923.55	13647
923.659	13742
923.767	13833
923.876	13689
923.984	13734
924.092	13559
924.201	13632
924.309	13597
924.417	13632
924.525	13552
924.633	13483
924.741	14320
924.849	13392
924.956	13525
925.064	13339
925.172	13225
925.279	13278
925.387	13358
925.494	13171
925.602	13419
925.709	13388
925.816	13179
925.924	13171
926.031	13308
926.138	13194
926.245	13297
926.352	13149
926.459	13320
926.566	13343
926.673	13225
926.779	13088
926.886	12970
926.993	12886
927.099	12954
927.206	12749
927.312	12760
927.419	12897
927.525	12791
927.631	12909
927.737	12760
927.843	12665
927.95	12551
928.056	12646
928.162	12612
928.267	12760
928.373	13225
928.479	12696
928.585	12528
928.69	12589
928.796	12722
928.901	12475
929.007	12452
929.112	12498
929.218	12456
929.323	12528
929.428	12365
929.533	12551
929.638	12308
929.743	12292
929.848	12304
929.953	12426
930.058	12247
930.163	12106
930.267	12136
930.372	12213
930.477	11984
930.581	12216
930.685	12148
930.79	11973
930.894	11969
930.998	11923
931.103	12053
931.207	11684
931.311	11611
931.415	11444
931.519	11372
931.623	11277
