Data from test_V78500241_2379.txt Node
Date: Fri Mar 25 15:26:25 CST 2022
User: usil
Spectrometer: V785-0024
Trigger mode: 0
Integration Time (sec): 4.000000E-1
Scans to average: 1
Nonlinearity correction enabled: false
Boxcar width: 0
Storing dark spectrum: false
XAxis mode: Wavelengths
Number of Pixels in Spectrum: 1024
>>>>>Begin Spectral Data<<<<<
801.071	27351
801.214	27214
801.356	27135
801.499	27036
801.641	26937
801.783	26929
801.926	26857
802.068	26819
802.211	26701
802.353	26773
802.496	26575
802.638	26476
802.78	26450
802.923	26393
803.065	26415
803.208	26473
803.35	26495
803.492	26602
803.635	26701
803.777	26518
803.919	26568
804.061	26952
804.204	26693
804.346	26640
804.488	26613
804.63	26648
804.773	26545
804.915	26667
805.057	26842
805.199	26552
805.341	26632
805.483	26762
805.626	26777
805.768	26682
805.91	26640
806.052	26830
806.194	26758
806.336	26891
806.478	26720
806.62	26705
806.762	26838
806.904	27131
807.046	27184
807.188	27199
807.33	27135
807.472	27169
807.614	27089
807.756	27169
807.898	26975
808.04	26940
808.182	26956
808.324	27039
808.465	27100
808.607	27154
808.749	27374
808.891	27272
809.033	27534
809.174	27454
809.316	27218
809.458	27291
809.6	27287
809.741	27306
809.883	27564
810.025	27618
810.166	27641
810.308	27519
810.45	27530
810.591	27496
810.733	27321
810.875	27351
811.016	27226
811.158	27226
811.299	27416
811.441	27355
811.582	27408
811.724	27359
811.865	27287
812.007	27142
812.148	27241
812.29	27370
812.431	27542
812.573	27485
812.714	27736
812.855	27895
812.997	27903
813.138	28010
813.279	28040
813.421	27979
813.562	27778
813.703	27671
813.845	27450
813.986	27241
814.127	27138
814.268	26940
814.41	26937
814.551	26990
814.692	27024
814.833	27001
814.974	26986
815.115	27173
815.256	26834
815.397	26800
815.539	26906
815.68	26815
815.821	26708
815.962	26815
816.103	26724
816.244	26712
816.385	26541
816.526	26556
816.666	26320
816.807	26278
816.948	26404
817.089	26389
817.23	26332
817.371	26233
817.512	26259
817.653	26214
817.793	26187
817.934	26221
818.075	26259
818.216	26263
818.356	26229
818.497	26122
818.638	25944
818.778	25879
818.919	26024
819.06	25978
819.2	26096
819.341	26298
819.481	26195
819.622	26366
819.762	26625
819.903	26488
820.043	26450
820.184	26431
820.324	26233
820.465	26412
820.605	26377
820.746	26233
820.886	26210
821.026	26370
821.167	26195
821.307	26339
821.447	26278
821.588	26233
821.728	26046
821.868	25944
822.008	25776
822.149	25830
822.289	25670
822.429	25476
822.569	25403
822.709	25365
822.849	25228
822.99	25190
823.13	25289
823.27	25164
823.41	25034
823.55	25053
823.69	24989
823.83	25095
823.97	25000
824.11	24802
824.25	24840
824.389	24890
824.529	24970
824.669	24795
824.809	25072
824.949	24973
825.089	24935
825.228	24810
825.368	24711
825.508	24692
825.648	24703
825.787	24642
825.927	24817
826.067	24745
826.206	24673
826.346	24734
826.485	24821
826.625	24734
826.765	24700
826.904	24719
827.044	24566
827.183	24532
827.323	24483
827.462	24483
827.601	24448
827.741	24289
827.88	24540
828.02	24220
828.159	24505
828.298	24460
828.437	24525
828.577	24353
828.716	24646
828.855	24380
828.994	24144
829.134	24167
829.273	24220
829.412	24102
829.551	23954
829.69	24125
829.829	24155
829.968	24155
830.107	24159
830.246	24133
830.385	24018
830.524	23946
830.663	23908
830.802	23843
830.941	23767
831.08	23687
831.219	23821
831.357	23851
831.496	23843
831.635	23760
831.774	23726
831.913	23608
832.051	23501
832.19	23486
832.329	23615
832.467	23539
832.606	23444
832.744	23421
832.883	23315
833.022	23223
833.16	23459
833.299	23353
833.437	23539
833.576	23535
833.714	23577
833.852	23577
833.991	23524
834.129	23516
834.267	23661
834.406	23303
834.544	23531
834.682	23630
834.821	23455
834.959	23608
835.097	23425
835.235	23474
835.373	23474
835.511	23505
835.65	23265
835.788	23353
835.926	23223
836.064	23239
836.202	23208
836.34	23231
836.478	23474
836.615	23273
836.753	23353
836.891	23337
837.029	23303
837.167	23227
837.305	23197
837.443	23174
837.58	23147
837.718	23341
837.856	23162
837.993	23102
838.131	23185
838.269	23052
838.406	23147
838.544	22999
838.681	22866
838.819	22793
838.956	22786
839.094	22767
839.231	22721
839.369	22797
839.506	23098
839.643	22850
839.781	22653
839.918	22691
840.055	22778
840.193	22596
840.33	22565
840.467	22611
840.604	22485
840.742	22805
840.879	22485
841.016	22474
841.153	22481
841.29	22656
841.427	22493
841.564	22668
841.701	22512
841.838	22569
841.975	22299
842.112	22531
842.249	22363
842.385	22325
842.522	22542
842.659	22424
842.796	22402
842.933	22295
843.069	22246
843.206	22207
843.343	22363
843.479	22234
843.616	22348
843.752	22017
843.889	22143
844.025	22265
844.162	22093
844.298	22291
844.435	22192
844.571	22063
844.708	22139
844.844	22272
844.98	22325
845.117	22185
845.253	22177
845.389	21991
845.525	22021
845.661	21964
845.798	21732
845.934	21983
846.07	21816
846.206	21865
846.342	21975
846.478	21656
846.614	21599
846.75	21644
846.886	21507
847.022	21709
847.158	21671
847.294	21564
847.429	21564
847.565	21622
847.701	21823
847.837	21264
847.972	21332
848.108	21344
848.244	21450
848.379	21252
848.515	21207
848.65	21096
848.786	21230
848.921	21161
849.057	21207
849.192	21264
849.328	21241
849.463	21096
849.598	21116
849.734	21108
849.869	21039
850.004	20910
850.14	20944
850.275	21009
850.41	20921
850.545	20883
850.68	20933
850.815	20826
850.95	20883
851.085	21173
851.22	21024
851.355	20925
851.49	20815
851.625	20918
851.76	20887
851.895	20830
852.03	20838
852.165	20918
852.299	21074
852.434	21058
852.569	21058
852.703	20994
852.838	21001
852.973	20967
853.107	21093
853.242	20952
853.376	20792
853.511	20640
853.645	20712
853.78	20933
853.914	20731
854.048	20762
854.183	20853
854.317	20868
854.451	20906
854.585	20750
854.72	20819
854.854	20830
854.988	20800
855.122	20807
855.256	20648
855.39	20788
855.524	20933
855.658	20773
855.792	20811
855.926	20876
856.06	20750
856.194	20868
856.327	20667
856.461	20651
856.595	20727
856.729	20743
856.862	20838
856.996	20739
857.13	20838
857.263	20906
857.397	20880
857.53	20655
857.664	20842
857.797	20830
857.931	20887
858.064	20754
858.197	20895
858.331	20842
858.464	20587
858.597	20705
858.731	20739
858.864	20762
858.997	20727
859.13	20819
859.263	20769
859.396	20811
859.529	20765
859.662	20697
859.795	20705
859.928	20659
860.061	20746
860.194	20899
860.327	20792
860.46	20800
860.592	20921
860.725	20842
860.858	20918
860.99	20834
861.123	20678
861.256	20701
861.388	20750
861.521	21351
861.653	20708
861.786	20552
861.918	20667
862.05	20697
862.183	20640
862.315	20609
862.447	20663
862.58	20754
862.712	20438
862.844	20476
862.976	20689
863.108	20526
863.24	20960
863.372	20374
863.504	20511
863.636	20298
863.768	20484
863.9	20450
864.032	20431
864.164	20469
864.296	20507
864.428	20621
864.559	20480
864.691	20514
864.823	20446
864.954	20438
865.086	20442
865.217	20434
865.349	20229
865.48	20377
865.612	20385
865.743	20522
865.875	20480
866.006	20351
866.137	20503
866.269	20393
866.4	20324
866.531	20328
866.662	20282
866.793	20374
866.924	20332
867.055	20393
867.186	20336
867.317	20320
867.448	20119
867.579	20324
867.71	20248
867.841	20225
867.972	20347
868.103	20358
868.233	20366
868.364	20381
868.495	20351
868.625	20552
868.756	20724
868.886	20499
869.017	20530
869.147	20655
869.278	20571
869.408	20648
869.539	20545
869.669	20598
869.799	20613
869.929	20590
870.06	20659
870.19	20929
870.32	20823
870.45	20906
870.58	20861
870.71	21051
870.84	21081
870.97	21017
871.1	20929
871.23	21055
871.36	21104
871.489	21077
871.619	21142
871.749	21123
871.879	21184
872.008	21199
872.138	21077
872.267	21138
872.397	20975
872.526	20948
872.656	21039
872.785	20975
872.915	21169
873.044	21222
873.173	21203
873.303	21184
873.432	21287
873.561	21329
873.69	21226
873.819	21123
873.948	21214
874.077	21173
874.206	21211
874.335	21260
874.464	21367
874.593	21389
874.722	21367
874.851	21454
874.979	21538
875.108	21462
875.237	21382
875.365	21317
875.494	21370
875.623	21389
875.751	21332
875.88	21507
876.008	21538
876.136	21637
876.265	21812
876.393	21972
876.521	21854
876.65	21949
876.778	21819
876.906	21785
877.034	21804
877.162	21827
877.29	21762
877.418	21698
877.546	21876
877.674	21724
877.802	21709
877.93	21739
878.058	21663
878.185	21660
878.313	21736
878.441	21759
878.568	21610
878.696	21599
878.824	21789
878.951	21778
879.079	21937
879.206	22086
879.333	21895
879.461	21835
879.588	21808
879.715	21949
879.842	22036
879.97	21922
880.097	21599
880.224	21515
880.351	21561
880.478	21587
880.605	21580
880.732	21625
880.859	21937
880.986	21622
881.112	21530
881.239	21370
881.366	21302
881.493	21272
881.619	21169
881.746	21150
881.872	21252
881.999	21127
882.125	21169
882.252	21192
882.378	21108
882.505	21272
882.631	20941
882.757	20933
882.883	20906
883.01	20933
883.136	20857
883.262	20659
883.388	20693
883.514	20902
883.64	20883
883.766	20682
883.892	20552
884.018	20701
884.143	20895
884.269	20800
884.395	20629
884.52	20541
884.646	20530
884.772	20575
884.897	20396
885.023	20533
885.148	20617
885.274	20693
885.399	20636
885.524	20469
885.65	20526
885.775	20522
885.9	20298
886.025	20514
886.15	20583
886.275	20609
886.4	20484
886.525	20537
886.65	20511
886.775	20423
886.9	20648
887.025	20739
887.149	20571
887.274	20252
887.399	20328
887.523	20218
887.648	20210
887.773	20233
887.897	20434
888.021	20385
888.146	20259
888.27	20271
888.395	20454
888.519	20202
888.643	20214
888.767	20339
888.891	20199
889.015	20138
889.139	20168
889.263	20111
889.387	20130
889.511	20244
889.635	20278
889.759	20096
889.883	20138
890.006	20115
890.13	20248
890.254	20005
890.377	20035
890.501	20020
890.624	19890
890.748	19830
890.871	19849
890.995	19609
891.118	19803
891.241	19753
891.364	19632
891.488	19776
891.611	19856
891.734	19776
891.857	19670
891.98	19518
892.103	19681
892.226	19708
892.349	19632
892.471	19453
892.594	19590
892.717	19677
892.839	19590
892.962	19567
893.085	19647
893.207	19563
893.33	19419
893.452	19514
893.575	19590
893.697	19658
893.819	19784
893.941	19727
894.064	19742
894.186	19540
894.308	19499
894.43	19590
894.552	19719
894.674	19651
894.796	19571
894.918	19586
895.04	19601
895.161	19563
895.283	19712
895.405	19453
895.526	19476
895.648	19521
895.769	19647
895.891	19715
896.012	19727
896.134	19662
896.255	19666
896.376	19582
896.498	19502
896.619	19662
896.74	19506
896.861	19712
896.982	19887
897.103	20062
897.224	19837
897.345	19909
897.466	19811
897.587	19799
897.708	19921
897.828	19875
897.949	19807
898.07	19590
898.19	19788
898.311	19932
898.431	19776
898.552	19845
898.672	19982
898.792	19928
898.913	19860
899.033	19723
899.153	19674
899.273	19586
899.393	19658
899.513	19582
899.633	19719
899.753	19643
899.873	19601
899.993	19563
900.113	19476
900.232	19529
900.352	19578
900.472	19556
900.591	19396
900.711	19415
900.83	19339
900.95	19464
901.069	19438
901.189	19251
901.308	19084
901.427	18897
901.546	19145
901.665	18981
901.784	19031
901.904	18810
902.023	18776
902.141	18494
902.26	18498
902.379	18559
902.498	18536
902.617	18395
902.735	18578
902.854	18418
902.973	18471
903.091	18258
903.21	18159
903.328	18159
903.446	18098
903.565	18015
903.683	18007
903.801	17802
903.919	17821
904.038	17878
904.156	17741
904.274	17737
904.392	17767
904.51	17649
904.627	17783
904.745	17786
904.863	17775
904.981	17505
905.098	17349
905.216	17474
905.334	17490
905.451	17471
905.569	17406
905.686	17395
905.803	17353
905.921	17140
906.038	17273
906.155	17174
906.272	17121
906.389	17140
906.506	16942
906.623	16968
906.74	17033
906.857	16782
906.974	16805
907.091	16953
907.208	16991
907.324	16930
907.441	16835
907.557	16706
907.674	16588
907.79	16641
907.907	16679
908.023	16702
908.139	16748
908.256	16656
908.372	16615
908.488	16535
908.604	16432
908.72	16432
908.836	16428
908.952	16363
909.068	16440
909.184	16455
909.3	16386
909.415	16398
909.531	16337
909.647	16124
909.762	15975
909.878	16124
909.993	16101
910.108	16162
910.224	16074
910.339	16010
910.454	15922
910.57	15907
910.685	15987
910.8	16101
910.915	16093
911.03	15888
911.145	15842
911.259	15797
911.374	15736
911.489	15679
911.604	15568
911.718	15431
911.833	15428
911.947	15378
912.062	15298
912.176	15439
912.291	15462
912.405	15393
912.519	15652
912.633	15663
912.748	15473
912.862	15332
912.976	15363
913.09	15195
913.204	15252
913.318	15264
913.431	15363
913.545	15287
913.659	15348
913.772	15226
913.886	15135
914	14998
914.113	15226
914.226	15176
914.34	15062
914.453	15055
914.566	15131
914.68	14933
914.793	15009
914.906	14785
915.019	14777
915.132	14632
915.245	14743
915.358	14712
915.47	14743
915.583	14689
915.696	14765
915.809	14796
915.921	14842
916.034	14663
916.146	14625
916.259	14571
916.371	14648
916.483	14708
916.595	14522
916.708	14606
916.82	14404
916.932	14571
917.044	14526
917.156	14446
917.268	14324
917.38	14351
917.491	14332
917.603	14377
917.715	14408
917.826	14457
917.938	14370
918.049	14320
918.161	14301
918.272	14385
918.384	14404
918.495	14305
918.606	14153
918.717	14123
918.828	14202
918.939	14123
919.05	14084
919.161	14172
919.272	13932
919.383	14008
919.494	14214
919.604	14355
919.715	14210
919.826	14035
919.936	14016
920.047	14206
920.157	14119
920.267	14294
920.378	14039
920.488	14145
920.598	14240
920.708	14381
920.818	14328
920.928	14282
921.038	14419
921.148	14317
921.258	14062
921.368	13951
921.477	13818
921.587	13799
921.697	13681
921.806	13780
921.916	13632
922.025	13559
922.134	13514
922.244	13411
922.353	13548
922.462	13411
922.571	13236
922.68	13141
922.789	13126
922.898	13183
923.007	13019
923.116	13088
923.224	13088
923.333	13114
923.442	13076
923.55	12993
923.659	13053
923.767	13000
923.876	12954
923.984	13000
924.092	12924
924.201	12871
924.309	12875
924.417	12894
924.525	12821
924.633	12810
924.741	13742
924.849	12639
924.956	12745
925.064	12688
925.172	12502
925.279	12601
925.387	12555
925.494	12681
925.602	12635
925.709	12639
925.816	12513
925.924	12464
926.031	12696
926.138	12589
926.245	12635
926.352	12490
926.459	12608
926.566	12582
926.673	12502
926.779	12391
926.886	12357
926.993	12273
927.099	12110
927.206	12186
927.312	12167
927.419	12190
927.525	12152
927.631	12216
927.737	12114
927.843	12095
927.95	11836
928.056	12045
928.162	11965
928.267	12072
928.373	12639
928.479	12076
928.585	11851
928.69	11942
928.796	12026
928.901	11897
929.007	11771
929.112	11851
929.218	11809
929.323	11726
929.428	11726
929.533	11771
929.638	11649
929.743	11623
929.848	11676
929.953	11688
930.058	11589
930.163	11425
930.267	11512
930.372	11528
930.477	11379
930.581	11611
930.685	11532
930.79	11356
930.894	11337
930.998	11273
931.103	11440
931.207	11109
931.311	11006
931.415	10927
931.519	10725
931.623	10687
