Data from test_V78500241_2421.txt Node
Date: Fri Mar 25 15:26:42 CST 2022
User: usil
Spectrometer: V785-0024
Trigger mode: 0
Integration Time (sec): 4.000000E-1
Scans to average: 1
Nonlinearity correction enabled: false
Boxcar width: 0
Storing dark spectrum: false
XAxis mode: Wavelengths
Number of Pixels in Spectrum: 1024
>>>>>Begin Spectral Data<<<<<
801.071	27249
801.214	27154
801.356	27096
801.499	26944
801.641	26735
801.783	26773
801.926	26792
802.068	26788
802.211	26792
802.353	26632
802.496	26579
802.638	26480
802.78	26442
802.923	26339
803.065	26229
803.208	26324
803.35	26434
803.492	26511
803.635	26594
803.777	26495
803.919	26518
804.061	26868
804.204	26720
804.346	26556
804.488	26431
804.63	26579
804.773	26469
804.915	26644
805.057	26545
805.199	26602
805.341	26613
805.483	26712
805.626	26724
805.768	26526
805.91	26667
806.052	26708
806.194	26667
806.336	26632
806.478	26625
806.62	26632
806.762	26686
806.904	27017
807.046	27184
807.188	27020
807.33	27256
807.472	27230
807.614	27108
807.756	27127
807.898	26956
808.04	26781
808.182	26796
808.324	26944
808.465	27085
808.607	27085
808.749	27192
808.891	27355
809.033	27435
809.174	27310
809.316	27112
809.458	27355
809.6	27256
809.741	27393
809.883	27420
810.025	27389
810.166	27595
810.308	27587
810.45	27492
810.591	27450
810.733	27389
810.875	27203
811.016	27207
811.158	27051
811.299	27458
811.441	27359
811.582	27310
811.724	27195
811.865	27211
812.007	27264
812.148	27283
812.29	27199
812.431	27447
812.573	27610
812.714	27637
812.855	27625
812.997	27873
813.138	27907
813.279	27846
813.421	27793
813.562	27736
813.703	27542
813.845	27275
813.986	27287
814.127	26918
814.268	26891
814.41	26868
814.551	27028
814.692	27051
814.833	26902
814.974	26876
815.115	26910
815.256	26758
815.397	26853
815.539	26644
815.68	26587
815.821	26644
815.962	26735
816.103	26590
816.244	26545
816.385	26560
816.526	26381
816.666	26355
816.807	26233
816.948	26259
817.089	26218
817.23	26142
817.371	26199
817.512	26191
817.653	26122
817.793	26210
817.934	26149
818.075	26202
818.216	26039
818.356	26122
818.497	25982
818.638	25890
818.778	26035
818.919	26005
819.06	26157
819.2	26092
819.341	26130
819.481	26107
819.622	26221
819.762	26438
819.903	26530
820.043	26492
820.184	26370
820.324	26210
820.465	26381
820.605	26282
820.746	26370
820.886	26176
821.026	26320
821.167	26142
821.307	26389
821.447	26225
821.588	26149
821.728	26084
821.868	25921
822.008	25662
822.149	25715
822.289	25601
822.429	25388
822.569	25464
822.709	25183
822.849	25072
822.99	25228
823.13	25019
823.27	25160
823.41	24947
823.55	24837
823.69	24996
823.83	24947
823.97	24882
824.11	24646
824.25	24661
824.389	24787
824.529	24863
824.669	24814
824.809	24837
824.949	24730
825.089	24757
825.228	24894
825.368	24669
825.508	24719
825.648	24821
825.787	24631
825.927	24612
826.067	24589
826.206	24730
826.346	24757
826.485	24654
826.625	24620
826.765	24734
826.904	24677
827.044	24384
827.183	24300
827.323	24327
827.462	24437
827.601	24315
827.741	24239
827.88	24433
828.02	24178
828.159	24270
828.298	24357
828.437	24338
828.577	24239
828.716	24376
828.855	24254
828.994	24110
829.134	24095
829.273	24072
829.412	23912
829.551	24011
829.69	24034
829.829	24148
829.968	24148
830.107	24087
830.246	24072
830.385	24106
830.524	23916
830.663	23916
830.802	23855
830.941	23737
831.08	23604
831.219	23794
831.357	23764
831.496	23977
831.635	23646
831.774	23695
831.913	23505
832.051	23387
832.19	23311
832.329	23482
832.467	23444
832.606	23307
832.744	23315
832.883	23356
833.022	23258
833.16	23258
833.299	23414
833.437	23455
833.576	23425
833.714	23296
833.852	23322
833.991	23463
834.129	23501
834.267	23368
834.406	23490
834.544	23486
834.682	23353
834.821	23379
834.959	23535
835.097	23299
835.235	23395
835.373	23391
835.511	23383
835.65	23372
835.788	23223
835.926	23113
836.064	22984
836.202	22976
836.34	23200
836.478	23395
836.615	23337
836.753	23307
836.891	23360
837.029	23204
837.167	23155
837.305	23200
837.443	23216
837.58	23090
837.718	23212
837.856	23102
837.993	23052
838.131	23060
838.269	22980
838.406	23025
838.544	23029
838.681	22691
838.819	22710
838.956	22580
839.094	22596
839.231	22607
839.369	22763
839.506	22942
839.643	22946
839.781	22611
839.918	22653
840.055	22557
840.193	22569
840.33	22459
840.467	22592
840.604	22493
840.742	22740
840.879	22265
841.016	22405
841.153	22455
841.29	22535
841.427	22485
841.564	22474
841.701	22497
841.838	22421
841.975	22519
842.112	22481
842.249	22363
842.385	22295
842.522	22523
842.659	22310
842.796	22192
842.933	22295
843.069	22166
843.206	22226
843.343	22261
843.479	22394
843.616	22207
843.752	22067
843.889	22131
844.025	22188
844.162	22029
844.298	22188
844.435	22013
844.571	21975
844.708	22044
844.844	22223
844.98	22234
845.117	22177
845.253	22074
845.389	21956
845.525	21941
845.661	21854
845.798	21732
845.934	21736
846.07	21846
846.206	21816
846.342	21876
846.478	21827
846.614	21580
846.75	21351
846.886	21618
847.022	21576
847.158	21519
847.294	21511
847.429	21519
847.565	21568
847.701	21747
847.837	21294
847.972	21199
848.108	21298
848.244	21325
848.379	21157
848.515	21142
848.65	21180
848.786	21013
848.921	21104
849.057	21291
849.192	21176
849.328	21116
849.463	21169
849.598	21180
849.734	21047
849.869	20933
850.004	20906
850.14	20925
850.275	20899
850.41	20807
850.545	20880
850.68	20902
850.815	20823
850.95	20804
851.085	21036
851.22	21001
851.355	20948
851.49	20735
851.625	20876
851.76	20701
851.895	20830
852.03	20804
852.165	20857
852.299	20861
852.434	20864
852.569	20883
852.703	20891
852.838	20872
852.973	20982
853.107	20967
853.242	20849
853.376	20716
853.511	20625
853.645	20629
853.78	20762
853.914	20640
854.048	20678
854.183	20526
854.317	20899
854.451	20849
854.585	20663
854.72	20792
854.854	20697
854.988	20724
855.122	20727
855.256	20488
855.39	20743
855.524	20648
855.658	20769
855.792	20621
855.926	20670
856.06	20724
856.194	20819
856.327	20682
856.461	20663
856.595	20777
856.729	20689
856.862	20686
856.996	20655
857.13	20807
857.263	20902
857.397	20804
857.53	20727
857.664	20788
857.797	20651
857.931	20705
858.064	20689
858.197	20765
858.331	20667
858.464	20670
858.597	20545
858.731	20655
858.864	20629
858.997	20712
859.13	20674
859.263	20750
859.396	20769
859.529	20598
859.662	20686
859.795	20648
859.928	20678
860.061	20849
860.194	20842
860.327	20792
860.46	20678
860.592	20777
860.725	20864
860.858	20838
860.99	20708
861.123	20674
861.256	20693
861.388	20602
861.521	21222
861.653	20571
861.786	20385
861.918	20575
862.05	20594
862.183	20564
862.315	20613
862.447	20667
862.58	20549
862.712	20537
862.844	20434
862.976	20450
863.108	20511
863.24	20739
863.372	20370
863.504	20412
863.636	20431
863.768	20450
863.9	20290
864.032	20400
864.164	20343
864.296	20320
864.428	20427
864.559	20454
864.691	20503
864.823	20408
864.954	20351
865.086	20431
865.217	20320
865.349	20161
865.48	20313
865.612	20324
865.743	20537
865.875	20301
866.006	20259
866.137	20438
866.269	20339
866.4	20237
866.531	20347
866.662	20180
866.793	20145
866.924	20164
867.055	20404
867.186	20309
867.317	20240
867.448	20115
867.579	20237
867.71	20206
867.841	20142
867.972	20298
868.103	20248
868.233	20214
868.364	20343
868.495	20358
868.625	20419
868.756	20476
868.886	20454
869.017	20518
869.147	20636
869.278	20712
869.408	20541
869.539	20556
869.669	20602
869.799	20473
869.929	20655
870.06	20758
870.19	20811
870.32	20788
870.45	20868
870.58	20838
870.71	20937
870.84	20925
870.97	20815
871.1	20861
871.23	21085
871.36	21138
871.489	20975
871.619	21020
871.749	21036
871.879	21230
872.008	21180
872.138	21085
872.267	21272
872.397	20906
872.526	20849
872.656	20883
872.785	20902
872.915	21096
873.044	21268
873.173	21127
873.303	21081
873.432	21195
873.561	21146
873.69	21157
873.819	21077
873.948	21188
874.077	21184
874.206	21100
874.335	21146
874.464	21252
874.593	21283
874.722	21245
874.851	21477
874.979	21386
875.108	21420
875.237	21310
875.365	21264
875.494	21386
875.623	21488
875.751	21340
875.88	21336
876.008	21625
876.136	21523
876.265	21766
876.393	21808
876.521	21850
876.65	21781
876.778	21774
876.906	21709
877.034	21778
877.162	21694
877.29	21690
877.418	21778
877.546	21720
877.674	21671
877.802	21682
877.93	21610
878.058	21732
878.185	21739
878.313	21713
878.441	21701
878.568	21606
878.696	21610
878.824	21652
878.951	21785
879.079	21888
879.206	22067
879.333	21888
879.461	21728
879.588	21778
879.715	21865
879.842	22044
879.97	21762
880.097	21519
880.224	21477
880.351	21507
880.478	21599
880.605	21389
880.732	21549
880.859	21766
880.986	21610
881.112	21583
881.239	21511
881.366	21317
881.493	21192
881.619	21188
881.746	21157
881.872	21165
881.999	21020
882.125	21028
882.252	21348
882.378	21066
882.505	21093
882.631	20876
882.757	20792
882.883	20887
883.01	20857
883.136	20758
883.262	20705
883.388	20678
883.514	20758
883.64	20952
883.766	20716
883.892	20609
884.018	20602
884.143	20708
884.269	20906
884.395	20492
884.52	20465
884.646	20503
884.772	20450
884.897	20377
885.023	20438
885.148	20674
885.274	20602
885.399	20613
885.524	20454
885.65	20469
885.775	20484
885.9	20442
886.025	20568
886.15	20556
886.275	20465
886.4	20446
886.525	20454
886.65	20412
886.775	20419
886.9	20533
887.025	20556
887.149	20507
887.274	20210
887.399	20275
887.523	20134
887.648	20233
887.773	20176
887.897	20286
888.021	20347
888.146	20130
888.27	20263
888.395	20374
888.519	20206
888.643	20286
888.767	20286
888.891	20122
889.015	20119
889.139	20001
889.263	20107
889.387	20164
889.511	20244
889.635	20183
889.759	19974
889.883	20077
890.006	20088
890.13	20233
890.254	20016
890.377	19902
890.501	19799
890.624	19746
890.748	19936
890.871	19791
890.995	19563
891.118	19601
891.241	19677
891.364	19712
891.488	19704
891.611	19727
891.734	19632
891.857	19666
891.98	19639
892.103	19719
892.226	19594
892.349	19499
892.471	19392
892.594	19582
892.717	19571
892.839	19460
892.962	19677
893.085	19662
893.207	19525
893.33	19396
893.452	19548
893.575	19518
893.697	19457
893.819	19731
893.941	19807
894.064	19746
894.186	19521
894.308	19476
894.43	19757
894.552	19750
894.674	19620
894.796	19578
894.918	19578
895.04	19594
895.161	19681
895.283	19624
895.405	19426
895.526	19605
895.648	19529
895.769	19487
895.891	19529
896.012	19696
896.134	19537
896.255	19491
896.376	19563
896.498	19655
896.619	19464
896.74	19457
896.861	19586
896.982	19849
897.103	20008
897.224	19849
897.345	19761
897.466	19628
897.587	19791
897.708	19822
897.828	19769
897.949	19734
898.07	19670
898.19	19780
898.311	19959
898.431	19727
898.552	19750
898.672	19902
898.792	19841
898.913	19814
899.033	19666
899.153	19594
899.273	19476
899.393	19639
899.513	19544
899.633	19400
899.753	19666
899.873	19403
899.993	19525
900.113	19426
900.232	19571
900.352	19449
900.472	19445
900.591	19331
900.711	19400
900.83	19308
900.95	19472
901.069	19506
901.189	19263
901.308	19050
901.427	18867
901.546	18867
901.665	18840
901.784	18989
901.904	18738
902.023	18764
902.141	18513
902.26	18460
902.379	18547
902.498	18441
902.617	18372
902.735	18388
902.854	18426
902.973	18384
903.091	18121
903.21	18174
903.328	18152
903.446	17988
903.565	17954
903.683	17965
903.801	17840
903.919	17897
904.038	17874
904.156	17783
904.274	17733
904.392	17634
904.51	17649
904.627	17756
904.745	17718
904.863	17668
904.981	17615
905.098	17368
905.216	17478
905.334	17440
905.451	17368
905.569	17311
905.686	17337
905.803	17349
905.921	17185
906.038	17296
906.155	17159
906.272	17048
906.389	17105
906.506	16885
906.623	16892
906.74	16854
906.857	16778
906.974	16778
907.091	16885
907.208	16942
907.324	16850
907.441	16847
907.557	16645
907.674	16675
907.79	16615
907.907	16710
908.023	16729
908.139	16687
908.256	16561
908.372	16527
908.488	16508
908.604	16382
908.72	16462
908.836	16375
908.952	16322
909.068	16348
909.184	16428
909.3	16318
909.415	16337
909.531	16314
909.647	16036
909.762	16131
909.878	16044
909.993	16044
910.108	16128
910.224	16048
910.339	16025
910.454	15975
910.57	15861
910.685	15812
910.8	16055
910.915	15994
911.03	15930
911.145	15709
911.259	15705
911.374	15618
911.489	15686
911.604	15507
911.718	15370
911.833	15363
911.947	15336
912.062	15218
912.176	15382
912.291	15401
912.405	15412
912.519	15690
912.633	15591
912.748	15450
912.862	15435
912.976	15230
913.09	15039
913.204	15195
913.318	15199
913.431	15389
913.545	15348
913.659	15294
913.772	15237
913.886	15036
914	15043
914.113	15074
914.226	15176
914.34	15108
914.453	15097
914.566	15077
914.68	14982
914.793	14834
914.906	14724
915.019	14621
915.132	14587
915.245	14610
915.358	14648
915.47	14621
915.583	14613
915.696	14693
915.809	14693
915.921	14735
916.034	14579
916.146	14537
916.259	14419
916.371	14682
916.483	14602
916.595	14590
916.708	14564
916.82	14541
916.932	14450
917.044	14571
917.156	14434
917.268	14320
917.38	14404
917.491	14301
917.603	14362
917.715	14278
917.826	14362
917.938	14332
918.049	14187
918.161	14275
918.272	14415
918.384	14446
918.495	14301
918.606	14164
918.717	14149
918.828	14134
918.939	14164
919.05	14012
919.161	14092
919.272	13936
919.383	13913
919.494	14115
919.604	14404
919.715	14043
919.826	14016
919.936	14050
920.047	14176
920.157	14077
920.267	14214
920.378	14054
920.488	14031
920.598	14294
920.708	14358
920.818	14187
920.928	14199
921.038	14362
921.148	14450
921.258	14012
921.368	14031
921.477	13814
921.587	13864
921.697	13750
921.806	13799
921.916	13693
922.025	13537
922.134	13540
922.244	13495
922.353	13468
922.462	13293
922.571	13297
922.68	13206
922.789	13156
922.898	13072
923.007	13164
923.116	13206
923.224	13145
923.333	13168
923.442	12905
923.55	12981
923.659	13012
923.767	13053
923.876	12913
923.984	12985
924.092	12970
924.201	12894
924.309	12973
924.417	12943
924.525	12802
924.633	12844
924.741	13826
924.849	12719
924.956	12802
925.064	12616
925.172	12437
925.279	12513
925.387	12616
925.494	12631
925.602	12783
925.709	12703
925.816	12456
925.924	12502
926.031	12688
926.138	12502
926.245	12574
926.352	12407
926.459	12574
926.566	12608
926.673	12483
926.779	12414
926.886	12296
926.993	12209
927.099	12232
927.206	12144
927.312	12171
927.419	12296
927.525	12209
927.631	12148
927.737	12117
927.843	11999
927.95	11916
928.056	12091
928.162	12026
928.267	12125
928.373	12662
928.479	12197
928.585	11904
928.69	11920
928.796	12007
928.901	11821
929.007	11729
929.112	11882
929.218	11809
929.323	11859
929.428	11775
929.533	11832
929.638	11684
929.743	11733
929.848	11722
929.953	11638
930.058	11630
930.163	11337
930.267	11459
930.372	11581
930.477	11482
930.581	11592
930.685	11551
930.79	11391
930.894	11372
930.998	11318
931.103	11387
931.207	11132
931.311	11033
931.415	10908
931.519	10801
931.623	10691
