Data from test_V78500241_376.txt Node
Date: Fri Mar 25 15:12:28 CST 2022
User: usil
Spectrometer: V785-0024
Trigger mode: 0
Integration Time (sec): 4.000000E-1
Scans to average: 1
Nonlinearity correction enabled: false
Boxcar width: 0
Storing dark spectrum: false
XAxis mode: Wavelengths
Number of Pixels in Spectrum: 1024
>>>>>Begin Spectral Data<<<<<
801.071	26921
801.214	26701
801.356	26484
801.499	26393
801.641	26446
801.783	26305
801.926	26408
802.068	26263
802.211	26240
802.353	26157
802.496	26088
802.638	26001
802.78	25955
802.923	25917
803.065	25849
803.208	25917
803.35	26001
803.492	26065
803.635	26206
803.777	25887
803.919	26065
804.061	26366
804.204	26210
804.346	26081
804.488	25993
804.63	25936
804.773	25845
804.915	25940
805.057	26153
805.199	26111
805.341	26168
805.483	26149
805.626	26084
805.768	26202
805.91	26107
806.052	26115
806.194	26183
806.336	26320
806.478	26267
806.62	26031
806.762	26221
806.904	26400
807.046	26609
807.188	26476
807.33	26613
807.472	26705
807.614	26488
807.756	26522
807.898	26355
808.04	26305
808.182	26434
808.324	26339
808.465	26457
808.607	26530
808.749	26640
808.891	26701
809.033	27001
809.174	26830
809.316	26670
809.458	26826
809.6	26667
809.741	26815
809.883	26899
810.025	26937
810.166	27047
810.308	26998
810.45	27028
810.591	27070
810.733	26807
810.875	26727
811.016	26632
811.158	26655
811.299	26708
811.441	27028
811.582	26876
811.724	26689
811.865	26644
812.007	26686
812.148	26705
812.29	26724
812.431	26971
812.573	27066
812.714	27104
812.855	27218
812.997	27378
813.138	27488
813.279	27431
813.421	27302
813.562	27256
813.703	27017
813.845	26921
813.986	26689
814.127	26377
814.268	26351
814.41	26351
814.551	26419
814.692	26511
814.833	26355
814.974	26393
815.115	26362
815.256	26294
815.397	26214
815.539	26202
815.68	26240
815.821	26176
815.962	26214
816.103	26240
816.244	25963
816.385	25845
816.526	25811
816.666	25738
816.807	25613
816.948	25731
817.089	25856
817.23	25723
817.371	25655
817.512	25651
817.653	25601
817.793	25662
817.934	25510
818.075	25525
818.216	25651
818.356	25556
818.497	25460
818.638	25377
818.778	25464
818.919	25346
819.06	25377
819.2	25514
819.341	25635
819.481	25586
819.622	25635
819.762	25997
819.903	25799
820.043	25845
820.184	25826
820.324	25791
820.465	25772
820.605	25746
820.746	25696
820.886	25635
821.026	25674
821.167	25674
821.307	25818
821.447	25685
821.588	25453
821.728	25384
821.868	25320
822.008	25099
822.149	25171
822.289	25145
822.429	24795
822.569	24783
822.709	24932
822.849	24589
822.99	24490
823.13	24589
823.27	24521
823.41	24315
823.55	24205
823.69	24395
823.83	24452
823.97	24353
824.11	24121
824.25	24182
824.389	24258
824.529	24167
824.669	24247
824.809	24452
824.949	24380
825.089	24281
825.228	24247
825.368	24038
825.508	24129
825.648	24110
825.787	24091
825.927	24121
826.067	24064
826.206	24152
826.346	24064
826.485	24140
826.625	24022
826.765	24121
826.904	24144
827.044	23935
827.183	23790
827.323	23745
827.462	23722
827.601	23745
827.741	23817
827.88	23821
828.02	23760
828.159	23817
828.298	23779
828.437	23927
828.577	23771
828.716	23927
828.855	23775
828.994	23611
829.134	23615
829.273	23649
829.412	23474
829.551	23391
829.69	23505
829.829	23661
829.968	23596
830.107	23600
830.246	23585
830.385	23566
830.524	23478
830.663	23391
830.802	23288
830.941	23132
831.08	23014
831.219	23189
831.357	23193
831.496	23284
831.635	23136
831.774	23162
831.913	23124
832.051	23014
832.19	22972
832.329	22995
832.467	22843
832.606	22755
832.744	22839
832.883	22759
833.022	22748
833.16	22816
833.299	22881
833.437	22858
833.576	22930
833.714	23003
833.852	22991
833.991	23010
834.129	22972
834.267	23018
834.406	22908
834.544	22885
834.682	22991
834.821	22866
834.959	23037
835.097	22839
835.235	22968
835.373	22812
835.511	22812
835.65	22816
835.788	22801
835.926	22615
836.064	22531
836.202	22656
836.34	22755
836.478	22881
836.615	22721
836.753	22767
836.891	22854
837.029	22797
837.167	22721
837.305	22565
837.443	22622
837.58	22630
837.718	22717
837.856	22596
837.993	22580
838.131	22801
838.269	22512
838.406	22512
838.544	22474
838.681	22390
838.819	22181
838.956	22166
839.094	22131
839.231	22196
839.369	22204
839.506	22485
839.643	22360
839.781	22093
839.918	22101
840.055	22082
840.193	22082
840.33	21949
840.467	22040
840.604	21960
840.742	22344
840.879	21861
841.016	21903
841.153	21903
841.29	22051
841.427	22036
841.564	22105
841.701	22013
841.838	21960
841.975	21880
842.112	21983
842.249	21766
842.385	21861
842.522	22059
842.659	21941
842.796	21778
842.933	21797
843.069	21641
843.206	21751
843.343	21888
843.479	21827
843.616	21793
843.752	21682
843.889	21591
844.025	21618
844.162	21583
844.298	21682
844.435	21542
844.571	21587
844.708	21679
844.844	21739
844.98	21736
845.117	21732
845.253	21561
845.389	21447
845.525	21572
845.661	21428
845.798	21272
845.934	21507
846.07	21279
846.206	21230
846.342	21500
846.478	21214
846.614	21211
846.75	21032
846.886	21180
847.022	21104
847.158	21066
847.294	21176
847.429	21116
847.565	21150
847.701	21332
847.837	20796
847.972	20769
848.108	20849
848.244	20914
848.379	20807
848.515	20765
848.65	20648
848.786	20682
848.921	20602
849.057	20769
849.192	20804
849.328	20648
849.463	20727
849.598	20693
849.734	20473
849.869	20495
850.004	20469
850.14	20457
850.275	20442
850.41	20275
850.545	20427
850.68	20450
850.815	20412
850.95	20400
851.085	20571
851.22	20400
851.355	20438
851.49	20404
851.625	20358
851.76	20404
851.895	20347
852.03	20362
852.165	20366
852.299	20469
852.434	20457
852.569	20495
852.703	20370
852.838	20473
852.973	20537
853.107	20499
853.242	20366
853.376	20278
853.511	20191
853.645	20225
853.78	20324
853.914	20278
854.048	20343
854.183	20290
854.317	20218
854.451	20518
854.585	20294
854.72	20286
854.854	20259
854.988	20100
855.122	20324
855.256	20107
855.39	20358
855.524	20271
855.658	20355
855.792	20267
855.926	20244
856.06	20278
856.194	20275
856.327	20218
856.461	20157
856.595	20153
856.729	20142
856.862	20305
856.996	20313
857.13	20305
857.263	20263
857.397	20233
857.53	20278
857.664	20237
857.797	20305
857.931	20442
858.064	20355
858.197	20313
858.331	20221
858.464	20286
858.597	20176
858.731	20153
858.864	20073
858.997	20267
859.13	20206
859.263	20370
859.396	20362
859.529	20202
859.662	20191
859.795	20282
859.928	20233
860.061	20511
860.194	20400
860.327	20336
860.46	20252
860.592	20332
860.725	20381
860.858	20351
860.99	20237
861.123	20183
861.256	20218
861.388	20248
861.521	20944
861.653	20183
861.786	19967
861.918	20065
862.05	20202
862.183	20142
862.315	20134
862.447	20290
862.58	20252
862.712	19909
862.844	19963
862.976	20031
863.108	20111
863.24	20518
863.372	19955
863.504	19852
863.636	19970
863.768	19989
863.9	19940
864.032	19875
864.164	19894
864.296	19986
864.428	20027
864.559	20027
864.691	20088
864.823	20088
864.954	19963
865.086	20046
865.217	19928
865.349	19849
865.48	19784
865.612	19936
865.743	19883
865.875	19928
866.006	19852
866.137	19898
866.269	19967
866.4	19902
866.531	19864
866.662	19746
866.793	19826
866.924	19833
867.055	19803
867.186	19788
867.317	19795
867.448	19772
867.579	19765
867.71	19780
867.841	19757
867.972	19868
868.103	19845
868.233	19734
868.364	19902
868.495	19830
868.625	20073
868.756	20050
868.886	19963
869.017	20119
869.147	20271
869.278	20168
869.408	20111
869.539	20058
869.669	20119
869.799	20103
869.929	20237
870.06	20187
870.19	20385
870.32	20442
870.45	20412
870.58	20499
870.71	20545
870.84	20530
870.97	20499
871.1	20587
871.23	20648
871.36	20724
871.489	20583
871.619	20617
871.749	20621
871.879	20796
872.008	20754
872.138	20697
872.267	20659
872.397	20518
872.526	20571
872.656	20549
872.785	20461
872.915	20701
873.044	20765
873.173	20632
873.303	20796
873.432	20758
873.561	20788
873.69	20785
873.819	20693
873.948	20754
874.077	20815
874.206	20667
874.335	20564
874.464	20830
874.593	20998
874.722	20929
874.851	20975
874.979	20971
875.108	21013
875.237	20788
875.365	20849
875.494	20963
875.623	20948
875.751	20883
875.88	20929
876.008	21081
876.136	21180
876.265	21386
876.393	21370
876.521	21481
876.65	21397
876.778	21294
876.906	21211
877.034	21195
877.162	21279
877.29	21294
877.418	21374
877.546	21237
877.674	21161
877.802	21401
877.93	21226
878.058	21321
878.185	21096
878.313	21176
878.441	21260
878.568	21173
878.696	21230
878.824	21325
878.951	21332
879.079	21389
879.206	21614
879.333	21481
879.461	21275
879.588	21370
879.715	21397
879.842	21625
879.97	21272
880.097	21252
880.224	21192
880.351	21154
880.478	21051
880.605	21230
880.732	21127
880.859	21393
880.986	21081
881.112	21116
881.239	20990
881.366	21032
881.493	20834
881.619	20663
881.746	20575
881.872	20644
881.999	20781
882.125	20617
882.252	20693
882.378	20651
882.505	20887
882.631	20621
882.757	20488
882.883	20514
883.01	20457
883.136	20438
883.262	20263
883.388	20317
883.514	20526
883.64	20514
883.766	20415
883.892	20202
884.018	20176
884.143	20461
884.269	20511
884.395	20172
884.52	20092
884.646	20126
884.772	20020
884.897	19921
885.023	20039
885.148	20199
885.274	20221
885.399	20229
885.524	20031
885.65	20134
885.775	20001
885.9	20046
886.025	20176
886.15	20210
886.275	20065
886.4	19970
886.525	20119
886.65	19902
886.775	20020
886.9	20153
887.025	20347
887.149	20096
887.274	19860
887.399	19902
887.523	19837
887.648	19750
887.773	19833
887.897	19864
888.021	19940
888.146	19788
888.27	19921
888.395	19906
888.519	19860
888.643	19925
888.767	19970
888.891	19788
889.015	19670
889.139	19731
889.263	19597
889.387	19731
889.511	19780
889.635	19727
889.759	19586
889.883	19681
890.006	19655
890.13	19715
890.254	19567
890.377	19567
890.501	19468
890.624	19381
890.748	19472
890.871	19304
890.995	19187
891.118	19084
891.241	19244
891.364	19270
891.488	19346
891.611	19190
891.734	19285
891.857	19308
891.98	19225
892.103	19377
892.226	19213
892.349	19304
892.471	19133
892.594	19213
892.717	19225
892.839	19160
892.962	19251
893.085	19297
893.207	19110
893.33	19038
893.452	19099
893.575	19244
893.697	19152
893.819	19255
893.941	19320
894.064	19244
894.186	19038
894.308	19107
894.43	19228
894.552	19244
894.674	19308
894.796	19072
894.918	19046
895.04	19110
895.161	19282
895.283	19190
895.405	19126
895.526	19129
895.648	19164
895.769	19247
895.891	19179
896.012	19339
896.134	19202
896.255	19171
896.376	19069
896.498	19183
896.619	19320
896.74	19232
896.861	19225
896.982	19514
897.103	19708
897.224	19609
897.345	19350
897.466	19445
897.587	19525
897.708	19510
897.828	19426
897.949	19324
898.07	19251
898.19	19293
898.311	19449
898.431	19426
898.552	19453
898.672	19441
898.792	19533
898.913	19464
899.033	19381
899.153	19221
899.273	19050
899.393	19175
899.513	19244
899.633	19179
899.753	19263
899.873	19034
899.993	19384
900.113	19114
900.232	19236
900.352	19053
900.472	18966
900.591	19069
900.711	18977
900.83	18989
900.95	18913
901.069	19148
901.189	18951
901.308	18673
901.427	18513
901.546	18604
901.665	18604
901.784	18536
901.904	18391
902.023	18292
902.141	18194
902.26	18087
902.379	18148
902.498	18106
902.617	18057
902.735	18171
902.854	18026
902.973	17984
903.091	17794
903.21	17824
903.328	17729
903.446	17748
903.565	17703
903.683	17551
903.801	17490
903.919	17577
904.038	17528
904.156	17353
904.274	17414
904.392	17349
904.51	17261
904.627	17322
904.745	17345
904.863	17421
904.981	17220
905.098	17018
905.216	17037
905.334	17102
905.451	17060
905.569	17056
905.686	17170
905.803	17045
905.921	16869
906.038	17006
906.155	16942
906.272	16752
906.389	16725
906.506	16637
906.623	16573
906.74	16546
906.857	16493
906.974	16432
907.091	16645
907.208	16698
907.324	16653
907.441	16405
907.557	16379
907.674	16215
907.79	16230
907.907	16341
908.023	16409
908.139	16360
908.256	16192
908.372	16242
908.488	16109
908.604	16082
908.72	16029
908.836	16067
908.952	15934
909.068	16055
909.184	16154
909.3	16021
909.415	16124
909.531	16002
909.647	15800
909.762	15812
909.878	15690
909.993	15766
910.108	15698
910.224	15755
910.339	15713
910.454	15656
910.57	15545
910.685	15447
910.8	15690
910.915	15701
911.03	15549
911.145	15435
911.259	15386
911.374	15310
911.489	15291
911.604	15268
911.718	15127
911.833	15032
911.947	14998
912.062	14963
912.176	15123
912.291	15077
912.405	14998
912.519	15325
912.633	15287
912.748	15108
912.862	15062
912.976	14868
913.09	14819
913.204	14849
913.318	14990
913.431	14929
913.545	14941
913.659	14990
913.772	14864
913.886	14739
914	14746
914.113	14746
914.226	14906
914.34	14830
914.453	14629
914.566	14800
914.68	14674
914.793	14560
914.906	14442
915.019	14461
915.132	14282
915.245	14412
915.358	14419
915.47	14450
915.583	14393
915.696	14412
915.809	14454
915.921	14473
916.034	14347
916.146	14275
916.259	14427
916.371	14370
916.483	14317
916.595	14259
916.708	14225
916.82	14218
916.932	14229
917.044	14172
917.156	14111
917.268	14027
917.38	14119
917.491	14039
917.603	14062
917.715	14164
917.826	14168
917.938	14058
918.049	13928
918.161	14043
918.272	14130
918.384	14043
918.495	14024
918.606	13803
918.717	13833
918.828	13879
918.939	13856
919.05	13712
919.161	13814
919.272	13571
919.383	13666
919.494	13845
919.604	14035
919.715	13769
919.826	13772
919.936	13734
920.047	13940
920.157	13826
920.267	14039
920.378	13826
920.488	13731
920.598	13909
920.708	14172
920.818	13833
920.928	13894
921.038	14142
921.148	13982
921.258	13833
921.368	13636
921.477	13563
921.587	13582
921.697	13438
921.806	13670
921.916	13422
922.025	13274
922.134	13175
922.244	13194
922.353	13255
922.462	13145
922.571	12916
922.68	12852
922.789	12867
922.898	12852
923.007	12810
923.116	12901
923.224	12848
923.333	12886
923.442	12681
923.55	12662
923.659	12757
923.767	12745
923.876	12696
923.984	12730
924.092	12570
924.201	12681
924.309	12597
924.417	12555
924.525	12479
924.633	12547
924.741	13346
924.849	12308
924.956	12528
925.064	12388
925.172	12213
925.279	12372
925.387	12361
925.494	12300
925.602	12498
925.709	12407
925.816	12289
925.924	12197
926.031	12338
926.138	12243
926.245	12315
926.352	12133
926.459	12334
926.566	12391
926.673	12220
926.779	12087
926.886	12121
926.993	12026
927.099	11946
927.206	11863
927.312	11832
927.419	11923
927.525	11923
927.631	11897
927.737	11828
927.843	11882
927.95	11733
928.056	11726
928.162	11767
928.267	11714
928.373	12376
928.479	11859
928.585	11623
928.69	11828
928.796	11737
928.901	11661
929.007	11562
929.112	11646
929.218	11524
929.323	11581
929.428	11471
929.533	11714
929.638	11497
929.743	11452
929.848	11463
929.953	11539
930.058	11421
930.163	11284
930.267	11307
930.372	11379
930.477	11231
930.581	11402
930.685	11337
930.79	11231
930.894	11170
930.998	11113
931.103	11315
931.207	10889
931.311	10881
931.415	10755
931.519	10577
931.623	10512
