Data from test_V78500241_426.txt Node
Date: Fri Mar 25 15:12:49 CST 2022
User: usil
Spectrometer: V785-0024
Trigger mode: 0
Integration Time (sec): 4.000000E-1
Scans to average: 1
Nonlinearity correction enabled: false
Boxcar width: 0
Storing dark spectrum: false
XAxis mode: Wavelengths
Number of Pixels in Spectrum: 1024
>>>>>Begin Spectral Data<<<<<
801.071	27268
801.214	27188
801.356	27013
801.499	26960
801.641	26705
801.783	26720
801.926	26758
802.068	26765
802.211	26678
802.353	26419
802.496	26301
802.638	26465
802.78	26473
802.923	26473
803.065	26313
803.208	26301
803.35	26362
803.492	26575
803.635	26655
803.777	26389
803.919	26507
804.061	26937
804.204	26503
804.346	26495
804.488	26427
804.63	26480
804.773	26598
804.915	26492
805.057	26659
805.199	26442
805.341	26663
805.483	26644
805.626	26575
805.768	26465
805.91	26552
806.052	26731
806.194	26556
806.336	26777
806.478	26575
806.62	26617
806.762	26659
806.904	26838
807.046	26960
807.188	27005
807.33	27024
807.472	27154
807.614	27032
807.756	26937
807.898	26739
808.04	26815
808.182	26678
808.324	26929
808.465	26982
808.607	26960
808.749	27135
808.891	27382
809.033	27405
809.174	27325
809.316	27211
809.458	27298
809.6	27230
809.741	27363
809.883	27401
810.025	27447
810.166	27530
810.308	27500
810.45	27473
810.591	27382
810.733	27230
810.875	27298
811.016	27043
811.158	27119
811.299	27321
811.441	27317
811.582	27321
811.724	27142
811.865	27294
812.007	27123
812.148	27165
812.29	27245
812.431	27427
812.573	27717
812.714	27637
812.855	27728
812.997	27994
813.138	27926
813.279	27823
813.421	27622
813.562	27709
813.703	27477
813.845	27515
813.986	27093
814.127	26986
814.268	26910
814.41	26804
814.551	26804
814.692	26967
814.833	26811
814.974	26887
815.115	26815
815.256	26773
815.397	26750
815.539	26804
815.68	26651
815.821	26514
815.962	26785
816.103	26625
816.244	26556
816.385	26434
816.526	26507
816.666	26320
816.807	26145
816.948	26172
817.089	26199
817.23	26237
817.371	26202
817.512	26218
817.653	26046
817.793	26039
817.934	26202
818.075	26187
818.216	26164
818.356	26122
818.497	26073
818.638	25784
818.778	25849
818.919	25928
819.06	25890
819.2	25974
819.341	26122
819.481	26172
819.622	26286
819.762	26575
819.903	26404
820.043	26476
820.184	26408
820.324	26161
820.465	26320
820.605	26309
820.746	26286
820.886	26176
821.026	26248
821.167	26240
821.307	26358
821.447	26191
821.588	26130
821.728	26024
821.868	25731
822.008	25681
822.149	25502
822.289	25616
822.429	25396
822.569	25259
822.709	25339
822.849	25072
822.99	25088
823.13	24909
823.27	25080
823.41	25012
823.55	24913
823.69	24951
823.83	24734
823.97	24970
824.11	24768
824.25	24703
824.389	24749
824.529	24935
824.669	24806
824.809	24878
824.949	24772
825.089	24916
825.228	24665
825.368	24513
825.508	24623
825.648	24741
825.787	24677
825.927	24635
826.067	24650
826.206	24608
826.346	24688
826.485	24555
826.625	24566
826.765	24639
826.904	24544
827.044	24467
827.183	24304
827.323	24228
827.462	24273
827.601	24388
827.741	24201
827.88	24334
828.02	24239
828.159	24319
828.298	24380
828.437	24380
828.577	24270
828.716	24391
828.855	24228
828.994	24003
829.134	24053
829.273	24076
829.412	23882
829.551	24038
829.69	24098
829.829	24064
829.968	24091
830.107	24038
830.246	24110
830.385	24015
830.524	24011
830.663	23779
830.802	23840
830.941	23592
831.08	23630
831.219	23729
831.357	23687
831.496	23904
831.635	23611
831.774	23509
831.913	23551
832.051	23562
832.19	23433
832.329	23486
832.467	23410
832.606	23204
832.744	23269
832.883	23486
833.022	23322
833.16	23433
833.299	23486
833.437	23356
833.576	23554
833.714	23478
833.852	23497
833.991	23406
834.129	23592
834.267	23589
834.406	23478
834.544	23417
834.682	23516
834.821	23398
834.959	23573
835.097	23242
835.235	23452
835.373	23471
835.511	23490
835.65	23261
835.788	23242
835.926	23254
836.064	23094
836.202	23227
836.34	23318
836.478	23478
836.615	23231
836.753	23204
836.891	23364
837.029	23239
837.167	23204
837.305	23322
837.443	23071
837.58	23105
837.718	23162
837.856	23269
837.993	23025
838.131	23193
838.269	23048
838.406	22984
838.544	22869
838.681	22877
838.819	22763
838.956	22622
839.094	22664
839.231	22702
839.369	22740
839.506	23071
839.643	22812
839.781	22599
839.918	22645
840.055	22672
840.193	22611
840.33	22489
840.467	22519
840.604	22675
840.742	22748
840.879	22421
841.016	22535
841.153	22451
841.29	22641
841.427	22542
841.564	22615
841.701	22554
841.838	22455
841.975	22466
842.112	22462
842.249	22398
842.385	22253
842.522	22519
842.659	22451
842.796	22265
842.933	22314
843.069	22242
843.206	22215
843.343	22291
843.479	22261
843.616	22367
843.752	21998
843.889	22036
844.025	22211
844.162	22143
844.298	22204
844.435	22147
844.571	22070
844.708	22192
844.844	22234
844.98	22341
845.117	22131
845.253	21953
845.389	21888
845.525	21983
845.661	22017
845.798	21812
845.934	21854
846.07	21778
846.206	21945
846.342	21876
846.478	21785
846.614	21523
846.75	21466
846.886	21576
847.022	21564
847.158	21580
847.294	21545
847.429	21671
847.565	21538
847.701	21774
847.837	21279
847.972	21283
848.108	21355
848.244	21485
848.379	21226
848.515	21195
848.65	21211
848.786	21100
848.921	21096
849.057	21207
849.192	21260
849.328	21150
849.463	21077
849.598	21081
849.734	20944
849.869	20906
850.004	20899
850.14	20941
850.275	20990
850.41	20815
850.545	20845
850.68	20899
850.815	21024
850.95	20933
851.085	21089
851.22	21047
851.355	20906
851.49	20902
851.625	20838
851.76	20960
851.895	20796
852.03	20902
852.165	20906
852.299	20895
852.434	21039
852.569	20967
852.703	20998
852.838	20971
852.973	21066
853.107	21001
853.242	20933
853.376	20800
853.511	20530
853.645	20724
853.78	20796
853.914	20731
854.048	20594
854.183	20606
854.317	20777
854.451	20937
854.585	20583
854.72	20765
854.854	20826
854.988	20602
855.122	20773
855.256	20644
855.39	20617
855.524	20819
855.658	20826
855.792	20693
855.926	20758
856.06	20807
856.194	20796
856.327	20769
856.461	20769
856.595	20625
856.729	20720
856.862	20762
856.996	20727
857.13	20887
857.263	20914
857.397	20872
857.53	20781
857.664	20765
857.797	20674
857.931	20765
858.064	20724
858.197	20746
858.331	20739
858.464	20644
858.597	20568
858.731	20682
858.864	20625
858.997	20731
859.13	20587
859.263	20762
859.396	20777
859.529	20632
859.662	20575
859.795	20739
859.928	20708
860.061	20880
860.194	20960
860.327	20743
860.46	20792
860.592	20823
860.725	20880
860.858	20861
860.99	20815
861.123	20731
861.256	20644
861.388	20720
861.521	21367
861.653	20571
861.786	20511
861.918	20503
862.05	20598
862.183	20735
862.315	20651
862.447	20693
862.58	20575
862.712	20476
862.844	20309
862.976	20541
863.108	20507
863.24	20826
863.372	20396
863.504	20393
863.636	20427
863.768	20374
863.9	20408
864.032	20358
864.164	20427
864.296	20385
864.428	20602
864.559	20518
864.691	20621
864.823	20358
864.954	20389
865.086	20438
865.217	20343
865.349	20309
865.48	20396
865.612	20393
865.743	20454
865.875	20355
866.006	20408
866.137	20320
866.269	20381
866.4	20374
866.531	20164
866.662	20282
866.793	20294
866.924	20267
867.055	20221
867.186	20240
867.317	20362
867.448	20180
867.579	20225
867.71	20088
867.841	20180
867.972	20309
868.103	20202
868.233	20267
868.364	20256
868.495	20336
868.625	20530
868.756	20621
868.886	20438
869.017	20537
869.147	20629
869.278	20621
869.408	20606
869.539	20545
869.669	20598
869.799	20629
869.929	20651
870.06	20568
870.19	20785
870.32	20815
870.45	20895
870.58	20887
870.71	20842
870.84	21028
870.97	20895
871.1	20868
871.23	21051
871.36	21032
871.489	21020
871.619	21131
871.749	21066
871.879	21131
872.008	21207
872.138	21116
872.267	21138
872.397	21032
872.526	20975
872.656	20899
872.785	20914
872.915	21230
873.044	21287
873.173	21214
873.303	21085
873.432	21218
873.561	21199
873.69	21100
873.819	21218
873.948	21291
874.077	21165
874.206	21013
874.335	21211
874.464	21363
874.593	21363
874.722	21428
874.851	21340
874.979	21424
875.108	21587
875.237	21222
875.365	21184
875.494	21397
875.623	21488
875.751	21298
875.88	21313
876.008	21462
876.136	21553
876.265	21728
876.393	21915
876.521	21899
876.65	21876
876.778	21827
876.906	21713
877.034	21648
877.162	21789
877.29	21698
877.418	21747
877.546	21728
877.674	21732
877.802	21728
877.93	21591
878.058	21549
878.185	21622
878.313	21682
878.441	21705
878.568	21625
878.696	21644
878.824	21770
878.951	21770
879.079	21934
879.206	22017
879.333	21968
879.461	21663
879.588	21835
879.715	21960
879.842	21907
879.97	21671
880.097	21572
880.224	21534
880.351	21595
880.478	21568
880.605	21576
880.732	21519
880.859	21831
880.986	21583
881.112	21644
881.239	21416
881.366	21283
881.493	21245
881.619	21146
881.746	21237
881.872	21047
881.999	21089
882.125	21123
882.252	21169
882.378	21116
882.505	21294
882.631	21089
882.757	20823
882.883	20933
883.01	20834
883.136	20788
883.262	20670
883.388	20731
883.514	20937
883.64	20891
883.766	20769
883.892	20488
884.018	20644
884.143	20777
884.269	20826
884.395	20442
884.52	20545
884.646	20473
884.772	20434
884.897	20355
885.023	20499
885.148	20533
885.274	20651
885.399	20655
885.524	20511
885.65	20575
885.775	20556
885.9	20465
886.025	20640
886.15	20461
886.275	20469
886.4	20385
886.525	20457
886.65	20381
886.775	20381
886.9	20659
887.025	20731
887.149	20412
887.274	20317
887.399	20298
887.523	20332
887.648	20153
887.773	20164
887.897	20351
888.021	20438
888.146	20278
888.27	20377
888.395	20358
888.519	20278
888.643	20252
888.767	20343
888.891	20244
889.015	20138
889.139	20126
889.263	20073
889.387	20218
889.511	20233
889.635	20278
889.759	20024
889.883	20115
890.006	20142
890.13	20130
890.254	19989
890.377	19982
890.501	19795
890.624	19757
890.748	19807
890.871	19750
890.995	19670
891.118	19647
891.241	19662
891.364	19784
891.488	19845
891.611	19655
891.734	19742
891.857	19776
891.98	19666
892.103	19731
892.226	19544
892.349	19628
892.471	19476
892.594	19651
892.717	19563
892.839	19567
892.962	19605
893.085	19609
893.207	19578
893.33	19438
893.452	19445
893.575	19620
893.697	19491
893.819	19704
893.941	19776
894.064	19696
894.186	19506
894.308	19476
894.43	19662
894.552	19715
894.674	19708
894.796	19533
894.918	19480
895.04	19559
895.161	19586
895.283	19586
895.405	19601
895.526	19472
895.648	19605
895.769	19533
895.891	19544
896.012	19655
896.134	19529
896.255	19559
896.376	19582
896.498	19647
896.619	19685
896.74	19571
896.861	19578
896.982	20016
897.103	20077
897.224	19909
897.345	19780
897.466	19791
897.587	19898
897.708	20008
897.828	19830
897.949	19803
898.07	19643
898.19	19666
898.311	19814
898.431	19765
898.552	19742
898.672	19913
898.792	19845
898.913	19769
899.033	19670
899.153	19502
899.273	19552
899.393	19586
899.513	19529
899.633	19567
899.753	19468
899.873	19438
899.993	19571
900.113	19540
900.232	19552
900.352	19449
900.472	19396
900.591	19320
900.711	19407
900.83	19304
900.95	19331
901.069	19449
901.189	19240
901.308	19023
901.427	18795
901.546	18894
901.665	19038
901.784	18970
901.904	18772
902.023	18715
902.141	18506
902.26	18494
902.379	18525
902.498	18407
902.617	18350
902.735	18483
902.854	18513
902.973	18418
903.091	18072
903.21	18289
903.328	18060
903.446	17942
903.565	17878
903.683	17973
903.801	17847
903.919	17832
904.038	17878
904.156	17729
904.274	17756
904.392	17726
904.51	17646
904.627	17729
904.745	17775
904.863	17882
904.981	17501
905.098	17482
905.216	17318
905.334	17463
905.451	17433
905.569	17425
905.686	17482
905.803	17364
905.921	17159
906.038	17387
906.155	17109
906.272	17075
906.389	17132
906.506	16938
906.623	16942
906.74	16953
906.857	16835
906.974	16896
907.091	17037
907.208	16999
907.324	16923
907.441	16847
907.557	16755
907.674	16664
907.79	16569
907.907	16554
908.023	16603
908.139	16641
908.256	16584
908.372	16504
908.488	16546
908.604	16295
908.72	16436
908.836	16341
908.952	16360
909.068	16440
909.184	16478
909.3	16455
909.415	16360
909.531	16409
909.647	16112
909.762	16124
909.878	16067
909.993	16090
910.108	16029
910.224	16051
910.339	16154
910.454	15873
910.57	15937
910.685	15785
910.8	16150
910.915	16006
911.03	15850
911.145	15663
911.259	15701
911.374	15591
911.489	15644
911.604	15545
911.718	15397
911.833	15443
911.947	15412
912.062	15157
912.176	15370
912.291	15435
912.405	15496
912.519	15515
912.633	15507
912.748	15431
912.862	15382
912.976	15241
913.09	15104
913.204	15214
913.318	15321
913.431	15359
913.545	15386
913.659	15195
913.772	15195
913.886	15135
914	15047
914.113	15131
914.226	15192
914.34	15135
914.453	14895
914.566	15138
914.68	14994
914.793	14857
914.906	14689
915.019	14678
915.132	14632
915.245	14625
915.358	14739
915.47	14724
915.583	14705
915.696	14758
915.809	14758
915.921	14792
916.034	14629
916.146	14659
916.259	14526
916.371	14701
916.483	14522
916.595	14613
916.708	14514
916.82	14579
916.932	14545
917.044	14541
917.156	14530
917.268	14374
917.38	14419
917.491	14358
917.603	14366
917.715	14476
917.826	14427
917.938	14324
918.049	14218
918.161	14237
918.272	14434
918.384	14457
918.495	14366
918.606	14195
918.717	14119
918.828	14187
918.939	14168
919.05	14062
919.161	13997
919.272	13959
919.383	13989
919.494	14115
919.604	14278
919.715	14157
919.826	14088
919.936	14069
920.047	14123
920.157	14039
920.267	14313
920.378	14107
920.488	14043
920.598	14221
920.708	14332
920.818	14134
920.928	14161
921.038	14393
921.148	14374
921.258	13970
921.368	13967
921.477	13879
921.587	13868
921.697	13769
921.806	13879
921.916	13677
922.025	13628
922.134	13480
922.244	13468
922.353	13495
922.462	13316
922.571	13285
922.68	13076
922.789	13122
922.898	13209
923.007	12966
923.116	13080
923.224	13164
923.333	13114
923.442	12973
923.55	12897
923.659	12973
923.767	12970
923.876	12897
923.984	13053
924.092	12913
924.201	13012
924.309	12932
924.417	12890
924.525	12711
924.633	12783
924.741	13674
924.849	12620
924.956	12806
925.064	12658
925.172	12521
925.279	12502
925.387	12547
925.494	12574
925.602	12738
925.709	12620
925.816	12650
925.924	12426
926.031	12559
926.138	12513
926.245	12528
926.352	12563
926.459	12547
926.566	12547
926.673	12353
926.779	12418
926.886	12285
926.993	12114
927.099	12167
927.206	12106
927.312	12129
927.419	12186
927.525	12152
927.631	12213
927.737	12110
927.843	12015
927.95	11885
928.056	11931
928.162	11973
928.267	11992
928.373	12631
928.479	12034
928.585	11821
928.69	11954
928.796	11939
928.901	11851
929.007	11699
929.112	11836
929.218	11767
929.323	11695
929.428	11680
929.533	11752
929.638	11684
929.743	11691
929.848	11680
929.953	11600
930.058	11535
930.163	11383
930.267	11425
930.372	11566
930.477	11326
930.581	11577
930.685	11490
930.79	11326
930.894	11265
930.998	11322
931.103	11452
931.207	11041
931.311	10919
931.415	10869
931.519	10736
931.623	10729
