Data from test_V78500241_681.txt Node
Date: Fri Mar 25 15:14:36 CST 2022
User: usil
Spectrometer: V785-0024
Trigger mode: 0
Integration Time (sec): 4.000000E-1
Scans to average: 1
Nonlinearity correction enabled: false
Boxcar width: 0
Storing dark spectrum: false
XAxis mode: Wavelengths
Number of Pixels in Spectrum: 1024
>>>>>Begin Spectral Data<<<<<
801.071	28048
801.214	27972
801.356	27816
801.499	27888
801.641	27724
801.783	27580
801.926	27732
802.068	27793
802.211	27545
802.353	27587
802.496	27363
802.638	27332
802.78	27310
802.923	27283
803.065	27268
803.208	27184
803.35	27306
803.492	27492
803.635	27469
803.777	27397
803.919	27443
804.061	27720
804.204	27553
804.346	27458
804.488	27553
804.63	27454
804.773	27420
804.915	27523
805.057	27641
805.199	27481
805.341	27542
805.483	27679
805.626	27599
805.768	27454
805.91	27633
806.052	27553
806.194	27564
806.336	27918
806.478	27663
806.62	27485
806.762	27766
806.904	27968
807.046	28204
807.188	28002
807.33	28070
807.472	28074
807.614	27953
807.756	28048
807.898	27956
808.04	27914
808.182	27857
808.324	28021
808.465	28010
808.607	28162
808.749	28291
808.891	28371
809.033	28577
809.174	28371
809.316	28265
809.458	28322
809.6	28417
809.741	28497
809.883	28379
810.025	28592
810.166	28611
810.308	28672
810.45	28394
810.591	28584
810.733	28299
810.875	28382
811.016	28234
811.158	28223
811.299	28257
811.441	28447
811.582	28382
811.724	28272
811.865	28135
812.007	28341
812.148	28367
812.29	28409
812.431	28523
812.573	28752
812.714	28862
812.855	28805
812.997	28877
813.138	29071
813.279	29132
813.421	28961
813.562	28911
813.703	28763
813.845	28668
813.986	28341
814.127	28173
814.268	28150
814.41	28101
814.551	28097
814.692	28093
814.833	27941
814.974	28032
815.115	28029
815.256	27960
815.397	27797
815.539	27960
815.68	27804
815.821	27694
815.962	27831
816.103	27755
816.244	27751
816.385	27564
816.526	27504
816.666	27424
816.807	27272
816.948	27473
817.089	27511
817.23	27298
817.371	27317
817.512	27416
817.653	27416
817.793	27283
817.934	27332
818.075	27329
818.216	27344
818.356	27348
818.497	27325
818.638	27108
818.778	27074
818.919	27127
819.06	27165
819.2	27283
819.341	27325
819.481	27332
819.622	27492
819.762	27663
819.903	27580
820.043	27500
820.184	27568
820.324	27420
820.465	27450
820.605	27500
820.746	27363
820.886	27382
821.026	27515
821.167	27367
821.307	27564
821.447	27427
821.588	27268
821.728	27077
821.868	26940
822.008	26807
822.149	26792
822.289	26693
822.429	26549
822.569	26396
822.709	26457
822.849	26221
822.99	26275
823.13	26317
823.27	26176
823.41	26214
823.55	26008
823.69	26008
823.83	26317
823.97	26012
824.11	25909
824.25	25913
824.389	26008
824.529	25925
824.669	26012
824.809	26153
824.949	26027
825.089	26092
825.228	25875
825.368	25913
825.508	25864
825.648	25719
825.787	25887
825.927	25845
826.067	25795
826.206	25841
826.346	25917
826.485	25780
826.625	25727
826.765	25951
826.904	25769
827.044	25708
827.183	25597
827.323	25491
827.462	25632
827.601	25651
827.741	25525
827.88	25597
828.02	25320
828.159	25362
828.298	25468
828.437	25514
828.577	25518
828.716	25700
828.855	25582
828.994	25202
829.134	25392
829.273	25266
829.412	25255
829.551	25240
829.69	25297
829.829	25289
829.968	25327
830.107	25324
830.246	25259
830.385	25274
830.524	25126
830.663	25118
830.802	25008
830.941	24901
831.08	24787
831.219	24947
831.357	24958
831.496	25031
831.635	24848
831.774	24859
831.913	24791
832.051	24768
832.19	24722
832.329	24604
832.467	24566
832.606	24433
832.744	24437
832.883	24578
833.022	24456
833.16	24597
833.299	24654
833.437	24517
833.576	24627
833.714	24711
833.852	24635
833.991	24654
834.129	24681
834.267	24658
834.406	24642
834.544	24642
834.682	24650
834.821	24707
834.959	24798
835.097	24509
835.235	24726
835.373	24513
835.511	24654
835.65	24422
835.788	24471
835.926	24418
836.064	24171
836.202	24304
836.34	24384
836.478	24479
836.615	24505
836.753	24410
836.891	24464
837.029	24578
837.167	24528
837.305	24270
837.443	24296
837.58	24437
837.718	24391
837.856	24270
837.993	24228
838.131	24216
838.269	24136
838.406	24186
838.544	24022
838.681	24011
838.819	23901
838.956	23699
839.094	23653
839.231	23805
839.369	23802
839.506	24095
839.643	23904
839.781	23863
839.918	23642
840.055	23668
840.193	23699
840.33	23638
840.467	23646
840.604	23687
840.742	23889
840.879	23627
841.016	23619
841.153	23638
841.29	23779
841.427	23551
841.564	23699
841.701	23695
841.838	23714
841.975	23691
842.112	23524
842.249	23410
842.385	23509
842.522	23581
842.659	23482
842.796	23444
842.933	23482
843.069	23353
843.206	23337
843.343	23387
843.479	23440
843.616	23410
843.752	23159
843.889	23284
844.025	23421
844.162	23128
844.298	23356
844.435	23227
844.571	23151
844.708	23178
844.844	23391
844.98	23353
845.117	23395
845.253	23090
845.389	23147
845.525	23128
845.661	23022
845.798	23022
845.934	22953
846.07	22889
846.206	22976
846.342	22980
846.478	22892
846.614	22713
846.75	22599
846.886	22668
847.022	22733
847.158	22672
847.294	22592
847.429	22744
847.565	22565
847.701	22812
847.837	22341
847.972	22242
848.108	22413
848.244	22516
848.379	22200
848.515	22295
848.65	22215
848.786	22230
848.921	22215
849.057	22447
849.192	22405
849.328	22352
849.463	22246
849.598	22257
849.734	22242
849.869	22124
850.004	22147
850.14	22070
850.275	22048
850.41	21918
850.545	22013
850.68	21983
850.815	22048
850.95	21972
851.085	22230
851.22	22154
851.355	21884
851.49	22017
851.625	21983
851.76	22010
851.895	21934
852.03	21937
852.165	21960
852.299	22105
852.434	22029
852.569	21998
852.703	21979
852.838	22013
852.973	22086
853.107	22078
853.242	22002
853.376	21930
853.511	21800
853.645	21778
853.78	21937
853.914	21778
854.048	21690
854.183	21899
854.317	21903
854.451	21949
854.585	21846
854.72	21789
854.854	21911
854.988	21736
855.122	21854
855.256	21679
855.39	21846
855.524	21869
855.658	21797
855.792	21842
855.926	21857
856.06	21816
856.194	21907
856.327	21823
856.461	21793
856.595	21793
856.729	21819
856.862	21926
856.996	21819
857.13	21888
857.263	21899
857.397	21968
857.53	21880
857.664	21831
857.797	21808
857.931	22017
858.064	21789
858.197	21899
858.331	21789
858.464	21778
858.597	21720
858.731	21823
858.864	21701
858.997	21808
859.13	21797
859.263	21816
859.396	21972
859.529	21800
859.662	21766
859.795	21778
859.928	21800
860.061	21915
860.194	21983
860.327	21918
860.46	21926
860.592	21903
860.725	21918
860.858	21991
860.99	21808
861.123	21766
861.256	21713
861.388	21812
861.521	22596
861.653	21686
861.786	21709
861.918	21652
862.05	21709
862.183	21797
862.315	21644
862.447	21850
862.58	21690
862.712	21488
862.844	21610
862.976	21603
863.108	21614
863.24	21895
863.372	21534
863.504	21568
863.636	21587
863.768	21523
863.9	21485
864.032	21496
864.164	21428
864.296	21625
864.428	21724
864.559	21572
864.691	21580
864.823	21485
864.954	21473
865.086	21496
865.217	21313
865.349	21325
865.48	21561
865.612	21393
865.743	21549
865.875	21431
866.006	21332
866.137	21435
866.269	21374
866.4	21424
866.531	21370
866.662	21275
866.793	21443
866.924	21355
867.055	21416
867.186	21344
867.317	21302
867.448	21317
867.579	21260
867.71	21157
867.841	21211
867.972	21226
868.103	21222
868.233	21275
868.364	21329
868.495	21389
868.625	21549
868.756	21629
868.886	21504
869.017	21557
869.147	21671
869.278	21690
869.408	21591
869.539	21618
869.669	21743
869.799	21656
869.929	21751
870.06	21686
870.19	21934
870.32	21831
870.45	21964
870.58	21945
870.71	22013
870.84	22040
870.97	21888
871.1	21903
871.23	22223
871.36	22162
871.489	22029
871.619	22135
871.749	22223
871.879	22238
872.008	22284
872.138	22204
872.267	22147
872.397	21998
872.526	21937
872.656	22040
872.785	22044
872.915	22059
873.044	22215
873.173	22207
873.303	22192
873.432	22257
873.561	22371
873.69	22204
873.819	22299
873.948	22318
874.077	22272
874.206	22147
874.335	22219
874.464	22261
874.593	22443
874.722	22455
874.851	22462
874.979	22443
875.108	22432
875.237	22329
875.365	22386
875.494	22333
875.623	22478
875.751	22390
875.88	22455
876.008	22550
876.136	22615
876.265	22759
876.393	22995
876.521	22824
876.65	22847
876.778	22881
876.906	22843
877.034	22660
877.162	22809
877.29	22812
877.418	22763
877.546	22774
877.674	22706
877.802	22752
877.93	22721
878.058	22835
878.185	22599
878.313	22611
878.441	22668
878.568	22459
878.696	22717
878.824	22809
878.951	22824
879.079	22984
879.206	22946
879.333	22915
879.461	22778
879.588	22862
879.715	22820
879.842	22930
879.97	22759
880.097	22592
880.224	22675
880.351	22634
880.478	22641
880.605	22512
880.732	22596
880.859	22736
880.986	22626
881.112	22565
881.239	22344
881.366	22265
881.493	22322
881.619	22204
881.746	22078
881.872	22055
881.999	22070
882.125	21876
882.252	22162
882.378	22143
882.505	22211
882.631	21869
882.757	21854
882.883	22074
883.01	21816
883.136	21842
883.262	21633
883.388	21648
883.514	21857
883.64	21888
883.766	21682
883.892	21462
884.018	21633
884.143	21823
884.269	21865
884.395	21591
884.52	21447
884.646	21530
884.772	21439
884.897	21420
885.023	21504
885.148	21542
885.274	21656
885.399	21606
885.524	21485
885.65	21450
885.775	21389
885.9	21374
886.025	21580
886.15	21435
886.275	21367
886.4	21306
886.525	21378
886.65	21359
886.775	21389
886.9	21526
887.025	21759
887.149	21317
887.274	21188
887.399	21195
887.523	21192
887.648	21165
887.773	21211
887.897	21275
888.021	21279
888.146	21268
888.27	21272
888.395	21370
888.519	21142
888.643	21264
888.767	21332
888.891	21161
889.015	20982
889.139	21127
889.263	21070
889.387	21150
889.511	21256
889.635	21180
889.759	20921
889.883	20921
890.006	21074
890.13	21036
890.254	20887
890.377	20921
890.501	20857
890.624	20689
890.748	20765
890.871	20636
890.995	20545
891.118	20533
891.241	20659
891.364	20598
891.488	20739
891.611	20720
891.734	20629
891.857	20716
891.98	20613
892.103	20655
892.226	20636
892.349	20465
892.471	20446
892.594	20499
892.717	20632
892.839	20457
892.962	20488
893.085	20678
893.207	20537
893.33	20374
893.452	20313
893.575	20473
893.697	20587
893.819	20552
893.941	20625
894.064	20503
894.186	20457
894.308	20301
894.43	20503
894.552	20651
894.674	20552
894.796	20305
894.918	20465
895.04	20427
895.161	20465
895.283	20571
895.405	20400
895.526	20507
895.648	20423
895.769	20461
895.891	20511
896.012	20434
896.134	20473
896.255	20446
896.376	20393
896.498	20446
896.619	20606
896.74	20522
896.861	20480
896.982	20735
897.103	20948
897.224	20739
897.345	20762
897.466	20537
897.587	20579
897.708	20739
897.828	20663
897.949	20621
898.07	20568
898.19	20549
898.311	20697
898.431	20568
898.552	20678
898.672	20735
898.792	20644
898.913	20640
899.033	20606
899.153	20511
899.273	20339
899.393	20374
899.513	20454
899.633	20476
899.753	20393
899.873	20336
899.993	20419
900.113	20499
900.232	20446
900.352	20355
900.472	20324
900.591	20233
900.711	20244
900.83	20191
900.95	20324
901.069	20225
901.189	19982
901.308	19757
901.427	19727
901.546	19788
901.665	19776
901.784	19814
901.904	19693
902.023	19537
902.141	19293
902.26	19308
902.379	19396
902.498	19312
902.617	19221
902.735	19285
902.854	19346
902.973	19175
903.091	18985
903.21	18939
903.328	19000
903.446	18829
903.565	18829
903.683	18779
903.801	18597
903.919	18753
904.038	18688
904.156	18479
904.274	18642
904.392	18517
904.51	18566
904.627	18502
904.745	18528
904.863	18521
904.981	18277
905.098	18232
905.216	18190
905.334	18239
905.451	18228
905.569	18174
905.686	18167
905.803	18095
905.921	18022
906.038	18159
906.155	17973
906.272	17771
906.389	17969
906.506	17699
906.623	17718
906.74	17691
906.857	17649
906.974	17581
907.091	17786
907.208	17847
907.324	17737
907.441	17562
907.557	17532
907.674	17459
907.79	17376
907.907	17478
908.023	17448
908.139	17414
908.256	17398
908.372	17337
908.488	17265
908.604	17185
908.72	17197
908.836	17090
908.952	17193
909.068	17178
909.184	17132
909.3	17079
909.415	17170
909.531	17151
909.647	16938
909.762	16877
909.878	16850
909.993	16923
910.108	16835
910.224	16774
910.339	16786
910.454	16774
910.57	16672
910.685	16618
910.8	16892
910.915	16725
911.03	16698
911.145	16478
911.259	16375
911.374	16405
911.489	16322
911.604	16295
911.718	16230
911.833	16188
911.947	16048
912.062	15968
912.176	16120
912.291	16242
912.405	16150
912.519	16390
912.633	16211
912.748	16143
912.862	16071
912.976	16048
913.09	15945
913.204	15911
913.318	16021
913.431	16090
913.545	15979
913.659	16105
913.772	15934
913.886	15842
914	15812
914.113	15911
914.226	15934
914.34	15854
914.453	15618
914.566	15812
914.68	15656
914.793	15564
914.906	15519
915.019	15412
915.132	15363
915.245	15302
915.358	15477
915.47	15439
915.583	15405
915.696	15458
915.809	15511
915.921	15557
916.034	15412
916.146	15241
916.259	15192
916.371	15302
916.483	15367
916.595	15249
916.708	15230
916.82	15313
916.932	15108
917.044	15199
917.156	15100
917.268	14967
917.38	15119
917.491	15058
917.603	14990
917.715	15169
917.826	15173
917.938	15036
918.049	14883
918.161	15001
918.272	15093
918.384	15089
918.495	14998
918.606	14887
918.717	14853
918.828	14826
918.939	14804
919.05	14644
919.161	14838
919.272	14640
919.383	14560
919.494	14754
919.604	14963
919.715	14800
919.826	14693
919.936	14769
920.047	14830
920.157	14682
920.267	14910
920.378	14724
920.488	14693
920.598	14906
920.708	14971
920.818	14891
920.928	14838
921.038	15085
921.148	15036
921.258	14785
921.368	14678
921.477	14476
921.587	14457
921.697	14408
921.806	14450
921.916	14374
922.025	14100
922.134	14119
922.244	14084
922.353	14161
922.462	14092
922.571	13909
922.68	13795
922.789	13833
922.898	13757
923.007	13677
923.116	13799
923.224	13830
923.333	13719
923.442	13571
923.55	13613
923.659	13616
923.767	13620
923.876	13472
923.984	13544
924.092	13434
924.201	13525
924.309	13510
924.417	13403
924.525	13445
924.633	13491
924.741	14115
924.849	13308
924.956	13384
925.064	13145
925.172	13038
925.279	13168
925.387	13247
925.494	13110
925.602	13259
925.709	13160
925.816	13050
925.924	13065
926.031	13129
926.138	13152
926.245	13225
926.352	13042
926.459	13202
926.566	13232
926.673	12970
926.779	12844
926.886	12875
926.993	12867
927.099	12700
927.206	12711
927.312	12593
927.419	12722
927.525	12673
927.631	12669
927.737	12608
927.843	12517
927.95	12464
928.056	12471
928.162	12528
928.267	12582
928.373	13209
928.479	12528
928.585	12372
928.69	12445
928.796	12467
928.901	12391
929.007	12239
929.112	12346
929.218	12414
929.323	12395
929.428	12338
929.533	12429
929.638	12216
929.743	12194
929.848	12247
929.953	12171
930.058	12015
930.163	11961
930.267	11992
930.372	12072
930.477	11923
930.581	12144
930.685	11958
930.79	11794
930.894	11893
930.998	11745
931.103	11958
931.207	11566
931.311	11528
931.415	11356
931.519	11277
931.623	11155
