Data from test_V78500241_2297.txt Node
Date: Fri Mar 25 15:25:51 CST 2022
User: usil
Spectrometer: V785-0024
Trigger mode: 0
Integration Time (sec): 4.000000E-1
Scans to average: 1
Nonlinearity correction enabled: false
Boxcar width: 0
Storing dark spectrum: false
XAxis mode: Wavelengths
Number of Pixels in Spectrum: 1024
>>>>>Begin Spectral Data<<<<<
801.071	27545
801.214	27629
801.356	27477
801.499	27439
801.641	27256
801.783	27207
801.926	27412
802.068	27287
802.211	27321
802.353	27112
802.496	27017
802.638	26929
802.78	26880
802.923	26876
803.065	26758
803.208	26887
803.35	26781
803.492	26960
803.635	26971
803.777	27005
803.919	27104
804.061	27351
804.204	27135
804.346	26975
804.488	26967
804.63	27142
804.773	26956
804.915	27017
805.057	27188
805.199	27119
805.341	27131
805.483	27291
805.626	27070
805.768	27180
805.91	27169
806.052	27230
806.194	27074
806.336	27264
806.478	27157
806.62	27214
806.762	27408
806.904	27462
807.046	27648
807.188	27591
807.33	27770
807.472	27679
807.614	27561
807.756	27667
807.898	27462
808.04	27492
808.182	27481
808.324	27443
808.465	27557
808.607	27755
808.749	27914
808.891	27934
809.033	28036
809.174	27926
809.316	27873
809.458	27743
809.6	27895
809.741	28067
809.883	27861
810.025	28090
810.166	28158
810.308	28120
810.45	28032
810.591	28101
810.733	27827
810.875	27728
811.016	27663
811.158	27633
811.299	27880
811.441	28002
811.582	27892
811.724	27842
811.865	27838
812.007	27808
812.148	27690
812.29	27819
812.431	28063
812.573	28090
812.714	28112
812.855	28318
812.997	28432
813.138	28497
813.279	28535
813.421	28386
813.562	28192
813.703	28188
813.845	27994
813.986	27781
814.127	27599
814.268	27458
814.41	27553
814.551	27469
814.692	27564
814.833	27420
814.974	27435
815.115	27564
815.256	27321
815.397	27306
815.539	27427
815.68	27249
815.821	27294
815.962	27294
816.103	27310
816.244	27085
816.385	27055
816.526	27055
816.666	26998
816.807	26872
816.948	26918
817.089	26940
817.23	26823
817.371	26781
817.512	26819
817.653	26842
817.793	26918
817.934	26785
818.075	26811
818.216	26864
818.356	26746
818.497	26674
818.638	26495
818.778	26480
818.919	26556
819.06	26469
819.2	26708
819.341	26765
819.481	26705
819.622	26990
819.762	27138
819.903	27074
820.043	26979
820.184	26921
820.324	26899
820.465	26933
820.605	26914
820.746	26826
820.886	26686
821.026	26845
821.167	26746
821.307	26815
821.447	26750
821.588	26727
821.728	26541
821.868	26412
822.008	26415
822.149	26374
822.289	26317
822.429	25925
822.569	25993
822.709	25928
822.849	25723
822.99	25685
823.13	25651
823.27	25635
823.41	25506
823.55	25552
823.69	25700
823.83	25518
823.97	25392
824.11	25369
824.25	25339
824.389	25449
824.529	25331
824.669	25377
824.809	25343
824.949	25434
825.089	25415
825.228	25327
825.368	25137
825.508	25293
825.648	25244
825.787	25266
825.927	25403
826.067	25145
826.206	25168
826.346	25251
826.485	25297
826.625	25236
826.765	25392
826.904	25270
827.044	24996
827.183	24981
827.323	24943
827.462	25126
827.601	25057
827.741	24920
827.88	25046
828.02	24943
828.159	24924
828.298	24913
828.437	24905
828.577	24901
828.716	25088
828.855	24863
828.994	24635
829.134	24616
829.273	24745
829.412	24601
829.551	24597
829.69	24551
829.829	24585
829.968	24783
830.107	24673
830.246	24703
830.385	24513
830.524	24555
830.663	24479
830.802	24467
830.941	24357
831.08	24163
831.219	24532
831.357	24319
831.496	24395
831.635	24186
831.774	24266
831.913	24060
832.051	24133
832.19	23935
832.329	24057
832.467	23885
832.606	23977
832.744	23874
832.883	23912
833.022	23828
833.16	23958
833.299	24087
833.437	23901
833.576	23946
833.714	23923
833.852	24018
833.991	24098
834.129	24167
834.267	24053
834.406	24011
834.544	23942
834.682	23958
834.821	23893
834.959	24178
835.097	23828
835.235	24026
835.373	23946
835.511	23935
835.65	23885
835.788	23897
835.926	23653
836.064	23676
836.202	23615
836.34	23779
836.478	23923
836.615	23794
836.753	23840
836.891	23863
837.029	23817
837.167	23722
837.305	23756
837.443	23585
837.58	23657
837.718	23680
837.856	23699
837.993	23627
838.131	23573
838.269	23558
838.406	23474
838.544	23440
838.681	23376
838.819	23254
838.956	23174
839.094	23090
839.231	23349
839.369	23284
839.506	23547
839.643	23429
839.781	23185
839.918	23090
840.055	23094
840.193	23151
840.33	23105
840.467	23025
840.604	23094
840.742	23299
840.879	22881
841.016	22934
841.153	22915
841.29	23284
841.427	23041
841.564	23037
841.701	23151
841.838	22919
841.975	22904
842.112	22957
842.249	22725
842.385	22752
842.522	22942
842.659	22885
842.796	22755
842.933	22809
843.069	22759
843.206	22721
843.343	22919
843.479	22942
843.616	22744
843.752	22550
843.889	22717
844.025	22653
844.162	22535
844.298	22500
844.435	22546
844.571	22474
844.708	22626
844.844	22710
844.98	22729
845.117	22656
845.253	22466
845.389	22474
845.525	22451
845.661	22310
845.798	22303
845.934	22322
846.07	22257
846.206	22371
846.342	22489
846.478	22360
846.614	22010
846.75	22032
846.886	22158
847.022	22074
847.158	22036
847.294	22074
847.429	22051
847.565	22013
847.701	22337
847.837	21759
847.972	21698
848.108	21823
848.244	21865
848.379	21629
848.515	21622
848.65	21625
848.786	21614
848.921	21568
849.057	21637
849.192	21720
849.328	21595
849.463	21622
849.598	21610
849.734	21549
849.869	21420
850.004	21443
850.14	21378
850.275	21393
850.41	21313
850.545	21287
850.68	21485
850.815	21386
850.95	21378
851.085	21496
851.22	21393
851.355	21389
851.49	21336
851.625	21363
851.76	21340
851.895	21275
852.03	21302
852.165	21401
852.299	21439
852.434	21500
852.569	21412
852.703	21340
852.838	21359
852.973	21530
853.107	21542
853.242	21431
853.376	21264
853.511	21169
853.645	21321
853.78	21340
853.914	21169
854.048	21173
854.183	21173
854.317	21180
854.451	21416
854.585	21131
854.72	21173
854.854	21230
854.988	21100
855.122	21096
855.256	21093
855.39	21165
855.524	21260
855.658	21359
855.792	21241
855.926	21325
856.06	21218
856.194	21245
856.327	21165
856.461	21150
856.595	21199
856.729	21226
856.862	21218
856.996	21302
857.13	21348
857.263	21283
857.397	21252
857.53	21256
857.664	21150
857.797	21272
857.931	21370
858.064	21241
858.197	21363
858.331	21195
858.464	21146
858.597	21192
858.731	21070
858.864	21047
858.997	21089
859.13	21173
859.263	21287
859.396	21192
859.529	21066
859.662	21222
859.795	21161
859.928	21161
860.061	21450
860.194	21431
860.327	21279
860.46	21241
860.592	21351
860.725	21321
860.858	21439
860.99	21222
861.123	21180
861.256	21199
861.388	21108
861.521	22006
861.653	21104
861.786	21116
861.918	20986
862.05	21028
862.183	20982
862.315	21119
862.447	21192
862.58	21150
862.712	20971
862.844	20910
862.976	21005
863.108	20994
863.24	21458
863.372	20826
863.504	20880
863.636	20834
863.768	20918
863.9	20952
864.032	20921
864.164	20750
864.296	20937
864.428	21036
864.559	20868
864.691	21001
864.823	20986
864.954	20857
865.086	20823
865.217	20918
865.349	20750
865.48	20705
865.612	20845
865.743	20914
865.875	20743
866.006	20811
866.137	20842
866.269	20724
866.4	20705
866.531	20792
866.662	20750
866.793	20636
866.924	20727
867.055	20670
867.186	20667
867.317	20781
867.448	20545
867.579	20777
867.71	20659
867.841	20682
867.972	20708
868.103	20598
868.233	20746
868.364	20765
868.495	20849
868.625	20864
868.756	21047
868.886	20906
869.017	20933
869.147	21036
869.278	21131
869.408	21051
869.539	20990
869.669	21081
869.799	20944
869.929	21135
870.06	21142
870.19	21176
870.32	21192
870.45	21332
870.58	21310
870.71	21473
870.84	21538
870.97	21382
871.1	21340
871.23	21568
871.36	21469
871.489	21424
871.619	21526
871.749	21549
871.879	21557
872.008	21648
872.138	21561
872.267	21443
872.397	21458
872.526	21469
872.656	21374
872.785	21405
872.915	21663
873.044	21686
873.173	21580
873.303	21530
873.432	21614
873.561	21648
873.69	21759
873.819	21580
873.948	21755
874.077	21656
874.206	21462
874.335	21557
874.464	21717
874.593	21823
874.722	21861
874.851	21926
874.979	21918
875.108	21781
875.237	21857
875.365	21789
875.494	21690
875.623	21941
875.751	21819
875.88	21759
876.008	21994
876.136	21945
876.265	22200
876.393	22253
876.521	22367
876.65	22451
876.778	22173
876.906	22204
877.034	22120
877.162	22162
877.29	22120
877.418	22299
877.546	22192
877.674	22249
877.802	22078
877.93	22082
878.058	22147
878.185	22192
878.313	22196
878.441	22074
878.568	21915
878.696	22025
878.824	22082
878.951	22253
879.079	22348
879.206	22379
879.333	22314
879.461	22200
879.588	22116
879.715	22329
879.842	22470
879.97	22181
880.097	22067
880.224	22013
880.351	22131
880.478	21983
880.605	22059
880.732	22074
880.859	22131
880.986	22036
881.112	22006
881.239	21850
881.366	21781
881.493	21724
881.619	21618
881.746	21595
881.872	21557
881.999	21496
882.125	21526
882.252	21496
882.378	21542
882.505	21660
882.631	21405
882.757	21332
882.883	21370
883.01	21203
883.136	21272
883.262	21077
883.388	21176
883.514	21214
883.64	21386
883.766	21116
883.892	21104
884.018	21058
884.143	21157
884.269	21340
884.395	20918
884.52	20895
884.646	21001
884.772	20872
884.897	20876
885.023	20902
885.148	20891
885.274	21032
885.399	21051
885.524	20986
885.65	20902
885.775	20933
885.9	20891
886.025	21100
886.15	20952
886.275	20853
886.4	20769
886.525	20845
886.65	20891
886.775	20781
886.9	21013
887.025	21100
887.149	20895
887.274	20651
887.399	20735
887.523	20617
887.648	20792
887.773	20480
887.897	20796
888.021	20644
888.146	20545
888.27	20708
888.395	20800
888.519	20640
888.643	20693
888.767	20689
888.891	20609
889.015	20488
889.139	20499
889.263	20431
889.387	20465
889.511	20712
889.635	20571
889.759	20450
889.883	20476
890.006	20560
890.13	20480
890.254	20358
890.377	20385
890.501	20313
890.624	20305
890.748	20210
890.871	20008
890.995	20054
891.118	20111
891.241	20035
891.364	20096
891.488	20138
891.611	20020
891.734	20027
891.857	20069
891.98	20138
892.103	20081
892.226	20130
892.349	19925
892.471	19791
892.594	19986
892.717	20054
892.839	19852
892.962	19982
893.085	20077
893.207	19955
893.33	19875
893.452	19913
893.575	20069
893.697	19982
893.819	20142
893.941	20073
894.064	20168
894.186	19928
894.308	19875
894.43	20065
894.552	19970
894.674	20138
894.796	19811
894.918	19852
895.04	19845
895.161	20020
895.283	19974
895.405	19826
895.526	19986
895.648	19807
895.769	19947
895.891	19947
896.012	19997
896.134	19947
896.255	19963
896.376	19970
896.498	19830
896.619	20024
896.74	20024
896.861	20027
896.982	20339
897.103	20442
897.224	20122
897.345	20206
897.466	20016
897.587	20180
897.708	20286
897.828	20252
897.949	20115
898.07	20024
898.19	20081
898.311	20240
898.431	20069
898.552	20233
898.672	20130
898.792	20221
898.913	20252
899.033	19944
899.153	19936
899.273	19890
899.393	20103
899.513	19936
899.633	19963
899.753	19982
899.873	19902
899.993	19959
900.113	19883
900.232	19849
900.352	19807
900.472	19875
900.591	19746
900.711	19753
900.83	19677
900.95	19757
901.069	19799
901.189	19609
901.308	19434
901.427	19221
901.546	19354
901.665	19278
901.784	19259
901.904	19072
902.023	19091
902.141	18821
902.26	18909
902.379	18951
902.498	18779
902.617	18825
902.735	18837
902.854	18802
902.973	18711
903.091	18540
903.21	18525
903.328	18547
903.446	18342
903.565	18285
903.683	18323
903.801	18304
903.919	18270
904.038	18232
904.156	18064
904.274	18019
904.392	18003
904.51	18011
904.627	18053
904.745	18030
904.863	18072
904.981	17897
905.098	17767
905.216	17714
905.334	17767
905.451	17752
905.569	17703
905.686	17805
905.803	17707
905.921	17562
906.038	17623
906.155	17551
906.272	17410
906.389	17406
906.506	17261
906.623	17315
906.74	17250
906.857	17155
906.974	17162
907.091	17269
907.208	17406
907.324	17258
907.441	17124
907.557	17113
907.674	16991
907.79	16976
907.907	16858
908.023	16961
908.139	17029
908.256	16949
908.372	16850
908.488	16862
908.604	16675
908.72	16729
908.836	16717
908.952	16672
909.068	16691
909.184	16805
909.3	16736
909.415	16698
909.531	16679
909.647	16394
909.762	16527
909.878	16398
909.993	16386
910.108	16360
910.224	16303
910.339	16306
910.454	16268
910.57	16337
910.685	16120
910.8	16382
910.915	16394
911.03	16128
911.145	16128
911.259	15915
911.374	16101
911.489	15854
911.604	15869
911.718	15778
911.833	15888
911.947	15698
912.062	15599
912.176	15835
912.291	15686
912.405	15732
912.519	15949
912.633	15964
912.748	15751
912.862	15747
912.976	15443
913.09	15481
913.204	15477
913.318	15591
913.431	15606
913.545	15709
913.659	15709
913.772	15542
913.886	15481
914	15313
914.113	15439
914.226	15447
914.34	15485
914.453	15283
914.566	15424
914.68	15222
914.793	15203
914.906	15081
915.019	15066
915.132	14910
915.245	14929
915.358	14956
915.47	14975
915.583	14971
915.696	14979
915.809	15081
915.921	15173
916.034	14842
916.146	14857
916.259	14815
916.371	15039
916.483	14914
916.595	14849
916.708	14826
916.82	14785
916.932	14823
917.044	14651
917.156	14693
917.268	14674
917.38	14708
917.491	14606
917.603	14712
917.715	14629
917.826	14724
917.938	14549
918.049	14503
918.161	14514
918.272	14758
918.384	14670
918.495	14682
918.606	14434
918.717	14328
918.828	14404
918.939	14446
919.05	14294
919.161	14366
919.272	14195
919.383	14256
919.494	14385
919.604	14579
919.715	14385
919.826	14218
919.936	14286
920.047	14393
920.157	14328
920.267	14476
920.378	14446
920.488	14225
920.598	14499
920.708	14640
920.818	14507
920.928	14469
921.038	14663
921.148	14625
921.258	14233
921.368	14336
921.477	14119
921.587	14100
921.697	14024
921.806	14073
921.916	13959
922.025	13818
922.134	13681
922.244	13704
922.353	13811
922.462	13609
922.571	13502
922.68	13457
922.789	13362
922.898	13480
923.007	13350
923.116	13392
923.224	13324
923.333	13320
923.442	13297
923.55	13190
923.659	13293
923.767	13343
923.876	13171
923.984	13274
924.092	13179
924.201	13175
924.309	13168
924.417	13072
924.525	13065
924.633	13129
924.741	13921
924.849	12886
924.956	13000
925.064	12837
925.172	12829
925.279	12768
925.387	12840
925.494	12795
925.602	12977
925.709	12909
925.816	12715
925.924	12791
926.031	12837
926.138	12810
926.245	12798
926.352	12608
926.459	12764
926.566	12757
926.673	12631
926.779	12658
926.886	12582
926.993	12441
927.099	12399
927.206	12391
927.312	12330
927.419	12441
927.525	12475
927.631	12403
927.737	12273
927.843	12205
927.95	12114
928.056	12178
928.162	12194
928.267	12319
928.373	12711
928.479	12285
928.585	11984
928.69	12171
928.796	12190
928.901	12114
929.007	12015
929.112	12140
929.218	12034
929.323	12076
929.428	12011
929.533	12076
929.638	11828
929.743	11843
929.848	11950
929.953	11874
930.058	11767
930.163	11642
930.267	11649
930.372	11798
930.477	11558
930.581	11817
930.685	11665
930.79	11474
930.894	11623
930.998	11524
931.103	11627
931.207	11280
931.311	11143
931.415	11113
931.519	10984
931.623	10934
