Data from test_V78500241_2766.txt Node
Date: Fri Mar 25 15:29:07 CST 2022
User: usil
Spectrometer: V785-0024
Trigger mode: 0
Integration Time (sec): 4.000000E-1
Scans to average: 1
Nonlinearity correction enabled: false
Boxcar width: 0
Storing dark spectrum: false
XAxis mode: Wavelengths
Number of Pixels in Spectrum: 1024
>>>>>Begin Spectral Data<<<<<
801.071	27077
801.214	27062
801.356	26845
801.499	26625
801.641	26640
801.783	26674
801.926	26644
802.068	26568
802.211	26693
802.353	26366
802.496	26294
802.638	26271
802.78	26233
802.923	26233
803.065	26161
803.208	26077
803.35	26309
803.492	26317
803.635	26362
803.777	26419
803.919	26263
804.061	26606
804.204	26355
804.346	26427
804.488	26431
804.63	26473
804.773	26248
804.915	26404
805.057	26473
805.199	26431
805.341	26457
805.483	26583
805.626	26476
805.768	26393
805.91	26594
806.052	26545
806.194	26469
806.336	26518
806.478	26571
806.62	26423
806.762	26495
806.904	26746
807.046	26899
807.188	27108
807.33	27039
807.472	27024
807.614	26792
807.756	26918
807.898	26781
808.04	26648
808.182	26708
808.324	26804
808.465	26891
808.607	27085
808.749	27199
808.891	27116
809.033	27344
809.174	27108
809.316	27085
809.458	27116
809.6	27066
809.741	27199
809.883	27192
810.025	27389
810.166	27466
810.308	27466
810.45	27363
810.591	27211
810.733	27142
810.875	27055
811.016	26986
811.158	27043
811.299	27256
811.441	27310
811.582	27241
811.724	27077
811.865	26956
812.007	27096
812.148	27024
812.29	27093
812.431	27260
812.573	27317
812.714	27401
812.855	27568
812.997	27713
813.138	27869
813.279	27656
813.421	27519
813.562	27500
813.703	27439
813.845	27264
813.986	27017
814.127	26830
814.268	26746
814.41	26773
814.551	26838
814.692	26971
814.833	26758
814.974	26621
815.115	26838
815.256	26686
815.397	26697
815.539	26549
815.68	26545
815.821	26522
815.962	26549
816.103	26484
816.244	26336
816.385	26362
816.526	26271
816.666	26027
816.807	25925
816.948	26172
817.089	26122
817.23	26046
817.371	25898
817.512	26073
817.653	25902
817.793	25955
817.934	25970
818.075	26043
818.216	25970
818.356	25909
818.497	25830
818.638	25674
818.778	25658
818.919	25742
819.06	25860
819.2	25932
819.341	26039
819.481	25887
819.622	26111
819.762	26218
819.903	26202
820.043	26271
820.184	26130
820.324	26142
820.465	26199
820.605	26122
820.746	26046
820.886	25871
821.026	26027
821.167	25974
821.307	26122
821.447	25997
821.588	25814
821.728	25803
821.868	25639
822.008	25556
822.149	25472
822.289	25392
822.429	25088
822.569	25069
822.709	25091
822.849	24981
822.99	24924
823.13	24981
823.27	24821
823.41	24711
823.55	24848
823.69	24646
823.83	24821
823.97	24688
824.11	24536
824.25	24555
824.389	24593
824.529	24555
824.669	24639
824.809	24570
824.949	24722
825.089	24574
825.228	24646
825.368	24429
825.508	24471
825.648	24437
825.787	24414
825.927	24448
826.067	24334
826.206	24448
826.346	24441
826.485	24441
826.625	24403
826.765	24464
826.904	24380
827.044	24235
827.183	24209
827.323	24190
827.462	24239
827.601	24266
827.741	24076
827.88	24213
828.02	24011
828.159	24129
828.298	24178
828.437	24068
828.577	24174
828.716	24346
828.855	23988
828.994	23882
829.134	23798
829.273	23897
829.412	23809
829.551	23855
829.69	23821
829.829	23889
829.968	23813
830.107	23821
830.246	23805
830.385	23638
830.524	23714
830.663	23699
830.802	23585
830.941	23452
831.08	23471
831.219	23444
831.357	23520
831.496	23726
831.635	23482
831.774	23376
831.913	23235
832.051	23364
832.19	23269
832.329	23223
832.467	23220
832.606	23170
832.744	23220
832.883	23064
833.022	23124
833.16	23121
833.299	23170
833.437	23044
833.576	23197
833.714	23258
833.852	23322
833.991	23216
834.129	23330
834.267	23269
834.406	23166
834.544	23208
834.682	23307
834.821	23136
834.959	23273
835.097	23220
835.235	23231
835.373	23162
835.511	23193
835.65	22976
835.788	23132
835.926	22968
836.064	22729
836.202	22839
836.34	23052
836.478	23121
836.615	23102
836.753	22949
836.891	23105
837.029	23064
837.167	23037
837.305	22866
837.443	23037
837.58	22957
837.718	23102
837.856	22984
837.993	22869
838.131	22892
838.269	22725
838.406	22850
838.544	22630
838.681	22516
838.819	22561
838.956	22481
839.094	22436
839.231	22470
839.369	22516
839.506	22812
839.643	22580
839.781	22405
839.918	22379
840.055	22390
840.193	22265
840.33	22253
840.467	22447
840.604	22386
840.742	22455
840.879	22162
841.016	22234
841.153	22074
841.29	22299
841.427	22272
841.564	22310
841.701	22299
841.838	22215
841.975	22059
842.112	22242
842.249	22215
842.385	22181
842.522	22398
842.659	22188
842.796	21972
842.933	22044
843.069	21975
843.206	21979
843.343	22021
843.479	22135
843.616	22002
843.752	21827
843.889	21876
844.025	21975
844.162	21812
844.298	21934
844.435	21827
844.571	21797
844.708	21800
844.844	22006
844.98	22002
845.117	21880
845.253	21755
845.389	21633
845.525	21766
845.661	21831
845.798	21519
845.934	21576
846.07	21599
846.206	21610
846.342	21663
846.478	21526
846.614	21386
846.75	21199
846.886	21317
847.022	21272
847.158	21332
847.294	21207
847.429	21412
847.565	21203
847.701	21523
847.837	21165
847.972	20960
848.108	21077
848.244	21142
848.379	20979
848.515	20830
848.65	20853
848.786	20838
848.921	21013
849.057	20952
849.192	20845
849.328	20899
849.463	20815
849.598	20777
849.734	20861
849.869	20796
850.004	20746
850.14	20686
850.275	20689
850.41	20537
850.545	20609
850.68	20617
850.815	20621
850.95	20632
851.085	20918
851.22	20769
851.355	20720
851.49	20720
851.625	20670
851.76	20663
851.895	20678
852.03	20606
852.165	20686
852.299	20834
852.434	20720
852.569	20712
852.703	20678
852.838	20724
852.973	20727
853.107	20758
853.242	20560
853.376	20564
853.511	20267
853.645	20366
853.78	20693
853.914	20583
854.048	20522
854.183	20427
854.317	20469
854.451	20720
854.585	20415
854.72	20480
854.854	20537
854.988	20419
855.122	20488
855.256	20465
855.39	20446
855.524	20556
855.658	20632
855.792	20454
855.926	20507
856.06	20450
856.194	20503
856.327	20533
856.461	20438
856.595	20343
856.729	20484
856.862	20571
856.996	20495
857.13	20625
857.263	20484
857.397	20556
857.53	20450
857.664	20484
857.797	20556
857.931	20598
858.064	20484
858.197	20583
858.331	20457
858.464	20419
858.597	20431
858.731	20503
858.864	20396
858.997	20488
859.13	20431
859.263	20503
859.396	20514
859.529	20541
859.662	20454
859.795	20461
859.928	20587
860.061	20636
860.194	20689
860.327	20465
860.46	20431
860.592	20640
860.725	20541
860.858	20625
860.99	20400
861.123	20381
861.256	20457
861.388	20412
861.521	20960
861.653	20336
861.786	20347
861.918	20339
862.05	20286
862.183	20381
862.315	20358
862.447	20434
862.58	20404
862.712	20180
862.844	20221
862.976	20180
863.108	20237
863.24	20632
863.372	20035
863.504	20191
863.636	20115
863.768	20157
863.9	20172
864.032	20145
864.164	20069
864.296	20256
864.428	20393
864.559	20248
864.691	20282
864.823	20168
864.954	20100
865.086	20161
865.217	20107
865.349	19997
865.48	20122
865.612	20233
865.743	20278
865.875	20168
866.006	20031
866.137	20187
866.269	20062
866.4	20088
866.531	20077
866.662	19928
866.793	20039
866.924	20119
867.055	20168
867.186	20050
867.317	19936
867.448	19906
867.579	20073
867.71	20035
867.841	20020
867.972	19989
868.103	20088
868.233	20069
868.364	20054
868.495	20263
868.625	20358
868.756	20233
868.886	20221
869.017	20187
869.147	20412
869.278	20366
869.408	20366
869.539	20336
869.669	20275
869.799	20389
869.929	20419
870.06	20317
870.19	20488
870.32	20412
870.45	20720
870.58	20644
870.71	20754
870.84	20651
870.97	20686
871.1	20693
871.23	20830
871.36	20941
871.489	20750
871.619	20785
871.749	20796
871.879	20937
872.008	21100
872.138	20948
872.267	20967
872.397	20781
872.526	20644
872.656	20686
872.785	20819
872.915	20895
873.044	20952
873.173	20883
873.303	20872
873.432	20925
873.561	20986
873.69	21009
873.819	20887
873.948	20902
874.077	20857
874.206	20925
874.335	20906
874.464	21058
874.593	21207
874.722	21100
874.851	21211
874.979	21096
875.108	21116
875.237	21135
875.365	20971
875.494	21146
875.623	21176
875.751	21070
875.88	21150
876.008	21420
876.136	21268
876.265	21439
876.393	21728
876.521	21781
876.65	21701
876.778	21557
876.906	21412
877.034	21557
877.162	21450
877.29	21462
877.418	21618
877.546	21511
877.674	21500
877.802	21412
877.93	21477
878.058	21454
878.185	21367
878.313	21481
878.441	21580
878.568	21363
878.696	21469
878.824	21534
878.951	21614
879.079	21812
879.206	21785
879.333	21633
879.461	21553
879.588	21557
879.715	21686
879.842	21838
879.97	21545
880.097	21275
880.224	21264
880.351	21313
880.478	21363
880.605	21291
880.732	21412
880.859	21595
880.986	21306
881.112	21287
881.239	21188
881.366	21165
881.493	20990
881.619	20944
881.746	20845
881.872	20921
881.999	20845
882.125	20925
882.252	20921
882.378	20868
882.505	21020
882.631	20823
882.757	20689
882.883	20815
883.01	20609
883.136	20556
883.262	20484
883.388	20419
883.514	20590
883.64	20731
883.766	20594
883.892	20313
884.018	20309
884.143	20640
884.269	20674
884.395	20400
884.52	20309
884.646	20286
884.772	20248
884.897	20225
885.023	20244
885.148	20305
885.274	20393
885.399	20313
885.524	20240
885.65	20248
885.775	20389
885.9	20301
886.025	20415
886.15	20286
886.275	20259
886.4	20103
886.525	20221
886.65	20130
886.775	20126
886.9	20389
887.025	20469
887.149	20366
887.274	19989
887.399	20115
887.523	20115
887.648	19989
887.773	19967
887.897	20122
888.021	20069
888.146	20031
888.27	20210
888.395	20263
888.519	20142
888.643	20084
888.767	20084
888.891	19959
889.015	19944
889.139	19913
889.263	19814
889.387	19906
889.511	19997
889.635	19883
889.759	19932
889.883	19826
890.006	19814
890.13	19940
890.254	19860
890.377	19761
890.501	19689
890.624	19639
890.748	19689
890.871	19525
890.995	19601
891.118	19396
891.241	19491
891.364	19518
891.488	19563
891.611	19510
891.734	19445
891.857	19480
891.98	19381
892.103	19647
892.226	19483
892.349	19476
892.471	19202
892.594	19362
892.717	19400
892.839	19316
892.962	19247
893.085	19377
893.207	19407
893.33	19168
893.452	19346
893.575	19502
893.697	19373
893.819	19544
893.941	19506
894.064	19502
894.186	19255
894.308	19301
894.43	19499
894.552	19403
894.674	19502
894.796	19240
894.918	19373
895.04	19251
895.161	19384
895.283	19441
895.405	19240
895.526	19331
895.648	19369
895.769	19415
895.891	19415
896.012	19396
896.134	19373
896.255	19445
896.376	19304
896.498	19282
896.619	19346
896.74	19438
896.861	19434
896.982	19620
897.103	19852
897.224	19655
897.345	19620
897.466	19594
897.587	19537
897.708	19734
897.828	19674
897.949	19674
898.07	19445
898.19	19502
898.311	19632
898.431	19495
898.552	19624
898.672	19731
898.792	19628
898.913	19712
899.033	19559
899.153	19388
899.273	19289
899.393	19460
899.513	19483
899.633	19499
899.753	19441
899.873	19381
899.993	19320
900.113	19384
900.232	19320
900.352	19259
900.472	19228
900.591	19057
900.711	19339
900.83	19072
900.95	19244
901.069	19274
901.189	19019
901.308	18738
901.427	18795
901.546	18753
901.665	18894
901.784	18817
901.904	18601
902.023	18547
902.141	18338
902.26	18304
902.379	18353
902.498	18194
902.617	18277
902.735	18308
902.854	18273
902.973	18171
903.091	17954
903.21	17878
903.328	17954
903.446	17813
903.565	17821
903.683	17855
903.801	17684
903.919	17649
904.038	17726
904.156	17551
904.274	17680
904.392	17528
904.51	17459
904.627	17562
904.745	17566
904.863	17703
904.981	17353
905.098	17242
905.216	17166
905.334	17318
905.451	17166
905.569	17193
905.686	17185
905.803	17239
905.921	17045
906.038	16984
906.155	17006
906.272	16843
906.389	16984
906.506	16748
906.623	16717
906.74	16744
906.857	16672
906.974	16630
907.091	16736
907.208	16961
907.324	16755
907.441	16637
907.557	16512
907.674	16466
907.79	16390
907.907	16398
908.023	16565
908.139	16478
908.256	16405
908.372	16481
908.488	16303
908.604	16329
908.72	16185
908.836	16287
908.952	16211
909.068	16112
909.184	16348
909.3	16185
909.415	16295
909.531	16207
909.647	16017
909.762	15888
909.878	15907
909.993	15888
910.108	16017
910.224	15918
910.339	15926
910.454	15663
910.57	15720
910.685	15637
910.8	15949
910.915	15827
911.03	15793
911.145	15690
911.259	15507
911.374	15526
911.489	15542
911.604	15386
911.718	15351
911.833	15321
911.947	15207
912.062	15142
912.176	15237
912.291	15355
912.405	15291
912.519	15591
912.633	15526
912.748	15488
912.862	15359
912.976	15100
913.09	14910
913.204	14986
913.318	15104
913.431	15237
913.545	15116
913.659	15131
913.772	15138
913.886	14990
914	14845
914.113	15020
914.226	15077
914.34	15100
914.453	14834
914.566	14933
914.68	14845
914.793	14845
914.906	14590
915.019	14549
915.132	14446
915.245	14537
915.358	14533
915.47	14560
915.583	14552
915.696	14541
915.809	14621
915.921	14613
916.034	14457
916.146	14461
916.259	14438
916.371	14526
916.483	14393
916.595	14294
916.708	14404
916.82	14427
916.932	14248
917.044	14377
917.156	14336
917.268	14157
917.38	14221
917.491	14134
917.603	14202
917.715	14317
917.826	14381
917.938	14107
918.049	14145
918.161	14161
918.272	14290
918.384	14248
918.495	14164
918.606	14039
918.717	13951
918.828	14024
918.939	13936
919.05	13917
919.161	13947
919.272	13723
919.383	13875
919.494	14005
919.604	14092
919.715	13944
919.826	13868
919.936	13921
920.047	14035
920.157	13906
920.267	14107
920.378	14054
920.488	13871
920.598	14073
920.708	14206
920.818	14100
920.928	14043
921.038	14240
921.148	14210
921.258	13898
921.368	13845
921.477	13738
921.587	13715
921.697	13552
921.806	13704
921.916	13521
922.025	13312
922.134	13362
922.244	13362
922.353	13430
922.462	13202
922.571	13202
922.68	12981
922.789	12970
922.898	12985
923.007	13012
923.116	13019
923.224	12985
923.333	12905
923.442	12939
923.55	12730
923.659	12859
923.767	12852
923.876	12802
923.984	12913
924.092	12749
924.201	12779
924.309	12772
924.417	12631
924.525	12734
924.633	12772
924.741	13643
924.849	12479
924.956	12597
925.064	12460
925.172	12456
925.279	12433
925.387	12517
925.494	12399
925.602	12673
925.709	12498
925.816	12426
925.924	12452
926.031	12559
926.138	12448
926.245	12429
926.352	12262
926.459	12502
926.566	12456
926.673	12334
926.779	12201
926.886	12197
926.993	12072
927.099	11977
927.206	11980
927.312	11912
927.419	12083
927.525	12015
927.631	11965
927.737	11946
927.843	11885
927.95	11783
928.056	11889
928.162	11882
928.267	11817
928.373	12509
928.479	11942
928.585	11729
928.69	11889
928.796	11874
928.901	11760
929.007	11581
929.112	11703
929.218	11703
929.323	11615
929.428	11596
929.533	11764
929.638	11558
929.743	11573
929.848	11551
929.953	11551
930.058	11395
930.163	11269
930.267	11368
930.372	11474
930.477	11280
930.581	11471
930.685	11398
930.79	11239
930.894	11242
930.998	11151
931.103	11269
931.207	10904
931.311	10927
931.415	10786
931.519	10649
931.623	10527
