Data from test_V78500241_3291.txt Node
Date: Fri Mar 25 15:32:46 CST 2022
User: usil
Spectrometer: V785-0024
Trigger mode: 0
Integration Time (sec): 4.000000E-1
Scans to average: 1
Nonlinearity correction enabled: false
Boxcar width: 0
Storing dark spectrum: false
XAxis mode: Wavelengths
Number of Pixels in Spectrum: 1024
>>>>>Begin Spectral Data<<<<<
801.071	27264
801.214	27283
801.356	27096
801.499	26986
801.641	26845
801.783	26842
801.926	26880
802.068	26914
802.211	26724
802.353	26826
802.496	26575
802.638	26549
802.78	26568
802.923	26419
803.065	26358
803.208	26408
803.35	26640
803.492	26705
803.635	26716
803.777	26590
803.919	26686
804.061	26975
804.204	26667
804.346	26625
804.488	26511
804.63	26716
804.773	26488
804.915	26670
805.057	26697
805.199	26674
805.341	26598
805.483	26716
805.626	26678
805.768	26678
805.91	26689
806.052	26940
806.194	26727
806.336	26963
806.478	26746
806.62	26735
806.762	26902
806.904	27176
807.046	27344
807.188	27279
807.33	27173
807.472	27348
807.614	27249
807.756	27112
807.898	27142
808.04	26929
808.182	26952
808.324	27188
808.465	27127
808.607	27279
808.749	27348
808.891	27519
809.033	27545
809.174	27389
809.316	27325
809.458	27408
809.6	27401
809.741	27450
809.883	27549
810.025	27648
810.166	27618
810.308	27614
810.45	27496
810.591	27580
810.733	27405
810.875	27329
811.016	27325
811.158	27291
811.299	27386
811.441	27675
811.582	27545
811.724	27496
811.865	27340
812.007	27412
812.148	27389
812.29	27405
812.431	27469
812.573	27675
812.714	27686
812.855	27914
812.997	27892
813.138	28188
813.279	27934
813.421	27709
813.562	27892
813.703	27648
813.845	27447
813.986	27230
814.127	27165
814.268	26933
814.41	27005
814.551	26948
814.692	27055
814.833	27028
814.974	27077
815.115	27051
815.256	26804
815.397	26830
815.539	26994
815.68	26937
815.821	26701
815.962	26815
816.103	26697
816.244	26644
816.385	26663
816.526	26583
816.666	26419
816.807	26332
816.948	26389
817.089	26317
817.23	26237
817.371	26172
817.512	26259
817.653	26233
817.793	26298
817.934	26320
818.075	26328
818.216	26419
818.356	26073
818.497	26195
818.638	26008
818.778	26005
818.919	26103
819.06	25978
819.2	26084
819.341	26256
819.481	26263
819.622	26434
819.762	26568
819.903	26579
820.043	26415
820.184	26393
820.324	26457
820.465	26484
820.605	26377
820.746	26476
820.886	26377
821.026	26339
821.167	26317
821.307	26229
821.447	26263
821.588	26244
821.728	26138
821.868	25909
822.008	25837
822.149	25788
822.289	25670
822.429	25548
822.569	25327
822.709	25430
822.849	25194
822.99	25308
823.13	25091
823.27	25160
823.41	25232
823.55	25137
823.69	25164
823.83	25126
823.97	25050
824.11	24951
824.25	24795
824.389	24852
824.529	25019
824.669	24894
824.809	25088
824.949	25160
825.089	24928
825.228	24947
825.368	24878
825.508	24810
825.648	24658
825.787	24878
825.927	24867
826.067	24665
826.206	24745
826.346	24920
826.485	24890
826.625	24878
826.765	24916
826.904	24970
827.044	24570
827.183	24623
827.323	24490
827.462	24547
827.601	24677
827.741	24391
827.88	24601
828.02	24448
828.159	24521
828.298	24483
828.437	24570
828.577	24410
828.716	24574
828.855	24369
828.994	24308
829.134	24304
829.273	24247
829.412	24167
829.551	24171
829.69	24273
829.829	24186
829.968	24273
830.107	24292
830.246	24266
830.385	24205
830.524	24102
830.663	24079
830.802	23958
830.941	23901
831.08	23783
831.219	23851
831.357	24022
831.496	24133
831.635	23920
831.774	23893
831.913	23573
832.051	23661
832.19	23512
832.329	23566
832.467	23547
832.606	23478
832.744	23577
832.883	23509
833.022	23425
833.16	23558
833.299	23528
833.437	23459
833.576	23528
833.714	23623
833.852	23718
833.991	23615
834.129	23585
834.267	23767
834.406	23604
834.544	23642
834.682	23642
834.821	23551
834.959	23608
835.097	23573
835.235	23608
835.373	23615
835.511	23600
835.65	23433
835.788	23356
835.926	23318
836.064	23117
836.202	23395
836.34	23341
836.478	23402
836.615	23292
836.753	23543
836.891	23459
837.029	23463
837.167	23360
837.305	23227
837.443	23143
837.58	23246
837.718	23459
837.856	23330
837.993	23102
838.131	23356
838.269	23140
838.406	23216
838.544	23060
838.681	22995
838.819	22873
838.956	22748
839.094	22831
839.231	22767
839.369	22961
839.506	23140
839.643	22976
839.781	22660
839.918	22546
840.055	22721
840.193	22828
840.33	22603
840.467	22759
840.604	22656
840.742	23006
840.879	22550
841.016	22672
841.153	22592
841.29	22713
841.427	22763
841.564	22584
841.701	22634
841.838	22554
841.975	22538
842.112	22653
842.249	22573
842.385	22493
842.522	22653
842.659	22462
842.796	22538
842.933	22451
843.069	22363
843.206	22284
843.343	22546
843.479	22440
843.616	22325
843.752	22135
843.889	22200
844.025	22432
844.162	22124
844.298	22249
844.435	22249
844.571	22211
844.708	22394
844.844	22451
844.98	22440
845.117	22295
845.253	22074
845.389	22044
845.525	22131
845.661	22105
845.798	21930
845.934	21895
846.07	21994
846.206	22048
846.342	22055
846.478	21960
846.614	21846
846.75	21671
846.886	21675
847.022	21747
847.158	21739
847.294	21759
847.429	21781
847.565	21690
847.701	21838
847.837	21507
847.972	21370
848.108	21439
848.244	21488
848.379	21344
848.515	21344
848.65	21260
848.786	21359
848.921	21287
849.057	21313
849.192	21431
849.328	21420
849.463	21298
849.598	21237
849.734	21173
849.869	21154
850.004	21032
850.14	21142
850.275	21051
850.41	21017
850.545	20952
850.68	21043
850.815	21131
850.95	21066
851.085	21150
851.22	21214
851.355	21055
851.49	21058
851.625	21074
851.76	21066
851.895	20990
852.03	20937
852.165	21108
852.299	21077
852.434	21157
852.569	21108
852.703	21108
852.838	21070
852.973	21066
853.107	21203
853.242	21036
853.376	20880
853.511	20800
853.645	20887
853.78	20921
853.914	20967
854.048	20933
854.183	20781
854.317	20979
854.451	21146
854.585	20902
854.72	20819
854.854	20967
854.988	20887
855.122	20834
855.256	20663
855.39	20819
855.524	21024
855.658	20906
855.792	20956
855.926	20792
856.06	20960
856.194	20948
856.327	20807
856.461	20842
856.595	20769
856.729	20815
856.862	21032
856.996	20941
857.13	20967
857.263	21013
857.397	20887
857.53	20872
857.664	20880
857.797	21005
857.931	20948
858.064	20925
858.197	21020
858.331	20807
858.464	20750
858.597	20823
858.731	20834
858.864	20739
858.997	20906
859.13	20842
859.263	20861
859.396	20956
859.529	20895
859.662	20861
859.795	20792
859.928	20853
860.061	21077
860.194	20975
860.327	20994
860.46	20853
860.592	20960
860.725	21100
860.858	21096
860.99	20918
861.123	20724
861.256	20804
861.388	20823
861.521	21599
861.653	20716
861.786	20625
861.918	20746
862.05	20667
862.183	20788
862.315	20754
862.447	20857
862.58	20914
862.712	20632
862.844	20583
862.976	20667
863.108	20632
863.24	21085
863.372	20594
863.504	20629
863.636	20609
863.768	20549
863.9	20617
864.032	20598
864.164	20499
864.296	20644
864.428	20727
864.559	20655
864.691	20720
864.823	20625
864.954	20575
865.086	20583
865.217	20511
865.349	20522
865.48	20499
865.612	20427
865.743	20609
865.875	20667
866.006	20492
866.137	20552
866.269	20492
866.4	20499
866.531	20457
866.662	20457
866.793	20442
866.924	20381
867.055	20400
867.186	20423
867.317	20385
867.448	20419
867.579	20301
867.71	20370
867.841	20450
867.972	20526
868.103	20511
868.233	20518
868.364	20408
868.495	20644
868.625	20655
868.756	20838
868.886	20606
869.017	20697
869.147	20724
869.278	20842
869.408	20785
869.539	20678
869.669	20796
869.799	20701
869.929	20758
870.06	20621
870.19	21028
870.32	20921
870.45	20933
870.58	21195
870.71	21218
870.84	21165
870.97	21096
871.1	20994
871.23	21291
871.36	21180
871.489	21203
871.619	21207
871.749	21340
871.879	21329
872.008	21359
872.138	21275
872.267	21359
872.397	21009
872.526	21173
872.656	21195
872.785	21230
872.915	21260
873.044	21420
873.173	21405
873.303	21287
873.432	21393
873.561	21268
873.69	21355
873.819	21275
873.948	21283
874.077	21355
874.206	21165
874.335	21218
874.464	21336
874.593	21557
874.722	21496
874.851	21477
874.979	21587
875.108	21530
875.237	21477
875.365	21443
875.494	21492
875.623	21698
875.751	21507
875.88	21610
876.008	21686
876.136	21766
876.265	21930
876.393	21987
876.521	21911
876.65	22082
876.778	21915
876.906	21846
877.034	21854
877.162	21949
877.29	21892
877.418	21945
877.546	22002
877.674	21899
877.802	21937
877.93	21865
878.058	21804
878.185	21808
878.313	21812
878.441	21819
878.568	21633
878.696	21808
878.824	21968
878.951	21907
879.079	22036
879.206	22284
879.333	22006
879.461	21934
879.588	22013
879.715	22131
879.842	22109
879.97	21945
880.097	21804
880.224	21732
880.351	21876
880.478	21797
880.605	21682
880.732	21709
880.859	21975
880.986	21781
881.112	21606
881.239	21599
881.366	21450
881.493	21378
881.619	21336
881.746	21416
881.872	21310
881.999	21355
882.125	21218
882.252	21203
882.378	21218
882.505	21420
882.631	21104
882.757	20994
882.883	20994
883.01	20941
883.136	21009
883.262	20842
883.388	20918
883.514	21077
883.64	20998
883.766	20956
883.892	20773
884.018	20819
884.143	20937
884.269	21024
884.395	20792
884.52	20606
884.646	20682
884.772	20663
884.897	20575
885.023	20629
885.148	20682
885.274	20739
885.399	20678
885.524	20644
885.65	20598
885.775	20739
885.9	20735
886.025	20667
886.15	20811
886.275	20678
886.4	20533
886.525	20568
886.65	20621
886.775	20480
886.9	20651
887.025	20781
887.149	20568
887.274	20434
887.399	20469
887.523	20366
887.648	20438
887.773	20248
887.897	20438
888.021	20480
888.146	20313
888.27	20518
888.395	20503
888.519	20355
888.643	20492
888.767	20389
888.891	20396
889.015	20210
889.139	20328
889.263	20100
889.387	20290
889.511	20560
889.635	20267
889.759	20183
889.883	20164
890.006	20267
890.13	20389
890.254	20183
890.377	20153
890.501	19959
890.624	20012
890.748	20035
890.871	19997
890.995	19837
891.118	19776
891.241	19776
891.364	19750
891.488	20020
891.611	19940
891.734	19765
891.857	19738
891.98	19750
892.103	19719
892.226	19765
892.349	19715
892.471	19655
892.594	19594
892.717	19837
892.839	19738
892.962	19601
893.085	19837
893.207	19655
893.33	19472
893.452	19632
893.575	19746
893.697	19715
893.819	19883
893.941	19913
894.064	19913
894.186	19624
894.308	19651
894.43	19822
894.552	19841
894.674	19925
894.796	19628
894.918	19776
895.04	19624
895.161	19772
895.283	19734
895.405	19643
895.526	19738
895.648	19727
895.769	19708
895.891	19784
896.012	19856
896.134	19761
896.255	19818
896.376	19738
896.498	19696
896.619	19693
896.74	19666
896.861	19776
896.982	20031
897.103	20050
897.224	20050
897.345	20027
897.466	19894
897.587	19909
897.708	20145
897.828	19997
897.949	19947
898.07	19849
898.19	19864
898.311	20008
898.431	19902
898.552	19936
898.672	19970
898.792	19967
898.913	19936
899.033	19772
899.153	19765
899.273	19616
899.393	19731
899.513	19818
899.633	19723
899.753	19700
899.873	19712
899.993	19658
900.113	19616
900.232	19761
900.352	19525
900.472	19518
900.591	19388
900.711	19499
900.83	19381
900.95	19529
901.069	19563
901.189	19392
901.308	19137
901.427	18954
901.546	19133
901.665	19088
901.784	19069
901.904	18951
902.023	18821
902.141	18585
902.26	18601
902.379	18620
902.498	18635
902.617	18639
902.735	18658
902.854	18620
902.973	18426
903.091	18308
903.21	18273
903.328	18254
903.446	18163
903.565	18095
903.683	18049
903.801	18030
903.919	18095
904.038	18045
904.156	17775
904.274	17870
904.392	17851
904.51	17817
904.627	17798
904.745	17904
904.863	17912
904.981	17638
905.098	17577
905.216	17463
905.334	17490
905.451	17532
905.569	17535
905.686	17577
905.803	17482
905.921	17429
906.038	17372
906.155	17387
906.272	17086
906.389	17193
906.506	17064
906.623	17086
906.74	16984
906.857	16911
906.974	17006
907.091	17193
907.208	17079
907.324	17045
907.441	16892
907.557	16805
907.674	16736
907.79	16801
907.907	16778
908.023	16725
908.139	16889
908.256	16843
908.372	16706
908.488	16672
908.604	16542
908.72	16523
908.836	16500
908.952	16424
909.068	16508
909.184	16550
909.3	16493
909.415	16500
909.531	16558
909.647	16257
909.762	16200
909.878	16280
909.993	16219
910.108	16135
910.224	16120
910.339	16230
910.454	15979
910.57	15960
910.685	15895
910.8	16226
910.915	16173
911.03	15994
911.145	15846
911.259	15751
911.374	15819
911.489	15739
911.604	15644
911.718	15584
911.833	15564
911.947	15473
912.062	15450
912.176	15485
912.291	15564
912.405	15644
912.519	15724
912.633	15861
912.748	15709
912.862	15523
912.976	15443
913.09	15237
913.204	15306
913.318	15389
913.431	15488
913.545	15488
913.659	15492
913.772	15321
913.886	15157
914	15188
914.113	15298
914.226	15241
914.34	15260
914.453	15055
914.566	15180
914.68	15112
914.793	15047
914.906	14944
915.019	14773
915.132	14788
915.245	14788
915.358	14750
915.47	14750
915.583	14777
915.696	14807
915.809	14956
915.921	14902
916.034	14720
916.146	14708
916.259	14743
916.371	14868
916.483	14788
916.595	14606
916.708	14606
916.82	14587
916.932	14602
917.044	14606
917.156	14537
917.268	14518
917.38	14495
917.491	14514
917.603	14480
917.715	14541
917.826	14530
917.938	14419
918.049	14278
918.161	14473
918.272	14594
918.384	14511
918.495	14362
918.606	14271
918.717	14206
918.828	14210
918.939	14233
919.05	14062
919.161	14107
919.272	14039
919.383	14111
919.494	14248
919.604	14423
919.715	14237
919.826	14111
919.936	14252
920.047	14267
920.157	14290
920.267	14408
920.378	14240
920.488	14096
920.598	14267
920.708	14590
920.818	14263
920.928	14233
921.038	14412
921.148	14389
921.258	14157
921.368	14100
921.477	14020
921.587	13894
921.697	13849
921.806	13940
921.916	13750
922.025	13575
922.134	13624
922.244	13632
922.353	13613
922.462	13480
922.571	13396
922.68	13266
922.789	13206
922.898	13221
923.007	13141
923.116	13263
923.224	13255
923.333	13225
923.442	13080
923.55	13012
923.659	13122
923.767	13129
923.876	13004
923.984	13072
924.092	12837
924.201	12993
924.309	12977
924.417	12958
924.525	12920
924.633	12981
924.741	13841
924.849	12707
924.956	12791
925.064	12696
925.172	12642
925.279	12665
925.387	12665
925.494	12620
925.602	12768
925.709	12665
925.816	12555
925.924	12570
926.031	12608
926.138	12654
926.245	12665
926.352	12555
926.459	12654
926.566	12681
926.673	12540
926.779	12418
926.886	12471
926.993	12399
927.099	12205
927.206	12182
927.312	12144
927.419	12277
927.525	12285
927.631	12197
927.737	12057
927.843	12064
927.95	11996
928.056	12095
928.162	12049
928.267	12072
928.373	12791
928.479	12125
928.585	11931
928.69	12049
928.796	12060
928.901	11958
929.007	11824
929.112	11942
929.218	11874
929.323	11824
929.428	11733
929.533	11954
929.638	11794
929.743	11790
929.848	11866
929.953	11786
930.058	11676
930.163	11440
930.267	11516
930.372	11653
930.477	11452
930.581	11707
930.685	11554
930.79	11349
930.894	11444
930.998	11326
931.103	11459
931.207	11162
931.311	11045
931.415	11010
931.519	10744
931.623	10755
