Data from test_V78500241_1223.txt Node
Date: Fri Mar 25 15:18:22 CST 2022
User: usil
Spectrometer: V785-0024
Trigger mode: 0
Integration Time (sec): 4.000000E-1
Scans to average: 1
Nonlinearity correction enabled: false
Boxcar width: 0
Storing dark spectrum: false
XAxis mode: Wavelengths
Number of Pixels in Spectrum: 1024
>>>>>Begin Spectral Data<<<<<
801.071	28192
801.214	28124
801.356	27918
801.499	27827
801.641	27690
801.783	27781
801.926	27732
802.068	27717
802.211	27580
802.353	27671
802.496	27408
802.638	27367
802.78	27332
802.923	27496
803.065	27348
803.208	27348
803.35	27466
803.492	27576
803.635	27534
803.777	27492
803.919	27603
804.061	28002
804.204	27519
804.346	27583
804.488	27561
804.63	27732
804.773	27469
804.915	27755
805.057	27717
805.199	27644
805.341	27671
805.483	27724
805.626	27667
805.768	27625
805.91	27819
806.052	27797
806.194	27808
806.336	27941
806.478	27797
806.62	27842
806.762	27941
806.904	28097
807.046	28223
807.188	28265
807.33	28238
807.472	28169
807.614	28249
807.756	28143
807.898	28143
808.04	27911
808.182	28006
808.324	27964
808.465	28238
808.607	28169
808.749	28390
808.891	28500
809.033	28592
809.174	28462
809.316	28443
809.458	28485
809.6	28455
809.741	28561
809.883	28561
810.025	28694
810.166	28721
810.308	28706
810.45	28634
810.591	28668
810.733	28451
810.875	28508
811.016	28379
811.158	28238
811.299	28561
811.441	28656
811.582	28546
811.724	28440
811.865	28333
812.007	28618
812.148	28436
812.29	28466
812.431	28481
812.573	28744
812.714	28881
812.855	28968
812.997	29071
813.138	29181
813.279	28980
813.421	28991
813.562	28866
813.703	28881
813.845	28656
813.986	28459
814.127	28169
814.268	28067
814.41	28295
814.551	28101
814.692	28204
814.833	28036
814.974	28154
815.115	28143
815.256	27907
815.397	27857
815.539	27994
815.68	27880
815.821	27876
815.962	27953
816.103	28051
816.244	27827
816.385	27827
816.526	27724
816.666	27542
816.807	27454
816.948	27462
817.089	27481
817.23	27431
817.371	27492
817.512	27515
817.653	27378
817.793	27389
817.934	27435
818.075	27458
818.216	27427
818.356	27412
818.497	27310
818.638	27199
818.778	27211
818.919	27275
819.06	27302
819.2	27374
819.341	27408
819.481	27420
819.622	27808
819.762	27781
819.903	27717
820.043	27694
820.184	27618
820.324	27618
820.465	27713
820.605	27583
820.746	27599
820.886	27492
821.026	27538
821.167	27447
821.307	27648
821.447	27610
821.588	27298
821.728	27332
821.868	27096
822.008	26899
822.149	26826
822.289	26914
822.429	26781
822.569	26530
822.709	26667
822.849	26499
822.99	26514
823.13	26423
823.27	26461
823.41	26046
823.55	26252
823.69	26301
823.83	26282
823.97	26115
824.11	26043
824.25	26119
824.389	26081
824.529	26161
824.669	26161
824.809	26187
824.949	26233
825.089	26214
825.228	26103
825.368	25932
825.508	25982
825.648	26065
825.787	25974
825.927	26020
826.067	25959
826.206	25936
826.346	26016
826.485	25978
826.625	26012
826.765	26054
826.904	25989
827.044	25738
827.183	25689
827.323	25700
827.462	25765
827.601	25871
827.741	25727
827.88	25700
828.02	25674
828.159	25670
828.298	25799
828.437	25871
828.577	25635
828.716	25871
828.855	25605
828.994	25537
829.134	25571
829.273	25384
829.412	25449
829.551	25457
829.69	25369
829.829	25540
829.968	25518
830.107	25510
830.246	25392
830.385	25335
830.524	25297
830.663	25282
830.802	25152
830.941	25027
831.08	24973
831.219	25213
831.357	25046
831.496	25289
831.635	25103
831.774	25099
831.913	24821
832.051	24890
832.19	24894
832.329	25031
832.467	24760
832.606	24715
832.744	24700
832.883	24726
833.022	24635
833.16	24760
833.299	24684
833.437	24825
833.576	24806
833.714	24741
833.852	24856
833.991	24856
834.129	24943
834.267	24821
834.406	24726
834.544	24814
834.682	24810
834.821	24764
834.959	24992
835.097	24700
835.235	24928
835.373	24715
835.511	24776
835.65	24711
835.788	24677
835.926	24574
836.064	24456
836.202	24517
836.34	24608
836.478	24574
836.615	24597
836.753	24582
836.891	24772
837.029	24639
837.167	24532
837.305	24559
837.443	24623
837.58	24433
837.718	24467
837.856	24551
837.993	24365
838.131	24380
838.269	24323
838.406	24490
838.544	24330
838.681	24030
838.819	24117
838.956	23916
839.094	23935
839.231	23961
839.369	23961
839.506	24243
839.643	24087
839.781	24049
839.918	23817
840.055	23859
840.193	23958
840.33	23828
840.467	23889
840.604	23927
840.742	24190
840.879	23733
841.016	23767
841.153	23809
841.29	23927
841.427	23821
841.564	23805
841.701	23935
841.838	23870
841.975	23863
842.112	23828
842.249	23600
842.385	23600
842.522	23767
842.659	23718
842.796	23566
842.933	23619
843.069	23653
843.206	23596
843.343	23520
843.479	23619
843.616	23649
843.752	23429
843.889	23520
844.025	23657
844.162	23383
844.298	23551
844.435	23372
844.571	23299
844.708	23440
844.844	23509
844.98	23452
845.117	23547
845.253	23341
845.389	23311
845.525	23292
845.661	23269
845.798	23067
845.934	23083
846.07	22991
846.206	23155
846.342	23071
846.478	23159
846.614	23022
846.75	22820
846.886	22706
847.022	22873
847.158	22873
847.294	22854
847.429	22934
847.565	22809
847.701	23075
847.837	22565
847.972	22538
848.108	22675
848.244	22584
848.379	22489
848.515	22459
848.65	22466
848.786	22443
848.921	22447
849.057	22508
849.192	22459
849.328	22428
849.463	22409
849.598	22333
849.734	22280
849.869	22124
850.004	22249
850.14	22166
850.275	22242
850.41	22101
850.545	22086
850.68	22223
850.815	22215
850.95	22314
851.085	22348
851.22	22196
851.355	22200
851.49	22192
851.625	22131
851.76	22112
851.895	22124
852.03	22162
852.165	22295
852.299	22120
852.434	22303
852.569	22310
852.703	22150
852.838	22333
852.973	22272
853.107	22291
853.242	21987
853.376	22048
853.511	21816
853.645	22101
853.78	22223
853.914	22044
854.048	22017
854.183	22082
854.317	21922
854.451	22242
854.585	21941
854.72	21915
854.854	22090
854.988	21865
855.122	22097
855.256	21922
855.39	22029
855.524	21979
855.658	22074
855.792	22063
855.926	21945
856.06	21983
856.194	22082
856.327	22036
856.461	21865
856.595	21960
856.729	21937
856.862	22177
856.996	21918
857.13	22070
857.263	22006
857.397	22051
857.53	22097
857.664	22051
857.797	22006
857.931	22215
858.064	22040
858.197	22131
858.331	21968
858.464	21880
858.597	21911
858.731	21934
858.864	21926
858.997	21888
859.13	21956
859.263	21934
859.396	22177
859.529	22150
859.662	21953
859.795	21960
859.928	21960
860.061	22154
860.194	22082
860.327	22116
860.46	21998
860.592	22128
860.725	22215
860.858	22200
860.99	22078
861.123	21899
861.256	21915
861.388	22135
861.521	22896
861.653	21804
861.786	21812
861.918	21797
862.05	21884
862.183	21922
862.315	21873
862.447	22112
862.58	21895
862.712	21797
862.844	21648
862.976	21827
863.108	21743
863.24	22059
863.372	21633
863.504	21694
863.636	21606
863.768	21637
863.9	21671
864.032	21606
864.164	21694
864.296	21629
864.428	21823
864.559	21671
864.691	21701
864.823	21675
864.954	21614
865.086	21679
865.217	21686
865.349	21549
865.48	21397
865.612	21690
865.743	21766
865.875	21614
866.006	21549
866.137	21553
866.269	21622
866.4	21466
866.531	21530
866.662	21523
866.793	21462
866.924	21485
867.055	21424
867.186	21477
867.317	21477
867.448	21488
867.579	21485
867.71	21454
867.841	21458
867.972	21443
868.103	21595
868.233	21534
868.364	21469
868.495	21564
868.625	21686
868.756	21816
868.886	21804
869.017	21698
869.147	21911
869.278	21827
869.408	21717
869.539	21766
869.669	21854
869.799	21781
869.929	21884
870.06	21835
870.19	21857
870.32	22067
870.45	22048
870.58	22109
870.71	22265
870.84	22211
870.97	22162
871.1	22207
871.23	22333
871.36	22367
871.489	22242
871.619	22386
871.749	22413
871.879	22360
872.008	22428
872.138	22295
872.267	22367
872.397	22173
872.526	22154
872.656	22074
872.785	22230
872.915	22325
873.044	22303
873.173	22352
873.303	22356
873.432	22413
873.561	22436
873.69	22371
873.819	22443
873.948	22451
874.077	22363
874.206	22215
874.335	22284
874.464	22424
874.593	22519
874.722	22519
874.851	22736
874.979	22470
875.108	22542
875.237	22519
875.365	22516
875.494	22527
875.623	22538
875.751	22546
875.88	22588
876.008	22710
876.136	22698
876.265	22881
876.393	22938
876.521	22949
876.65	23003
876.778	22877
876.906	22797
877.034	22984
877.162	22889
877.29	22934
877.418	22847
877.546	22949
877.674	23029
877.802	22991
877.93	22908
878.058	22896
878.185	22805
878.313	22850
878.441	22850
878.568	22774
878.696	22866
878.824	22866
878.951	22927
879.079	23086
879.206	23189
879.333	23079
879.461	23022
879.588	23003
879.715	23052
879.842	23136
879.97	22934
880.097	22698
880.224	22698
880.351	22721
880.478	22649
880.605	22626
880.732	22797
880.859	23071
880.986	22710
881.112	22698
881.239	22538
881.366	22466
881.493	22363
881.619	22265
881.746	22394
881.872	22352
881.999	22333
882.125	22192
882.252	22280
882.378	22325
882.505	22344
882.631	22238
882.757	22059
882.883	22051
883.01	22101
883.136	21903
883.262	21816
883.388	21831
883.514	21975
883.64	22074
883.766	21873
883.892	21686
884.018	21808
884.143	21934
884.269	21975
884.395	21793
884.52	21526
884.646	21625
884.772	21526
884.897	21538
885.023	21625
885.148	21797
885.274	21629
885.399	21720
885.524	21694
885.65	21656
885.775	21603
885.9	21641
886.025	21675
886.15	21793
886.275	21599
886.4	21599
886.525	21557
886.65	21500
886.775	21641
886.9	21743
887.025	21835
887.149	21481
887.274	21553
887.399	21378
887.523	21450
887.648	21405
887.773	21298
887.897	21523
888.021	21367
888.146	21420
888.27	21530
888.395	21534
888.519	21367
888.643	21393
888.767	21382
888.891	21321
889.015	21340
889.139	21367
889.263	21203
889.387	21310
889.511	21329
889.635	21313
889.759	21203
889.883	21142
890.006	21116
890.13	21306
890.254	21222
890.377	21165
890.501	21116
890.624	20887
890.748	20944
890.871	20880
890.995	20849
891.118	20735
891.241	20819
891.364	20731
891.488	20921
891.611	20842
891.734	20849
891.857	20712
891.98	20720
892.103	20830
892.226	20663
892.349	20716
892.471	20492
892.594	20659
892.717	20720
892.839	20533
892.962	20590
893.085	20765
893.207	20602
893.33	20533
893.452	20655
893.575	20739
893.697	20579
893.819	20720
893.941	20880
894.064	20758
894.186	20579
894.308	20427
894.43	20697
894.552	20575
894.674	20727
894.796	20537
894.918	20579
895.04	20598
895.161	20697
895.283	20720
895.405	20465
895.526	20594
895.648	20473
895.769	20629
895.891	20792
896.012	20579
896.134	20667
896.255	20556
896.376	20461
896.498	20724
896.619	20640
896.74	20575
896.861	20640
896.982	20842
897.103	20960
897.224	20929
897.345	20929
897.466	20838
897.587	20781
897.708	20921
897.828	20781
897.949	20735
898.07	20701
898.19	20765
898.311	20830
898.431	20682
898.552	20918
898.672	20819
898.792	20883
898.913	20777
899.033	20651
899.153	20609
899.273	20533
899.393	20594
899.513	20621
899.633	20457
899.753	20568
899.873	20412
899.993	20674
900.113	20465
900.232	20552
900.352	20412
900.472	20313
900.591	20332
900.711	20343
900.83	20294
900.95	20389
901.069	20400
901.189	20145
901.308	20065
901.427	19967
901.546	19909
901.665	20027
901.784	19784
901.904	19658
902.023	19700
902.141	19441
902.26	19518
902.379	19605
902.498	19400
902.617	19297
902.735	19396
902.854	19316
902.973	19365
903.091	19095
903.21	19137
903.328	19076
903.446	19042
903.565	18916
903.683	18840
903.801	18802
903.919	18760
904.038	18722
904.156	18631
904.274	18722
904.392	18677
904.51	18559
904.627	18551
904.745	18502
904.863	18772
904.981	18448
905.098	18330
905.216	18342
905.334	18369
905.451	18319
905.569	18251
905.686	18407
905.803	18292
905.921	18159
906.038	18155
906.155	18133
906.272	18049
906.389	17939
906.506	17813
906.623	17969
906.74	17950
906.857	17729
906.974	17767
907.091	17889
907.208	17961
907.324	17813
907.441	17748
907.557	17638
907.674	17570
907.79	17554
907.907	17471
908.023	17570
908.139	17383
908.256	17539
908.372	17467
908.488	17444
908.604	17345
908.72	17254
908.836	17334
908.952	17178
909.068	17337
909.184	17277
909.3	17258
909.415	17299
909.531	17261
909.647	17071
909.762	16968
909.878	16987
909.993	16968
910.108	16873
910.224	16873
910.339	16987
910.454	16771
910.57	16816
910.685	16740
910.8	16915
910.915	16957
911.03	16828
911.145	16615
911.259	16607
911.374	16531
911.489	16417
911.604	16523
911.718	16348
911.833	16230
911.947	16246
912.062	16131
912.176	16322
912.291	16287
912.405	16242
912.519	16558
912.633	16413
912.748	16276
912.862	16265
912.976	16147
913.09	16017
913.204	16013
913.318	16040
913.431	16192
913.545	16154
913.659	16177
913.772	16006
913.886	16025
914	15937
914.113	16017
914.226	16029
914.34	16063
914.453	15808
914.566	16013
914.68	15838
914.793	15751
914.906	15526
915.019	15428
915.132	15367
915.245	15447
915.358	15538
915.47	15492
915.583	15568
915.696	15576
915.809	15568
915.921	15572
916.034	15466
916.146	15431
916.259	15378
916.371	15447
916.483	15469
916.595	15313
916.708	15401
916.82	15344
916.932	15252
917.044	15313
917.156	15207
917.268	15169
917.38	15184
917.491	15119
917.603	15142
917.715	15127
917.826	15184
917.938	15005
918.049	15013
918.161	15176
918.272	15214
918.384	15249
918.495	15081
918.606	14925
918.717	14861
918.828	14994
918.939	14823
919.05	14800
919.161	14785
919.272	14674
919.383	14819
919.494	14921
919.604	14960
919.715	14842
919.826	14800
919.936	14845
920.047	14921
920.157	14925
920.267	14971
920.378	14811
920.488	14815
920.598	15055
920.708	15062
920.818	14910
920.928	14941
921.038	15119
921.148	15017
921.258	14815
921.368	14674
921.477	14587
921.587	14568
921.697	14408
921.806	14617
921.916	14431
922.025	14320
922.134	14263
922.244	14161
922.353	14298
922.462	14084
922.571	13963
922.68	13807
922.789	13883
922.898	13944
923.007	13753
923.116	13898
923.224	13841
923.333	13879
923.442	13719
923.55	13704
923.659	13639
923.767	13769
923.876	13639
923.984	13670
924.092	13521
924.201	13643
924.309	13632
924.417	13556
924.525	13510
924.633	13537
924.741	14229
924.849	13354
924.956	13381
925.064	13187
925.172	13221
925.279	13183
925.387	13278
925.494	13202
925.602	13346
925.709	13244
925.816	13251
925.924	13244
926.031	13293
926.138	13156
926.245	13225
926.352	13046
926.459	13202
926.566	13149
926.673	13145
926.779	13015
926.886	13031
926.993	12837
927.099	12882
927.206	12779
927.312	12776
927.419	12772
927.525	12795
927.631	12852
927.737	12585
927.843	12578
927.95	12566
928.056	12559
928.162	12696
928.267	12593
928.373	13069
928.479	12726
928.585	12490
928.69	12623
928.796	12650
928.901	12422
929.007	12353
929.112	12448
929.218	12433
929.323	12384
929.428	12296
929.533	12315
929.638	12247
929.743	12235
929.848	12296
929.953	12270
930.058	12175
930.163	12041
930.267	12030
930.372	12144
930.477	11961
930.581	12213
930.685	12041
930.79	11897
930.894	11866
930.998	11878
931.103	11988
931.207	11611
931.311	11611
931.415	11486
931.519	11349
931.623	11212
