Data from test_V78500241_301.txt Node
Date: Fri Mar 25 15:11:57 CST 2022
User: usil
Spectrometer: V785-0024
Trigger mode: 0
Integration Time (sec): 4.000000E-1
Scans to average: 1
Nonlinearity correction enabled: false
Boxcar width: 0
Storing dark spectrum: false
XAxis mode: Wavelengths
Number of Pixels in Spectrum: 1024
>>>>>Begin Spectral Data<<<<<
801.071	27789
801.214	27945
801.356	27610
801.499	27610
801.641	27492
801.783	27450
801.926	27641
802.068	27268
802.211	27427
802.353	27302
802.496	27195
802.638	27131
802.78	27176
802.923	27108
803.065	26918
803.208	27036
803.35	27093
803.492	27165
803.635	27313
803.777	27051
803.919	27386
804.061	27545
804.204	27302
804.346	27176
804.488	27252
804.63	27070
804.773	27116
804.915	27184
805.057	27393
805.199	27146
805.341	27416
805.483	27340
805.626	27226
805.768	27252
805.91	27222
806.052	27287
806.194	27138
806.336	27420
806.478	27256
806.62	27279
806.762	27462
806.904	27564
807.046	27793
807.188	27622
807.33	27618
807.472	27770
807.614	27713
807.756	27671
807.898	27534
808.04	27427
808.182	27435
808.324	27526
808.465	27450
808.607	27644
808.749	27793
808.891	28036
809.033	28093
809.174	27941
809.316	28013
809.458	27922
809.6	27865
809.741	27918
809.883	27934
810.025	28116
810.166	28200
810.308	28128
810.45	28112
810.591	27972
810.733	27888
810.875	27827
811.016	27694
811.158	27800
811.299	27911
811.441	28017
811.582	27941
811.724	27755
811.865	27759
812.007	27831
812.148	27648
812.29	27884
812.431	28021
812.573	28200
812.714	28314
812.855	28344
812.997	28470
813.138	28622
813.279	28618
813.421	28424
813.562	28310
813.703	28166
813.845	28074
813.986	27755
814.127	27656
814.268	27561
814.41	27595
814.551	27397
814.692	27686
814.833	27412
814.974	27473
815.115	27549
815.256	27237
815.397	27260
815.539	27427
815.68	27420
815.821	27294
815.962	27355
816.103	27447
816.244	27275
816.385	27036
816.526	27138
816.666	26994
816.807	26849
816.948	26948
817.089	26880
817.23	26830
817.371	26731
817.512	26804
817.653	26712
817.793	26701
817.934	26731
818.075	26800
818.216	26735
818.356	26655
818.497	26594
818.638	26423
818.778	26590
818.919	26377
819.06	26446
819.2	26609
819.341	26731
819.481	26758
819.622	26986
819.762	27062
819.903	26952
820.043	26853
820.184	26796
820.324	26689
820.465	26910
820.605	26864
820.746	26735
820.886	26617
821.026	26792
821.167	26788
821.307	26849
821.447	26743
821.588	26606
821.728	26465
821.868	26366
822.008	26195
822.149	26073
822.289	26092
822.429	25871
822.569	25864
822.709	25887
822.849	25635
822.99	25639
823.13	25696
823.27	25415
823.41	25358
823.55	25213
823.69	25445
823.83	25464
823.97	25422
824.11	25266
824.25	25320
824.389	25369
824.529	25324
824.669	25232
824.809	25472
824.949	25445
825.089	25396
825.228	25152
825.368	25088
825.508	25110
825.648	25202
825.787	25148
825.927	25247
826.067	25145
826.206	25171
826.346	25114
826.485	25225
826.625	25061
826.765	25346
826.904	25129
827.044	24783
827.183	24970
827.323	24810
827.462	24875
827.601	24886
827.741	24665
827.88	24871
828.02	24669
828.159	24817
828.298	24772
828.437	24810
828.577	24821
828.716	24924
828.855	24669
828.994	24357
829.134	24509
829.273	24601
829.412	24483
829.551	24319
829.69	24494
829.829	24486
829.968	24494
830.107	24612
830.246	24445
830.385	24448
830.524	24433
830.663	24308
830.802	24159
830.941	24102
831.08	24095
831.219	24330
831.357	24140
831.496	24403
831.635	24197
831.774	24102
831.913	24034
832.051	23870
832.19	23889
832.329	24041
832.467	23882
832.606	23657
832.744	23737
832.883	23805
833.022	23748
833.16	23790
833.299	23939
833.437	23745
833.576	23802
833.714	23832
833.852	23904
833.991	23840
834.129	23863
834.267	23958
834.406	23843
834.544	23847
834.682	23798
834.821	23710
834.959	24041
835.097	23817
835.235	23832
835.373	23809
835.511	23817
835.65	23802
835.788	23653
835.926	23558
836.064	23387
836.202	23596
836.34	23657
836.478	23684
836.615	23554
836.753	23695
836.891	23824
837.029	23642
837.167	23554
837.305	23687
837.443	23627
837.58	23478
837.718	23600
837.856	23497
837.993	23539
838.131	23387
838.269	23360
838.406	23429
838.544	23459
838.681	23094
838.819	23075
838.956	22991
839.094	22980
839.231	23174
839.369	23060
839.506	23402
839.643	23254
839.781	22957
839.918	22831
840.055	22915
840.193	22885
840.33	22801
840.467	22904
840.604	22968
840.742	23086
840.879	22694
841.016	22793
841.153	22740
841.29	23010
841.427	22885
841.564	22953
841.701	22812
841.838	22786
841.975	22763
842.112	22729
842.249	22645
842.385	22573
842.522	22843
842.659	22706
842.796	22542
842.933	22573
843.069	22630
843.206	22478
843.343	22641
843.479	22702
843.616	22687
843.752	22310
843.889	22348
844.025	22649
844.162	22322
844.298	22428
844.435	22295
844.571	22341
844.708	22402
844.844	22497
844.98	22485
845.117	22428
845.253	22379
845.389	22215
845.525	22295
845.661	22223
845.798	22051
845.934	22188
846.07	22059
846.206	22112
846.342	22173
846.478	22070
846.614	21949
846.75	21781
846.886	21827
847.022	21793
847.158	21880
847.294	21956
847.429	21808
847.565	21808
847.701	22040
847.837	21519
847.972	21477
848.108	21686
848.244	21675
848.379	21595
848.515	21477
848.65	21332
848.786	21447
848.921	21397
849.057	21545
849.192	21526
849.328	21458
849.463	21424
849.598	21256
849.734	21203
849.869	21264
850.004	21184
850.14	21150
850.275	21119
850.41	21020
850.545	21062
850.68	21089
850.815	21173
850.95	21317
851.085	21462
851.22	21192
851.355	21214
851.49	21104
851.625	21058
851.76	21127
851.895	21089
852.03	21123
852.165	21100
852.299	21173
852.434	21272
852.569	21066
852.703	21214
852.838	21127
852.973	21317
853.107	21260
853.242	21127
853.376	21062
853.511	20804
853.645	20967
853.78	21104
853.914	20960
854.048	20883
854.183	21104
854.317	21005
854.451	21161
854.585	20967
854.72	20963
854.854	20998
854.988	20952
855.122	21043
855.256	20792
855.39	20925
855.524	21085
855.658	21024
855.792	20971
855.926	21017
856.06	20967
856.194	21070
856.327	20933
856.461	20933
856.595	20906
856.729	20963
856.862	21184
856.996	21005
857.13	20948
857.263	21024
857.397	20990
857.53	21108
857.664	20986
857.797	21055
857.931	21081
858.064	20925
858.197	21104
858.331	21043
858.464	20971
858.597	20830
858.731	20975
858.864	20998
858.997	20804
859.13	20902
859.263	20948
859.396	21100
859.529	20807
859.662	20979
859.795	20921
859.928	20933
860.061	21146
860.194	21070
860.327	20975
860.46	20902
860.592	21161
860.725	21062
860.858	21047
860.99	20811
861.123	20815
861.256	20834
861.388	21066
861.521	21485
861.653	20765
861.786	20621
861.918	20731
862.05	20887
862.183	20902
862.315	20902
862.447	20857
862.58	20895
862.712	20682
862.844	20556
862.976	20777
863.108	20758
863.24	21024
863.372	20686
863.504	20678
863.636	20682
863.768	20731
863.9	20674
864.032	20640
864.164	20556
864.296	20693
864.428	20754
864.559	20636
864.691	20625
864.823	20720
864.954	20590
865.086	20663
865.217	20686
865.349	20476
865.48	20552
865.612	20598
865.743	20602
865.875	20522
866.006	20552
866.137	20503
866.269	20511
866.4	20545
866.531	20533
866.662	20412
866.793	20480
866.924	20579
867.055	20526
867.186	20412
867.317	20454
867.448	20366
867.579	20362
867.71	20408
867.841	20381
867.972	20366
868.103	20499
868.233	20499
868.364	20423
868.495	20625
868.625	20754
868.756	20765
868.886	20746
869.017	20750
869.147	20785
869.278	20781
869.408	20785
869.539	20644
869.669	20815
869.799	20701
869.929	20743
870.06	20857
870.19	21036
870.32	21005
870.45	21142
870.58	21138
870.71	21138
870.84	21135
870.97	21093
871.1	21108
871.23	21192
871.36	21378
871.489	21192
871.619	21329
871.749	21386
871.879	21226
872.008	21507
872.138	21336
872.267	21283
872.397	21268
872.526	21081
872.656	21214
872.785	21123
872.915	21378
873.044	21481
873.173	21199
873.303	21428
873.432	21469
873.561	21538
873.69	21321
873.819	21401
873.948	21359
874.077	21306
874.206	21275
874.335	21351
874.464	21477
874.593	21564
874.722	21416
874.851	21641
874.979	21747
875.108	21542
875.237	21481
875.365	21583
875.494	21534
875.623	21648
875.751	21660
875.88	21580
876.008	21625
876.136	21812
876.265	22017
876.393	22173
876.521	21987
876.65	22029
876.778	21972
876.906	21972
877.034	21846
877.162	22010
877.29	21915
877.418	21884
877.546	21975
877.674	22032
877.802	22044
877.93	21941
878.058	21846
878.185	21785
878.313	21915
878.441	21819
878.568	21823
878.696	21751
878.824	21884
878.951	22097
879.079	22101
879.206	22192
879.333	22048
879.461	21983
879.588	21926
879.715	22040
879.842	22169
879.97	22013
880.097	21762
880.224	21789
880.351	21842
880.478	21751
880.605	21618
880.732	21789
880.859	21968
880.986	21770
881.112	21789
881.239	21622
881.366	21344
881.493	21351
881.619	21325
881.746	21294
881.872	21283
881.999	21370
882.125	21249
882.252	21428
882.378	21374
882.505	21420
882.631	21150
882.757	21127
882.883	21165
883.01	21089
883.136	21039
883.262	20967
883.388	20906
883.514	21211
883.64	21112
883.766	20864
883.892	20804
884.018	20891
884.143	20880
884.269	21047
884.395	20830
884.52	20750
884.646	20689
884.772	20549
884.897	20648
885.023	20648
885.148	20842
885.274	20792
885.399	20819
885.524	20739
885.65	20781
885.775	20678
885.9	20720
886.025	20788
886.15	20674
886.275	20655
886.4	20571
886.525	20583
886.65	20632
886.775	20541
886.9	20727
887.025	20838
887.149	20651
887.274	20450
887.399	20518
887.523	20431
887.648	20400
887.773	20351
887.897	20427
888.021	20480
888.146	20298
888.27	20617
888.395	20526
888.519	20446
888.643	20480
888.767	20488
888.891	20385
889.015	20412
889.139	20267
889.263	20161
889.387	20244
889.511	20431
889.635	20427
889.759	20320
889.883	20275
890.006	20153
890.13	20374
890.254	20206
890.377	20008
890.501	20008
890.624	19928
890.748	19997
890.871	19925
890.995	19868
891.118	19784
891.241	19776
891.364	19894
891.488	19894
891.611	19921
891.734	19791
891.857	19852
891.98	19856
892.103	19799
892.226	19761
892.349	19746
892.471	19609
892.594	19696
892.717	19666
892.839	19681
892.962	19738
893.085	19788
893.207	19753
893.33	19647
893.452	19601
893.575	19788
893.697	19609
893.819	19951
893.941	19989
894.064	19879
894.186	19750
894.308	19700
894.43	19769
894.552	19993
894.674	19799
894.796	19696
894.918	19871
895.04	19670
895.161	19704
895.283	19753
895.405	19731
895.526	19799
895.648	19742
895.769	19795
895.891	19772
896.012	19894
896.134	19845
896.255	19780
896.376	19628
896.498	19818
896.619	19803
896.74	19757
896.861	19784
896.982	20046
897.103	20145
897.224	20096
897.345	19970
897.466	20020
897.587	19955
897.708	20031
897.828	20039
897.949	19940
898.07	19784
898.19	19852
898.311	20008
898.431	19913
898.552	19944
898.672	20024
898.792	20096
898.913	19944
899.033	19811
899.153	19689
899.273	19548
899.393	19700
899.513	19799
899.633	19704
899.753	19651
899.873	19620
899.993	19594
900.113	19674
900.232	19700
900.352	19575
900.472	19499
900.591	19434
900.711	19392
900.83	19445
900.95	19510
901.069	19525
901.189	19354
901.308	19217
901.427	19110
901.546	19038
901.665	19164
901.784	19099
901.904	19015
902.023	18901
902.141	18669
902.26	18578
902.379	18669
902.498	18509
902.617	18589
902.735	18612
902.854	18547
902.973	18490
903.091	18220
903.21	18254
903.328	18235
903.446	18209
903.565	18041
903.683	18064
903.801	18007
903.919	18060
904.038	18049
904.156	17866
904.274	17908
904.392	17741
904.51	17767
904.627	17779
904.745	17836
904.863	17851
904.981	17642
905.098	17482
905.216	17528
905.334	17528
905.451	17486
905.569	17490
905.686	17528
905.803	17539
905.921	17261
906.038	17478
906.155	17334
906.272	17273
906.389	17231
906.506	17029
906.623	17041
906.74	17041
906.857	16972
906.974	17003
907.091	17022
907.208	17105
907.324	17056
907.441	16896
907.557	16786
907.674	16850
907.79	16759
907.907	16694
908.023	16869
908.139	16759
908.256	16672
908.372	16596
908.488	16523
908.604	16550
908.72	16363
908.836	16580
908.952	16356
909.068	16432
909.184	16481
909.3	16436
909.415	16386
909.531	16478
909.647	16169
909.762	16257
909.878	16257
909.993	16143
910.108	16040
910.224	16200
910.339	16082
910.454	16067
910.57	15922
910.685	15869
910.8	16204
910.915	16097
911.03	16006
911.145	15884
911.259	15762
911.374	15785
911.489	15747
911.604	15671
911.718	15515
911.833	15488
911.947	15397
912.062	15317
912.176	15462
912.291	15462
912.405	15458
912.519	15610
912.633	15648
912.748	15443
912.862	15477
912.976	15233
913.09	15275
913.204	15294
913.318	15298
913.431	15408
913.545	15340
913.659	15405
913.772	15321
913.886	15154
914	15180
914.113	15154
914.226	15359
914.34	15108
914.453	14937
914.566	15150
914.68	15127
914.793	14986
914.906	14804
915.019	14735
915.132	14648
915.245	14621
915.358	14663
915.47	14720
915.583	14788
915.696	14807
915.809	14807
915.921	14895
916.034	14667
916.146	14571
916.259	14648
916.371	14746
916.483	14667
916.595	14545
916.708	14659
916.82	14598
916.932	14533
917.044	14610
917.156	14583
917.268	14412
917.38	14522
917.491	14320
917.603	14457
917.715	14495
917.826	14530
917.938	14419
918.049	14275
918.161	14366
918.272	14511
918.384	14514
918.495	14385
918.606	14180
918.717	14031
918.828	14191
918.939	14172
919.05	14115
919.161	14149
919.272	13925
919.383	14005
919.494	14111
919.604	14351
919.715	14210
919.826	14065
919.936	14035
920.047	14130
920.157	14161
920.267	14263
920.378	14096
920.488	14084
920.598	14400
920.708	14351
920.818	14240
920.928	14214
921.038	14351
921.148	14404
921.258	14050
921.368	14027
921.477	13868
921.587	13814
921.697	13727
921.806	13921
921.916	13655
922.025	13548
922.134	13563
922.244	13457
922.353	13529
922.462	13384
922.571	13358
922.68	13225
922.789	13152
922.898	13187
923.007	13126
923.116	13156
923.224	13114
923.333	13194
923.442	13099
923.55	13080
923.659	12981
923.767	13046
923.876	12894
923.984	13050
924.092	12932
924.201	13027
924.309	12970
924.417	12924
924.525	12817
924.633	12897
924.741	13681
924.849	12646
924.956	12829
925.064	12646
925.172	12551
925.279	12582
925.387	12730
925.494	12563
925.602	12711
925.709	12639
925.816	12566
925.924	12506
926.031	12627
926.138	12604
926.245	12616
926.352	12547
926.459	12506
926.566	12601
926.673	12422
926.779	12251
926.886	12323
926.993	12251
927.099	12228
927.206	12102
927.312	12095
927.419	12163
927.525	12201
927.631	12171
927.737	12030
927.843	12015
927.95	11946
928.056	11920
928.162	12057
928.267	12034
928.373	12681
928.479	12091
928.585	11786
928.69	12015
928.796	11988
928.901	11893
929.007	11745
929.112	11878
929.218	11843
929.323	11779
929.428	11760
929.533	11767
929.638	11707
929.743	11573
929.848	11699
929.953	11608
930.058	11630
930.163	11406
930.267	11455
930.372	11570
930.477	11383
930.581	11577
930.685	11455
930.79	11311
930.894	11406
930.998	11326
931.103	11406
931.207	11075
931.311	10938
931.415	10904
931.519	10706
931.623	10767
