Data from test_V78500241_456.txt Node
Date: Fri Mar 25 15:13:02 CST 2022
User: usil
Spectrometer: V785-0024
Trigger mode: 0
Integration Time (sec): 4.000000E-1
Scans to average: 1
Nonlinearity correction enabled: false
Boxcar width: 0
Storing dark spectrum: false
XAxis mode: Wavelengths
Number of Pixels in Spectrum: 1024
>>>>>Begin Spectral Data<<<<<
801.071	27298
801.214	27321
801.356	27127
801.499	26937
801.641	26845
801.783	26800
801.926	26944
802.068	26815
802.211	26765
802.353	26659
802.496	26575
802.638	26522
802.78	26419
802.923	26533
803.065	26423
803.208	26556
803.35	26423
803.492	26526
803.635	26697
803.777	26594
803.919	26724
804.061	26925
804.204	26773
804.346	26575
804.488	26689
804.63	26708
804.773	26724
804.915	26701
805.057	26769
805.199	26594
805.341	26891
805.483	26845
805.626	26834
805.768	26651
805.91	26689
806.052	26815
806.194	26750
806.336	26899
806.478	26887
806.62	26765
806.762	26967
806.904	26998
807.046	27241
807.188	27180
807.33	27233
807.472	27165
807.614	27116
807.756	27024
807.898	27051
808.04	26899
808.182	27093
808.324	27089
808.465	26990
808.607	27382
808.749	27363
808.891	27427
809.033	27648
809.174	27485
809.316	27310
809.458	27378
809.6	27275
809.741	27393
809.883	27591
810.025	27622
810.166	27656
810.308	27713
810.45	27629
810.591	27568
810.733	27496
810.875	27416
811.016	27176
811.158	27241
811.299	27340
811.441	27576
811.582	27519
811.724	27351
811.865	27268
812.007	27291
812.148	27447
812.29	27435
812.431	27340
812.573	27717
812.714	27781
812.855	28025
812.997	28131
813.138	28173
813.279	27934
813.421	28029
813.562	27873
813.703	27682
813.845	27656
813.986	27302
814.127	27081
814.268	27047
814.41	27146
814.551	26994
814.692	27112
814.833	26868
814.974	26929
815.115	27074
815.256	26823
815.397	26853
815.539	26956
815.68	26785
815.821	26769
815.962	26975
816.103	26792
816.244	26777
816.385	26613
816.526	26598
816.666	26328
816.807	26214
816.948	26446
817.089	26377
817.23	26393
817.371	26400
817.512	26358
817.653	26419
817.793	26164
817.934	26309
818.075	26450
818.216	26336
818.356	26221
818.497	26237
818.638	26043
818.778	26103
818.919	26062
819.06	26088
819.2	26183
819.341	26362
819.481	26355
819.622	26526
819.762	26617
819.903	26389
820.043	26438
820.184	26579
820.324	26522
820.465	26377
820.605	26469
820.746	26320
820.886	26358
821.026	26431
821.167	26492
821.307	26450
821.447	26423
821.588	26126
821.728	26149
821.868	26046
822.008	25879
822.149	25906
822.289	25803
822.429	25502
822.569	25472
822.709	25392
822.849	25297
822.99	25327
823.13	25194
823.27	25198
823.41	25107
823.55	24981
823.69	25088
823.83	25050
823.97	25126
824.11	24844
824.25	24867
824.389	24852
824.529	25046
824.669	24977
824.809	25065
824.949	24897
825.089	24939
825.228	25008
825.368	24772
825.508	24890
825.648	24814
825.787	24741
825.927	24726
826.067	24760
826.206	24779
826.346	24760
826.485	24916
826.625	24738
826.765	24837
826.904	24924
827.044	24559
827.183	24486
827.323	24544
827.462	24646
827.601	24532
827.741	24509
827.88	24494
828.02	24448
828.159	24486
828.298	24445
828.437	24494
828.577	24300
828.716	24494
828.855	24414
828.994	24186
829.134	24277
829.273	24273
829.412	24159
829.551	24197
829.69	24338
829.829	24281
829.968	24384
830.107	24247
830.246	24239
830.385	24102
830.524	24144
830.663	24060
830.802	24003
830.941	23767
831.08	23809
831.219	23954
831.357	23988
831.496	23961
831.635	23931
831.774	23893
831.913	23832
832.051	23646
832.19	23680
832.329	23539
832.467	23585
832.606	23516
832.744	23516
832.883	23600
833.022	23573
833.16	23661
833.299	23680
833.437	23608
833.576	23657
833.714	23535
833.852	23653
833.991	23786
834.129	23805
834.267	23764
834.406	23680
834.544	23585
834.682	23592
834.821	23528
834.959	23687
835.097	23562
835.235	23642
835.373	23566
835.511	23646
835.65	23531
835.788	23520
835.926	23452
836.064	23318
836.202	23265
836.34	23459
836.478	23547
836.615	23433
836.753	23539
836.891	23501
837.029	23417
837.167	23318
837.305	23383
837.443	23318
837.58	23345
837.718	23528
837.856	23349
837.993	23220
838.131	23318
838.269	23071
838.406	23258
838.544	23075
838.681	22919
838.819	22885
838.956	22778
839.094	22774
839.231	22949
839.369	22984
839.506	23113
839.643	23079
839.781	22786
839.918	22713
840.055	22752
840.193	22812
840.33	22729
840.467	22630
840.604	22683
840.742	23132
840.879	22516
841.016	22694
841.153	22592
841.29	22793
841.427	22717
841.564	22687
841.701	22774
841.838	22592
841.975	22687
842.112	22721
842.249	22557
842.385	22527
842.522	22596
842.659	22409
842.796	22432
842.933	22531
843.069	22337
843.206	22436
843.343	22531
843.479	22375
843.616	22485
843.752	22318
843.889	22421
844.025	22451
844.162	22200
844.298	22440
844.435	22169
844.571	22291
844.708	22333
844.844	22523
844.98	22485
845.117	22417
845.253	22185
845.389	22055
845.525	22253
845.661	22093
845.798	22006
845.934	22044
846.07	21994
846.206	22078
846.342	22150
846.478	22017
846.614	21652
846.75	21663
846.886	21732
847.022	21937
847.158	21789
847.294	21720
847.429	21755
847.565	21686
847.701	21968
847.837	21504
847.972	21416
848.108	21473
848.244	21439
848.379	21351
848.515	21336
848.65	21237
848.786	21332
848.921	21279
849.057	21389
849.192	21317
849.328	21397
849.463	21272
849.598	21252
849.734	21222
849.869	21138
850.004	21062
850.14	21211
850.275	21066
850.41	21032
850.545	21096
850.68	21009
850.815	21264
850.95	21104
851.085	21359
851.22	21100
851.355	21127
851.49	21138
851.625	21074
851.76	20994
851.895	21032
852.03	20925
852.165	21142
852.299	21062
852.434	21180
852.569	21112
852.703	21089
852.838	21157
852.973	21249
853.107	21241
853.242	21104
853.376	20807
853.511	20887
853.645	20849
853.78	21028
853.914	20944
854.048	20731
854.183	20918
854.317	20861
854.451	21062
854.585	20857
854.72	20815
854.854	21013
854.988	20834
855.122	21070
855.256	20838
855.39	20891
855.524	20914
855.658	20944
855.792	20868
855.926	20982
856.06	20986
856.194	20960
856.327	20872
856.461	20906
856.595	21017
856.729	20944
856.862	20975
856.996	21009
857.13	21024
857.263	20963
857.397	21055
857.53	20925
857.664	20979
857.797	20895
857.931	21047
858.064	20963
858.197	21096
858.331	20883
858.464	20834
858.597	20758
858.731	20963
858.864	20796
858.997	20963
859.13	20914
859.263	20914
859.396	20998
859.529	20921
859.662	20811
859.795	20777
859.928	20895
860.061	20952
860.194	21074
860.327	21005
860.46	20853
860.592	20937
860.725	21089
860.858	21089
860.99	21017
861.123	20754
861.256	20765
861.388	20963
861.521	21496
861.653	20781
861.786	20663
861.918	20735
862.05	20773
862.183	20921
862.315	20925
862.447	20948
862.58	20845
862.712	20556
862.844	20606
862.976	20674
863.108	20640
863.24	21116
863.372	20651
863.504	20655
863.636	20629
863.768	20617
863.9	20731
864.032	20480
864.164	20594
864.296	20556
864.428	20697
864.559	20674
864.691	20674
864.823	20655
864.954	20670
865.086	20606
865.217	20575
865.349	20450
865.48	20564
865.612	20568
865.743	20598
865.875	20686
866.006	20480
866.137	20514
866.269	20564
866.4	20575
866.531	20465
866.662	20419
866.793	20507
866.924	20476
867.055	20480
867.186	20446
867.317	20480
867.448	20400
867.579	20393
867.71	20343
867.841	20320
867.972	20488
868.103	20377
868.233	20423
868.364	20393
868.495	20617
868.625	20659
868.756	20697
868.886	20670
869.017	20800
869.147	20857
869.278	20792
869.408	20754
869.539	20712
869.669	20678
869.799	20781
869.929	20845
870.06	20842
870.19	21112
870.32	20918
870.45	20971
870.58	21039
870.71	21176
870.84	21176
870.97	21123
871.1	21176
871.23	21302
871.36	21260
871.489	21154
871.619	21207
871.749	21378
871.879	21298
872.008	21336
872.138	21313
872.267	21264
872.397	21150
872.526	21089
872.656	21089
872.785	21096
872.915	21294
873.044	21344
873.173	21272
873.303	21233
873.432	21249
873.561	21332
873.69	21279
873.819	21291
873.948	21435
874.077	21184
874.206	21382
874.335	21302
874.464	21313
874.593	21606
874.722	21580
874.851	21720
874.979	21564
875.108	21523
875.237	21530
875.365	21515
875.494	21557
875.623	21606
875.751	21572
875.88	21614
876.008	21637
876.136	21667
876.265	21899
876.393	22051
876.521	22147
876.65	21983
876.778	21998
876.906	21892
877.034	21888
877.162	21953
877.29	21812
877.418	21941
877.546	21953
877.674	21991
877.802	21945
877.93	21800
878.058	21759
878.185	21930
878.313	21945
878.441	21926
878.568	21686
878.696	21949
878.824	21907
878.951	22051
879.079	21945
879.206	22200
879.333	22147
879.461	22025
879.588	21934
879.715	22044
879.842	22109
879.97	22036
880.097	21736
880.224	21819
880.351	21808
880.478	21705
880.605	21694
880.732	21709
880.859	21934
880.986	21739
881.112	21762
881.239	21705
881.366	21473
881.493	21420
881.619	21249
881.746	21298
881.872	21218
881.999	21298
882.125	21317
882.252	21184
882.378	21237
882.505	21351
882.631	21157
882.757	21032
882.883	21055
883.01	20910
883.136	21066
883.262	20990
883.388	20815
883.514	20994
883.64	21138
883.766	20910
883.892	20773
884.018	20708
884.143	20948
884.269	20990
884.395	20678
884.52	20621
884.646	20590
884.772	20480
884.897	20492
885.023	20579
885.148	20655
885.274	20705
885.399	20693
885.524	20693
885.65	20606
885.775	20609
885.9	20655
886.025	20731
886.15	20686
886.275	20564
886.4	20552
886.525	20579
886.65	20712
886.775	20686
886.9	20667
887.025	20838
887.149	20762
887.274	20507
887.399	20415
887.523	20461
887.648	20347
887.773	20381
887.897	20484
888.021	20503
888.146	20355
888.27	20556
888.395	20609
888.519	20454
888.643	20415
888.767	20442
888.891	20396
889.015	20218
889.139	20282
889.263	20176
889.387	20473
889.511	20438
889.635	20336
889.759	20164
889.883	20191
890.006	20282
890.13	20286
890.254	20122
890.377	20183
890.501	19940
890.624	20012
890.748	19989
890.871	19936
890.995	19799
891.118	19696
891.241	19845
891.364	19788
891.488	19936
891.611	19780
891.734	19822
891.857	19822
891.98	19795
892.103	19822
892.226	19811
892.349	19818
892.471	19578
892.594	19746
892.717	19712
892.839	19780
892.962	19712
893.085	19799
893.207	19712
893.33	19685
893.452	19594
893.575	19856
893.697	19658
893.819	19887
893.941	19947
894.064	19807
894.186	19658
894.308	19666
894.43	19780
894.552	19784
894.674	19849
894.796	19575
894.918	19799
895.04	19620
895.161	19772
895.283	19753
895.405	19822
895.526	19772
895.648	19639
895.769	19712
895.891	19719
896.012	19803
896.134	19643
896.255	19719
896.376	19750
896.498	19662
896.619	19826
896.74	19712
896.861	19655
896.982	20103
897.103	20259
897.224	19902
897.345	19978
897.466	19959
897.587	19909
897.708	20077
897.828	20020
897.949	19871
898.07	19860
898.19	19811
898.311	20005
898.431	19902
898.552	19993
898.672	20001
898.792	19982
898.913	20035
899.033	19731
899.153	19719
899.273	19685
899.393	19772
899.513	19803
899.633	19750
899.753	19738
899.873	19578
899.993	19731
900.113	19700
900.232	19609
900.352	19597
900.472	19480
900.591	19521
900.711	19514
900.83	19426
900.95	19552
901.069	19525
901.189	19316
901.308	19141
901.427	18970
901.546	19008
901.665	19072
901.784	19122
901.904	18817
902.023	18825
902.141	18734
902.26	18646
902.379	18700
902.498	18654
902.617	18555
902.735	18589
902.854	18498
902.973	18475
903.091	18296
903.21	18273
903.328	18171
903.446	18079
903.565	18083
903.683	18125
903.801	18019
903.919	18057
904.038	17946
904.156	17958
904.274	17946
904.392	17863
904.51	17912
904.627	17863
904.745	17836
904.863	17828
904.981	17630
905.098	17532
905.216	17490
905.334	17573
905.451	17551
905.569	17570
905.686	17577
905.803	17532
905.921	17326
906.038	17376
906.155	17345
906.272	17280
906.389	17280
906.506	17029
906.623	17045
906.74	16957
906.857	16934
906.974	16984
907.091	17140
907.208	17273
907.324	17105
907.441	16919
907.557	16820
907.674	16831
907.79	16748
907.907	16698
908.023	16797
908.139	16763
908.256	16763
908.372	16626
908.488	16649
908.604	16538
908.72	16500
908.836	16577
908.952	16497
909.068	16599
909.184	16645
909.3	16455
909.415	16558
909.531	16493
909.647	16257
909.762	16272
909.878	16128
909.993	16314
910.108	16306
910.224	16265
910.339	16219
910.454	16124
910.57	16044
910.685	15998
910.8	16249
910.915	16154
911.03	16116
911.145	15911
911.259	15850
911.374	15880
911.489	15842
911.604	15747
911.718	15587
911.833	15580
911.947	15477
912.062	15374
912.176	15549
912.291	15488
912.405	15580
912.519	15743
912.633	15728
912.748	15686
912.862	15606
912.976	15389
913.09	15313
913.204	15363
913.318	15420
913.431	15549
913.545	15462
913.659	15500
913.772	15378
913.886	15207
914	15199
914.113	15245
914.226	15382
914.34	15367
914.453	15154
914.566	15306
914.68	15146
914.793	15017
914.906	14883
915.019	14883
915.132	14758
915.245	14807
915.358	14838
915.47	14883
915.583	14883
915.696	14891
915.809	15051
915.921	14998
916.034	14735
916.146	14762
916.259	14663
916.371	14792
916.483	14678
916.595	14826
916.708	14724
916.82	14682
916.932	14648
917.044	14602
917.156	14598
917.268	14541
917.38	14492
917.491	14514
917.603	14465
917.715	14518
917.826	14522
917.938	14469
918.049	14305
918.161	14404
918.272	14518
918.384	14560
918.495	14362
918.606	14256
918.717	14157
918.828	14358
918.939	14309
919.05	14176
919.161	14183
919.272	14096
919.383	14123
919.494	14248
919.604	14408
919.715	14271
919.826	14202
919.936	14233
920.047	14332
920.157	14282
920.267	14507
920.378	14271
920.488	14294
920.598	14412
920.708	14549
920.818	14309
920.928	14305
921.038	14526
921.148	14438
921.258	14111
921.368	14172
921.477	14050
921.587	13947
921.697	13837
921.806	14008
921.916	13879
922.025	13643
922.134	13643
922.244	13628
922.353	13715
922.462	13487
922.571	13491
922.68	13251
922.789	13270
922.898	13206
923.007	13209
923.116	13320
923.224	13213
923.333	13160
923.442	13168
923.55	13084
923.659	13065
923.767	13164
923.876	13053
923.984	13156
924.092	13008
924.201	13118
924.309	13031
924.417	12920
924.525	12886
924.633	13031
924.741	13852
924.849	12798
924.956	12859
925.064	12817
925.172	12658
925.279	12616
925.387	12787
925.494	12654
925.602	12814
925.709	12772
925.816	12646
925.924	12688
926.031	12711
926.138	12658
926.245	12597
926.352	12528
926.459	12662
926.566	12631
926.673	12525
926.779	12563
926.886	12506
926.993	12251
927.099	12308
927.206	12213
927.312	12266
927.419	12346
927.525	12258
927.631	12273
927.737	12228
927.843	12133
927.95	12030
928.056	12019
928.162	12117
928.267	12117
928.373	12715
928.479	12178
928.585	11893
928.69	12102
928.796	12125
928.901	12072
929.007	11836
929.112	11920
929.218	11897
929.323	11771
929.428	11733
929.533	11988
929.638	11737
929.743	11748
929.848	11828
929.953	11756
930.058	11805
930.163	11562
930.267	11543
930.372	11634
930.477	11501
930.581	11764
930.685	11615
930.79	11421
930.894	11448
930.998	11368
931.103	11581
931.207	11220
931.311	11136
931.415	11045
931.519	10771
931.623	10793
