Data from test_V78500241_1879.txt Node
Date: Fri Mar 25 15:22:56 CST 2022
User: usil
Spectrometer: V785-0024
Trigger mode: 0
Integration Time (sec): 4.000000E-1
Scans to average: 1
Nonlinearity correction enabled: false
Boxcar width: 0
Storing dark spectrum: false
XAxis mode: Wavelengths
Number of Pixels in Spectrum: 1024
>>>>>Begin Spectral Data<<<<<
801.071	27903
801.214	27789
801.356	27705
801.499	27603
801.641	27378
801.783	27367
801.926	27523
802.068	27427
802.211	27370
802.353	27260
802.496	27081
802.638	27135
802.78	27192
802.923	27001
803.065	27039
803.208	26990
803.35	27142
803.492	27279
803.635	27291
803.777	27123
803.919	27298
804.061	27587
804.204	27405
804.346	27363
804.488	27123
804.63	27275
804.773	27188
804.915	27245
805.057	27401
805.199	27245
805.341	27340
805.483	27374
805.626	27420
805.768	27378
805.91	27348
806.052	27477
806.194	27348
806.336	27564
806.478	27439
806.62	27443
806.762	27564
806.904	27580
807.046	27743
807.188	27895
807.33	27846
807.472	27781
807.614	27759
807.756	27850
807.898	27701
808.04	27561
808.182	27568
808.324	27793
808.465	27743
808.607	27994
808.749	28013
808.891	28147
809.033	28070
809.174	28082
809.316	27956
809.458	28090
809.6	28044
809.741	28139
809.883	28059
810.025	28287
810.166	28287
810.308	28382
810.45	28268
810.591	28147
810.733	28166
810.875	28101
811.016	27911
811.158	27827
811.299	28131
811.441	28162
811.582	28154
811.724	28002
811.865	27838
812.007	27998
812.148	28002
812.29	28101
812.431	28169
812.573	28303
812.714	28577
812.855	28485
812.997	28527
813.138	28755
813.279	28611
813.421	28706
813.562	28554
813.703	28542
813.845	28226
813.986	27998
814.127	27876
814.268	27739
814.41	27781
814.551	27724
814.692	27804
814.833	27728
814.974	27751
815.115	27743
815.256	27660
815.397	27709
815.539	27663
815.68	27519
815.821	27340
815.962	27572
816.103	27515
816.244	27363
816.385	27344
816.526	27161
816.666	27074
816.807	27058
816.948	27047
817.089	27009
817.23	27192
817.371	26937
817.512	26979
817.653	26891
817.793	26994
817.934	27009
818.075	26956
818.216	26971
818.356	26994
818.497	26910
818.638	26632
818.778	26883
818.919	26956
819.06	26868
819.2	26830
819.341	26994
819.481	26940
819.622	27176
819.762	27370
819.903	27321
820.043	27096
820.184	27241
820.324	27032
820.465	27214
820.605	27119
820.746	27020
820.886	26986
821.026	27077
821.167	27032
821.307	27150
821.447	27062
821.588	26925
821.728	26724
821.868	26716
822.008	26613
822.149	26434
822.289	26415
822.429	26218
822.569	26130
822.709	26252
822.849	25963
822.99	26088
823.13	25997
823.27	26001
823.41	25757
823.55	25727
823.69	25814
823.83	25788
823.97	25704
824.11	25628
824.25	25567
824.389	25472
824.529	25597
824.669	25563
824.809	25814
824.949	25761
825.089	25776
825.228	25677
825.368	25476
825.508	25453
825.648	25567
825.787	25559
825.927	25540
826.067	25464
826.206	25499
826.346	25567
826.485	25662
826.625	25438
826.765	25563
826.904	25487
827.044	25377
827.183	25312
827.323	25190
827.462	25308
827.601	25441
827.741	25209
827.88	25187
828.02	25213
828.159	25259
828.298	25152
828.437	25194
828.577	25183
828.716	25381
828.855	25179
828.994	25038
829.134	24856
829.273	24875
829.412	24985
829.551	24875
829.69	24833
829.829	24989
829.968	24985
830.107	25175
830.246	24882
830.385	24901
830.524	24734
830.663	24661
830.802	24753
830.941	24502
831.08	24414
831.219	24627
831.357	24578
831.496	24806
831.635	24589
831.774	24582
831.913	24490
832.051	24414
832.19	24311
832.329	24426
832.467	24239
832.606	24232
832.744	24300
832.883	24220
833.022	24194
833.16	24190
833.299	24285
833.437	24258
833.576	24323
833.714	24357
833.852	24445
833.991	24330
834.129	24456
834.267	24365
834.406	24251
834.544	24243
834.682	24262
834.821	24228
834.959	24460
835.097	24117
835.235	24388
835.373	24315
835.511	24384
835.65	24201
835.788	24102
835.926	24003
836.064	23939
836.202	23889
836.34	24095
836.478	24197
836.615	24106
836.753	24140
836.891	24251
837.029	24216
837.167	24007
837.305	24011
837.443	24034
837.58	24038
837.718	23935
837.856	24015
837.993	23950
838.131	23980
838.269	23836
838.406	23851
838.544	23813
838.681	23490
838.819	23619
838.956	23482
839.094	23543
839.231	23573
839.369	23604
839.506	23855
839.643	23646
839.781	23436
839.918	23288
840.055	23463
840.193	23349
840.33	23326
840.467	23406
840.604	23296
840.742	23695
840.879	23113
841.016	23193
841.153	23330
841.29	23577
841.427	23387
841.564	23303
841.701	23311
841.838	23299
841.975	23235
842.112	23398
842.249	23140
842.385	23197
842.522	23372
842.659	23132
842.796	23022
842.933	23181
843.069	23048
843.206	23029
843.343	23117
843.479	23022
843.616	23128
843.752	22957
843.889	22911
844.025	23170
844.162	22930
844.298	23044
844.435	22923
844.571	22934
844.708	22869
844.844	23029
844.98	22972
845.117	23006
845.253	22774
845.389	22736
845.525	22786
845.661	22733
845.798	22611
845.934	22618
846.07	22634
846.206	22615
846.342	22767
846.478	22607
846.614	22398
846.75	22428
846.886	22371
847.022	22497
847.158	22280
847.294	22405
847.429	22356
847.565	22428
847.701	22577
847.837	22147
847.972	22017
848.108	22230
848.244	22120
848.379	22021
848.515	21892
848.65	21994
848.786	21972
848.921	21884
849.057	21994
849.192	21972
849.328	22074
849.463	21956
849.598	21941
849.734	21945
849.869	21857
850.004	21705
850.14	21675
850.275	21781
850.41	21675
850.545	21789
850.68	21759
850.815	21800
850.95	21808
851.085	21918
851.22	21618
851.355	21793
851.49	21515
851.625	21720
851.76	21835
851.895	21717
852.03	21648
852.165	21781
852.299	21762
852.434	21797
852.569	21812
852.703	21568
852.838	21679
852.973	21785
853.107	21762
853.242	21656
853.376	21538
853.511	21443
853.645	21450
853.78	21568
853.914	21553
854.048	21515
854.183	21469
854.317	21534
854.451	21759
854.585	21519
854.72	21553
854.854	21591
854.988	21466
855.122	21568
855.256	21435
855.39	21477
855.524	21591
855.658	21553
855.792	21473
855.926	21507
856.06	21515
856.194	21618
856.327	21557
856.461	21500
856.595	21507
856.729	21530
856.862	21557
856.996	21652
857.13	21614
857.263	21656
857.397	21739
857.53	21469
857.664	21618
857.797	21606
857.931	21625
858.064	21519
858.197	21557
858.331	21507
858.464	21466
858.597	21329
858.731	21511
858.864	21583
858.997	21545
859.13	21424
859.263	21447
859.396	21542
859.529	21466
859.662	21504
859.795	21370
859.928	21492
860.061	21778
860.194	21728
860.327	21656
860.46	21572
860.592	21663
860.725	21724
860.858	21629
860.99	21462
861.123	21386
861.256	21564
861.388	21576
861.521	22116
861.653	21466
861.786	21241
861.918	21374
862.05	21431
862.183	21420
862.315	21485
862.447	21545
862.58	21462
862.712	21283
862.844	21123
862.976	21241
863.108	21283
863.24	21591
863.372	21043
863.504	21138
863.636	21207
863.768	21294
863.9	21176
864.032	21081
864.164	21203
864.296	21173
864.428	21359
864.559	21473
864.691	21241
864.823	21260
864.954	21089
865.086	21096
865.217	21085
865.349	21100
865.48	21154
865.612	21207
865.743	21302
865.875	21081
866.006	20963
866.137	21066
866.269	21211
866.4	21192
866.531	21028
866.662	21051
866.793	21169
866.924	21017
867.055	21058
867.186	21051
867.317	20910
867.448	20944
867.579	21043
867.71	20952
867.841	21020
867.972	21036
868.103	21173
868.233	21112
868.364	21108
868.495	21135
868.625	21367
868.756	21294
868.886	21207
869.017	21252
869.147	21389
869.278	21439
869.408	21325
869.539	21344
869.669	21473
869.799	21420
869.929	21450
870.06	21306
870.19	21606
870.32	21614
870.45	21599
870.58	21732
870.71	21827
870.84	21675
870.97	21698
871.1	21614
871.23	21884
871.36	21892
871.489	21732
871.619	21812
871.749	21842
871.879	21907
872.008	22086
872.138	22040
872.267	21918
872.397	21743
872.526	21660
872.656	21812
872.785	21701
872.915	21873
873.044	21975
873.173	21838
873.303	22025
873.432	21975
873.561	22086
873.69	21842
873.819	21884
873.948	22021
874.077	21846
874.206	21953
874.335	21907
874.464	21968
874.593	22120
874.722	22074
874.851	22067
874.979	22242
875.108	22223
875.237	22040
875.365	22048
875.494	22101
875.623	22143
875.751	22070
875.88	22185
876.008	22276
876.136	22363
876.265	22550
876.393	22706
876.521	22497
876.65	22630
876.778	22561
876.906	22436
877.034	22459
877.162	22554
877.29	22367
877.418	22535
877.546	22390
877.674	22550
877.802	22478
877.93	22447
878.058	22462
878.185	22382
878.313	22440
878.441	22440
878.568	22318
878.696	22360
878.824	22398
878.951	22485
879.079	22721
879.206	22778
879.333	22752
879.461	22577
879.588	22557
879.715	22607
879.842	22748
879.97	22489
880.097	22360
880.224	22253
880.351	22333
880.478	22272
880.605	22306
880.732	22287
880.859	22493
880.986	22200
881.112	22356
881.239	22158
881.366	21998
881.493	22002
881.619	21934
881.746	21960
881.872	21945
881.999	21751
882.125	21812
882.252	21884
882.378	21918
882.505	21880
882.631	21774
882.757	21641
882.883	21690
883.01	21682
883.136	21481
883.262	21511
883.388	21397
883.514	21519
883.64	21515
883.766	21477
883.892	21237
884.018	21351
884.143	21633
884.269	21553
884.395	21268
884.52	21218
884.646	21112
884.772	21135
884.897	21135
885.023	21241
885.148	21363
885.274	21279
885.399	21279
885.524	21207
885.65	21252
885.775	21287
885.9	21256
886.025	21298
886.15	21252
886.275	21142
886.4	21039
886.525	21169
886.65	21070
886.775	21062
886.9	21325
887.025	21500
887.149	21058
887.274	21036
887.399	20876
887.523	20952
887.648	20891
887.773	20842
887.897	21062
888.021	21032
888.146	20887
888.27	21119
888.395	20963
888.519	21074
888.643	21028
888.767	20941
888.891	20948
889.015	20830
889.139	20842
889.263	20845
889.387	20925
889.511	21127
889.635	20914
889.759	20678
889.883	20785
890.006	20815
890.13	20868
890.254	20609
890.377	20701
890.501	20594
890.624	20533
890.748	20670
890.871	20404
890.995	20225
891.118	20290
891.241	20454
891.364	20206
891.488	20488
891.611	20427
891.734	20336
891.857	20347
891.98	20362
892.103	20419
892.226	20374
892.349	20301
892.471	20187
892.594	20240
892.717	20180
892.839	20237
892.962	20263
893.085	20313
893.207	20256
893.33	20046
893.452	20142
893.575	20298
893.697	20134
893.819	20328
893.941	20499
894.064	20298
894.186	20115
894.308	20130
894.43	20267
894.552	20423
894.674	20313
894.796	20233
894.918	20199
895.04	20164
895.161	20256
895.283	20225
895.405	20309
895.526	20259
895.648	20111
895.769	20332
895.891	20237
896.012	20328
896.134	20343
896.255	20237
896.376	20176
896.498	20088
896.619	20294
896.74	20195
896.861	20317
896.982	20556
897.103	20609
897.224	20552
897.345	20404
897.466	20492
897.587	20438
897.708	20598
897.828	20552
897.949	20332
898.07	20282
898.19	20370
898.311	20492
898.431	20377
898.552	20480
898.672	20533
898.792	20476
898.913	20492
899.033	20317
899.153	20161
899.273	20096
899.393	20172
899.513	20214
899.633	20244
899.753	20278
899.873	20180
899.993	20092
900.113	20256
900.232	20233
900.352	20142
900.472	20069
900.591	19921
900.711	19898
900.83	19860
900.95	20039
901.069	20153
901.189	19807
901.308	19647
901.427	19521
901.546	19632
901.665	19559
901.784	19449
901.904	19407
902.023	19320
902.141	19129
902.26	19053
902.379	19107
902.498	19050
902.617	19004
902.735	19080
902.854	18973
902.973	19000
903.091	18806
903.21	18726
903.328	18719
903.446	18665
903.565	18464
903.683	18566
903.801	18506
903.919	18517
904.038	18486
904.156	18395
904.274	18315
904.392	18296
904.51	18277
904.627	18342
904.745	18460
904.863	18357
904.981	18110
905.098	17980
905.216	17996
905.334	18015
905.451	17931
905.569	17813
905.686	18022
905.803	17950
905.921	17809
906.038	17870
906.155	17878
906.272	17699
906.389	17722
906.506	17467
906.623	17566
906.74	17490
906.857	17421
906.974	17391
907.091	17471
907.208	17676
907.324	17516
907.441	17395
907.557	17334
907.674	17143
907.79	17178
907.907	17216
908.023	17231
908.139	17235
908.256	17166
908.372	17105
908.488	17098
908.604	17025
908.72	16911
908.836	16968
908.952	16889
909.068	16995
909.184	16995
909.3	16911
909.415	17022
909.531	16995
909.647	16698
909.762	16713
909.878	16694
909.993	16668
910.108	16618
910.224	16626
910.339	16656
910.454	16474
910.57	16500
910.685	16402
910.8	16611
910.915	16538
911.03	16432
911.145	16284
911.259	16181
911.374	16265
911.489	16131
911.604	16055
911.718	15880
911.833	15994
911.947	15876
912.062	15808
912.176	15937
912.291	16013
912.405	15884
912.519	16166
912.633	16169
912.748	16013
912.862	16010
912.976	15755
913.09	15694
913.204	15766
913.318	15846
913.431	15884
913.545	15846
913.659	15781
913.772	15781
913.886	15614
914	15553
914.113	15633
914.226	15831
914.34	15644
914.453	15462
914.566	15606
914.68	15485
914.793	15447
914.906	15306
915.019	15287
915.132	15203
915.245	15233
915.358	15222
915.47	15252
915.583	15097
915.696	15245
915.809	15306
915.921	15332
916.034	15085
916.146	15047
916.259	15085
916.371	15192
916.483	15165
916.595	15032
916.708	14998
916.82	15001
916.932	14986
917.044	14918
917.156	14899
917.268	14952
917.38	14864
917.491	14880
917.603	14933
917.715	14941
917.826	14815
917.938	14823
918.049	14663
918.161	14895
918.272	14883
918.384	14864
918.495	14765
918.606	14644
918.717	14651
918.828	14564
918.939	14632
919.05	14396
919.161	14651
919.272	14343
919.383	14381
919.494	14716
919.604	14758
919.715	14629
919.826	14469
919.936	14530
920.047	14644
920.157	14648
920.267	14792
920.378	14606
920.488	14484
920.598	14781
920.708	14895
920.818	14743
920.928	14746
921.038	14853
921.148	14891
921.258	14488
921.368	14396
921.477	14252
921.587	14313
921.697	14157
921.806	14370
921.916	14134
922.025	14062
922.134	13944
922.244	13826
922.353	14043
922.462	13868
922.571	13757
922.68	13590
922.789	13556
922.898	13529
923.007	13514
923.116	13651
923.224	13567
923.333	13537
923.442	13457
923.55	13441
923.659	13438
923.767	13411
923.876	13320
923.984	13499
924.092	13308
924.201	13297
924.309	13327
924.417	13346
924.525	13270
924.633	13293
924.741	14145
924.849	13038
924.956	13175
925.064	13118
925.172	12966
925.279	12897
925.387	12996
925.494	12943
925.602	12977
925.709	12993
925.816	13004
925.924	12966
926.031	13023
926.138	12894
926.245	12996
926.352	12890
926.459	13019
926.566	13061
926.673	12817
926.779	12787
926.886	12738
926.993	12646
927.099	12521
927.206	12555
927.312	12506
927.419	12555
927.525	12532
927.631	12681
927.737	12506
927.843	12380
927.95	12270
928.056	12429
928.162	12342
928.267	12467
928.373	12970
928.479	12437
928.585	12201
928.69	12357
928.796	12399
928.901	12235
929.007	12091
929.112	12232
929.218	12205
929.323	12159
929.428	12079
929.533	12224
929.638	11965
929.743	12053
929.848	12136
929.953	12064
930.058	11904
930.163	11764
930.267	11779
930.372	11885
930.477	11741
930.581	11961
930.685	11843
930.79	11661
930.894	11783
930.998	11627
931.103	11775
931.207	11433
931.311	11353
931.415	11193
931.519	11060
931.623	11003
