Data from test_V78500241_1336.txt Node
Date: Fri Mar 25 15:19:09 CST 2022
User: usil
Spectrometer: V785-0024
Trigger mode: 0
Integration Time (sec): 4.000000E-1
Scans to average: 1
Nonlinearity correction enabled: false
Boxcar width: 0
Storing dark spectrum: false
XAxis mode: Wavelengths
Number of Pixels in Spectrum: 1024
>>>>>Begin Spectral Data<<<<<
801.071	28013
801.214	27869
801.356	27663
801.499	27717
801.641	27447
801.783	27462
801.926	27485
802.068	27431
802.211	27606
802.353	27370
802.496	27256
802.638	27157
802.78	27100
802.923	27005
803.065	27062
803.208	27017
803.35	27176
803.492	27165
803.635	27237
803.777	27127
803.919	27291
804.061	27857
804.204	27427
804.346	27199
804.488	27401
804.63	27424
804.773	27241
804.915	27534
805.057	27416
805.199	27321
805.341	27291
805.483	27538
805.626	27447
805.768	27363
805.91	27389
806.052	27393
806.194	27450
806.336	27603
806.478	27603
806.62	27466
806.762	27568
806.904	27778
807.046	27983
807.188	27914
807.33	27827
807.472	27918
807.614	27838
807.756	27869
807.898	27736
808.04	27671
808.182	27785
808.324	27827
808.465	27808
808.607	28158
808.749	28238
808.891	28173
809.033	28310
809.174	28154
809.316	28169
809.458	28128
809.6	28143
809.741	28234
809.883	28352
810.025	28341
810.166	28417
810.308	28485
810.45	28428
810.591	28329
810.733	28109
810.875	28299
811.016	28025
811.158	27953
811.299	28200
811.441	28455
811.582	28318
811.724	28101
811.865	28169
812.007	28097
812.148	28135
812.29	28234
812.431	28398
812.573	28535
812.714	28386
812.855	28786
812.997	28618
813.138	28873
813.279	28919
813.421	28854
813.562	28394
813.703	28611
813.845	28398
813.986	28055
814.127	28006
814.268	27960
814.41	27911
814.551	27793
814.692	27934
814.833	27884
814.974	27850
815.115	27869
815.256	27709
815.397	27736
815.539	27694
815.68	27648
815.821	27530
815.962	27564
816.103	27648
816.244	27473
816.385	27393
816.526	27329
816.666	27325
816.807	27127
816.948	27176
817.089	27275
817.23	27180
817.371	27020
817.512	27081
817.653	27104
817.793	26982
817.934	27032
818.075	27249
818.216	27112
818.356	27146
818.497	27096
818.638	26788
818.778	26872
818.919	26963
819.06	26823
819.2	27165
819.341	27211
819.481	27207
819.622	27184
819.762	27408
819.903	27439
820.043	27214
820.184	27363
820.324	27306
820.465	27226
820.605	27325
820.746	27233
820.886	27058
821.026	27241
821.167	27138
821.307	27359
821.447	27184
821.588	27077
821.728	26975
821.868	26724
822.008	26712
822.149	26640
822.289	26568
822.429	26328
822.569	26180
822.709	26301
822.849	26176
822.99	26107
823.13	25970
823.27	26077
823.41	25909
823.55	25966
823.69	25936
823.83	25909
823.97	25875
824.11	25689
824.25	25662
824.389	25894
824.529	26001
824.669	25856
824.809	25818
824.949	25791
825.089	25845
825.228	25803
825.368	25655
825.508	25502
825.648	25613
825.787	25708
825.927	25731
826.067	25575
826.206	25559
826.346	25685
826.485	25738
826.625	25635
826.765	25727
826.904	25677
827.044	25430
827.183	25487
827.323	25301
827.462	25415
827.601	25335
827.741	25396
827.88	25396
828.02	25209
828.159	25324
828.298	25407
828.437	25377
828.577	25362
828.716	25381
828.855	25107
828.994	25080
829.134	24958
829.273	25103
829.412	24966
829.551	24970
829.69	25091
829.829	25126
829.968	25187
830.107	25095
830.246	25012
830.385	24935
830.524	24962
830.663	24943
830.802	24764
830.941	24661
831.08	24585
831.219	24700
831.357	24783
831.496	24844
831.635	24646
831.774	24745
831.913	24540
832.051	24437
832.19	24403
832.329	24437
832.467	24369
832.606	24224
832.744	24209
832.883	24330
833.022	24228
833.16	24224
833.299	24540
833.437	24361
833.576	24418
833.714	24418
833.852	24589
833.991	24460
834.129	24490
834.267	24460
834.406	24418
834.544	24353
834.682	24448
834.821	24422
834.959	24505
835.097	24311
835.235	24498
835.373	24422
835.511	24388
835.65	24285
835.788	24323
835.926	24136
836.064	24034
836.202	24076
836.34	24292
836.478	24289
836.615	24194
836.753	24232
836.891	24254
837.029	24243
837.167	24182
837.305	24106
837.443	24045
837.58	24079
837.718	24254
837.856	24034
837.993	24064
838.131	24114
838.269	23885
838.406	23904
838.544	23939
838.681	23714
838.819	23649
838.956	23585
839.094	23486
839.231	23543
839.369	23699
839.506	23977
839.643	23775
839.781	23581
839.918	23520
840.055	23509
840.193	23440
840.33	23452
840.467	23520
840.604	23551
840.742	23707
840.879	23284
841.016	23459
841.153	23353
841.29	23592
841.427	23398
841.564	23395
841.701	23501
841.838	23452
841.975	23299
842.112	23269
842.249	23239
842.385	23208
842.522	23417
842.659	23265
842.796	23178
842.933	23143
843.069	23185
843.206	23235
843.343	23246
843.479	23212
843.616	23159
843.752	22968
843.889	22972
844.025	23044
844.162	22934
844.298	23121
844.435	22934
844.571	22995
844.708	22938
844.844	23090
844.98	23044
845.117	23102
845.253	22904
845.389	22911
845.525	22991
845.661	22850
845.798	22721
845.934	22702
846.07	22637
846.206	22744
846.342	22748
846.478	22706
846.614	22451
846.75	22314
846.886	22421
847.022	22550
847.158	22386
847.294	22455
847.429	22554
847.565	22386
847.701	22573
847.837	22124
847.972	22109
848.108	22192
848.244	22166
848.379	22067
848.515	22032
848.65	21964
848.786	22147
848.921	21953
849.057	22074
849.192	22097
849.328	22044
849.463	22090
849.598	21941
849.734	21884
849.869	21857
850.004	21793
850.14	21861
850.275	21819
850.41	21808
850.545	21724
850.68	21861
850.815	21865
850.95	21698
851.085	21842
851.22	21865
851.355	21846
851.49	21739
851.625	21770
851.76	21686
851.895	21652
852.03	21747
852.165	21819
852.299	21926
852.434	21838
852.569	21842
852.703	21717
852.838	21941
852.973	21937
853.107	21926
853.242	21713
853.376	21751
853.511	21469
853.645	21614
853.78	21720
853.914	21549
854.048	21686
854.183	21606
854.317	21656
854.451	21762
854.585	21633
854.72	21652
854.854	21656
854.988	21469
855.122	21629
855.256	21473
855.39	21507
855.524	21732
855.658	21557
855.792	21614
855.926	21603
856.06	21644
856.194	21595
856.327	21660
856.461	21610
856.595	21564
856.729	21610
856.862	21610
856.996	21736
857.13	21557
857.263	21781
857.397	21656
857.53	21675
857.664	21720
857.797	21732
857.931	21698
858.064	21644
858.197	21690
858.331	21481
858.464	21603
858.597	21458
858.731	21572
858.864	21576
858.997	21450
859.13	21599
859.263	21606
859.396	21675
859.529	21526
859.662	21500
859.795	21553
859.928	21576
860.061	21728
860.194	21800
860.327	21679
860.46	21622
860.592	21728
860.725	21728
860.858	21739
860.99	21534
861.123	21534
861.256	21481
861.388	21728
861.521	22192
861.653	21420
861.786	21393
861.918	21492
862.05	21549
862.183	21477
862.315	21625
862.447	21599
862.58	21447
862.712	21287
862.844	21348
862.976	21389
863.108	21397
863.24	21747
863.372	21226
863.504	21252
863.636	21321
863.768	21466
863.9	21306
864.032	21283
864.164	21378
864.296	21336
864.428	21408
864.559	21340
864.691	21348
864.823	21332
864.954	21393
865.086	21226
865.217	21173
865.349	21222
865.48	21188
865.612	21313
865.743	21294
865.875	21195
866.006	21070
866.137	21165
866.269	21355
866.4	21165
866.531	21077
866.662	21142
866.793	21093
866.924	21150
867.055	21142
867.186	21123
867.317	21051
867.448	21013
867.579	21150
867.71	21100
867.841	21058
867.972	21176
868.103	21036
868.233	21020
868.364	21154
868.495	21169
868.625	21500
868.756	21340
868.886	21344
869.017	21336
869.147	21329
869.278	21542
869.408	21363
869.539	21481
869.669	21344
869.799	21359
869.929	21473
870.06	21473
870.19	21656
870.32	21557
870.45	21698
870.58	21660
870.71	21827
870.84	21785
870.97	21804
871.1	21770
871.23	21850
871.36	21945
871.489	21895
871.619	21743
871.749	22006
871.879	21937
872.008	22120
872.138	21991
872.267	21991
872.397	21850
872.526	21823
872.656	21800
872.785	21694
872.915	22010
873.044	22006
873.173	21895
873.303	21960
873.432	22109
873.561	22097
873.69	21975
873.819	21994
873.948	21998
874.077	22017
874.206	21968
874.335	21941
874.464	22143
874.593	22192
874.722	22093
874.851	22337
874.979	22188
875.108	22249
875.237	22158
875.365	22017
875.494	22070
875.623	22226
875.751	22169
875.88	22310
876.008	22268
876.136	22371
876.265	22645
876.393	22839
876.521	22580
876.65	22596
876.778	22645
876.906	22546
877.034	22519
877.162	22470
877.29	22440
877.418	22561
877.546	22489
877.674	22577
877.802	22535
877.93	22565
878.058	22542
878.185	22413
878.313	22504
878.441	22542
878.568	22428
878.696	22333
878.824	22440
878.951	22634
879.079	22793
879.206	22824
879.333	22740
879.461	22656
879.588	22687
879.715	22615
879.842	22866
879.97	22615
880.097	22398
880.224	22272
880.351	22432
880.478	22272
880.605	22459
880.732	22402
880.859	22519
880.986	22363
881.112	22333
881.239	22230
881.366	22139
881.493	21979
881.619	21861
881.746	22006
881.872	21930
881.999	21941
882.125	21975
882.252	22006
882.378	21930
882.505	22010
882.631	21747
882.757	21625
882.883	21827
883.01	21507
883.136	21625
883.262	21500
883.388	21519
883.514	21671
883.64	21603
883.766	21481
883.892	21393
884.018	21408
884.143	21675
884.269	21660
884.395	21291
884.52	21241
884.646	21131
884.772	21237
884.897	21355
885.023	21287
885.148	21336
885.274	21264
885.399	21237
885.524	21245
885.65	21287
885.775	21249
885.9	21173
886.025	21367
886.15	21469
886.275	21161
886.4	21184
886.525	21188
886.65	21112
886.775	21195
886.9	21408
887.025	21568
887.149	21313
887.274	21116
887.399	21127
887.523	21089
887.648	21100
887.773	21051
887.897	21055
888.021	21028
888.146	20967
888.27	21131
888.395	21077
888.519	21142
888.643	20994
888.767	21104
888.891	20941
889.015	20769
889.139	20986
889.263	20792
889.387	20933
889.511	20979
889.635	21032
889.759	20773
889.883	20826
890.006	20701
890.13	20952
890.254	20785
890.377	20777
890.501	20549
890.624	20571
890.748	20667
890.871	20537
890.995	20415
891.118	20370
891.241	20423
891.364	20484
891.488	20537
891.611	20434
891.734	20438
891.857	20419
891.98	20362
892.103	20427
892.226	20446
892.349	20305
892.471	20214
892.594	20282
892.717	20332
892.839	20309
892.962	20301
893.085	20431
893.207	20180
893.33	20267
893.452	20244
893.575	20423
893.697	20172
893.819	20499
893.941	20476
894.064	20396
894.186	20161
894.308	20218
894.43	20358
894.552	20393
894.674	20446
894.796	20199
894.918	20168
895.04	20244
895.161	20389
895.283	20377
895.405	20142
895.526	20313
895.648	20298
895.769	20396
895.891	20298
896.012	20290
896.134	20221
896.255	20172
896.376	20172
896.498	20187
896.619	20328
896.74	20309
896.861	20370
896.982	20518
897.103	20781
897.224	20526
897.345	20438
897.466	20465
897.587	20545
897.708	20503
897.828	20522
897.949	20370
898.07	20252
898.19	20427
898.311	20594
898.431	20343
898.552	20488
898.672	20507
898.792	20590
898.913	20423
899.033	20457
899.153	20252
899.273	20153
899.393	20377
899.513	20309
899.633	20290
899.753	20176
899.873	20187
899.993	20320
900.113	20134
900.232	20244
900.352	20119
900.472	20115
900.591	20035
900.711	20107
900.83	20020
900.95	20081
901.069	20134
901.189	19871
901.308	19620
901.427	19559
901.546	19605
901.665	19525
901.784	19624
901.904	19396
902.023	19415
902.141	19206
902.26	19099
902.379	19278
902.498	19023
902.617	19027
902.735	19168
902.854	19145
902.973	18951
903.091	18768
903.21	18768
903.328	18814
903.446	18772
903.565	18642
903.683	18711
903.801	18403
903.919	18464
904.038	18544
904.156	18464
904.274	18486
904.392	18361
904.51	18395
904.627	18289
904.745	18429
904.863	18414
904.981	18197
905.098	17988
905.216	18064
905.334	18098
905.451	18121
905.569	18038
905.686	18064
905.803	18011
905.921	17874
906.038	17912
906.155	17950
906.272	17722
906.389	17680
906.506	17589
906.623	17570
906.74	17554
906.857	17436
906.974	17425
907.091	17524
907.208	17535
907.324	17596
907.441	17372
907.557	17360
907.674	17223
907.79	17311
907.907	17265
908.023	17330
908.139	17288
908.256	17159
908.372	17185
908.488	17155
908.604	17025
908.72	17014
908.836	16987
908.952	16908
909.068	17041
909.184	17197
909.3	16942
909.415	17083
909.531	17071
909.647	16672
909.762	16668
909.878	16706
909.993	16729
910.108	16580
910.224	16607
910.339	16675
910.454	16523
910.57	16516
910.685	16512
910.8	16698
910.915	16554
911.03	16451
911.145	16329
911.259	16306
911.374	16284
911.489	16173
911.604	16116
911.718	15994
911.833	16086
911.947	15941
912.062	15922
912.176	15975
912.291	15892
912.405	16036
912.519	16238
912.633	16196
912.748	16078
912.862	16017
912.976	15804
913.09	15724
913.204	15770
913.318	15911
913.431	15968
913.545	15926
913.659	15998
913.772	15789
913.886	15549
914	15618
914.113	15682
914.226	15747
914.34	15667
914.453	15504
914.566	15694
914.68	15492
914.793	15515
914.906	15310
915.019	15207
915.132	15241
915.245	15157
915.358	15245
915.47	15310
915.583	15302
915.696	15272
915.809	15382
915.921	15351
916.034	15279
916.146	15074
916.259	15150
916.371	15199
916.483	15298
916.595	14971
916.708	15127
916.82	15188
916.932	15013
917.044	14986
917.156	14948
917.268	14895
917.38	14880
917.491	15001
917.603	14937
917.715	14887
917.826	14952
917.938	14750
918.049	14735
918.161	14834
918.272	14944
918.384	14982
918.495	14792
918.606	14682
918.717	14511
918.828	14693
918.939	14693
919.05	14541
919.161	14640
919.272	14454
919.383	14575
919.494	14678
919.604	14781
919.715	14621
919.826	14446
919.936	14632
920.047	14674
920.157	14632
920.267	14731
920.378	14511
920.488	14503
920.598	14785
920.708	14918
920.818	14785
920.928	14659
921.038	14853
921.148	14883
921.258	14560
921.368	14530
921.477	14282
921.587	14313
921.697	14191
921.806	14313
921.916	14229
922.025	14100
922.134	13989
922.244	13932
922.353	13940
922.462	13856
922.571	13776
922.68	13586
922.789	13556
922.898	13613
923.007	13540
923.116	13670
923.224	13609
923.333	13533
923.442	13586
923.55	13453
923.659	13468
923.767	13453
923.876	13392
923.984	13518
924.092	13350
924.201	13407
924.309	13453
924.417	13335
924.525	13308
924.633	13297
924.741	14183
924.849	13065
924.956	13179
925.064	13061
925.172	12935
925.279	13015
925.387	13027
925.494	13042
925.602	13110
925.709	13091
925.816	12913
925.924	13034
926.031	13027
926.138	12920
926.245	13034
926.352	12821
926.459	13088
926.566	13038
926.673	12943
926.779	12764
926.886	12749
926.993	12631
927.099	12688
927.206	12498
927.312	12563
927.419	12608
927.525	12559
927.631	12681
927.737	12540
927.843	12407
927.95	12300
928.056	12388
928.162	12418
928.267	12509
928.373	13023
928.479	12464
928.585	12266
928.69	12308
928.796	12437
928.901	12273
929.007	12140
929.112	12262
929.218	12251
929.323	12171
929.428	12152
929.533	12254
929.638	12076
929.743	12038
929.848	12110
929.953	12060
930.058	11870
930.163	11851
930.267	11851
930.372	11977
930.477	11851
930.581	12026
930.685	11969
930.79	11737
930.894	11707
930.998	11684
931.103	11691
931.207	11558
931.311	11379
931.415	11318
931.519	11071
931.623	11064
