Data from test_V78500241_1579.txt Node
Date: Fri Mar 25 15:20:51 CST 2022
User: usil
Spectrometer: V785-0024
Trigger mode: 0
Integration Time (sec): 4.000000E-1
Scans to average: 1
Nonlinearity correction enabled: false
Boxcar width: 0
Storing dark spectrum: false
XAxis mode: Wavelengths
Number of Pixels in Spectrum: 1024
>>>>>Begin Spectral Data<<<<<
801.071	27785
801.214	27629
801.356	27344
801.499	27313
801.641	27214
801.783	27081
801.926	27176
802.068	27169
802.211	27142
802.353	26960
802.496	26811
802.638	27036
802.78	26735
802.923	26762
803.065	26781
803.208	26769
803.35	26701
803.492	27047
803.635	26910
803.777	26880
803.919	26929
804.061	27222
804.204	27005
804.346	26967
804.488	26967
804.63	26975
804.773	26826
804.915	27024
805.057	27176
805.199	27009
805.341	27066
805.483	27066
805.626	27173
805.768	26971
805.91	27077
806.052	27176
806.194	26986
806.336	27157
806.478	27108
806.62	26994
806.762	27081
806.904	27359
807.046	27599
807.188	27534
807.33	27420
807.472	27572
807.614	27462
807.756	27420
807.898	27332
808.04	27363
808.182	27420
808.324	27355
808.465	27485
808.607	27583
808.749	27679
808.891	27739
809.033	27926
809.174	27663
809.316	27720
809.458	27667
809.6	27580
809.741	27667
809.883	27907
810.025	27934
810.166	28086
810.308	28044
810.45	27892
810.591	27865
810.733	27884
810.875	27709
811.016	27614
811.158	27511
811.299	27682
811.441	27850
811.582	27816
811.724	27682
811.865	27720
812.007	27686
812.148	27603
812.29	27667
812.431	27823
812.573	27934
812.714	28154
812.855	28211
812.997	28265
813.138	28523
813.279	28276
813.421	28223
813.562	28158
813.703	28044
813.845	27972
813.986	27698
814.127	27481
814.268	27496
814.41	27447
814.551	27325
814.692	27511
814.833	27416
814.974	27306
815.115	27557
815.256	27359
815.397	27218
815.539	27249
815.68	27100
815.821	27055
815.962	27256
816.103	27173
816.244	27047
816.385	26963
816.526	26842
816.666	26800
816.807	26579
816.948	26758
817.089	26811
817.23	26720
817.371	26640
817.512	26697
817.653	26609
817.793	26609
817.934	26609
818.075	26636
818.216	26686
818.356	26480
818.497	26571
818.638	26480
818.778	26427
818.919	26412
819.06	26415
819.2	26537
819.341	26720
819.481	26617
819.622	26765
819.762	27047
819.903	26914
820.043	26807
820.184	26826
820.324	26842
820.465	26758
820.605	26712
820.746	26861
820.886	26564
821.026	26758
821.167	26804
821.307	26804
821.447	26625
821.588	26499
821.728	26351
821.868	26278
822.008	26081
822.149	26130
822.289	26206
822.429	25814
822.569	25738
822.709	25803
822.849	25780
822.99	25776
823.13	25647
823.27	25597
823.41	25514
823.55	25320
823.69	25578
823.83	25411
823.97	25392
824.11	25301
824.25	25217
824.389	25221
824.529	25339
824.669	25225
824.809	25472
824.949	25274
825.089	25327
825.228	25426
825.368	25076
825.508	25118
825.648	25152
825.787	25103
825.927	25202
826.067	25107
826.206	25171
826.346	25122
826.485	25263
826.625	25114
826.765	25289
826.904	25137
827.044	24947
827.183	24977
827.323	24897
827.462	24958
827.601	24856
827.741	24795
827.88	24897
828.02	24840
828.159	24802
828.298	24878
828.437	24913
828.577	24798
828.716	25034
828.855	24871
828.994	24536
829.134	24555
829.273	24601
829.412	24551
829.551	24460
829.69	24505
829.829	24517
829.968	24612
830.107	24734
830.246	24559
830.385	24388
830.524	24498
830.663	24372
830.802	24369
830.941	24182
831.08	24091
831.219	24296
831.357	24300
831.496	24319
831.635	24216
831.774	24148
831.913	24049
832.051	23923
832.19	23889
832.329	24015
832.467	23817
832.606	23809
832.744	23752
832.883	23813
833.022	23783
833.16	23908
833.299	23771
833.437	23893
833.576	23859
833.714	23866
833.852	23999
833.991	23961
834.129	23973
834.267	24030
834.406	24030
834.544	23901
834.682	23916
834.821	23790
834.959	24041
835.097	23901
835.235	23897
835.373	23851
835.511	23920
835.65	23737
835.788	23642
835.926	23535
836.064	23615
836.202	23642
836.34	23802
836.478	23752
836.615	23623
836.753	23836
836.891	23885
837.029	23748
837.167	23687
837.305	23604
837.443	23501
837.58	23581
837.718	23516
837.856	23668
837.993	23520
838.131	23566
838.269	23379
838.406	23482
838.544	23353
838.681	23151
838.819	23265
838.956	23204
839.094	23067
839.231	23075
839.369	23155
839.506	23509
839.643	23231
839.781	22995
839.918	23041
840.055	22957
840.193	22976
840.33	22961
840.467	23014
840.604	22873
840.742	23212
840.879	22725
841.016	22877
841.153	22812
841.29	23094
841.427	22892
841.564	22980
841.701	22892
841.838	22942
841.975	22915
842.112	22767
842.249	22717
842.385	22717
842.522	22828
842.659	22679
842.796	22634
842.933	22729
843.069	22618
843.206	22702
843.343	22809
843.479	22869
843.616	22843
843.752	22538
843.889	22519
844.025	22653
844.162	22424
844.298	22694
844.435	22508
844.571	22474
844.708	22630
844.844	22653
844.98	22580
845.117	22691
845.253	22493
845.389	22432
845.525	22306
845.661	22341
845.798	22314
845.934	22249
846.07	22139
846.206	22295
846.342	22337
846.478	22211
846.614	21998
846.75	21857
846.886	21994
847.022	21991
847.158	22002
847.294	21892
847.429	22010
847.565	21918
847.701	22131
847.837	21709
847.972	21705
848.108	21770
848.244	21739
848.379	21660
848.515	21500
848.65	21473
848.786	21534
848.921	21530
849.057	21663
849.192	21671
849.328	21553
849.463	21477
849.598	21435
849.734	21401
849.869	21374
850.004	21363
850.14	21306
850.275	21283
850.41	21222
850.545	21355
850.68	21332
850.815	21416
850.95	21260
851.085	21405
851.22	21393
851.355	21351
851.49	21256
851.625	21199
851.76	21188
851.895	21237
852.03	21089
852.165	21260
852.299	21249
852.434	21454
852.569	21355
852.703	21329
852.838	21306
852.973	21351
853.107	21412
853.242	21378
853.376	21146
853.511	20956
853.645	21157
853.78	21203
853.914	21108
854.048	21100
854.183	21112
854.317	21199
854.451	21306
854.585	21127
854.72	21142
854.854	21264
854.988	21093
855.122	21165
855.256	20906
855.39	21070
855.524	21275
855.658	21165
855.792	21180
855.926	21275
856.06	21192
856.194	21176
856.327	21116
856.461	20994
856.595	21024
856.729	21180
856.862	21203
856.996	21180
857.13	21195
857.263	21188
857.397	21184
857.53	21127
857.664	21192
857.797	21226
857.931	21154
858.064	21195
858.197	21272
858.331	21077
858.464	21013
858.597	20918
858.731	21070
858.864	21104
858.997	21100
859.13	21169
859.263	21081
859.396	21241
859.529	21077
859.662	21074
859.795	21104
859.928	21077
860.061	21260
860.194	21245
860.327	21112
860.46	21116
860.592	21348
860.725	21359
860.858	21218
860.99	21100
861.123	20868
861.256	21055
861.388	21032
861.521	21766
861.653	20914
861.786	20937
861.918	21005
862.05	20971
862.183	21036
862.315	21036
862.447	21127
862.58	20994
862.712	20743
862.844	20682
862.976	20979
863.108	20899
863.24	21272
863.372	20708
863.504	20792
863.636	20849
863.768	20807
863.9	20933
864.032	20853
864.164	20819
864.296	20891
864.428	20948
864.559	20902
864.691	20933
864.823	20872
864.954	20765
865.086	20804
865.217	20712
865.349	20621
865.48	20621
865.612	20746
865.743	20887
865.875	20731
866.006	20689
866.137	20667
866.269	20758
866.4	20609
866.531	20674
866.662	20594
866.793	20514
866.924	20613
867.055	20716
867.186	20655
867.317	20655
867.448	20746
867.579	20560
867.71	20663
867.841	20655
867.972	20686
868.103	20648
868.233	20686
868.364	20655
868.495	20746
868.625	20887
868.756	20944
868.886	20724
869.017	20826
869.147	20998
869.278	21005
869.408	20796
869.539	21017
869.669	20994
869.799	21047
869.929	20990
870.06	21005
870.19	21165
870.32	21249
870.45	21310
870.58	21344
870.71	21313
870.84	21256
870.97	21264
871.1	21329
871.23	21477
871.36	21477
871.489	21386
871.619	21416
871.749	21530
871.879	21477
872.008	21542
872.138	21450
872.267	21458
872.397	21321
872.526	21370
872.656	21321
872.785	21329
872.915	21641
873.044	21629
873.173	21652
873.303	21629
873.432	21633
873.561	21660
873.69	21466
873.819	21469
873.948	21561
874.077	21523
874.206	21450
874.335	21405
874.464	21614
874.593	21759
874.722	21713
874.851	21797
874.979	21911
875.108	21789
875.237	21724
875.365	21618
875.494	21660
875.623	21770
875.751	21709
875.88	21762
876.008	21922
876.136	21842
876.265	22314
876.393	22272
876.521	22261
876.65	22230
876.778	22128
876.906	22185
877.034	22090
877.162	22090
877.29	21903
877.418	21945
877.546	22097
877.674	22097
877.802	22158
877.93	22059
878.058	22017
878.185	21930
878.313	21979
878.441	22173
878.568	22002
878.696	21994
878.824	22051
878.951	22223
879.079	22257
879.206	22352
879.333	22154
879.461	22105
879.588	22162
879.715	22154
879.842	22371
879.97	22101
880.097	21968
880.224	21934
880.351	21926
880.478	21949
880.605	21873
880.732	21937
880.859	22150
880.986	21945
881.112	22021
881.239	21854
881.366	21656
881.493	21545
881.619	21629
881.746	21477
881.872	21443
881.999	21519
882.125	21477
882.252	21553
882.378	21485
882.505	21515
882.631	21431
882.757	21074
882.883	21313
883.01	21252
883.136	21230
883.262	21146
883.388	21032
883.514	21192
883.64	21157
883.766	21058
883.892	20941
884.018	21001
884.143	21119
884.269	21222
884.395	20883
884.52	20902
884.646	20823
884.772	20838
884.897	20727
885.023	20899
885.148	20929
885.274	21062
885.399	20979
885.524	20765
885.65	20902
885.775	20739
885.9	20705
886.025	20842
886.15	20994
886.275	20823
886.4	20823
886.525	20777
886.65	20804
886.775	20762
886.9	20918
887.025	21100
887.149	20804
887.274	20670
887.399	20556
887.523	20625
887.648	20488
887.773	20556
887.897	20758
888.021	20686
888.146	20492
888.27	20750
888.395	20815
888.519	20708
888.643	20689
888.767	20712
888.891	20518
889.015	20457
889.139	20511
889.263	20377
889.387	20632
889.511	20568
889.635	20541
889.759	20336
889.883	20434
890.006	20457
890.13	20476
890.254	20381
890.377	20362
890.501	20168
890.624	20130
890.748	20237
890.871	20088
890.995	19967
891.118	19875
891.241	20005
891.364	20020
891.488	20092
891.611	20073
891.734	19963
891.857	20043
891.98	20008
892.103	20043
892.226	20050
892.349	19978
892.471	19784
892.594	19963
892.717	20084
892.839	19868
892.962	19909
893.085	19909
893.207	19883
893.33	19856
893.452	19849
893.575	19978
893.697	19887
893.819	20043
893.941	20107
894.064	20039
894.186	19951
894.308	19909
894.43	19864
894.552	20062
894.674	19970
894.796	19803
894.918	19811
895.04	19830
895.161	19887
895.283	19951
895.405	19883
895.526	19864
895.648	19799
895.769	19864
895.891	19944
896.012	20012
896.134	19898
896.255	19883
896.376	19841
896.498	19947
896.619	19989
896.74	19879
896.861	19959
896.982	20305
897.103	20393
897.224	20119
897.345	20168
897.466	20027
897.587	20130
897.708	20263
897.828	20096
897.949	20062
898.07	19928
898.19	19986
898.311	20237
898.431	20054
898.552	20088
898.672	20259
898.792	20142
898.913	20210
899.033	19871
899.153	19856
899.273	19753
899.393	19837
899.513	19875
899.633	19921
899.753	19936
899.873	19833
899.993	19845
900.113	19799
900.232	19807
900.352	19693
900.472	19674
900.591	19632
900.711	19727
900.83	19677
900.95	19750
901.069	19849
901.189	19487
901.308	19259
901.427	19312
901.546	19247
901.665	19217
901.784	19221
901.904	19179
902.023	18905
902.141	18840
902.26	18749
902.379	18791
902.498	18738
902.617	18798
902.735	18749
902.854	18661
902.973	18745
903.091	18574
903.21	18350
903.328	18486
903.446	18277
903.565	18266
903.683	18251
903.801	18155
903.919	18213
904.038	18205
904.156	18022
904.274	18076
904.392	18091
904.51	17965
904.627	17977
904.745	18034
904.863	17927
904.981	17840
905.098	17756
905.216	17627
905.334	17733
905.451	17672
905.569	17627
905.686	17748
905.803	17608
905.921	17440
906.038	17573
906.155	17524
906.272	17368
906.389	17326
906.506	17223
906.623	17235
906.74	17166
906.857	17067
906.974	17208
907.091	17254
907.208	17334
907.324	17246
907.441	17098
907.557	16965
907.674	17018
907.79	16801
907.907	16908
908.023	16911
908.139	17029
908.256	16934
908.372	16854
908.488	16809
908.604	16656
908.72	16660
908.836	16721
908.952	16561
909.068	16691
909.184	16717
909.3	16679
909.415	16713
909.531	16573
909.647	16390
909.762	16341
909.878	16303
909.993	16344
910.108	16329
910.224	16322
910.339	16337
910.454	16181
910.57	16181
910.685	16173
910.8	16360
910.915	16268
911.03	16112
911.145	15998
911.259	15964
911.374	15956
911.489	15907
911.604	15766
911.718	15656
911.833	15682
911.947	15545
912.062	15500
912.176	15629
912.291	15614
912.405	15724
912.519	15873
912.633	15861
912.748	15679
912.862	15633
912.976	15618
913.09	15355
913.204	15477
913.318	15492
913.431	15625
913.545	15648
913.659	15584
913.772	15473
913.886	15344
914	15272
914.113	15469
914.226	15397
914.34	15420
914.453	15173
914.566	15420
914.68	15195
914.793	15127
914.906	14963
915.019	14864
915.132	14895
915.245	14845
915.358	14956
915.47	14963
915.583	14963
915.696	14921
915.809	15024
915.921	15013
916.034	14876
916.146	14883
916.259	14849
916.371	14925
916.483	14868
916.595	14777
916.708	14845
916.82	14708
916.932	14758
917.044	14727
917.156	14705
917.268	14583
917.38	14727
917.491	14514
917.603	14636
917.715	14762
917.826	14686
917.938	14560
918.049	14427
918.161	14492
918.272	14663
918.384	14693
918.495	14579
918.606	14408
918.717	14328
918.828	14328
918.939	14389
919.05	14305
919.161	14286
919.272	14073
919.383	14107
919.494	14343
919.604	14545
919.715	14332
919.826	14195
919.936	14290
920.047	14355
920.157	14320
920.267	14396
920.378	14351
920.488	14317
920.598	14522
920.708	14663
920.818	14476
920.928	14419
921.038	14533
921.148	14560
921.258	14301
921.368	14130
921.477	14043
921.587	14081
921.697	14016
921.806	14081
921.916	13909
922.025	13753
922.134	13795
922.244	13727
922.353	13791
922.462	13552
922.571	13559
922.68	13403
922.789	13381
922.898	13403
923.007	13301
923.116	13377
923.224	13236
923.333	13259
923.442	13209
923.55	13095
923.659	13126
923.767	13316
923.876	13183
923.984	13194
924.092	13065
924.201	13027
924.309	13141
924.417	13076
924.525	13031
924.633	12981
924.741	13841
924.849	12791
924.956	12935
925.064	12764
925.172	12722
925.279	12795
925.387	12806
925.494	12802
925.602	12863
925.709	12882
925.816	12703
925.924	12783
926.031	12817
926.138	12662
926.245	12814
926.352	12677
926.459	12726
926.566	12741
926.673	12715
926.779	12551
926.886	12574
926.993	12441
927.099	12327
927.206	12289
927.312	12342
927.419	12372
927.525	12289
927.631	12384
927.737	12277
927.843	12144
927.95	12110
928.056	12117
928.162	12251
928.267	12224
928.373	12837
928.479	12216
928.585	12053
928.69	12159
928.796	12235
928.901	12098
929.007	11874
929.112	12064
929.218	11973
929.323	12007
929.428	11828
929.533	12003
929.638	11824
929.743	11942
929.848	11912
929.953	11775
930.058	11741
930.163	11505
930.267	11653
930.372	11767
930.477	11535
930.581	11817
930.685	11668
930.79	11463
930.894	11497
930.998	11425
931.103	11585
931.207	11250
931.311	11151
931.415	11029
931.519	10927
931.623	10839
