Data from test_V78500241_571.txt Node
Date: Fri Mar 25 15:13:50 CST 2022
User: usil
Spectrometer: V785-0024
Trigger mode: 0
Integration Time (sec): 4.000000E-1
Scans to average: 1
Nonlinearity correction enabled: false
Boxcar width: 0
Storing dark spectrum: false
XAxis mode: Wavelengths
Number of Pixels in Spectrum: 1024
>>>>>Begin Spectral Data<<<<<
801.071	27260
801.214	27165
801.356	26948
801.499	26933
801.641	26826
801.783	26667
801.926	26731
802.068	26788
802.211	26571
802.353	26530
802.496	26309
802.638	26351
802.78	26499
802.923	26351
803.065	26374
803.208	26252
803.35	26305
803.492	26457
803.635	26423
803.777	26423
803.919	26461
804.061	26788
804.204	26571
804.346	26355
804.488	26408
804.63	26514
804.773	26431
804.915	26579
805.057	26526
805.199	26461
805.341	26518
805.483	26754
805.626	26651
805.768	26389
805.91	26648
806.052	26590
806.194	26511
806.336	26849
806.478	26575
806.62	26682
806.762	26788
806.904	26883
807.046	27127
807.188	26952
807.33	27024
807.472	27047
807.614	26956
807.756	27039
807.898	26918
808.04	26746
808.182	26785
808.324	26967
808.465	26982
808.607	27009
808.749	27096
808.891	27237
809.033	27340
809.174	27317
809.316	27344
809.458	27268
809.6	27287
809.741	27332
809.883	27538
810.025	27549
810.166	27405
810.308	27439
810.45	27618
810.591	27443
810.733	27321
810.875	27184
811.016	27146
811.158	27070
811.299	27336
811.441	27348
811.582	27298
811.724	27256
811.865	27024
812.007	27142
812.148	27218
812.29	27279
812.431	27252
812.573	27450
812.714	27690
812.855	27789
812.997	27774
813.138	28017
813.279	27899
813.421	27781
813.562	27888
813.703	27572
813.845	27427
813.986	27218
814.127	26925
814.268	26914
814.41	26918
814.551	26838
814.692	27013
814.833	26979
814.974	26994
815.115	26918
815.256	26708
815.397	26743
815.539	26857
815.68	26765
815.821	26473
815.962	26689
816.103	26640
816.244	26636
816.385	26415
816.526	26366
816.666	26332
816.807	26195
816.948	26256
817.089	26309
817.23	26370
817.371	26225
817.512	26275
817.653	26195
817.793	26176
817.934	26225
818.075	26187
818.216	26195
818.356	26153
818.497	26008
818.638	25944
818.778	25921
818.919	25852
819.06	26046
819.2	26115
819.341	26111
819.481	26172
819.622	26240
819.762	26473
819.903	26343
820.043	26358
820.184	26237
820.324	26301
820.465	26511
820.605	26180
820.746	26377
820.886	26202
821.026	26240
821.167	26240
821.307	26355
821.447	26259
821.588	26081
821.728	25917
821.868	25776
822.008	25590
822.149	25715
822.289	25635
822.429	25400
822.569	25293
822.709	25327
822.849	25122
822.99	25152
823.13	25065
823.27	25118
823.41	24935
823.55	24958
823.69	24943
823.83	24981
823.97	25012
824.11	24688
824.25	24673
824.389	24772
824.529	24806
824.669	24802
824.809	24844
824.949	24901
825.089	24810
825.228	24734
825.368	24631
825.508	24582
825.648	24555
825.787	24696
825.927	24711
826.067	24563
826.206	24623
826.346	24566
826.485	24646
826.625	24635
826.765	24859
826.904	24715
827.044	24388
827.183	24376
827.323	24327
827.462	24407
827.601	24334
827.741	24285
827.88	24532
828.02	24216
828.159	24308
828.298	24266
828.437	24403
828.577	24357
828.716	24407
828.855	24346
828.994	24045
829.134	23980
829.273	24148
829.412	23920
829.551	24068
829.69	24045
829.829	23939
829.968	24041
830.107	24015
830.246	24087
830.385	24159
830.524	23870
830.663	23855
830.802	23714
830.941	23668
831.08	23608
831.219	23695
831.357	23703
831.496	23885
831.635	23691
831.774	23638
831.913	23638
832.051	23539
832.19	23440
832.329	23478
832.467	23345
832.606	23280
832.744	23193
832.883	23174
833.022	23387
833.16	23501
833.299	23372
833.437	23356
833.576	23524
833.714	23512
833.852	23429
833.991	23531
834.129	23440
834.267	23646
834.406	23474
834.544	23379
834.682	23539
834.821	23505
834.959	23691
835.097	23356
835.235	23345
835.373	23372
835.511	23368
835.65	23280
835.788	23204
835.926	23140
836.064	23029
836.202	23094
836.34	23334
836.478	23379
836.615	23128
836.753	23185
836.891	23273
837.029	23166
837.167	23124
837.305	23254
837.443	23204
837.58	23086
837.718	23155
837.856	23159
837.993	23102
838.131	23105
838.269	22972
838.406	23064
838.544	22877
838.681	22706
838.819	22828
838.956	22679
839.094	22580
839.231	22637
839.369	22782
839.506	22995
839.643	22854
839.781	22626
839.918	22523
840.055	22607
840.193	22588
840.33	22542
840.467	22550
840.604	22618
840.742	22816
840.879	22379
841.016	22428
841.153	22352
841.29	22622
841.427	22500
841.564	22481
841.701	22557
841.838	22436
841.975	22352
842.112	22474
842.249	22329
842.385	22306
842.522	22462
842.659	22386
842.796	22196
842.933	22196
843.069	22105
843.206	22310
843.343	22261
843.479	22261
843.616	22215
843.752	22055
843.889	22128
844.025	22074
844.162	22112
844.298	22105
844.435	22169
844.571	21941
844.708	21903
844.844	22303
844.98	22120
845.117	22162
845.253	21983
845.389	21934
845.525	21987
845.661	21857
845.798	21701
845.934	21838
846.07	21850
846.206	21842
846.342	21819
846.478	21709
846.614	21618
846.75	21515
846.886	21435
847.022	21644
847.158	21641
847.294	21580
847.429	21633
847.565	21545
847.701	21785
847.837	21329
847.972	21237
848.108	21386
848.244	21264
848.379	21138
848.515	21089
848.65	21199
848.786	21104
848.921	21161
849.057	21310
849.192	21260
849.328	21154
849.463	21024
849.598	21222
849.734	20918
849.869	20914
850.004	20933
850.14	20937
850.275	20971
850.41	20902
850.545	20769
850.68	20853
850.815	20906
850.95	20941
851.085	21047
851.22	21020
851.355	20826
851.49	20929
851.625	20743
851.76	20872
851.895	20861
852.03	20720
852.165	20849
852.299	20910
852.434	21039
852.569	20876
852.703	20861
852.838	20986
852.973	20910
853.107	20929
853.242	20804
853.376	20777
853.511	20575
853.645	20598
853.78	20853
853.914	20712
854.048	20682
854.183	20750
854.317	20800
854.451	20842
854.585	20724
854.72	20617
854.854	20743
854.988	20758
855.122	20602
855.256	20644
855.39	20705
855.524	20823
855.658	20754
855.792	20693
855.926	20842
856.06	20823
856.194	20857
856.327	20739
856.461	20712
856.595	20571
856.729	20560
856.862	20910
856.996	20727
857.13	20750
857.263	20765
857.397	20773
857.53	20708
857.664	20663
857.797	20872
857.931	20868
858.064	20712
858.197	20944
858.331	20674
858.464	20632
858.597	20659
858.731	20609
858.864	20651
858.997	20632
859.13	20762
859.263	20663
859.396	20815
859.529	20708
859.662	20602
859.795	20644
859.928	20800
860.061	20830
860.194	20971
860.327	20899
860.46	20682
860.592	20735
860.725	20826
860.858	20830
860.99	20781
861.123	20556
861.256	20629
861.388	20686
861.521	21458
861.653	20632
861.786	20495
861.918	20522
862.05	20552
862.183	20609
862.315	20568
862.447	20724
862.58	20587
862.712	20328
862.844	20514
862.976	20507
863.108	20415
863.24	20830
863.372	20457
863.504	20370
863.636	20427
863.768	20507
863.9	20438
864.032	20332
864.164	20377
864.296	20488
864.428	20590
864.559	20549
864.691	20461
864.823	20473
864.954	20358
865.086	20511
865.217	20252
865.349	20389
865.48	20313
865.612	20419
865.743	20545
865.875	20393
866.006	20358
866.137	20370
866.269	20343
866.4	20233
866.531	20256
866.662	20267
866.793	20172
866.924	20237
867.055	20301
867.186	20252
867.317	20248
867.448	20187
867.579	20214
867.71	20103
867.841	20263
867.972	20339
868.103	20218
868.233	20415
868.364	20347
868.495	20286
868.625	20476
868.756	20590
868.886	20503
869.017	20469
869.147	20549
869.278	20621
869.408	20499
869.539	20431
869.669	20587
869.799	20530
869.929	20701
870.06	20568
870.19	20781
870.32	20838
870.45	20861
870.58	20872
870.71	21005
870.84	20933
870.97	20762
871.1	20899
871.23	21043
871.36	21192
871.489	20967
871.619	21039
871.749	21032
871.879	21188
872.008	21252
872.138	21039
872.267	21051
872.397	20982
872.526	20872
872.656	21051
872.785	20990
872.915	21241
873.044	21268
873.173	21161
873.303	21176
873.432	21077
873.561	21199
873.69	21180
873.819	21070
873.948	21184
874.077	21150
874.206	21036
874.335	21131
874.464	21268
874.593	21310
874.722	21359
874.851	21405
874.979	21389
875.108	21443
875.237	21260
875.365	21268
875.494	21332
875.623	21386
875.751	21306
875.88	21431
876.008	21526
876.136	21568
876.265	21823
876.393	21941
876.521	21755
876.65	21918
876.778	21797
876.906	21652
877.034	21739
877.162	21770
877.29	21736
877.418	21705
877.546	21762
877.674	21713
877.802	21652
877.93	21698
878.058	21648
878.185	21637
878.313	21652
878.441	21717
878.568	21485
878.696	21526
878.824	21751
878.951	21698
879.079	21937
879.206	21983
879.333	21926
879.461	21789
879.588	21903
879.715	21956
879.842	21972
879.97	21861
880.097	21561
880.224	21530
880.351	21675
880.478	21614
880.605	21504
880.732	21568
880.859	21812
880.986	21564
881.112	21519
881.239	21355
881.366	21313
881.493	21173
881.619	21074
881.746	21256
881.872	21188
881.999	21127
882.125	21135
882.252	21138
882.378	21127
882.505	21226
882.631	20967
882.757	20731
882.883	21001
883.01	20819
883.136	20735
883.262	20708
883.388	20697
883.514	20838
883.64	20853
883.766	20807
883.892	20541
884.018	20674
884.143	20716
884.269	20819
884.395	20568
884.52	20530
884.646	20571
884.772	20381
884.897	20328
885.023	20427
885.148	20526
885.274	20689
885.399	20590
885.524	20442
885.65	20480
885.775	20629
885.9	20389
886.025	20667
886.15	20648
886.275	20492
886.4	20438
886.525	20465
886.65	20503
886.775	20419
886.9	20568
887.025	20727
887.149	20457
887.274	20290
887.399	20183
887.523	20229
887.648	20084
887.773	20103
887.897	20278
888.021	20396
888.146	20199
888.27	20332
888.395	20404
888.519	20393
888.643	20267
888.767	20351
888.891	20069
889.015	20088
889.139	20229
889.263	19951
889.387	20161
889.511	20286
889.635	20191
889.759	19986
889.883	19967
890.006	20130
890.13	20180
890.254	20050
890.377	20024
890.501	19803
890.624	19780
890.748	19826
890.871	19700
890.995	19693
891.118	19537
891.241	19575
891.364	19674
891.488	19780
891.611	19639
891.734	19521
891.857	19708
891.98	19628
892.103	19742
892.226	19582
892.349	19632
892.471	19510
892.594	19514
892.717	19677
892.839	19525
892.962	19548
893.085	19624
893.207	19544
893.33	19495
893.452	19487
893.575	19620
893.697	19533
893.819	19685
893.941	19624
894.064	19746
894.186	19506
894.308	19506
894.43	19620
894.552	19738
894.674	19696
894.796	19495
894.918	19521
895.04	19567
895.161	19548
895.283	19639
895.405	19567
895.526	19620
895.648	19510
895.769	19586
895.891	19567
896.012	19548
896.134	19556
896.255	19548
896.376	19525
896.498	19502
896.619	19559
896.74	19510
896.861	19666
896.982	19902
897.103	19925
897.224	19959
897.345	19799
897.466	19742
897.587	19769
897.708	19970
897.828	19849
897.949	19674
898.07	19693
898.19	19696
898.311	19814
898.431	19731
898.552	19822
898.672	19757
898.792	19871
898.913	19868
899.033	19734
899.153	19571
899.273	19487
899.393	19544
899.513	19586
899.633	19544
899.753	19647
899.873	19677
899.993	19540
900.113	19453
900.232	19548
900.352	19445
900.472	19350
900.591	19244
900.711	19327
900.83	19282
900.95	19411
901.069	19400
901.189	19247
901.308	19042
901.427	18840
901.546	18890
901.665	18958
901.784	19057
901.904	18817
902.023	18684
902.141	18593
902.26	18525
902.379	18479
902.498	18433
902.617	18361
902.735	18483
902.854	18441
902.973	18388
903.091	18144
903.21	18152
903.328	18121
903.446	18083
903.565	17950
903.683	17908
903.801	17916
903.919	17920
904.038	17866
904.156	17851
904.274	17756
904.392	17695
904.51	17672
904.627	17737
904.745	17680
904.863	17786
904.981	17558
905.098	17364
905.216	17368
905.334	17463
905.451	17440
905.569	17391
905.686	17414
905.803	17379
905.921	17216
906.038	17429
906.155	17147
906.272	17083
906.389	17079
906.506	16991
906.623	17037
906.74	16991
906.857	16801
906.974	16820
907.091	17045
907.208	17105
907.324	16919
907.441	16797
907.557	16664
907.674	16649
907.79	16611
907.907	16588
908.023	16668
908.139	16599
908.256	16538
908.372	16573
908.488	16459
908.604	16405
908.72	16428
908.836	16322
908.952	16344
909.068	16462
909.184	16470
909.3	16375
909.415	16550
909.531	16318
909.647	16105
909.762	16059
909.878	16086
909.993	16059
910.108	16013
910.224	16048
910.339	16002
910.454	15979
910.57	15861
910.685	15892
910.8	16055
910.915	15987
911.03	15846
911.145	15720
911.259	15679
911.374	15667
911.489	15622
911.604	15553
911.718	15313
911.833	15420
911.947	15412
912.062	15241
912.176	15545
912.291	15462
912.405	15348
912.519	15599
912.633	15614
912.748	15443
912.862	15416
912.976	15199
913.09	15135
913.204	15283
913.318	15287
913.431	15332
913.545	15370
913.659	15359
913.772	15218
913.886	15047
914	14967
914.113	15119
914.226	15218
914.34	15233
914.453	15005
914.566	15123
914.68	14990
914.793	14948
914.906	14667
915.019	14686
915.132	14632
915.245	14697
915.358	14682
915.47	14750
915.583	14693
915.696	14731
915.809	14796
915.921	14758
916.034	14724
916.146	14602
916.259	14564
916.371	14705
916.483	14758
916.595	14602
916.708	14461
916.82	14488
916.932	14545
917.044	14419
917.156	14473
917.268	14355
917.38	14412
917.491	14434
917.603	14393
917.715	14404
917.826	14396
917.938	14313
918.049	14256
918.161	14355
918.272	14442
918.384	14438
918.495	14377
918.606	14206
918.717	14024
918.828	14233
918.939	14092
919.05	14126
919.161	14096
919.272	13928
919.383	14031
919.494	14096
919.604	14309
919.715	14111
919.826	14050
919.936	14008
920.047	14130
920.157	14054
920.267	14149
920.378	14111
920.488	14088
920.598	14309
920.708	14393
920.818	14229
920.928	14263
921.038	14419
921.148	14282
921.258	14107
921.368	13932
921.477	13883
921.587	13788
921.697	13643
921.806	13902
921.916	13715
922.025	13415
922.134	13457
922.244	13411
922.353	13559
922.462	13324
922.571	13331
922.68	13126
922.789	13088
922.898	13194
923.007	13145
923.116	13236
923.224	13057
923.333	13080
923.442	12977
923.55	12996
923.659	13004
923.767	13034
923.876	12943
923.984	12977
924.092	12867
924.201	12867
924.309	12890
924.417	12867
924.525	12806
924.633	12871
924.741	13590
924.849	12616
924.956	12688
925.064	12513
925.172	12486
925.279	12521
925.387	12604
925.494	12563
925.602	12673
925.709	12620
925.816	12513
925.924	12536
926.031	12608
926.138	12509
926.245	12506
926.352	12483
926.459	12578
926.566	12650
926.673	12471
926.779	12330
926.886	12296
926.993	12182
927.099	12144
927.206	12110
927.312	12155
927.419	12155
927.525	12098
927.631	12140
927.737	12049
927.843	12030
927.95	11923
928.056	12019
928.162	11942
928.267	12068
928.373	12639
928.479	12091
928.585	11790
928.69	11946
928.796	11946
928.901	11821
929.007	11722
929.112	11786
929.218	11771
929.323	11741
929.428	11688
929.533	11821
929.638	11672
929.743	11630
929.848	11714
929.953	11604
930.058	11539
930.163	11444
930.267	11417
930.372	11516
930.477	11318
930.581	11608
930.685	11501
930.79	11364
930.894	11364
930.998	11292
931.103	11395
931.207	11067
931.311	10911
931.415	10953
931.519	10721
931.623	10653
