Data from test_V78500241_2635.txt Node
Date: Fri Mar 25 15:28:12 CST 2022
User: usil
Spectrometer: V785-0024
Trigger mode: 0
Integration Time (sec): 4.000000E-1
Scans to average: 1
Nonlinearity correction enabled: false
Boxcar width: 0
Storing dark spectrum: false
XAxis mode: Wavelengths
Number of Pixels in Spectrum: 1024
>>>>>Begin Spectral Data<<<<<
801.071	27024
801.214	26937
801.356	26769
801.499	26773
801.641	26701
801.783	26648
801.926	26819
802.068	26667
802.211	26625
802.353	26602
802.496	26267
802.638	26461
802.78	26240
802.923	26214
803.065	26202
803.208	26225
803.35	26298
803.492	26385
803.635	26412
803.777	26252
803.919	26526
804.061	26724
804.204	26377
804.346	26275
804.488	26233
804.63	26446
804.773	26347
804.915	26347
805.057	26480
805.199	26465
805.341	26453
805.483	26541
805.626	26385
805.768	26404
805.91	26457
806.052	26568
806.194	26507
806.336	26678
806.478	26613
806.62	26621
806.762	26568
806.904	26659
807.046	26963
807.188	26975
807.33	26956
807.472	27089
807.614	26868
807.756	26857
807.898	26716
808.04	26712
808.182	26807
808.324	26815
808.465	26853
808.607	26956
808.749	27165
808.891	27199
809.033	27146
809.174	27070
809.316	27104
809.458	27161
809.6	26967
809.741	27298
809.883	27287
810.025	27462
810.166	27408
810.308	27306
810.45	27332
810.591	27329
810.733	27085
810.875	27096
811.016	27142
811.158	27093
811.299	27211
811.441	27241
811.582	27355
811.724	27279
811.865	27062
812.007	27161
812.148	27135
812.29	27199
812.431	27211
812.573	27336
812.714	27576
812.855	27538
812.997	27637
813.138	27804
813.279	27732
813.421	27515
813.562	27477
813.703	27466
813.845	27150
813.986	26944
814.127	26762
814.268	26697
814.41	26724
814.551	26716
814.692	26933
814.833	26674
814.974	26693
815.115	26876
815.256	26609
815.397	26701
815.539	26621
815.68	26526
815.821	26450
815.962	26556
816.103	26450
816.244	26412
816.385	26282
816.526	26343
816.666	26199
816.807	26046
816.948	26210
817.089	26115
817.23	26195
817.371	25951
817.512	25928
817.653	25871
817.793	25875
817.934	26020
818.075	26092
818.216	26100
818.356	26005
818.497	25883
818.638	25845
818.778	25750
818.919	25689
819.06	25769
819.2	26024
819.341	25978
819.481	25936
819.622	26214
819.762	26400
819.903	26278
820.043	26199
820.184	26142
820.324	26183
820.465	26214
820.605	26221
820.746	26005
820.886	26012
821.026	26221
821.167	26161
821.307	26054
821.447	26008
821.588	25852
821.728	25765
821.868	25685
822.008	25529
822.149	25403
822.289	25453
822.429	25240
822.569	25236
822.709	25240
822.849	25057
822.99	24958
823.13	24909
823.27	24970
823.41	24814
823.55	24627
823.69	24856
823.83	24749
823.97	24726
824.11	24608
824.25	24639
824.389	24703
824.529	24817
824.669	24673
824.809	24863
824.949	24711
825.089	24806
825.228	24593
825.368	24494
825.508	24483
825.648	24547
825.787	24505
825.927	24555
826.067	24563
826.206	24494
826.346	24570
826.485	24540
826.625	24456
826.765	24631
826.904	24536
827.044	24315
827.183	24262
827.323	24232
827.462	24144
827.601	24197
827.741	24144
827.88	24190
828.02	24182
828.159	24159
828.298	24174
828.437	24350
828.577	24311
828.716	24308
828.855	24079
828.994	23973
829.134	23912
829.273	23996
829.412	23912
829.551	23939
829.69	23904
829.829	23908
829.968	23984
830.107	23984
830.246	23954
830.385	23935
830.524	23843
830.663	23843
830.802	23657
830.941	23417
831.08	23531
831.219	23653
831.357	23562
831.496	23710
831.635	23642
831.774	23539
831.913	23425
832.051	23296
832.19	23406
832.329	23242
832.467	23277
832.606	23128
832.744	23140
832.883	23185
833.022	23208
833.16	23204
833.299	23277
833.437	23265
833.576	23421
833.714	23216
833.852	23368
833.991	23311
834.129	23410
834.267	23261
834.406	23250
834.544	23269
834.682	23360
834.821	23242
834.959	23459
835.097	23185
835.235	23364
835.373	23216
835.511	23273
835.65	23159
835.788	23151
835.926	23166
836.064	23071
836.202	23143
836.34	23223
836.478	23162
836.615	23128
836.753	23094
836.891	23212
837.029	23056
837.167	23132
837.305	22942
837.443	22946
837.58	22889
837.718	22972
837.856	22984
837.993	23010
838.131	22961
838.269	22847
838.406	22858
838.544	22782
838.681	22660
838.819	22481
838.956	22584
839.094	22432
839.231	22451
839.369	22717
839.506	22927
839.643	22641
839.781	22466
839.918	22409
840.055	22436
840.193	22375
840.33	22500
840.467	22371
840.604	22447
840.742	22752
840.879	22329
841.016	22394
841.153	22280
841.29	22440
841.427	22276
841.564	22421
841.701	22371
841.838	22246
841.975	22341
842.112	22253
842.249	22303
842.385	22234
842.522	22390
842.659	22363
842.796	22139
842.933	22044
843.069	22109
843.206	22029
843.343	22379
843.479	22192
843.616	22329
843.752	21956
843.889	21899
844.025	21998
844.162	21960
844.298	22002
844.435	21960
844.571	21823
844.708	22002
844.844	22139
844.98	22093
845.117	22017
845.253	21865
845.389	21739
845.525	21739
845.661	21800
845.798	21728
845.934	21675
846.07	21625
846.206	21701
846.342	21736
846.478	21667
846.614	21568
846.75	21408
846.886	21408
847.022	21447
847.158	21519
847.294	21435
847.429	21473
847.565	21397
847.701	21675
847.837	21237
847.972	21119
848.108	21241
848.244	21173
848.379	20982
848.515	21020
848.65	20979
848.786	20982
848.921	20910
849.057	21131
849.192	20986
849.328	21055
849.463	20929
849.598	20944
849.734	20906
849.869	20826
850.004	20804
850.14	20807
850.275	20796
850.41	20697
850.545	20777
850.68	20655
850.815	20811
850.95	20754
851.085	20967
851.22	20960
851.355	20762
851.49	20678
851.625	20750
851.76	20663
851.895	20659
852.03	20682
852.165	20804
852.299	20758
852.434	20830
852.569	20739
852.703	20705
852.838	20792
852.973	20941
853.107	20834
853.242	20693
853.376	20564
853.511	20450
853.645	20533
853.78	20765
853.914	20651
854.048	20579
854.183	20552
854.317	20606
854.451	20804
854.585	20621
854.72	20556
854.854	20674
854.988	20476
855.122	20606
855.256	20446
855.39	20549
855.524	20727
855.658	20644
855.792	20594
855.926	20693
856.06	20731
856.194	20682
856.327	20621
856.461	20560
856.595	20549
856.729	20511
856.862	20678
856.996	20670
857.13	20632
857.263	20602
857.397	20819
857.53	20594
857.664	20571
857.797	20632
857.931	20670
858.064	20575
858.197	20708
858.331	20587
858.464	20651
858.597	20503
858.731	20526
858.864	20499
858.997	20522
859.13	20598
859.263	20754
859.396	20659
859.529	20640
859.662	20583
859.795	20629
859.928	20625
860.061	20708
860.194	20842
860.327	20682
860.46	20568
860.592	20667
860.725	20689
860.858	20796
860.99	20632
861.123	20560
861.256	20541
861.388	20606
861.521	21199
861.653	20465
861.786	20374
861.918	20423
862.05	20484
862.183	20495
862.315	20507
862.447	20598
862.58	20568
862.712	20282
862.844	20313
862.976	20362
863.108	20412
863.24	20864
863.372	20237
863.504	20259
863.636	20442
863.768	20438
863.9	20419
864.032	20298
864.164	20214
864.296	20495
864.428	20286
864.559	20400
864.691	20419
864.823	20298
864.954	20286
865.086	20408
865.217	20294
865.349	20256
865.48	20157
865.612	20256
865.743	20355
865.875	20244
866.006	20210
866.137	20195
866.269	20187
866.4	20206
866.531	20103
866.662	20145
866.793	20081
866.924	20229
867.055	20282
867.186	20199
867.317	20176
867.448	20107
867.579	20149
867.71	20073
867.841	20024
867.972	20119
868.103	20065
868.233	20100
868.364	20244
868.495	20317
868.625	20370
868.756	20434
868.886	20370
869.017	20419
869.147	20507
869.278	20651
869.408	20400
869.539	20343
869.669	20461
869.799	20533
869.929	20499
870.06	20587
870.19	20720
870.32	20689
870.45	20693
870.58	20868
870.71	20994
870.84	20838
870.97	20754
871.1	20765
871.23	21036
871.36	21039
871.489	20826
871.619	20902
871.749	21009
871.879	21093
872.008	21108
872.138	20971
872.267	21062
872.397	20880
872.526	20853
872.656	20807
872.785	20880
872.915	20960
873.044	21100
873.173	20998
873.303	21074
873.432	21055
873.561	21104
873.69	21051
873.819	20963
873.948	21081
874.077	21047
874.206	21020
874.335	21062
874.464	21127
874.593	21355
874.722	21222
874.851	21252
874.979	21230
875.108	21386
875.237	21176
875.365	21146
875.494	21279
875.623	21317
875.751	21325
875.88	21214
876.008	21329
876.136	21469
876.265	21762
876.393	21690
876.521	21759
876.65	21873
876.778	21724
876.906	21660
877.034	21526
877.162	21644
877.29	21648
877.418	21549
877.546	21595
877.674	21549
877.802	21622
877.93	21595
878.058	21610
878.185	21428
878.313	21534
878.441	21595
878.568	21443
878.696	21515
878.824	21736
878.951	21747
879.079	21705
879.206	21800
879.333	21644
879.461	21629
879.588	21679
879.715	21675
879.842	21850
879.97	21686
880.097	21389
880.224	21511
880.351	21549
880.478	21473
880.605	21408
880.732	21458
880.859	21717
880.986	21450
881.112	21454
881.239	21310
881.366	21165
881.493	21093
881.619	21043
881.746	21055
881.872	20986
881.999	20998
882.125	20952
882.252	21009
882.378	20990
882.505	21268
882.631	21028
882.757	20720
882.883	20811
883.01	20739
883.136	20746
883.262	20632
883.388	20526
883.514	20773
883.64	20876
883.766	20697
883.892	20503
884.018	20457
884.143	20743
884.269	20716
884.395	20499
884.52	20374
884.646	20434
884.772	20336
884.897	20240
885.023	20427
885.148	20590
885.274	20587
885.399	20415
885.524	20305
885.65	20343
885.775	20320
885.9	20347
886.025	20423
886.15	20423
886.275	20317
886.4	20324
886.525	20415
886.65	20267
886.775	20267
886.9	20450
887.025	20488
887.149	20259
887.274	20229
887.399	20065
887.523	20100
887.648	20187
887.773	20164
887.897	20282
888.021	20062
888.146	20142
888.27	20229
888.395	20180
888.519	20256
888.643	20218
888.767	20256
888.891	20107
889.015	20122
889.139	19955
889.263	19913
889.387	20062
889.511	20126
889.635	20084
889.759	19978
889.883	19967
890.006	19887
890.13	19967
890.254	19868
890.377	19921
890.501	19753
890.624	19772
890.748	19750
890.871	19571
890.995	19552
891.118	19483
891.241	19609
891.364	19597
891.488	19624
891.611	19563
891.734	19578
891.857	19616
891.98	19537
892.103	19613
892.226	19457
892.349	19544
892.471	19430
892.594	19578
892.717	19400
892.839	19506
892.962	19468
893.085	19434
893.207	19438
893.33	19502
893.452	19514
893.575	19480
893.697	19453
893.819	19559
893.941	19559
894.064	19635
894.186	19468
894.308	19411
894.43	19556
894.552	19556
894.674	19445
894.796	19441
894.918	19563
895.04	19434
895.161	19502
895.283	19624
895.405	19369
895.526	19487
895.648	19415
895.769	19537
895.891	19457
896.012	19521
896.134	19540
896.255	19480
896.376	19400
896.498	19590
896.619	19350
896.74	19491
896.861	19567
896.982	19715
897.103	19868
897.224	19681
897.345	19605
897.466	19635
897.587	19734
897.708	19803
897.828	19685
897.949	19723
898.07	19594
898.19	19700
898.311	19769
898.431	19628
898.552	19715
898.672	19742
898.792	19693
898.913	19639
899.033	19590
899.153	19499
899.273	19537
899.393	19529
899.513	19491
899.633	19457
899.753	19556
899.873	19400
899.993	19422
900.113	19460
900.232	19460
900.352	19285
900.472	19308
900.591	19232
900.711	19232
900.83	19175
900.95	19297
901.069	19301
901.189	19168
901.308	18954
901.427	18863
901.546	19015
901.665	18859
901.784	18810
901.904	18711
902.023	18631
902.141	18384
902.26	18361
902.379	18536
902.498	18311
902.617	18407
902.735	18277
902.854	18262
902.973	18334
903.091	18076
903.21	17961
903.328	17992
903.446	17965
903.565	17889
903.683	17813
903.801	17771
903.919	17805
904.038	17691
904.156	17710
904.274	17680
904.392	17634
904.51	17585
904.627	17680
904.745	17748
904.863	17623
904.981	17387
905.098	17292
905.216	17147
905.334	17273
905.451	17307
905.569	17273
905.686	17345
905.803	17299
905.921	17162
906.038	17178
906.155	17147
906.272	17018
906.389	16976
906.506	16873
906.623	16801
906.74	16721
906.857	16698
906.974	16790
907.091	16938
907.208	16984
907.324	16824
907.441	16713
907.557	16577
907.674	16603
907.79	16535
907.907	16489
908.023	16592
908.139	16653
908.256	16470
908.372	16497
908.488	16424
908.604	16447
908.72	16291
908.836	16367
908.952	16310
909.068	16299
909.184	16386
909.3	16261
909.415	16352
909.531	16306
909.647	15979
909.762	16044
909.878	15918
909.993	16055
910.108	16021
910.224	15987
910.339	15972
910.454	15854
910.57	15778
910.685	15610
910.8	15994
910.915	16082
911.03	15781
911.145	15595
911.259	15618
911.374	15580
911.489	15534
911.604	15614
911.718	15344
911.833	15340
911.947	15367
912.062	15272
912.176	15370
912.291	15485
912.405	15485
912.519	15576
912.633	15538
912.748	15355
912.862	15393
912.976	15214
913.09	15165
913.204	15142
913.318	15112
913.431	15245
913.545	15230
913.659	15218
913.772	15062
913.886	15077
914	14941
914.113	14971
914.226	15062
914.34	15081
914.453	14819
914.566	15081
914.68	14883
914.793	14834
914.906	14617
915.019	14594
915.132	14651
915.245	14659
915.358	14579
915.47	14617
915.583	14629
915.696	14689
915.809	14655
915.921	14655
916.034	14632
916.146	14488
916.259	14530
916.371	14564
916.483	14571
916.595	14495
916.708	14507
916.82	14454
916.932	14351
917.044	14434
917.156	14377
917.268	14206
917.38	14305
917.491	14202
917.603	14286
917.715	14419
917.826	14317
917.938	14202
918.049	14153
918.161	14278
918.272	14248
918.384	14351
918.495	14172
918.606	14062
918.717	14050
918.828	14096
918.939	14065
919.05	13940
919.161	13982
919.272	13826
919.383	13860
919.494	14073
919.604	14225
919.715	14062
919.826	13970
919.936	13986
920.047	14088
920.157	14092
920.267	14115
920.378	14020
920.488	13887
920.598	14324
920.708	14275
920.818	14176
920.928	14183
921.038	14282
921.148	14221
921.258	14027
921.368	13906
921.477	13814
921.587	13772
921.697	13597
921.806	13830
921.916	13655
922.025	13548
922.134	13400
922.244	13369
922.353	13487
922.462	13266
922.571	13232
922.68	13152
922.789	13103
922.898	13107
923.007	12996
923.116	13042
923.224	13050
923.333	13076
923.442	12947
923.55	12882
923.659	12989
923.767	13008
923.876	12821
923.984	13000
924.092	12791
924.201	12954
924.309	12722
924.417	12753
924.525	12734
924.633	12703
924.741	13658
924.849	12460
924.956	12764
925.064	12486
925.172	12486
925.279	12582
925.387	12532
925.494	12528
925.602	12604
925.709	12582
925.816	12437
925.924	12509
926.031	12456
926.138	12448
926.245	12486
926.352	12365
926.459	12509
926.566	12593
926.673	12422
926.779	12175
926.886	12285
926.993	12114
927.099	12106
927.206	12057
927.312	11996
927.419	12167
927.525	12076
927.631	12091
927.737	12011
927.843	11863
927.95	11824
928.056	11874
928.162	11935
928.267	12019
928.373	12479
928.479	12072
928.585	11733
928.69	11897
928.796	11859
928.901	11756
929.007	11600
929.112	11790
929.218	11748
929.323	11707
929.428	11585
929.533	11798
929.638	11642
929.743	11566
929.848	11623
929.953	11630
930.058	11452
930.163	11345
930.267	11391
930.372	11551
930.477	11421
930.581	11547
930.685	11455
930.79	11212
930.894	11265
930.998	11223
931.103	11425
931.207	10953
931.311	10900
931.415	10847
931.519	10660
931.623	10691
