Data from test_V78500241_1370.txt Node
Date: Fri Mar 25 15:19:23 CST 2022
User: usil
Spectrometer: V785-0024
Trigger mode: 0
Integration Time (sec): 4.000000E-1
Scans to average: 1
Nonlinearity correction enabled: false
Boxcar width: 0
Storing dark spectrum: false
XAxis mode: Wavelengths
Number of Pixels in Spectrum: 1024
>>>>>Begin Spectral Data<<<<<
801.071	28082
801.214	28074
801.356	27804
801.499	27599
801.641	27557
801.783	27629
801.926	27591
802.068	27637
802.211	27603
802.353	27614
802.496	27329
802.638	27260
802.78	27310
802.923	27291
803.065	27226
803.208	27211
803.35	27260
803.492	27279
803.635	27511
803.777	27477
803.919	27549
804.061	27743
804.204	27542
804.346	27660
804.488	27439
804.63	27363
804.773	27424
804.915	27561
805.057	27633
805.199	27591
805.341	27629
805.483	27572
805.626	27492
805.768	27454
805.91	27576
806.052	27671
806.194	27568
806.336	27854
806.478	27637
806.62	27637
806.762	27793
806.904	27911
807.046	28078
807.188	28158
807.33	27922
807.472	28116
807.614	28013
807.756	28109
807.898	27934
808.04	27903
808.182	27922
808.324	27827
808.465	27945
808.607	28181
808.749	28299
808.891	28455
809.033	28462
809.174	28390
809.316	28158
809.458	28162
809.6	28257
809.741	28310
809.883	28519
810.025	28592
810.166	28675
810.308	28489
810.45	28516
810.591	28546
810.733	28455
810.875	28348
811.016	28150
811.158	28200
811.299	28375
811.441	28584
811.582	28451
811.724	28253
811.865	28177
812.007	28257
812.148	28344
812.29	28398
812.431	28432
812.573	28698
812.714	28744
812.855	28919
812.997	28908
813.138	29071
813.279	28961
813.421	28915
813.562	28866
813.703	28729
813.845	28462
813.986	28261
814.127	28040
814.268	28048
814.41	28162
814.551	27934
814.692	28013
814.833	27865
814.974	28059
815.115	27937
815.256	27800
815.397	27800
815.539	27846
815.68	27682
815.821	27770
815.962	27880
816.103	27816
816.244	27755
816.385	27511
816.526	27583
816.666	27386
816.807	27256
816.948	27408
817.089	27530
817.23	27424
817.371	27374
817.512	27237
817.653	27252
817.793	27325
817.934	27348
818.075	27252
818.216	27268
818.356	27195
818.497	27264
818.638	27051
818.778	26994
818.919	27001
819.06	27066
819.2	27169
819.341	27287
819.481	27313
819.622	27439
819.762	27603
819.903	27610
820.043	27519
820.184	27473
820.324	27401
820.465	27443
820.605	27397
820.746	27313
820.886	27218
821.026	27412
821.167	27332
821.307	27310
821.447	27321
821.588	27081
821.728	27127
821.868	26891
822.008	26716
822.149	26705
822.289	26674
822.429	26450
822.569	26389
822.709	26480
822.849	26256
822.99	26301
823.13	26012
823.27	26149
823.41	25921
823.55	26096
823.69	26103
823.83	26043
823.97	25970
824.11	25925
824.25	25902
824.389	25951
824.529	25871
824.669	25928
824.809	25989
824.949	26065
825.089	25970
825.228	26024
825.368	25677
825.508	25571
825.648	25856
825.787	25788
825.927	25822
826.067	25753
826.206	25704
826.346	25894
826.485	25852
826.625	25639
826.765	25982
826.904	25879
827.044	25655
827.183	25499
827.323	25350
827.462	25582
827.601	25578
827.741	25578
827.88	25567
828.02	25358
828.159	25567
828.298	25548
828.437	25544
828.577	25350
828.716	25586
828.855	25308
828.994	25316
829.134	25084
829.273	25449
829.412	25160
829.551	25194
829.69	25209
829.829	25244
829.968	25118
830.107	25133
830.246	25179
830.385	25126
830.524	25065
830.663	24966
830.802	24905
830.941	24741
831.08	24844
831.219	24871
831.357	24802
831.496	24932
831.635	24745
831.774	24715
831.913	24661
832.051	24570
832.19	24677
832.329	24696
832.467	24467
832.606	24399
832.744	24437
832.883	24376
833.022	24407
833.16	24547
833.299	24540
833.437	24585
833.576	24616
833.714	24578
833.852	24566
833.991	24563
834.129	24620
834.267	24559
834.406	24540
834.544	24601
834.682	24490
834.821	24490
834.959	24593
835.097	24456
835.235	24525
835.373	24681
835.511	24528
835.65	24247
835.788	24384
835.926	24197
836.064	24133
836.202	24201
836.34	24353
836.478	24551
836.615	24471
836.753	24342
836.891	24502
837.029	24445
837.167	24205
837.305	24159
837.443	24190
837.58	24072
837.718	24258
837.856	24289
837.993	24144
838.131	24106
838.269	24121
838.406	24034
838.544	24068
838.681	23874
838.819	23722
838.956	23661
839.094	23600
839.231	23699
839.369	23973
839.506	24140
839.643	23863
839.781	23699
839.918	23649
840.055	23752
840.193	23699
840.33	23467
840.467	23737
840.604	23516
840.742	23840
840.879	23353
841.016	23558
841.153	23524
841.29	23596
841.427	23615
841.564	23581
841.701	23661
841.838	23634
841.975	23501
842.112	23410
842.249	23391
842.385	23398
842.522	23649
842.659	23383
842.796	23368
842.933	23258
843.069	23311
843.206	23376
843.343	23349
843.479	23330
843.616	23356
843.752	23022
843.889	23052
844.025	23288
844.162	23029
844.298	23083
844.435	23083
844.571	23075
844.708	23147
844.844	23311
844.98	23174
845.117	23269
845.253	23098
845.389	23113
845.525	22965
845.661	22965
845.798	22885
845.934	22892
846.07	22873
846.206	22938
846.342	22999
846.478	22809
846.614	22782
846.75	22592
846.886	22573
847.022	22565
847.158	22565
847.294	22577
847.429	22656
847.565	22588
847.701	22736
847.837	22398
847.972	22196
848.108	22421
848.244	22474
848.379	22257
848.515	22147
848.65	22207
848.786	22280
848.921	22162
849.057	22287
849.192	22268
849.328	22097
849.463	22082
849.598	22082
849.734	22124
849.869	22006
850.004	22013
850.14	21960
850.275	21873
850.41	21884
850.545	21968
850.68	21816
850.815	21930
850.95	21922
851.085	22086
851.22	21998
851.355	21831
851.49	21816
851.625	21991
851.76	21918
851.895	21641
852.03	21831
852.165	21911
852.299	21949
852.434	22002
852.569	22128
852.703	21895
852.838	21968
852.973	22082
853.107	22040
853.242	21937
853.376	21793
853.511	21618
853.645	21667
853.78	21835
853.914	21694
854.048	21720
854.183	21732
854.317	21762
854.451	21956
854.585	21667
854.72	21766
854.854	21861
854.988	21641
855.122	21827
855.256	21698
855.39	21625
855.524	21759
855.658	21888
855.792	21823
855.926	21816
856.06	21857
856.194	21804
856.327	21720
856.461	21690
856.595	21694
856.729	21663
856.862	21838
856.996	21850
857.13	21831
857.263	21895
857.397	21747
857.53	21823
857.664	21903
857.797	21880
857.931	21911
858.064	21774
858.197	21827
858.331	21770
858.464	21679
858.597	21652
858.731	21713
858.864	21759
858.997	21618
859.13	21812
859.263	21789
859.396	21819
859.529	21827
859.662	21713
859.795	21747
859.928	21663
860.061	21808
860.194	21903
860.327	21846
860.46	21793
860.592	21865
860.725	21922
860.858	21869
860.99	21808
861.123	21724
861.256	21705
861.388	21762
861.521	22303
861.653	21572
861.786	21599
861.918	21595
862.05	21629
862.183	21800
862.315	21800
862.447	21884
862.58	21709
862.712	21500
862.844	21329
862.976	21557
863.108	21542
863.24	21808
863.372	21408
863.504	21469
863.636	21469
863.768	21526
863.9	21523
864.032	21450
864.164	21420
864.296	21473
864.428	21603
864.559	21507
864.691	21561
864.823	21450
864.954	21549
865.086	21538
865.217	21435
865.349	21332
865.48	21317
865.612	21412
865.743	21538
865.875	21405
866.006	21317
866.137	21367
866.269	21306
866.4	21298
866.531	21332
866.662	21268
866.793	21218
866.924	21378
867.055	21313
867.186	21340
867.317	21222
867.448	21252
867.579	21291
867.71	21192
867.841	21135
867.972	21340
868.103	21211
868.233	21233
868.364	21443
868.495	21431
868.625	21481
868.756	21553
868.886	21534
869.017	21534
869.147	21591
869.278	21599
869.408	21595
869.539	21488
869.669	21603
869.799	21435
869.929	21644
870.06	21743
870.19	21781
870.32	21732
870.45	21838
870.58	21812
870.71	22078
870.84	21911
870.97	21732
871.1	21934
871.23	22067
871.36	22093
871.489	22021
871.619	21998
871.749	22086
871.879	21983
872.008	22238
872.138	22154
872.267	22055
872.397	22021
872.526	21915
872.656	21918
872.785	21956
872.915	22109
873.044	22120
873.173	22032
873.303	22200
873.432	22268
873.561	22261
873.69	22185
873.819	22093
873.948	22185
874.077	22226
874.206	22048
874.335	22135
874.464	22284
874.593	22303
874.722	22204
874.851	22318
874.979	22417
875.108	22348
875.237	22405
875.365	22226
875.494	22409
875.623	22531
875.751	22390
875.88	22379
876.008	22481
876.136	22474
876.265	22721
876.393	22930
876.521	22812
876.65	22831
876.778	22698
876.906	22744
877.034	22660
877.162	22683
877.29	22687
877.418	22569
877.546	22672
877.674	22660
877.802	22767
877.93	22721
878.058	22653
878.185	22508
878.313	22599
878.441	22634
878.568	22462
878.696	22592
878.824	22637
878.951	22653
879.079	22816
879.206	22968
879.333	22866
879.461	22637
879.588	22816
879.715	22847
879.842	22934
879.97	22771
880.097	22497
880.224	22489
880.351	22546
880.478	22588
880.605	22497
880.732	22474
880.859	22786
880.986	22462
881.112	22580
881.239	22261
881.366	22238
881.493	22188
881.619	22078
881.746	22055
881.872	22097
881.999	22105
882.125	22002
882.252	22135
882.378	21975
882.505	22112
882.631	22025
882.757	21667
882.883	21888
883.01	21785
883.136	21876
883.262	21663
883.388	21610
883.514	21827
883.64	21819
883.766	21713
883.892	21416
884.018	21587
884.143	21709
884.269	21770
884.395	21450
884.52	21298
884.646	21466
884.772	21378
884.897	21329
885.023	21370
885.148	21568
885.274	21633
885.399	21549
885.524	21405
885.65	21507
885.775	21374
885.9	21340
886.025	21454
886.15	21439
886.275	21272
886.4	21332
886.525	21443
886.65	21218
886.775	21260
886.9	21492
887.025	21583
887.149	21401
887.274	21207
887.399	21226
887.523	21207
887.648	21009
887.773	21116
887.897	21283
888.021	21146
888.146	21096
888.27	21340
888.395	21256
888.519	21256
888.643	21207
888.767	21306
888.891	20990
889.015	21005
889.139	21032
889.263	20899
889.387	21081
889.511	21131
889.635	21051
889.759	20944
889.883	20887
890.006	20933
890.13	21100
890.254	20921
890.377	20883
890.501	20613
890.624	20792
890.748	20659
890.871	20648
890.995	20377
891.118	20461
891.241	20648
891.364	20381
891.488	20629
891.611	20552
891.734	20594
891.857	20651
891.98	20533
892.103	20537
892.226	20446
892.349	20446
892.471	20362
892.594	20396
892.717	20465
892.839	20442
892.962	20454
893.085	20564
893.207	20332
893.33	20317
893.452	20328
893.575	20457
893.697	20381
893.819	20583
893.941	20522
894.064	20499
894.186	20324
894.308	20492
894.43	20347
894.552	20602
894.674	20438
894.796	20355
894.918	20450
895.04	20396
895.161	20381
895.283	20469
895.405	20351
895.526	20377
895.648	20343
895.769	20480
895.891	20427
896.012	20552
896.134	20526
896.255	20434
896.376	20393
896.498	20328
896.619	20526
896.74	20419
896.861	20499
896.982	20746
897.103	20876
897.224	20590
897.345	20636
897.466	20568
897.587	20674
897.708	20716
897.828	20674
897.949	20488
898.07	20309
898.19	20693
898.311	20743
898.431	20579
898.552	20636
898.672	20632
898.792	20663
898.913	20514
899.033	20434
899.153	20446
899.273	20377
899.393	20412
899.513	20358
899.633	20377
899.753	20434
899.873	20377
899.993	20267
900.113	20244
900.232	20229
900.352	20332
900.472	20176
900.591	20046
900.711	20161
900.83	20130
900.95	20263
901.069	20187
901.189	20016
901.308	19799
901.427	19750
901.546	19700
901.665	19757
901.784	19746
901.904	19571
902.023	19510
902.141	19244
902.26	19206
902.379	19354
902.498	19225
902.617	19099
902.735	19335
902.854	19160
902.973	19126
903.091	18935
903.21	18928
903.328	18859
903.446	18776
903.565	18753
903.683	18764
903.801	18582
903.919	18684
904.038	18650
904.156	18555
904.274	18547
904.392	18502
904.51	18429
904.627	18380
904.745	18506
904.863	18506
904.981	18292
905.098	18121
905.216	18178
905.334	18087
905.451	18155
905.569	18083
905.686	18228
905.803	18091
905.921	17859
906.038	17950
906.155	18026
906.272	17809
906.389	17741
906.506	17657
906.623	17672
906.74	17630
906.857	17573
906.974	17596
907.091	17627
907.208	17722
907.324	17638
907.441	17604
907.557	17341
907.674	17459
907.79	17296
907.907	17334
908.023	17421
908.139	17273
908.256	17246
908.372	17235
908.488	17379
908.604	17079
908.72	17086
908.836	17109
908.952	17006
909.068	17083
909.184	17292
909.3	17079
909.415	17147
909.531	17124
909.647	16744
909.762	16904
909.878	16797
909.993	16828
910.108	16763
910.224	16660
910.339	16782
910.454	16702
910.57	16649
910.685	16531
910.8	16850
910.915	16637
911.03	16596
911.145	16421
911.259	16367
911.374	16398
911.489	16322
911.604	16322
911.718	16090
911.833	16181
911.947	15941
912.062	16021
912.176	16074
912.291	16090
912.405	16071
912.519	16272
912.633	16318
912.748	16249
912.862	16116
912.976	15964
913.09	15816
913.204	15907
913.318	15956
913.431	16143
913.545	16067
913.659	16029
913.772	15903
913.886	15800
914	15869
914.113	15888
914.226	15892
914.34	15797
914.453	15584
914.566	15705
914.68	15660
914.793	15610
914.906	15504
915.019	15336
915.132	15283
915.245	15264
915.358	15374
915.47	15443
915.583	15256
915.696	15252
915.809	15439
915.921	15435
916.034	15310
916.146	15237
916.259	15272
916.371	15317
916.483	15279
916.595	15218
916.708	15184
916.82	15138
916.932	15127
917.044	15112
917.156	15024
917.268	15017
917.38	15013
917.491	14891
917.603	14933
917.715	15055
917.826	15093
917.938	14887
918.049	14762
918.161	14994
918.272	15093
918.384	14998
918.495	14975
918.606	14834
918.717	14674
918.828	14712
918.939	14758
919.05	14682
919.161	14682
919.272	14518
919.383	14552
919.494	14864
919.604	14902
919.715	14705
919.826	14689
919.936	14674
920.047	14670
920.157	14682
920.267	14823
920.378	14651
920.488	14636
920.598	14883
920.708	14971
920.818	14773
920.928	14807
921.038	15055
921.148	14994
921.258	14708
921.368	14575
921.477	14370
921.587	14320
921.697	14305
921.806	14457
921.916	14336
922.025	14084
922.134	14031
922.244	13989
922.353	14065
922.462	14043
922.571	13818
922.68	13715
922.789	13715
922.898	13772
923.007	13658
923.116	13651
923.224	13689
923.333	13704
923.442	13597
923.55	13575
923.659	13506
923.767	13632
923.876	13472
923.984	13548
924.092	13491
924.201	13502
924.309	13441
924.417	13518
924.525	13381
924.633	13308
924.741	14126
924.849	13194
924.956	13244
925.064	13046
925.172	13069
925.279	13160
925.387	13129
925.494	13129
925.602	13278
925.709	13095
925.816	12962
925.924	13084
926.031	13118
926.138	13012
926.245	13202
926.352	12958
926.459	12989
926.566	13080
926.673	13000
926.779	12817
926.886	12882
926.993	12741
927.099	12749
927.206	12631
927.312	12578
927.419	12741
927.525	12642
927.631	12700
927.737	12601
927.843	12559
927.95	12437
928.056	12479
928.162	12566
928.267	12506
928.373	13160
928.479	12604
928.585	12323
928.69	12486
928.796	12456
928.901	12327
929.007	12133
929.112	12361
929.218	12414
929.323	12171
929.428	12239
929.533	12410
929.638	12076
929.743	12155
929.848	12262
929.953	12197
930.058	12049
930.163	11855
930.267	11889
930.372	11958
930.477	11840
930.581	12110
930.685	11889
930.79	11798
930.894	11710
930.998	11764
931.103	11821
931.207	11516
931.311	11497
931.415	11395
931.519	11132
931.623	11128
