Data from test_V78500241_3119.txt Node
Date: Fri Mar 25 15:31:34 CST 2022
User: usil
Spectrometer: V785-0024
Trigger mode: 0
Integration Time (sec): 4.000000E-1
Scans to average: 1
Nonlinearity correction enabled: false
Boxcar width: 0
Storing dark spectrum: false
XAxis mode: Wavelengths
Number of Pixels in Spectrum: 1024
>>>>>Begin Spectral Data<<<<<
801.071	27032
801.214	26929
801.356	26712
801.499	26674
801.641	26625
801.783	26587
801.926	26625
802.068	26526
802.211	26564
802.353	26499
802.496	26218
802.638	26130
802.78	26202
802.923	26115
803.065	26138
803.208	25947
803.35	26115
803.492	26336
803.635	26400
803.777	26252
803.919	26431
804.061	26518
804.204	26339
804.346	26301
804.488	26225
804.63	26313
804.773	26377
804.915	26370
805.057	26320
805.199	26180
805.341	26298
805.483	26290
805.626	26484
805.768	26263
805.91	26488
806.052	26427
806.194	26233
806.336	26522
806.478	26343
806.62	26495
806.762	26453
806.904	26579
807.046	26861
807.188	26845
807.33	26956
807.472	26800
807.614	26720
807.756	26785
807.898	26705
808.04	26575
808.182	26648
808.324	26629
808.465	26674
808.607	26956
808.749	26990
808.891	27131
809.033	27157
809.174	27112
809.316	27028
809.458	26994
809.6	26944
809.741	27116
809.883	27233
810.025	27180
810.166	27325
810.308	27218
810.45	27298
810.591	27207
810.733	27112
810.875	27047
811.016	26960
811.158	27051
811.299	27226
811.441	27157
811.582	27233
811.724	27051
811.865	26986
812.007	26994
812.148	26842
812.29	27001
812.431	27176
812.573	27332
812.714	27370
812.855	27481
812.997	27549
813.138	27656
813.279	27644
813.421	27481
813.562	27332
813.703	27344
813.845	27245
813.986	26792
814.127	26682
814.268	26655
814.41	26758
814.551	26606
814.692	26587
814.833	26602
814.974	26602
815.115	26629
815.256	26453
815.397	26488
815.539	26389
815.68	26453
815.821	26248
815.962	26453
816.103	26374
816.244	26271
816.385	26157
816.526	26157
816.666	25925
816.807	25940
816.948	25913
817.089	26005
817.23	25830
817.371	25936
817.512	25845
817.653	25841
817.793	25898
817.934	25932
818.075	25875
818.216	25894
818.356	25746
818.497	25791
818.638	25639
818.778	25658
818.919	25597
819.06	25734
819.2	25803
819.341	25970
819.481	25860
819.622	26046
819.762	26294
819.903	26157
820.043	26210
820.184	25852
820.324	26035
820.465	26088
820.605	26081
820.746	25849
820.886	25784
821.026	25852
821.167	25894
821.307	26008
821.447	25890
821.588	25765
821.728	25708
821.868	25468
822.008	25419
822.149	25521
822.289	25411
822.429	25019
822.569	25069
822.709	25012
822.849	24932
822.99	24894
823.13	24859
823.27	24749
823.41	24639
823.55	24631
823.69	24791
823.83	24623
823.97	24547
824.11	24445
824.25	24532
824.389	24395
824.529	24578
824.669	24521
824.809	24585
824.949	24646
825.089	24528
825.228	24486
825.368	24262
825.508	24296
825.648	24266
825.787	24486
825.927	24304
826.067	24197
826.206	24270
826.346	24369
826.485	24315
826.625	24460
826.765	24498
826.904	24433
827.044	23988
827.183	24125
827.323	23999
827.462	24201
827.601	24140
827.741	23980
827.88	24148
828.02	23908
828.159	24053
828.298	23973
828.437	23999
828.577	23973
828.716	24155
828.855	23942
828.994	23741
829.134	23878
829.273	23817
829.412	23672
829.551	23680
829.69	23756
829.829	23756
829.968	23843
830.107	23813
830.246	23748
830.385	23615
830.524	23638
830.663	23573
830.802	23505
830.941	23402
831.08	23288
831.219	23490
831.357	23497
831.496	23615
831.635	23444
831.774	23288
831.913	23235
832.051	23105
832.19	23109
832.329	23223
832.467	23288
832.606	23083
832.744	23143
832.883	22847
833.022	23014
833.16	22968
833.299	23132
833.437	23037
833.576	23143
833.714	23094
833.852	23151
833.991	23288
834.129	23239
834.267	23064
834.406	23212
834.544	23143
834.682	23155
834.821	23056
834.959	23273
835.097	22999
835.235	23105
835.373	23124
835.511	23136
835.65	23079
835.788	22801
835.926	22793
836.064	22873
836.202	22858
836.34	23067
836.478	22987
836.615	22816
836.753	22923
836.891	22991
837.029	22968
837.167	22946
837.305	22797
837.443	22904
837.58	22828
837.718	23014
837.856	22755
837.993	22805
838.131	22995
838.269	22599
838.406	22843
838.544	22672
838.681	22421
838.819	22318
838.956	22280
839.094	22272
839.231	22371
839.369	22440
839.506	22713
839.643	22645
839.781	22287
839.918	22200
840.055	22428
840.193	22272
840.33	22234
840.467	22200
840.604	22310
840.742	22470
840.879	22055
841.016	22128
841.153	22147
841.29	22280
841.427	22257
841.564	22211
841.701	22128
841.838	22226
841.975	22162
842.112	22059
842.249	22074
842.385	22010
842.522	22306
842.659	22101
842.796	22032
842.933	22032
843.069	21934
843.206	21918
843.343	22109
843.479	22025
843.616	22112
843.752	21747
843.889	21907
844.025	21926
844.162	21785
844.298	21812
844.435	21743
844.571	21770
844.708	21861
844.844	21907
844.98	21888
845.117	21857
845.253	21671
845.389	21561
845.525	21671
845.661	21568
845.798	21580
845.934	21610
846.07	21485
846.206	21603
846.342	21804
846.478	21583
846.614	21359
846.75	21291
846.886	21207
847.022	21321
847.158	21249
847.294	21188
847.429	21420
847.565	21165
847.701	21420
847.837	21051
847.972	20918
848.108	21089
848.244	21024
848.379	20910
848.515	20781
848.65	20826
848.786	20788
848.921	20861
849.057	20815
849.192	20902
849.328	20853
849.463	20861
849.598	20758
849.734	20648
849.869	20583
850.004	20621
850.14	20712
850.275	20571
850.41	20484
850.545	20461
850.68	20682
850.815	20682
850.95	20724
851.085	20826
851.22	20697
851.355	20590
851.49	20552
851.625	20533
851.76	20488
851.895	20583
852.03	20590
852.165	20526
852.299	20621
852.434	20746
852.569	20697
852.703	20602
852.838	20606
852.973	20735
853.107	20743
853.242	20541
853.376	20362
853.511	20225
853.645	20484
853.78	20511
853.914	20389
854.048	20343
854.183	20442
854.317	20404
854.451	20518
854.585	20533
854.72	20503
854.854	20602
854.988	20389
855.122	20377
855.256	20290
855.39	20518
855.524	20404
855.658	20507
855.792	20438
855.926	20488
856.06	20347
856.194	20556
856.327	20267
856.461	20465
856.595	20278
856.729	20427
856.862	20621
856.996	20473
857.13	20632
857.263	20404
857.397	20541
857.53	20484
857.664	20454
857.797	20427
857.931	20484
858.064	20457
858.197	20564
858.331	20362
858.464	20374
858.597	20305
858.731	20404
858.864	20309
858.997	20267
859.13	20499
859.263	20434
859.396	20427
859.529	20389
859.662	20404
859.795	20320
859.928	20484
860.061	20552
860.194	20674
860.327	20507
860.46	20442
860.592	20476
860.725	20613
860.858	20526
860.99	20526
861.123	20305
861.256	20408
861.388	20434
861.521	20921
861.653	20294
861.786	20271
861.918	20313
862.05	20355
862.183	20355
862.315	20214
862.447	20423
862.58	20377
862.712	20195
862.844	20100
862.976	20214
863.108	20115
863.24	20488
863.372	20058
863.504	20149
863.636	20050
863.768	20081
863.9	20180
864.032	20043
864.164	20157
864.296	20126
864.428	20199
864.559	20252
864.691	20225
864.823	20187
864.954	20107
865.086	20126
865.217	20084
865.349	19902
865.48	20103
865.612	20016
865.743	20134
865.875	20046
866.006	19982
866.137	20024
866.269	20027
866.4	20084
866.531	20008
866.662	19887
866.793	19917
866.924	19963
867.055	20069
867.186	20005
867.317	19955
867.448	19967
867.579	19993
867.71	19955
867.841	19947
867.972	19986
868.103	19917
868.233	19925
868.364	19989
868.495	20111
868.625	20271
868.756	20199
868.886	20237
869.017	20275
869.147	20332
869.278	20301
869.408	20237
869.539	20153
869.669	20259
869.799	20206
869.929	20290
870.06	20381
870.19	20492
870.32	20541
870.45	20499
870.58	20499
870.71	20845
870.84	20754
870.97	20549
871.1	20625
871.23	20788
871.36	20845
871.489	20743
871.619	20834
871.749	20823
871.879	20872
872.008	20956
872.138	20800
872.267	20754
872.397	20792
872.526	20667
872.656	20701
872.785	20800
872.915	20925
873.044	20929
873.173	20807
873.303	20830
873.432	20773
873.561	20921
873.69	20929
873.819	20891
873.948	20929
874.077	20811
874.206	20807
874.335	20830
874.464	21013
874.593	21108
874.722	21150
874.851	21123
874.979	21070
875.108	21192
875.237	21089
875.365	21039
875.494	21176
875.623	21241
875.751	21142
875.88	21154
876.008	21313
876.136	21310
876.265	21583
876.393	21667
876.521	21610
876.65	21656
876.778	21576
876.906	21542
877.034	21523
877.162	21447
877.29	21435
877.418	21458
877.546	21412
877.674	21496
877.802	21557
877.93	21553
878.058	21397
878.185	21355
878.313	21431
878.441	21363
878.568	21283
878.696	21454
878.824	21477
878.951	21580
879.079	21606
879.206	21934
879.333	21549
879.461	21564
879.588	21595
879.715	21743
879.842	21797
879.97	21618
880.097	21401
880.224	21302
880.351	21298
880.478	21359
880.605	21332
880.732	21214
880.859	21606
880.986	21252
881.112	21317
881.239	21252
881.366	21051
881.493	21032
881.619	20937
881.746	20887
881.872	20979
881.999	20948
882.125	20868
882.252	20823
882.378	20971
882.505	20998
882.631	20785
882.757	20720
882.883	20648
883.01	20629
883.136	20598
883.262	20583
883.388	20431
883.514	20552
883.64	20716
883.766	20450
883.892	20347
884.018	20408
884.143	20609
884.269	20636
884.395	20355
884.52	20355
884.646	20389
884.772	20191
884.897	20202
885.023	20271
885.148	20263
885.274	20332
885.399	20400
885.524	20252
885.65	20389
885.775	20237
885.9	20267
886.025	20511
886.15	20275
886.275	20172
886.4	20233
886.525	20282
886.65	20252
886.775	20157
886.9	20259
887.025	20434
887.149	20206
887.274	20134
887.399	19986
887.523	20115
887.648	20001
887.773	19913
887.897	20107
888.021	20164
888.146	19963
888.27	20008
888.395	20096
888.519	20043
888.643	20069
888.767	20202
888.891	19913
889.015	19951
889.139	19951
889.263	19887
889.387	19970
889.511	20050
889.635	19955
889.759	19807
889.883	19841
890.006	19974
890.13	20016
890.254	19651
890.377	19830
890.501	19548
890.624	19518
890.748	19769
890.871	19430
890.995	19499
891.118	19369
891.241	19407
891.364	19487
891.488	19620
891.611	19514
891.734	19358
891.857	19495
891.98	19453
892.103	19510
892.226	19430
892.349	19289
892.471	19240
892.594	19384
892.717	19377
892.839	19377
892.962	19453
893.085	19468
893.207	19369
893.33	19213
893.452	19324
893.575	19365
893.697	19247
893.819	19487
893.941	19483
894.064	19556
894.186	19365
894.308	19316
894.43	19457
894.552	19586
894.674	19476
894.796	19285
894.918	19213
895.04	19343
895.161	19324
895.283	19384
895.405	19354
895.526	19232
895.648	19324
895.769	19335
895.891	19327
896.012	19411
896.134	19582
896.255	19346
896.376	19327
896.498	19312
896.619	19403
896.74	19392
896.861	19502
896.982	19731
897.103	19967
897.224	19742
897.345	19613
897.466	19415
897.587	19597
897.708	19780
897.828	19677
897.949	19624
898.07	19438
898.19	19521
898.311	19746
898.431	19616
898.552	19552
898.672	19704
898.792	19719
898.913	19708
899.033	19510
899.153	19392
899.273	19217
899.393	19460
899.513	19365
899.633	19297
899.753	19453
899.873	19339
899.993	19304
900.113	19255
900.232	19331
900.352	19350
900.472	19179
900.591	19076
900.711	19221
900.83	19202
900.95	19232
901.069	19198
901.189	19019
901.308	18890
901.427	18772
901.546	18749
901.665	18760
901.784	18620
901.904	18642
902.023	18540
902.141	18365
902.26	18296
902.379	18285
902.498	18334
902.617	18239
902.735	18266
902.854	18258
902.973	18308
903.091	18163
903.21	17897
903.328	17904
903.446	17878
903.565	17695
903.683	17676
903.801	17684
903.919	17718
904.038	17790
904.156	17547
904.274	17649
904.392	17505
904.51	17474
904.627	17478
904.745	17482
904.863	17695
904.981	17299
905.098	17208
905.216	17155
905.334	17239
905.451	17231
905.569	17147
905.686	17208
905.803	17220
905.921	16995
906.038	17067
906.155	17014
906.272	16919
906.389	17010
906.506	16752
906.623	16736
906.74	16809
906.857	16668
906.974	16599
907.091	16896
907.208	16934
907.324	16759
907.441	16649
907.557	16447
907.674	16432
907.79	16508
907.907	16367
908.023	16508
908.139	16455
908.256	16428
908.372	16481
908.488	16322
908.604	16261
908.72	16139
908.836	16234
908.952	16116
909.068	16230
909.184	16402
909.3	16200
909.415	16310
909.531	16158
909.647	15892
909.762	15979
909.878	15880
909.993	15899
910.108	15964
910.224	15816
910.339	15850
910.454	15759
910.57	15724
910.685	15682
910.8	15899
910.915	15922
911.03	15770
911.145	15641
911.259	15401
911.374	15584
911.489	15397
911.604	15317
911.718	15241
911.833	15264
911.947	15135
912.062	15150
912.176	15294
912.291	15294
912.405	15302
912.519	15481
912.633	15443
912.748	15351
912.862	15332
912.976	15176
913.09	14994
913.204	15108
913.318	15055
913.431	15127
913.545	15176
913.659	15142
913.772	15066
913.886	14963
914	14918
914.113	14944
914.226	14944
914.34	14941
914.453	14743
914.566	14868
914.68	14746
914.793	14769
914.906	14613
915.019	14549
915.132	14518
915.245	14492
915.358	14465
915.47	14613
915.583	14575
915.696	14522
915.809	14636
915.921	14640
916.034	14461
916.146	14431
916.259	14412
916.371	14488
916.483	14556
916.595	14294
916.708	14488
916.82	14408
916.932	14309
917.044	14328
917.156	14370
917.268	14278
917.38	14271
917.491	14092
917.603	14256
917.715	14271
917.826	14362
917.938	14073
918.049	14008
918.161	14134
918.272	14278
918.384	14191
918.495	14214
918.606	13974
918.717	13864
918.828	13921
918.939	13963
919.05	13860
919.161	13982
919.272	13826
919.383	13898
919.494	13974
919.604	14161
919.715	13970
919.826	13868
919.936	13883
920.047	14005
920.157	13982
920.267	14149
920.378	13955
920.488	13837
920.598	14168
920.708	14225
920.818	14046
920.928	14020
921.038	14244
921.148	14187
921.258	13906
921.368	13803
921.477	13670
921.587	13674
921.697	13529
921.806	13708
921.916	13510
922.025	13411
922.134	13316
922.244	13339
922.353	13434
922.462	13061
922.571	13126
922.68	13053
922.789	12996
922.898	12966
923.007	13015
923.116	13057
923.224	12996
923.333	12932
923.442	12863
923.55	12890
923.659	12878
923.767	12882
923.876	12795
923.984	12837
924.092	12779
924.201	12840
924.309	12821
924.417	12875
924.525	12681
924.633	12612
924.741	13567
924.849	12486
924.956	12570
925.064	12498
925.172	12399
925.279	12429
925.387	12441
925.494	12418
925.602	12646
925.709	12414
925.816	12334
925.924	12407
926.031	12479
926.138	12395
926.245	12407
926.352	12319
926.459	12308
926.566	12441
926.673	12304
926.779	12175
926.886	12251
926.993	12079
927.099	12030
927.206	11965
927.312	11897
927.419	12087
927.525	12068
927.631	11954
927.737	11954
927.843	11897
927.95	11703
928.056	11832
928.162	11954
928.267	11863
928.373	12528
928.479	11950
928.585	11672
928.69	11863
928.796	11882
928.901	11672
929.007	11619
929.112	11794
929.218	11646
929.323	11539
929.428	11634
929.533	11661
929.638	11570
929.743	11501
929.848	11543
929.953	11581
930.058	11471
930.163	11261
930.267	11303
930.372	11497
930.477	11155
930.581	11528
930.685	11311
930.79	11162
930.894	11277
930.998	11166
931.103	11353
931.207	11003
931.311	10915
931.415	10778
931.519	10603
931.623	10603
