Data from test_V78500241_397.txt Node
Date: Fri Mar 25 15:12:37 CST 2022
User: usil
Spectrometer: V785-0024
Trigger mode: 0
Integration Time (sec): 4.000000E-1
Scans to average: 1
Nonlinearity correction enabled: false
Boxcar width: 0
Storing dark spectrum: false
XAxis mode: Wavelengths
Number of Pixels in Spectrum: 1024
>>>>>Begin Spectral Data<<<<<
801.071	27142
801.214	26963
801.356	26819
801.499	26724
801.641	26670
801.783	26674
801.926	26640
802.068	26499
802.211	26389
802.353	26408
802.496	26298
802.638	26115
802.78	26214
802.923	26134
803.065	26122
803.208	26084
803.35	26187
803.492	26347
803.635	26343
803.777	26176
803.919	26305
804.061	26564
804.204	26427
804.346	26142
804.488	26195
804.63	26419
804.773	26199
804.915	26290
805.057	26545
805.199	26400
805.341	26275
805.483	26374
805.626	26423
805.768	26218
805.91	26404
806.052	26450
806.194	26465
806.336	26655
806.478	26442
806.62	26385
806.762	26404
806.904	26625
807.046	26914
807.188	26769
807.33	26689
807.472	26933
807.614	26629
807.756	26902
807.898	26781
808.04	26750
808.182	26602
808.324	26678
808.465	26697
808.607	26925
808.749	26845
808.891	27100
809.033	27146
809.174	27116
809.316	26979
809.458	27047
809.6	26902
809.741	27009
809.883	27043
810.025	27222
810.166	27260
810.308	27256
810.45	27245
810.591	27199
810.733	27043
810.875	26914
811.016	26853
811.158	26849
811.299	27009
811.441	27093
811.582	27005
811.724	26998
811.865	26952
812.007	26948
812.148	26960
812.29	26979
812.431	27043
812.573	27298
812.714	27340
812.855	27515
812.997	27759
813.138	27755
813.279	27599
813.421	27557
813.562	27408
813.703	27283
813.845	27214
813.986	26971
814.127	26667
814.268	26617
814.41	26621
814.551	26419
814.692	26636
814.833	26571
814.974	26606
815.115	26617
815.256	26484
815.397	26590
815.539	26552
815.68	26393
815.821	26377
815.962	26419
816.103	26450
816.244	26343
816.385	26191
816.526	26130
816.666	26115
816.807	25738
816.948	25970
817.089	26016
817.23	25845
817.371	25917
817.512	25917
817.653	25944
817.793	25940
817.934	25837
818.075	25928
818.216	25837
818.356	25909
818.497	25784
818.638	25597
818.778	25731
818.919	25696
819.06	25738
819.2	25769
819.341	25807
819.481	25852
819.622	26027
819.762	26153
819.903	26225
820.043	26153
820.184	25963
820.324	26012
820.465	26043
820.605	26062
820.746	26046
820.886	25845
821.026	26005
821.167	25997
821.307	26161
821.447	25944
821.588	25871
821.728	25799
821.868	25639
822.008	25552
822.149	25282
822.289	25358
822.429	25206
822.569	25091
822.709	24966
822.849	24966
822.99	25095
823.13	24810
823.27	24856
823.41	24669
823.55	24608
823.69	24700
823.83	24696
823.97	24597
824.11	24544
824.25	24540
824.389	24429
824.529	24540
824.669	24467
824.809	24623
824.949	24555
825.089	24639
825.228	24547
825.368	24448
825.508	24475
825.648	24334
825.787	24426
825.927	24433
826.067	24258
826.206	24395
826.346	24410
826.485	24467
826.625	24338
826.765	24544
826.904	24399
827.044	24041
827.183	24163
827.323	24076
827.462	24213
827.601	24197
827.741	24057
827.88	23992
828.02	24030
828.159	24057
828.298	24079
828.437	24129
828.577	23893
828.716	24152
828.855	23916
828.994	23885
829.134	23863
829.273	23824
829.412	23798
829.551	23847
829.69	23737
829.829	23821
829.968	23859
830.107	23904
830.246	23802
830.385	23764
830.524	23809
830.663	23653
830.802	23444
830.941	23383
831.08	23444
831.219	23512
831.357	23505
831.496	23615
831.635	23505
831.774	23402
831.913	23330
832.051	23208
832.19	23208
832.329	23086
832.467	23212
832.606	23102
832.744	23071
832.883	23261
833.022	23037
833.16	23132
833.299	23193
833.437	23212
833.576	23166
833.714	23124
833.852	23284
833.991	23261
834.129	23315
834.267	23208
834.406	23231
834.544	23288
834.682	23223
834.821	23117
834.959	23414
835.097	23048
835.235	23284
835.373	23052
835.511	23166
835.65	23109
835.788	23109
835.926	22900
836.064	22866
836.202	22801
836.34	23064
836.478	23083
836.615	22923
836.753	23094
836.891	23136
837.029	23121
837.167	23044
837.305	23022
837.443	22858
837.58	22911
837.718	22987
837.856	22919
837.993	22828
838.131	22923
838.269	22733
838.406	22839
838.544	22634
838.681	22485
838.819	22459
838.956	22546
839.094	22295
839.231	22455
839.369	22535
839.506	22675
839.643	22641
839.781	22367
839.918	22306
840.055	22443
840.193	22318
840.33	22306
840.467	22325
840.604	22318
840.742	22489
840.879	22173
841.016	22181
841.153	22105
841.29	22493
841.427	22333
841.564	22261
841.701	22329
841.838	22204
841.975	22211
842.112	22303
842.249	22013
842.385	22169
842.522	22234
842.659	22036
842.796	22082
842.933	22086
843.069	21994
843.206	22017
843.343	22306
843.479	22006
843.616	22097
843.752	21941
843.889	21774
844.025	21956
844.162	21728
844.298	21926
844.435	21899
844.571	21736
844.708	21880
844.844	21915
844.98	21918
845.117	22051
845.253	21774
845.389	21622
845.525	21816
845.661	21629
845.798	21515
845.934	21652
846.07	21610
846.206	21542
846.342	21736
846.478	21481
846.614	21450
846.75	21332
846.886	21268
847.022	21401
847.158	21382
847.294	21466
847.429	21348
847.565	21370
847.701	21538
847.837	21020
847.972	21218
848.108	21119
848.244	21176
848.379	20952
848.515	20990
848.65	20899
848.786	20921
848.921	21017
849.057	21013
849.192	21036
849.328	20971
849.463	20857
849.598	20845
849.734	20872
849.869	20823
850.004	20746
850.14	20686
850.275	20804
850.41	20602
850.545	20648
850.68	20636
850.815	20594
850.95	20758
851.085	20960
851.22	20750
851.355	20697
851.49	20667
851.625	20705
851.76	20632
851.895	20514
852.03	20682
852.165	20598
852.299	20670
852.434	20762
852.569	20788
852.703	20735
852.838	20735
852.973	20823
853.107	20895
853.242	20594
853.376	20476
853.511	20324
853.645	20556
853.78	20590
853.914	20457
854.048	20537
854.183	20408
854.317	20511
854.451	20682
854.585	20579
854.72	20438
854.854	20545
854.988	20400
855.122	20488
855.256	20438
855.39	20552
855.524	20613
855.658	20446
855.792	20457
855.926	20507
856.06	20511
856.194	20530
856.327	20450
856.461	20374
856.595	20533
856.729	20457
856.862	20693
856.996	20533
857.13	20648
857.263	20514
857.397	20606
857.53	20457
857.664	20552
857.797	20564
857.931	20705
858.064	20480
858.197	20571
858.331	20431
858.464	20415
858.597	20343
858.731	20518
858.864	20503
858.997	20503
859.13	20446
859.263	20492
859.396	20556
859.529	20461
859.662	20366
859.795	20393
859.928	20362
860.061	20689
860.194	20667
860.327	20518
860.46	20408
860.592	20609
860.725	20644
860.858	20609
860.99	20514
861.123	20499
861.256	20427
861.388	20476
861.521	21123
861.653	20473
861.786	20351
861.918	20408
862.05	20290
862.183	20446
862.315	20408
862.447	20594
862.58	20438
862.712	20233
862.844	20206
862.976	20355
863.108	20362
863.24	20682
863.372	20229
863.504	20206
863.636	20176
863.768	20218
863.9	20278
864.032	20012
864.164	20065
864.296	20233
864.428	20366
864.559	20248
864.691	20301
864.823	20259
864.954	20271
865.086	20259
865.217	20225
865.349	20130
865.48	20176
865.612	20012
865.743	20263
865.875	20168
866.006	20065
866.137	20187
866.269	20100
866.4	20168
866.531	20187
866.662	20024
866.793	20024
866.924	19982
867.055	20107
867.186	20058
867.317	20134
867.448	19970
867.579	20096
867.71	19959
867.841	19936
867.972	20005
868.103	20065
868.233	20122
868.364	20229
868.495	20301
868.625	20267
868.756	20385
868.886	20286
869.017	20358
869.147	20499
869.278	20389
869.408	20324
869.539	20385
869.669	20469
869.799	20305
869.929	20526
870.06	20431
870.19	20640
870.32	20670
870.45	20724
870.58	20712
870.71	20834
870.84	20830
870.97	20754
871.1	20697
871.23	20902
871.36	20929
871.489	20853
871.619	20868
871.749	20925
871.879	20872
872.008	21032
872.138	20826
872.267	20921
872.397	20838
872.526	20659
872.656	20765
872.785	20788
872.915	20944
873.044	21058
873.173	20979
873.303	21043
873.432	21077
873.561	21085
873.69	20948
873.819	20933
873.948	20956
874.077	21051
874.206	20895
874.335	21066
874.464	20990
874.593	21131
874.722	21081
874.851	21199
874.979	21226
875.108	21306
875.237	21104
875.365	21058
875.494	21275
875.623	21214
875.751	21249
875.88	21180
876.008	21302
876.136	21374
876.265	21682
876.393	21720
876.521	21667
876.65	21713
876.778	21675
876.906	21561
877.034	21469
877.162	21542
877.29	21515
877.418	21485
877.546	21667
877.674	21633
877.802	21561
877.93	21488
878.058	21473
878.185	21428
878.313	21477
878.441	21447
878.568	21401
878.696	21454
878.824	21519
878.951	21534
879.079	21648
879.206	21812
879.333	21644
879.461	21633
879.588	21690
879.715	21629
879.842	21892
879.97	21717
880.097	21310
880.224	21378
880.351	21359
880.478	21370
880.605	21351
880.732	21416
880.859	21625
880.986	21336
881.112	21378
881.239	21188
881.366	21089
881.493	20986
881.619	20948
881.746	20944
881.872	20910
881.999	20944
882.125	20914
882.252	20941
882.378	20895
882.505	21028
882.631	20868
882.757	20697
882.883	20667
883.01	20678
883.136	20606
883.262	20438
883.388	20518
883.514	20583
883.64	20571
883.766	20708
883.892	20545
884.018	20343
884.143	20587
884.269	20648
884.395	20301
884.52	20343
884.646	20355
884.772	20183
884.897	20259
885.023	20275
885.148	20370
885.274	20434
885.399	20317
885.524	20252
885.65	20347
885.775	20290
885.9	20191
886.025	20374
886.15	20298
886.275	20195
886.4	20275
886.525	20332
886.65	20183
886.775	20252
886.9	20377
887.025	20514
887.149	20320
887.274	20027
887.399	20005
887.523	20180
887.648	19963
887.773	19856
887.897	20122
888.021	20149
888.146	20096
888.27	20130
888.395	20195
888.519	20088
888.643	20214
888.767	20103
888.891	19909
889.015	19947
889.139	19944
889.263	19849
889.387	20069
889.511	20054
889.635	19947
889.759	19814
889.883	19921
890.006	19845
890.13	19978
890.254	19909
890.377	19814
890.501	19540
890.624	19533
890.748	19594
890.871	19552
890.995	19483
891.118	19308
891.241	19502
891.364	19582
891.488	19575
891.611	19434
891.734	19472
891.857	19487
891.98	19468
892.103	19586
892.226	19514
892.349	19346
892.471	19293
892.594	19407
892.717	19521
892.839	19297
892.962	19396
893.085	19369
893.207	19373
893.33	19293
893.452	19304
893.575	19407
893.697	19426
893.819	19499
893.941	19696
894.064	19434
894.186	19320
894.308	19270
894.43	19502
894.552	19567
894.674	19426
894.796	19304
894.918	19457
895.04	19297
895.161	19403
895.283	19415
895.405	19285
895.526	19263
895.648	19304
895.769	19388
895.891	19430
896.012	19483
896.134	19605
896.255	19381
896.376	19426
896.498	19373
896.619	19441
896.74	19419
896.861	19403
896.982	19799
897.103	19860
897.224	19559
897.345	19655
897.466	19540
897.587	19674
897.708	19693
897.828	19807
897.949	19643
898.07	19388
898.19	19487
898.311	19635
898.431	19632
898.552	19738
898.672	19696
898.792	19670
898.913	19670
899.033	19495
899.153	19529
899.273	19316
899.393	19422
899.513	19377
899.633	19586
899.753	19464
899.873	19308
899.993	19377
900.113	19362
900.232	19464
900.352	19331
900.472	19160
900.591	19240
900.711	19282
900.83	19107
900.95	19240
901.069	19244
901.189	19019
901.308	18867
901.427	18791
901.546	18707
901.665	18760
901.784	18795
901.904	18646
902.023	18532
902.141	18429
902.26	18247
902.379	18289
902.498	18395
902.617	18273
902.735	18330
902.854	18304
902.973	18270
903.091	17984
903.21	18019
903.328	18060
903.446	17866
903.565	17866
903.683	17790
903.801	17665
903.919	17783
904.038	17729
904.156	17657
904.274	17718
904.392	17600
904.51	17573
904.627	17570
904.745	17687
904.863	17703
904.981	17368
905.098	17242
905.216	17204
905.334	17341
905.451	17398
905.569	17284
905.686	17387
905.803	17235
905.921	17071
906.038	17197
906.155	17109
906.272	16930
906.389	17086
906.506	16778
906.623	16869
906.74	16858
906.857	16736
906.974	16717
907.091	16987
907.208	16885
907.324	16847
907.441	16809
907.557	16645
907.674	16500
907.79	16443
907.907	16580
908.023	16516
908.139	16565
908.256	16500
908.372	16394
908.488	16356
908.604	16360
908.72	16139
908.836	16238
908.952	16272
909.068	16303
909.184	16421
909.3	16226
909.415	16265
909.531	16200
909.647	16063
909.762	16112
909.878	15937
909.993	15994
910.108	15915
910.224	16006
910.339	16036
910.454	15850
910.57	15831
910.685	15656
910.8	15903
910.915	15888
911.03	15774
911.145	15618
911.259	15591
911.374	15477
911.489	15572
911.604	15348
911.718	15264
911.833	15310
911.947	15268
912.062	15028
912.176	15279
912.291	15252
912.405	15332
912.519	15572
912.633	15511
912.748	15382
912.862	15348
912.976	15264
913.09	15028
913.204	15013
913.318	15154
913.431	15142
913.545	15264
913.659	15325
913.772	15150
913.886	15032
914	14929
914.113	15039
914.226	14994
914.34	14944
914.453	14887
914.566	15032
914.68	14963
914.793	14792
914.906	14659
915.019	14568
915.132	14434
915.245	14583
915.358	14606
915.47	14594
915.583	14598
915.696	14640
915.809	14731
915.921	14667
916.034	14499
916.146	14564
916.259	14514
916.371	14564
916.483	14530
916.595	14469
916.708	14415
916.82	14442
916.932	14324
917.044	14374
917.156	14286
917.268	14252
917.38	14309
917.491	14282
917.603	14275
917.715	14282
917.826	14332
917.938	14134
918.049	14123
918.161	14134
918.272	14355
918.384	14389
918.495	14225
918.606	14092
918.717	14005
918.828	14077
918.939	14103
919.05	13978
919.161	14008
919.272	13875
919.383	13921
919.494	14077
919.604	14202
919.715	14134
919.826	13989
919.936	13909
920.047	14062
920.157	13947
920.267	14157
920.378	13974
920.488	14065
920.598	14149
920.708	14225
920.818	14081
920.928	14096
921.038	14317
921.148	14138
921.258	14024
921.368	13974
921.477	13795
921.587	13715
921.697	13552
921.806	13765
921.916	13647
922.025	13415
922.134	13358
922.244	13419
922.353	13438
922.462	13289
922.571	13240
922.68	13072
922.789	13019
922.898	13038
923.007	13019
923.116	13137
923.224	13084
923.333	13061
923.442	13015
923.55	12814
923.659	12947
923.767	12977
923.876	12776
923.984	12897
924.092	12806
924.201	12817
924.309	12829
924.417	12897
924.525	12722
924.633	12700
924.741	13636
924.849	12574
924.956	12734
925.064	12490
925.172	12471
925.279	12525
925.387	12448
925.494	12517
925.602	12688
925.709	12506
925.816	12407
925.924	12437
926.031	12532
926.138	12498
926.245	12486
926.352	12452
926.459	12502
926.566	12528
926.673	12365
926.779	12315
926.886	12190
926.993	12083
927.099	12038
927.206	12068
927.312	12045
927.419	12114
927.525	12144
927.631	12121
927.737	12019
927.843	12064
927.95	11855
928.056	11916
928.162	11851
928.267	11984
928.373	12639
928.479	12026
928.585	11775
928.69	11832
928.796	11908
928.901	11870
929.007	11611
929.112	11805
929.218	11665
929.323	11634
929.428	11623
929.533	11775
929.638	11562
929.743	11665
929.848	11600
929.953	11516
930.058	11497
930.163	11364
930.267	11341
930.372	11406
930.477	11318
930.581	11566
930.685	11414
930.79	11345
930.894	11254
930.998	11242
931.103	11421
931.207	11056
931.311	10961
931.415	10877
931.519	10641
931.623	10622
