Data from test_V78500241_1944.txt Node
Date: Fri Mar 25 15:23:23 CST 2022
User: usil
Spectrometer: V785-0024
Trigger mode: 0
Integration Time (sec): 4.000000E-1
Scans to average: 1
Nonlinearity correction enabled: false
Boxcar width: 0
Storing dark spectrum: false
XAxis mode: Wavelengths
Number of Pixels in Spectrum: 1024
>>>>>Begin Spectral Data<<<<<
801.071	27663
801.214	27736
801.356	27462
801.499	27351
801.641	27226
801.783	27310
801.926	27359
802.068	27447
802.211	27199
802.353	27089
802.496	26944
802.638	26834
802.78	26925
802.923	26933
803.065	26731
803.208	26864
803.35	26883
803.492	27020
803.635	27119
803.777	27009
803.919	27127
804.061	27488
804.204	27203
804.346	27142
804.488	26887
804.63	27142
804.773	27070
804.915	27074
805.057	27218
805.199	27222
805.341	27100
805.483	27237
805.626	27096
805.768	27108
805.91	27294
806.052	27313
806.194	27173
806.336	27275
806.478	27256
806.62	27062
806.762	27363
806.904	27500
807.046	27720
807.188	27622
807.33	27682
807.472	27766
807.614	27553
807.756	27553
807.898	27397
808.04	27481
808.182	27523
808.324	27542
808.465	27709
808.607	27656
808.749	27739
808.891	27956
809.033	28044
809.174	27945
809.316	27785
809.458	27892
809.6	27770
809.741	27907
809.883	27956
810.025	28143
810.166	28074
810.308	28063
810.45	28185
810.591	27941
810.733	27907
810.875	27808
811.016	27747
811.158	27641
811.299	27857
811.441	27793
811.582	28063
811.724	27789
811.865	27808
812.007	27679
812.148	27850
812.29	27781
812.431	28055
812.573	28162
812.714	28192
812.855	28356
812.997	28352
813.138	28546
813.279	28451
813.421	28356
813.562	28234
813.703	28135
813.845	28048
813.986	27960
814.127	27743
814.268	27443
814.41	27561
814.551	27439
814.692	27386
814.833	27416
814.974	27492
815.115	27545
815.256	27359
815.397	27252
815.539	27245
815.68	27272
815.821	27150
815.962	27241
816.103	27195
816.244	27310
816.385	27108
816.526	27089
816.666	27055
816.807	26807
816.948	26819
817.089	26910
817.23	26849
817.371	26785
817.512	26758
817.653	26731
817.793	26667
817.934	26765
818.075	26632
818.216	26815
818.356	26724
818.497	26686
818.638	26564
818.778	26431
818.919	26552
819.06	26587
819.2	26727
819.341	26754
819.481	26651
819.622	26880
819.762	27039
819.903	27005
820.043	26971
820.184	26906
820.324	26762
820.465	26887
820.605	26876
820.746	26952
820.886	26716
821.026	26948
821.167	26845
821.307	26804
821.447	26868
821.588	26587
821.728	26590
821.868	26377
822.008	26202
822.149	26275
822.289	26122
822.429	26092
822.569	25966
822.709	25986
822.849	25708
822.99	25887
823.13	25871
823.27	25658
823.41	25620
823.55	25483
823.69	25628
823.83	25696
823.97	25445
824.11	25384
824.25	25346
824.389	25339
824.529	25457
824.669	25346
824.809	25487
824.949	25388
825.089	25381
825.228	25479
825.368	25209
825.508	25251
825.648	25343
825.787	25297
825.927	25365
826.067	25148
826.206	25304
826.346	25308
826.485	25236
826.625	25362
826.765	25373
826.904	25339
827.044	25061
827.183	25129
827.323	24981
827.462	25042
827.601	25122
827.741	25053
827.88	24962
828.02	24760
828.159	25053
828.298	24916
828.437	24977
828.577	25038
828.716	25129
828.855	24935
828.994	24783
829.134	24677
829.273	24764
829.412	24741
829.551	24722
829.69	24692
829.829	24791
829.968	24768
830.107	24795
830.246	24738
830.385	24688
830.524	24612
830.663	24578
830.802	24502
830.941	24266
831.08	24281
831.219	24285
831.357	24429
831.496	24585
831.635	24403
831.774	24292
831.913	24273
832.051	23980
832.19	24121
832.329	24076
832.467	24026
832.606	23946
832.744	24007
832.883	23969
833.022	23901
833.16	24045
833.299	23965
833.437	24038
833.576	23980
833.714	24041
833.852	24110
833.991	23935
834.129	24129
834.267	24129
834.406	24015
834.544	24038
834.682	24079
834.821	24030
834.959	24152
835.097	24038
835.235	24083
835.373	24018
835.511	24045
835.65	23923
835.788	23958
835.926	23836
836.064	23589
836.202	23676
836.34	23965
836.478	23908
836.615	23863
836.753	23904
836.891	23950
837.029	23851
837.167	23965
837.305	23821
837.443	23703
837.58	23790
837.718	23866
837.856	23783
837.993	23623
838.131	23760
838.269	23726
838.406	23672
838.544	23429
838.681	23322
838.819	23356
838.956	23117
839.094	23250
839.231	23337
839.369	23353
839.506	23452
839.643	23486
839.781	23242
839.918	23200
840.055	23231
840.193	23124
840.33	23166
840.467	23090
840.604	23124
840.742	23345
840.879	22915
841.016	23132
841.153	23025
841.29	23185
841.427	23037
841.564	23166
841.701	22991
841.838	23147
841.975	22919
842.112	22938
842.249	22961
842.385	22965
842.522	23102
842.659	22927
842.796	22911
842.933	22904
843.069	22820
843.206	22858
843.343	22919
843.479	22889
843.616	22866
843.752	22637
843.889	22668
844.025	22752
844.162	22691
844.298	22721
844.435	22675
844.571	22584
844.708	22713
844.844	22866
844.98	22729
845.117	22812
845.253	22656
845.389	22455
845.525	22584
845.661	22497
845.798	22451
845.934	22451
846.07	22318
846.206	22462
846.342	22523
846.478	22234
846.614	22211
846.75	22116
846.886	22032
847.022	22242
847.158	22162
847.294	22093
847.429	22128
847.565	22067
847.701	22375
847.837	21880
847.972	21892
848.108	21953
848.244	21926
848.379	21781
848.515	21720
848.65	21675
848.786	21747
848.921	21728
849.057	21781
849.192	21816
849.328	21698
849.463	21701
849.598	21618
849.734	21622
849.869	21557
850.004	21420
850.14	21370
850.275	21580
850.41	21416
850.545	21363
850.68	21412
850.815	21329
850.95	21488
851.085	21694
851.22	21542
851.355	21500
851.49	21443
851.625	21439
851.76	21580
851.895	21386
852.03	21374
852.165	21416
852.299	21538
852.434	21496
852.569	21557
852.703	21469
852.838	21652
852.973	21819
853.107	21572
853.242	21416
853.376	21317
853.511	21195
853.645	21283
853.78	21351
853.914	21325
854.048	21252
854.183	21321
854.317	21306
854.451	21340
854.585	21264
854.72	21306
854.854	21439
854.988	21214
855.122	21306
855.256	21142
855.39	21237
855.524	21264
855.658	21367
855.792	21325
855.926	21412
856.06	21325
856.194	21374
856.327	21230
856.461	21195
856.595	21180
856.729	21195
856.862	21355
856.996	21123
857.13	21310
857.263	21397
857.397	21397
857.53	21287
857.664	21268
857.797	21355
857.931	21279
858.064	21405
858.197	21378
858.331	21306
858.464	21279
858.597	21154
858.731	21272
858.864	21176
858.997	21226
859.13	21226
859.263	21313
859.396	21298
859.529	21321
859.662	21294
859.795	21199
859.928	21279
860.061	21287
860.194	21405
860.327	21306
860.46	21329
860.592	21374
860.725	21462
860.858	21367
860.99	21302
861.123	21180
861.256	21119
861.388	21310
861.521	21975
861.653	21131
861.786	21070
861.918	21119
862.05	21100
862.183	21108
862.315	21203
862.447	21226
862.58	21275
862.712	21043
862.844	20967
862.976	21055
863.108	21051
863.24	21507
863.372	20971
863.504	20941
863.636	20986
863.768	21074
863.9	21096
864.032	21020
864.164	20929
864.296	21013
864.428	21024
864.559	20979
864.691	21146
864.823	20895
864.954	21043
865.086	21096
865.217	20925
865.349	20906
865.48	20880
865.612	20883
865.743	21085
865.875	20861
866.006	20819
866.137	20899
866.269	20811
866.4	20906
866.531	20800
866.662	20876
866.793	20777
866.924	20864
867.055	20941
867.186	20842
867.317	20792
867.448	20629
867.579	20807
867.71	20743
867.841	20693
867.972	20895
868.103	20819
868.233	20765
868.364	20811
868.495	20891
868.625	21024
868.756	21142
868.886	20925
869.017	21203
869.147	21157
869.278	21237
869.408	21096
869.539	21173
869.669	21093
869.799	21104
869.929	21176
870.06	21165
870.19	21401
870.32	21291
870.45	21507
870.58	21568
870.71	21599
870.84	21625
870.97	21553
871.1	21454
871.23	21557
871.36	21614
871.489	21568
871.619	21538
871.749	21671
871.879	21751
872.008	21755
872.138	21694
872.267	21667
872.397	21595
872.526	21504
872.656	21515
872.785	21496
872.915	21709
873.044	21816
873.173	21587
873.303	21778
873.432	21717
873.561	21800
873.69	21564
873.819	21682
873.948	21823
874.077	21663
874.206	21488
874.335	21614
874.464	21720
874.593	21800
874.722	21861
874.851	21972
874.979	21876
875.108	21861
875.237	21884
875.365	21846
875.494	21861
875.623	21854
875.751	21808
875.88	21979
876.008	21949
876.136	22105
876.265	22356
876.393	22329
876.521	22375
876.65	22386
876.778	22337
876.906	22177
877.034	22249
877.162	22352
877.29	22200
877.418	22306
877.546	22200
877.674	22219
877.802	22299
877.93	22242
878.058	22211
878.185	22215
878.313	22185
878.441	22253
878.568	22173
878.696	22181
878.824	22432
878.951	22409
879.079	22413
879.206	22603
879.333	22417
879.461	22226
879.588	22497
879.715	22440
879.842	22584
879.97	22238
880.097	22109
880.224	22036
880.351	22036
880.478	22139
880.605	22059
880.732	22040
880.859	22234
880.986	22074
881.112	22010
881.239	21892
881.366	21739
881.493	21705
881.619	21660
881.746	21701
881.872	21736
881.999	21557
882.125	21511
882.252	21583
882.378	21603
882.505	21614
882.631	21420
882.757	21408
882.883	21351
883.01	21317
883.136	21310
883.262	21241
883.388	21222
883.514	21298
883.64	21370
883.766	21230
883.892	21146
884.018	21150
884.143	21203
884.269	21329
884.395	21096
884.52	20941
884.646	21043
884.772	20880
884.897	20796
885.023	21005
885.148	21062
885.274	21142
885.399	21131
885.524	21017
885.65	21024
885.775	20925
885.9	20986
886.025	21180
886.15	21116
886.275	21020
886.4	20883
886.525	20883
886.65	20921
886.775	20880
886.9	21074
887.025	21169
887.149	21009
887.274	20857
887.399	20731
887.523	20720
887.648	20777
887.773	20587
887.897	20876
888.021	20796
888.146	20724
888.27	20785
888.395	20842
888.519	20773
888.643	20758
888.767	20834
888.891	20674
889.015	20579
889.139	20674
889.263	20549
889.387	20526
889.511	20731
889.635	20708
889.759	20583
889.883	20594
890.006	20583
890.13	20663
890.254	20427
890.377	20320
890.501	20389
890.624	20275
890.748	20438
890.871	20218
890.995	20046
891.118	20115
891.241	20138
891.364	20126
891.488	20256
891.611	20043
891.734	20202
891.857	20138
891.98	20153
892.103	20065
892.226	20092
892.349	20065
892.471	19944
892.594	20027
892.717	20024
892.839	20058
892.962	20168
893.085	20122
893.207	19989
893.33	19849
893.452	20016
893.575	20050
893.697	20020
893.819	20149
893.941	20248
894.064	20073
894.186	20031
894.308	19951
894.43	20256
894.552	20199
894.674	20084
894.796	19936
894.918	19997
895.04	19947
895.161	20088
895.283	19951
895.405	19978
895.526	20054
895.648	19989
895.769	19982
895.891	19947
896.012	20107
896.134	20062
896.255	20012
896.376	19947
896.498	20016
896.619	20077
896.74	19997
896.861	20084
896.982	20324
897.103	20404
897.224	20252
897.345	20294
897.466	20164
897.587	20237
897.708	20320
897.828	20221
897.949	20210
898.07	20088
898.19	20153
898.311	20313
898.431	20180
898.552	20282
898.672	20278
898.792	20309
898.913	20336
899.033	20157
899.153	20088
899.273	19947
899.393	20054
899.513	20096
899.633	20122
899.753	19997
899.873	19856
899.993	20012
900.113	19913
900.232	19944
900.352	19906
900.472	19841
900.591	19761
900.711	19791
900.83	19609
900.95	19921
901.069	19833
901.189	19628
901.308	19487
901.427	19369
901.546	19377
901.665	19384
901.784	19396
901.904	19175
902.023	19152
902.141	19015
902.26	18951
902.379	18909
902.498	18859
902.617	18825
902.735	18939
902.854	18825
902.973	18741
903.091	18559
903.21	18513
903.328	18608
903.446	18502
903.565	18441
903.683	18289
903.801	18182
903.919	18323
904.038	18342
904.156	18159
904.274	18190
904.392	18117
904.51	18091
904.627	18038
904.745	18228
904.863	18209
904.981	17893
905.098	17821
905.216	17767
905.334	17767
905.451	17851
905.569	17642
905.686	17836
905.803	17832
905.921	17657
906.038	17661
906.155	17589
906.272	17448
906.389	17539
906.506	17311
906.623	17337
906.74	17372
906.857	17254
906.974	17273
907.091	17398
907.208	17440
907.324	17414
907.441	17178
907.557	17041
907.674	17048
907.79	16976
907.907	17029
908.023	17208
908.139	17075
908.256	16919
908.372	17022
908.488	16968
908.604	16889
908.72	16736
908.836	16797
908.952	16736
909.068	16831
909.184	16946
909.3	16687
909.415	16748
909.531	16866
909.647	16607
909.762	16523
909.878	16451
909.993	16398
910.108	16402
910.224	16466
910.339	16485
910.454	16352
910.57	16253
910.685	16177
910.8	16481
910.915	16394
911.03	16249
911.145	16071
911.259	15956
911.374	16063
911.489	16078
911.604	16029
911.718	15873
911.833	15797
911.947	15667
912.062	15724
912.176	15720
912.291	15838
912.405	15720
912.519	16029
912.633	15987
912.748	15842
912.862	15720
912.976	15606
913.09	15572
913.204	15549
913.318	15576
913.431	15713
913.545	15622
913.659	15720
913.772	15553
913.886	15488
914	15359
914.113	15485
914.226	15545
914.34	15545
914.453	15298
914.566	15408
914.68	15245
914.793	15294
914.906	15074
915.019	15020
915.132	14979
915.245	15024
915.358	15039
915.47	15093
915.583	14914
915.696	15051
915.809	15192
915.921	15135
916.034	14918
916.146	14880
916.259	15009
916.371	14971
916.483	14914
916.595	14864
916.708	14883
916.82	14800
916.932	14956
917.044	14834
917.156	14788
917.268	14629
917.38	14826
917.491	14598
917.603	14663
917.715	14689
917.826	14785
917.938	14682
918.049	14579
918.161	14708
918.272	14773
918.384	14807
918.495	14583
918.606	14446
918.717	14415
918.828	14423
918.939	14446
919.05	14267
919.161	14423
919.272	14259
919.383	14309
919.494	14446
919.604	14522
919.715	14385
919.826	14393
919.936	14355
920.047	14377
920.157	14366
920.267	14716
920.378	14446
920.488	14393
920.598	14606
920.708	14743
920.818	14495
920.928	14560
921.038	14678
921.148	14674
921.258	14347
921.368	14301
921.477	14145
921.587	14149
921.697	14035
921.806	14145
921.916	14073
922.025	13944
922.134	13807
922.244	13738
922.353	13799
922.462	13746
922.571	13571
922.68	13483
922.789	13510
922.898	13510
923.007	13400
923.116	13510
923.224	13438
923.333	13377
923.442	13255
923.55	13293
923.659	13259
923.767	13373
923.876	13213
923.984	13236
924.092	13168
924.201	13175
924.309	13236
924.417	13209
924.525	13114
924.633	13156
924.741	14020
924.849	12882
924.956	12981
925.064	12863
925.172	12882
925.279	12795
925.387	12886
925.494	12909
925.602	12947
925.709	12935
925.816	12802
925.924	12913
926.031	12924
926.138	12798
926.245	12867
926.352	12642
926.459	12840
926.566	12882
926.673	12798
926.779	12585
926.886	12623
926.993	12559
927.099	12384
927.206	12357
927.312	12369
927.419	12433
927.525	12426
927.631	12391
927.737	12273
927.843	12270
927.95	12171
928.056	12266
928.162	12357
928.267	12216
928.373	12734
928.479	12399
928.585	11961
928.69	12300
928.796	12228
928.901	12102
929.007	11961
929.112	12186
929.218	12121
929.323	11977
929.428	12003
929.533	12155
929.638	11874
929.743	11935
929.848	11996
929.953	11863
930.058	11760
930.163	11623
930.267	11611
930.372	11767
930.477	11554
930.581	11821
930.685	11672
930.79	11577
930.894	11638
930.998	11509
931.103	11680
931.207	11292
931.311	11288
931.415	11124
931.519	11048
931.623	10953
