Data from test_V78500241_2811.txt Node
Date: Fri Mar 25 15:29:26 CST 2022
User: usil
Spectrometer: V785-0024
Trigger mode: 0
Integration Time (sec): 4.000000E-1
Scans to average: 1
Nonlinearity correction enabled: false
Boxcar width: 0
Storing dark spectrum: false
XAxis mode: Wavelengths
Number of Pixels in Spectrum: 1024
>>>>>Begin Spectral Data<<<<<
801.071	27180
801.214	27013
801.356	26948
801.499	26876
801.641	26792
801.783	26644
801.926	26693
802.068	26804
802.211	26762
802.353	26689
802.496	26461
802.638	26320
802.78	26282
802.923	26309
803.065	26187
803.208	26221
803.35	26423
803.492	26351
803.635	26480
803.777	26377
803.919	26446
804.061	26724
804.204	26583
804.346	26347
804.488	26431
804.63	26442
804.773	26313
804.915	26495
805.057	26457
805.199	26309
805.341	26533
805.483	26613
805.626	26678
805.768	26522
805.91	26800
806.052	26648
806.194	26499
806.336	26762
806.478	26598
806.62	26712
806.762	26689
806.904	26880
807.046	27005
807.188	27039
807.33	27043
807.472	27157
807.614	26952
807.756	26982
807.898	26823
808.04	26845
808.182	26743
808.324	26963
808.465	26887
808.607	27123
808.749	27249
808.891	27275
809.033	27363
809.174	27336
809.316	27180
809.458	27192
809.6	27146
809.741	27321
809.883	27325
810.025	27488
810.166	27397
810.308	27515
810.45	27374
810.591	27431
810.733	27279
810.875	27165
811.016	27146
811.158	27184
811.299	27306
811.441	27374
811.582	27351
811.724	27188
811.865	27317
812.007	27066
812.148	27077
812.29	27180
812.431	27252
812.573	27450
812.714	27466
812.855	27876
812.997	27736
813.138	28017
813.279	27914
813.421	27568
813.562	27690
813.703	27424
813.845	27447
813.986	27009
814.127	26891
814.268	26925
814.41	26826
814.551	26910
814.692	26838
814.833	26731
814.974	26807
815.115	26849
815.256	26769
815.397	26750
815.539	26861
815.68	26678
815.821	26648
815.962	26629
816.103	26606
816.244	26450
816.385	26286
816.526	26286
816.666	26202
816.807	26103
816.948	26180
817.089	26301
817.23	26058
817.371	26115
817.512	26100
817.653	26016
817.793	25959
817.934	26142
818.075	26062
818.216	26054
818.356	25940
818.497	25986
818.638	25803
818.778	25841
818.919	25837
819.06	25818
819.2	25944
819.341	26027
819.481	26092
819.622	26122
819.762	26594
819.903	26412
820.043	26324
820.184	26202
820.324	26286
820.465	26202
820.605	26218
820.746	26126
820.886	26046
821.026	26161
821.167	26031
821.307	26244
821.447	26199
821.588	26206
821.728	25951
821.868	25674
822.008	25639
822.149	25514
822.289	25571
822.429	25221
822.569	25339
822.709	25316
822.849	25088
822.99	25088
823.13	24962
823.27	25141
823.41	24909
823.55	24825
823.69	25031
823.83	24913
823.97	24871
824.11	24757
824.25	24719
824.389	24795
824.529	24882
824.669	24665
824.809	24745
824.949	24897
825.089	24798
825.228	24772
825.368	24631
825.508	24597
825.648	24570
825.787	24646
825.927	24612
826.067	24601
826.206	24437
826.346	24616
826.485	24616
826.625	24601
826.765	24840
826.904	24646
827.044	24365
827.183	24251
827.323	24338
827.462	24380
827.601	24304
827.741	24258
827.88	24357
828.02	24194
828.159	24273
828.298	24167
828.437	24228
828.577	24178
828.716	24422
828.855	24304
828.994	24003
829.134	23980
829.273	24053
829.412	24049
829.551	23942
829.69	24087
829.829	24095
829.968	24224
830.107	24102
830.246	24098
830.385	24053
830.524	23843
830.663	23866
830.802	23653
830.941	23547
831.08	23707
831.219	23760
831.357	23733
831.496	23699
831.635	23600
831.774	23512
831.913	23585
832.051	23440
832.19	23448
832.329	23353
832.467	23261
832.606	23261
832.744	23269
832.883	23292
833.022	23261
833.16	23410
833.299	23440
833.437	23296
833.576	23330
833.714	23315
833.852	23391
833.991	23402
834.129	23524
834.267	23474
834.406	23246
834.544	23292
834.682	23417
834.821	23398
834.959	23539
835.097	23337
835.235	23379
835.373	23391
835.511	23273
835.65	23227
835.788	23181
835.926	23178
836.064	22908
836.202	23086
836.34	23216
836.478	23208
836.615	23143
836.753	23242
836.891	23254
837.029	23193
837.167	23010
837.305	23109
837.443	23033
837.58	23185
837.718	23117
837.856	23010
837.993	23003
838.131	23010
838.269	22930
838.406	22889
838.544	22805
838.681	22569
838.819	22504
838.956	22455
839.094	22390
839.231	22599
839.369	22702
839.506	22801
839.643	22729
839.781	22455
839.918	22405
840.055	22512
840.193	22413
840.33	22432
840.467	22344
840.604	22497
840.742	22641
840.879	22344
841.016	22356
841.153	22295
841.29	22516
841.427	22462
841.564	22352
841.701	22500
841.838	22440
841.975	22341
842.112	22287
842.249	22382
842.385	22291
842.522	22440
842.659	22303
842.796	22173
842.933	22169
843.069	22303
843.206	22078
843.343	22261
843.479	22143
843.616	22021
843.752	21983
843.889	22040
844.025	22029
844.162	22067
844.298	22234
844.435	21888
844.571	21930
844.708	22017
844.844	22093
844.98	22010
845.117	22067
845.253	21869
845.389	21869
845.525	21698
845.661	21759
845.798	21724
845.934	21846
846.07	21785
846.206	21694
846.342	21873
846.478	21751
846.614	21382
846.75	21355
846.886	21530
847.022	21507
847.158	21652
847.294	21386
847.429	21420
847.565	21454
847.701	21705
847.837	21176
847.972	21062
848.108	21218
848.244	21188
848.379	21100
848.515	21055
848.65	21188
848.786	20990
848.921	21100
849.057	21222
849.192	21077
849.328	21032
849.463	21138
849.598	20994
849.734	20845
849.869	20944
850.004	20769
850.14	20948
850.275	20853
850.41	20773
850.545	20712
850.68	20872
850.815	20849
850.95	20842
851.085	21013
851.22	20849
851.355	20746
851.49	20834
851.625	20735
851.76	20769
851.895	20670
852.03	20613
852.165	20785
852.299	20823
852.434	20925
852.569	20815
852.703	20792
852.838	20804
852.973	20807
853.107	20937
853.242	20811
853.376	20693
853.511	20549
853.645	20541
853.78	20701
853.914	20678
854.048	20708
854.183	20640
854.317	20632
854.451	20906
854.585	20712
854.72	20663
854.854	20682
854.988	20511
855.122	20682
855.256	20625
855.39	20655
855.524	20765
855.658	20587
855.792	20575
855.926	20739
856.06	20693
856.194	20720
856.327	20629
856.461	20621
856.595	20613
856.729	20549
856.862	20743
856.996	20541
857.13	20693
857.263	20807
857.397	20785
857.53	20640
857.664	20663
857.797	20743
857.931	20686
858.064	20590
858.197	20689
858.331	20636
858.464	20739
858.597	20526
858.731	20499
858.864	20495
858.997	20526
859.13	20648
859.263	20648
859.396	20788
859.529	20511
859.662	20613
859.795	20655
859.928	20674
860.061	20872
860.194	20823
860.327	20712
860.46	20621
860.592	20670
860.725	20796
860.858	20693
860.99	20667
861.123	20495
861.256	20556
861.388	20678
861.521	21222
861.653	20571
861.786	20412
861.918	20400
862.05	20507
862.183	20560
862.315	20632
862.447	20659
862.58	20446
862.712	20393
862.844	20374
862.976	20431
863.108	20332
863.24	20845
863.372	20256
863.504	20355
863.636	20423
863.768	20377
863.9	20286
864.032	20301
864.164	20343
864.296	20358
864.428	20499
864.559	20351
864.691	20423
864.823	20446
864.954	20237
865.086	20244
865.217	20298
865.349	20218
865.48	20180
865.612	20240
865.743	20381
865.875	20187
866.006	20218
866.137	20202
866.269	20275
866.4	20221
866.531	20081
866.662	20145
866.793	20084
866.924	20180
867.055	20282
867.186	20339
867.317	20054
867.448	20134
867.579	20145
867.71	20077
867.841	20096
867.972	20149
868.103	20168
868.233	20324
868.364	20161
868.495	20320
868.625	20461
868.756	20473
868.886	20282
869.017	20499
869.147	20530
869.278	20499
869.408	20507
869.539	20446
869.669	20587
869.799	20461
869.929	20530
870.06	20549
870.19	20667
870.32	20716
870.45	20769
870.58	20842
870.71	20849
870.84	20948
870.97	20815
871.1	20864
871.23	20952
871.36	21017
871.489	20944
871.619	20914
871.749	20975
871.879	21062
872.008	21165
872.138	21123
872.267	20876
872.397	20906
872.526	20887
872.656	20823
872.785	20796
872.915	21070
873.044	21085
873.173	21001
873.303	21150
873.432	21062
873.561	21093
873.69	21116
873.819	21020
873.948	21176
874.077	21085
874.206	20986
874.335	21074
874.464	20994
874.593	21180
874.722	21249
874.851	21237
874.979	21252
875.108	21291
875.237	21279
875.365	21074
875.494	21287
875.623	21340
875.751	21310
875.88	21260
876.008	21469
876.136	21580
876.265	21713
876.393	21717
876.521	21717
876.65	21728
876.778	21755
876.906	21557
877.034	21675
877.162	21686
877.29	21500
877.418	21637
877.546	21675
877.674	21572
877.802	21648
877.93	21606
878.058	21667
878.185	21477
878.313	21519
878.441	21496
878.568	21481
878.696	21599
878.824	21633
878.951	21850
879.079	21789
879.206	22040
879.333	21732
879.461	21690
879.588	21774
879.715	21812
879.842	21956
879.97	21808
880.097	21450
880.224	21515
880.351	21485
880.478	21450
880.605	21382
880.732	21523
880.859	21709
880.986	21428
881.112	21485
881.239	21397
881.366	21146
881.493	21150
881.619	21081
881.746	21047
881.872	21020
881.999	21077
882.125	20979
882.252	21157
882.378	21028
882.505	21184
882.631	20864
882.757	20811
882.883	20804
883.01	20682
883.136	20682
883.262	20739
883.388	20613
883.514	20781
883.64	20781
883.766	20564
883.892	20522
884.018	20518
884.143	20651
884.269	20800
884.395	20370
884.52	20343
884.646	20442
884.772	20461
884.897	20324
885.023	20347
885.148	20503
885.274	20560
885.399	20469
885.524	20511
885.65	20377
885.775	20457
885.9	20404
886.025	20541
886.15	20396
886.275	20442
886.4	20301
886.525	20393
886.65	20218
886.775	20339
886.9	20514
887.025	20575
887.149	20393
887.274	20206
887.399	20199
887.523	20191
887.648	20119
887.773	20077
887.897	20240
888.021	20142
888.146	20100
888.27	20290
888.395	20195
888.519	20267
888.643	20084
888.767	20309
888.891	20138
889.015	20050
889.139	20073
889.263	19917
889.387	20122
889.511	20218
889.635	20046
889.759	19967
889.883	19906
890.006	19989
890.13	20077
890.254	19898
890.377	19917
890.501	19780
890.624	19715
890.748	19670
890.871	19575
890.995	19632
891.118	19483
891.241	19575
891.364	19597
891.488	19693
891.611	19674
891.734	19575
891.857	19662
891.98	19582
892.103	19575
892.226	19563
892.349	19495
892.471	19388
892.594	19449
892.717	19548
892.839	19514
892.962	19643
893.085	19506
893.207	19586
893.33	19411
893.452	19430
893.575	19525
893.697	19373
893.819	19578
893.941	19616
894.064	19624
894.186	19392
894.308	19354
894.43	19548
894.552	19662
894.674	19540
894.796	19388
894.918	19476
895.04	19449
895.161	19594
895.283	19548
895.405	19396
895.526	19430
895.648	19468
895.769	19567
895.891	19510
896.012	19556
896.134	19495
896.255	19434
896.376	19468
896.498	19480
896.619	19506
896.74	19419
896.861	19533
896.982	19780
897.103	19928
897.224	19837
897.345	19731
897.466	19674
897.587	19685
897.708	19826
897.828	19696
897.949	19556
898.07	19540
898.19	19693
898.311	19708
898.431	19696
898.552	19693
898.672	19860
898.792	19715
898.913	19776
899.033	19559
899.153	19556
899.273	19422
899.393	19529
899.513	19510
899.633	19415
899.753	19499
899.873	19460
899.993	19578
900.113	19396
900.232	19495
900.352	19301
900.472	19327
900.591	19289
900.711	19285
900.83	19198
900.95	19419
901.069	19362
901.189	19240
901.308	19133
901.427	18871
901.546	18738
901.665	18829
901.784	18947
901.904	18703
902.023	18601
902.141	18460
902.26	18479
902.379	18426
902.498	18391
902.617	18167
902.735	18285
902.854	18327
902.973	18361
903.091	18038
903.21	18045
903.328	18003
903.446	17965
903.565	17851
903.683	17813
903.801	17733
903.919	17855
904.038	17741
904.156	17608
904.274	17680
904.392	17596
904.51	17589
904.627	17596
904.745	17745
904.863	17752
904.981	17395
905.098	17318
905.216	17318
905.334	17330
905.451	17292
905.569	17372
905.686	17360
905.803	17345
905.921	17102
906.038	17322
906.155	17102
906.272	17029
906.389	17025
906.506	16820
906.623	16930
906.74	16801
906.857	16717
906.974	16843
907.091	16934
907.208	16919
907.324	16900
907.441	16748
907.557	16523
907.674	16584
907.79	16535
907.907	16523
908.023	16573
908.139	16596
908.256	16542
908.372	16470
908.488	16504
908.604	16352
908.72	16325
908.836	16249
908.952	16337
909.068	16367
909.184	16284
909.3	16284
909.415	16352
909.531	16325
909.647	15994
909.762	16013
909.878	15994
909.993	16032
910.108	15930
910.224	16002
910.339	15903
910.454	15926
910.57	15823
910.685	15701
910.8	16029
910.915	15945
911.03	15899
911.145	15713
911.259	15595
911.374	15682
911.489	15534
911.604	15545
911.718	15401
911.833	15348
911.947	15302
912.062	15226
912.176	15397
912.291	15458
912.405	15420
912.519	15564
912.633	15542
912.748	15405
912.862	15287
912.976	15173
913.09	15058
913.204	15188
913.318	15245
913.431	15252
913.545	15249
913.659	15237
913.772	15089
913.886	15032
914	14944
914.113	15077
914.226	15131
914.34	14979
914.453	14895
914.566	14967
914.68	14975
914.793	14826
914.906	14655
915.019	14602
915.132	14537
915.245	14617
915.358	14659
915.47	14503
915.583	14590
915.696	14659
915.809	14712
915.921	14785
916.034	14518
916.146	14427
916.259	14446
916.371	14640
916.483	14610
916.595	14358
916.708	14461
916.82	14434
916.932	14309
917.044	14499
917.156	14412
917.268	14305
917.38	14267
917.491	14313
917.603	14263
917.715	14438
917.826	14450
917.938	14240
918.049	14084
918.161	14180
918.272	14355
918.384	14400
918.495	14294
918.606	13970
918.717	14043
918.828	14092
918.939	14096
919.05	14005
919.161	14043
919.272	13814
919.383	13909
919.494	14115
919.604	14263
919.715	14005
919.826	13898
919.936	14054
920.047	14111
920.157	14054
920.267	14225
920.378	14020
920.488	14043
920.598	14123
920.708	14366
920.818	14199
920.928	14073
921.038	14252
921.148	14305
921.258	14035
921.368	13913
921.477	13856
921.587	13791
921.697	13693
921.806	13757
921.916	13689
922.025	13499
922.134	13502
922.244	13392
922.353	13449
922.462	13362
922.571	13213
922.68	13103
922.789	13213
922.898	13152
923.007	12954
923.116	13114
923.224	13004
923.333	12966
923.442	13004
923.55	12882
923.659	12993
923.767	12985
923.876	12947
923.984	13000
924.092	12848
924.201	12928
924.309	12829
924.417	12852
924.525	12776
924.633	12635
924.741	13544
924.849	12563
924.956	12650
925.064	12483
925.172	12502
925.279	12498
925.387	12582
925.494	12475
925.602	12574
925.709	12525
925.816	12422
925.924	12422
926.031	12540
926.138	12471
926.245	12464
926.352	12342
926.459	12433
926.566	12483
926.673	12369
926.779	12319
926.886	12235
926.993	12178
927.099	12079
927.206	12098
927.312	12034
927.419	12136
927.525	12144
927.631	12091
927.737	12041
927.843	11916
927.95	11965
928.056	11961
928.162	11961
928.267	11916
928.373	12585
928.479	12034
928.585	11745
928.69	11813
928.796	11920
928.901	11779
929.007	11638
929.112	11741
929.218	11710
929.323	11604
929.428	11615
929.533	11756
929.638	11638
929.743	11646
929.848	11714
929.953	11562
930.058	11448
930.163	11349
930.267	11414
930.372	11547
930.477	11322
930.581	11524
930.685	11402
930.79	11299
930.894	11231
930.998	11254
931.103	11410
931.207	11003
931.311	10919
931.415	10869
931.519	10748
931.623	10611
