Data from test_V78500241_640.txt Node
Date: Fri Mar 25 15:14:18 CST 2022
User: usil
Spectrometer: V785-0024
Trigger mode: 0
Integration Time (sec): 4.000000E-1
Scans to average: 1
Nonlinearity correction enabled: false
Boxcar width: 0
Storing dark spectrum: false
XAxis mode: Wavelengths
Number of Pixels in Spectrum: 1024
>>>>>Begin Spectral Data<<<<<
801.071	27625
801.214	27709
801.356	27294
801.499	27443
801.641	27264
801.783	27260
801.926	27321
802.068	27161
802.211	27131
802.353	27173
802.496	26960
802.638	27036
802.78	26956
802.923	26644
803.065	26648
803.208	26880
803.35	26956
803.492	26864
803.635	27127
803.777	27036
803.919	26960
804.061	27420
804.204	27146
804.346	27043
804.488	26979
804.63	26960
804.773	26895
804.915	27039
805.057	27131
805.199	27058
805.341	27161
805.483	27119
805.626	27180
805.768	27211
805.91	27188
806.052	27119
806.194	27154
806.336	27351
806.478	27252
806.62	27070
806.762	27416
806.904	27424
807.046	27823
807.188	27667
807.33	27606
807.472	27755
807.614	27511
807.756	27530
807.898	27534
808.04	27412
808.182	27363
808.324	27572
808.465	27416
808.607	27865
808.749	27679
808.891	27888
809.033	28036
809.174	28013
809.316	27854
809.458	27953
809.6	27797
809.741	27975
809.883	28074
810.025	28105
810.166	28150
810.308	28074
810.45	27953
810.591	28150
810.733	27831
810.875	27854
811.016	27861
811.158	27861
811.299	27892
811.441	28101
811.582	27949
811.724	27789
811.865	27667
812.007	27698
812.148	27774
812.29	27743
812.431	28025
812.573	28295
812.714	28322
812.855	28424
812.997	28478
813.138	28767
813.279	28527
813.421	28265
813.562	28299
813.703	28299
813.845	28131
813.986	27842
814.127	27728
814.268	27595
814.41	27660
814.551	27648
814.692	27591
814.833	27420
814.974	27534
815.115	27481
815.256	27431
815.397	27435
815.539	27427
815.68	27260
815.821	27291
815.962	27340
816.103	27268
816.244	27230
816.385	27001
816.526	27165
816.666	26929
816.807	26895
816.948	26857
817.089	27051
817.23	26876
817.371	26944
817.512	26834
817.653	26864
817.793	26800
817.934	26872
818.075	26895
818.216	26834
818.356	26811
818.497	26674
818.638	26705
818.778	26571
818.919	26564
819.06	26579
819.2	26743
819.341	26960
819.481	26678
819.622	27154
819.762	27203
819.903	27131
820.043	27074
820.184	27096
820.324	26872
820.465	27017
820.605	26960
820.746	26849
820.886	26762
821.026	26971
821.167	27032
821.307	27112
821.447	26902
821.588	26663
821.728	26651
821.868	26446
822.008	26199
822.149	26431
822.289	26271
822.429	26153
822.569	25947
822.709	26012
822.849	25860
822.99	25803
823.13	25761
823.27	25803
823.41	25742
823.55	25464
823.69	25677
823.83	25704
823.97	25590
824.11	25373
824.25	25438
824.389	25460
824.529	25586
824.669	25460
824.809	25586
824.949	25476
825.089	25693
825.228	25529
825.368	25365
825.508	25365
825.648	25358
825.787	25468
825.927	25331
826.067	25301
826.206	25225
826.346	25350
826.485	25449
826.625	25308
826.765	25479
826.904	25343
827.044	25278
827.183	25076
827.323	24989
827.462	25133
827.601	24977
827.741	25141
827.88	25122
828.02	24852
828.159	25099
828.298	24973
828.437	25156
828.577	24928
828.716	25156
828.855	24935
828.994	24719
829.134	24757
829.273	24764
829.412	24703
829.551	24802
829.69	24798
829.829	24768
829.968	24844
830.107	24779
830.246	24837
830.385	24764
830.524	24574
830.663	24517
830.802	24502
830.941	24418
831.08	24292
831.219	24441
831.357	24429
831.496	24563
831.635	24353
831.774	24300
831.913	24270
832.051	24197
832.19	24053
832.329	24114
832.467	24125
832.606	23961
832.744	24015
832.883	23999
833.022	24034
833.16	24030
833.299	24072
833.437	24022
833.576	23969
833.714	24152
833.852	24076
833.991	24068
834.129	24201
834.267	24243
834.406	24091
834.544	24098
834.682	24205
834.821	24117
834.959	24235
835.097	23980
835.235	24239
835.373	24121
835.511	24133
835.65	23999
835.788	23927
835.926	23843
836.064	23733
836.202	23729
836.34	23931
836.478	23973
836.615	23813
836.753	23916
836.891	23946
837.029	23954
837.167	23878
837.305	23836
837.443	23707
837.58	23748
837.718	23790
837.856	23866
837.993	23707
838.131	23908
838.269	23520
838.406	23794
838.544	23562
838.681	23307
838.819	23421
838.956	23303
839.094	23181
839.231	23395
839.369	23356
839.506	23642
839.643	23524
839.781	23174
839.918	23151
840.055	23307
840.193	23311
840.33	23269
840.467	23284
840.604	23132
840.742	23440
840.879	23025
841.016	23170
841.153	23166
841.29	23296
841.427	23041
841.564	23250
841.701	23269
841.838	23094
841.975	23083
842.112	23018
842.249	23018
842.385	22915
842.522	23178
842.659	22995
842.796	22873
842.933	23010
843.069	22911
843.206	22744
843.343	22892
843.479	22896
843.616	22831
843.752	22740
843.889	22774
844.025	22828
844.162	22679
844.298	22679
844.435	22824
844.571	22656
844.708	22736
844.844	22866
844.98	22862
845.117	22790
845.253	22630
845.389	22584
845.525	22554
845.661	22455
845.798	22493
845.934	22500
846.07	22284
846.206	22417
846.342	22561
846.478	22440
846.614	22234
846.75	22177
846.886	22124
847.022	22268
847.158	22211
847.294	22207
847.429	22120
847.565	22116
847.701	22451
847.837	21903
847.972	21907
848.108	22013
848.244	21964
848.379	21831
848.515	21804
848.65	21770
848.786	21747
848.921	21846
849.057	21865
849.192	21781
849.328	21679
849.463	21838
849.598	21705
849.734	21717
849.869	21568
850.004	21534
850.14	21583
850.275	21538
850.41	21428
850.545	21431
850.68	21519
850.815	21667
850.95	21583
851.085	21682
851.22	21622
851.355	21428
851.49	21538
851.625	21538
851.76	21428
851.895	21435
852.03	21393
852.165	21507
852.299	21534
852.434	21660
852.569	21496
852.703	21515
852.838	21564
852.973	21648
853.107	21591
853.242	21405
853.376	21393
853.511	21325
853.645	21252
853.78	21431
853.914	21370
854.048	21230
854.183	21302
854.317	21416
854.451	21538
854.585	21363
854.72	21393
854.854	21321
854.988	21279
855.122	21389
855.256	21272
855.39	21348
855.524	21469
855.658	21496
855.792	21370
855.926	21252
856.06	21351
856.194	21454
856.327	21325
856.461	21340
856.595	21336
856.729	21454
856.862	21416
856.996	21298
857.13	21351
857.263	21462
857.397	21439
857.53	21310
857.664	21374
857.797	21412
857.931	21534
858.064	21416
858.197	21477
858.331	21393
858.464	21256
858.597	21226
858.731	21310
858.864	21367
858.997	21302
859.13	21184
859.263	21428
859.396	21477
859.529	21161
859.662	21370
859.795	21245
859.928	21397
860.061	21625
860.194	21481
860.327	21473
860.46	21439
860.592	21386
860.725	21511
860.858	21454
860.99	21325
861.123	21272
861.256	21317
861.388	21317
861.521	22192
861.653	21287
861.786	21154
861.918	21180
862.05	21272
862.183	21245
862.315	21321
862.447	21283
862.58	21355
862.712	21032
862.844	20994
862.976	21176
863.108	21188
863.24	21496
863.372	20994
863.504	21013
863.636	20933
863.768	20979
863.9	21032
864.032	21055
864.164	20849
864.296	21032
864.428	21165
864.559	21058
864.691	21165
864.823	21100
864.954	20921
865.086	21070
865.217	21058
865.349	20895
865.48	20872
865.612	20918
865.743	21074
865.875	21081
866.006	20925
866.137	20925
866.269	20975
866.4	20967
866.531	20948
866.662	20861
866.793	20891
866.924	20830
867.055	20914
867.186	20906
867.317	20781
867.448	20758
867.579	20792
867.71	20693
867.841	20754
867.972	20800
868.103	20796
868.233	20929
868.364	20899
868.495	20902
868.625	20986
868.756	21222
868.886	21142
869.017	21256
869.147	21188
869.278	21199
869.408	21074
869.539	21093
869.669	21161
869.799	21233
869.929	21287
870.06	21249
870.19	21416
870.32	21393
870.45	21431
870.58	21504
870.71	21660
870.84	21553
870.97	21595
871.1	21507
871.23	21720
871.36	21705
871.489	21679
871.619	21675
871.749	21580
871.879	21591
872.008	21762
872.138	21652
872.267	21705
872.397	21557
872.526	21534
872.656	21435
872.785	21564
872.915	21736
873.044	21838
873.173	21701
873.303	21739
873.432	21739
873.561	21861
873.69	21755
873.819	21789
873.948	21732
874.077	21793
874.206	21663
874.335	21728
874.464	21842
874.593	21918
874.722	21934
874.851	22006
874.979	21937
875.108	21968
875.237	21930
875.365	21922
875.494	21994
875.623	22002
875.751	21789
875.88	21960
876.008	22032
876.136	22166
876.265	22253
876.393	22421
876.521	22375
876.65	22322
876.778	22344
876.906	22356
877.034	22188
877.162	22295
877.29	22272
877.418	22428
877.546	22360
877.674	22230
877.802	22192
877.93	22303
878.058	22150
878.185	22211
878.313	22188
878.441	22329
878.568	22246
878.696	22219
878.824	22337
878.951	22413
879.079	22493
879.206	22542
879.333	22561
879.461	22287
879.588	22348
879.715	22481
879.842	22653
879.97	22314
880.097	22131
880.224	22070
880.351	22059
880.478	22169
880.605	22032
880.732	22177
880.859	22451
880.986	22143
881.112	22090
881.239	22025
881.366	21899
881.493	21785
881.619	21603
881.746	21698
881.872	21724
881.999	21770
882.125	21682
882.252	21793
882.378	21641
882.505	21816
882.631	21629
882.757	21542
882.883	21405
883.01	21405
883.136	21496
883.262	21393
883.388	21302
883.514	21355
883.64	21526
883.766	21325
883.892	21233
884.018	21306
884.143	21378
884.269	21450
884.395	21157
884.52	21093
884.646	20990
884.772	20963
884.897	20933
885.023	21074
885.148	21230
885.274	21199
885.399	21279
885.524	21173
885.65	21074
885.775	21055
885.9	21036
886.025	21142
886.15	21169
886.275	21047
886.4	21051
886.525	21036
886.65	21039
886.775	20967
886.9	21066
887.025	21332
887.149	21058
887.274	20891
887.399	20868
887.523	20849
887.648	20781
887.773	20735
887.897	20777
888.021	20807
888.146	20678
888.27	20883
888.395	20902
888.519	20929
888.643	20758
888.767	20963
888.891	20743
889.015	20625
889.139	20762
889.263	20636
889.387	20883
889.511	20861
889.635	20727
889.759	20556
889.883	20640
890.006	20629
890.13	20670
890.254	20629
890.377	20579
890.501	20450
890.624	20370
890.748	20320
890.871	20263
890.995	20149
891.118	20115
891.241	20153
891.364	20195
891.488	20278
891.611	20218
891.734	20214
891.857	20259
891.98	20240
892.103	20199
892.226	20111
892.349	20031
892.471	20012
892.594	20164
892.717	20119
892.839	20103
892.962	20142
893.085	20199
893.207	20073
893.33	20012
893.452	20031
893.575	20145
893.697	20122
893.819	20252
893.941	20180
894.064	20233
894.186	20058
894.308	19982
894.43	20142
894.552	20210
894.674	20149
894.796	20153
894.918	20035
895.04	19974
895.161	20202
895.283	20092
895.405	19890
895.526	20084
895.648	20153
895.769	20176
895.891	20107
896.012	20176
896.134	20218
896.255	20130
896.376	20039
896.498	20180
896.619	20180
896.74	20058
896.861	20062
896.982	20370
897.103	20549
897.224	20351
897.345	20355
897.466	20237
897.587	20259
897.708	20461
897.828	20339
897.949	20263
898.07	20130
898.19	20282
898.311	20332
898.431	20229
898.552	20290
898.672	20419
898.792	20343
898.913	20298
899.033	20324
899.153	20161
899.273	19932
899.393	20065
899.513	20062
899.633	20115
899.753	20084
899.873	19917
899.993	20050
900.113	19967
900.232	20054
900.352	19947
900.472	20050
900.591	19822
900.711	19860
900.83	19750
900.95	19989
901.069	20046
901.189	19693
901.308	19655
901.427	19350
901.546	19487
901.665	19480
901.784	19392
901.904	19327
902.023	19145
902.141	19042
902.26	18935
902.379	19015
902.498	18821
902.617	18829
902.735	18928
902.854	18958
902.973	18745
903.091	18703
903.21	18734
903.328	18578
903.446	18513
903.565	18429
903.683	18365
903.801	18300
903.919	18338
904.038	18292
904.156	18273
904.274	18228
904.392	18216
904.51	18117
904.627	18174
904.745	18228
904.863	18155
904.981	17916
905.098	17840
905.216	17973
905.334	17882
905.451	17893
905.569	17935
905.686	17893
905.803	17912
905.921	17733
906.038	17794
906.155	17680
906.272	17585
906.389	17543
906.506	17429
906.623	17376
906.74	17349
906.857	17261
906.974	17337
907.091	17433
907.208	17562
907.324	17433
907.441	17284
907.557	17109
907.674	17060
907.79	16999
907.907	17178
908.023	17170
908.139	17170
908.256	17010
908.372	17060
908.488	16995
908.604	16889
908.72	16759
908.836	16748
908.952	16862
909.068	16763
909.184	17033
909.3	16930
909.415	16850
909.531	16793
909.647	16672
909.762	16573
909.878	16508
909.993	16527
910.108	16588
910.224	16531
910.339	16451
910.454	16451
910.57	16371
910.685	16207
910.8	16664
910.915	16527
911.03	16268
911.145	16169
911.259	16150
911.374	16188
911.489	16017
911.604	16032
911.718	15850
911.833	15968
911.947	15770
912.062	15690
912.176	15762
912.291	15846
912.405	15876
912.519	16071
912.633	16097
912.748	15911
912.862	15797
912.976	15762
913.09	15534
913.204	15572
913.318	15667
913.431	15679
913.545	15701
913.659	15732
913.772	15732
913.886	15545
914	15526
914.113	15622
914.226	15606
914.34	15595
914.453	15408
914.566	15545
914.68	15416
914.793	15374
914.906	15294
915.019	15066
915.132	15070
915.245	15058
915.358	15051
915.47	15020
915.583	15123
915.696	15176
915.809	15192
915.921	15142
916.034	14994
916.146	14948
916.259	15043
916.371	14998
916.483	14994
916.595	14883
916.708	14921
916.82	15009
916.932	14861
917.044	14975
917.156	14796
917.268	14640
917.38	14785
917.491	14712
917.603	14716
917.715	14899
917.826	14754
917.938	14667
918.049	14579
918.161	14739
918.272	14857
918.384	14838
918.495	14667
918.606	14495
918.717	14465
918.828	14552
918.939	14492
919.05	14442
919.161	14503
919.272	14332
919.383	14404
919.494	14617
919.604	14678
919.715	14533
919.826	14385
919.936	14339
920.047	14594
920.157	14431
920.267	14746
920.378	14552
920.488	14488
920.598	14587
920.708	14727
920.818	14648
920.928	14564
921.038	14834
921.148	14727
921.258	14419
921.368	14298
921.477	14317
921.587	14142
921.697	14202
921.806	14229
921.916	14164
922.025	13894
922.134	13837
922.244	13761
922.353	13860
922.462	13746
922.571	13712
922.68	13510
922.789	13559
922.898	13422
923.007	13400
923.116	13575
923.224	13445
923.333	13460
923.442	13346
923.55	13297
923.659	13297
923.767	13377
923.876	13312
923.984	13441
924.092	13217
924.201	13213
924.309	13228
924.417	13244
924.525	13118
924.633	13202
924.741	13932
924.849	12993
924.956	13129
925.064	12985
925.172	12871
925.279	12886
925.387	12916
925.494	12871
925.602	12966
925.709	12935
925.816	12810
925.924	12852
926.031	12916
926.138	12924
926.245	12947
926.352	12802
926.459	12928
926.566	12852
926.673	12764
926.779	12654
926.886	12658
926.993	12547
927.099	12506
927.206	12471
927.312	12509
927.419	12563
927.525	12426
927.631	12486
927.737	12410
927.843	12342
927.95	12292
928.056	12330
928.162	12334
928.267	12346
928.373	12973
928.479	12407
928.585	12068
928.69	12266
928.796	12403
928.901	12186
929.007	12076
929.112	12106
929.218	12098
929.323	12049
929.428	12007
929.533	12148
929.638	11999
929.743	11923
929.848	12057
929.953	11897
930.058	11923
930.163	11722
930.267	11821
930.372	11828
930.477	11710
930.581	11904
930.685	11764
930.79	11554
930.894	11657
930.998	11547
931.103	11756
931.207	11387
931.311	11235
931.415	11189
931.519	11010
931.623	10949
