Data from test_V78500241_347.txt Node
Date: Fri Mar 25 15:12:16 CST 2022
User: usil
Spectrometer: V785-0024
Trigger mode: 0
Integration Time (sec): 4.000000E-1
Scans to average: 1
Nonlinearity correction enabled: false
Boxcar width: 0
Storing dark spectrum: false
XAxis mode: Wavelengths
Number of Pixels in Spectrum: 1024
>>>>>Begin Spectral Data<<<<<
801.071	27233
801.214	27051
801.356	26895
801.499	26781
801.641	26697
801.783	26708
801.926	26785
802.068	26701
802.211	26632
802.353	26537
802.496	26294
802.638	26347
802.78	26400
802.923	26225
803.065	26122
803.208	26149
803.35	26263
803.492	26457
803.635	26480
803.777	26317
803.919	26404
804.061	26762
804.204	26480
804.346	26332
804.488	26290
804.63	26526
804.773	26343
804.915	26328
805.057	26507
805.199	26499
805.341	26537
805.483	26530
805.626	26568
805.768	26480
805.91	26594
806.052	26632
806.194	26358
806.336	26632
806.478	26590
806.62	26473
806.762	26648
806.904	26731
807.046	27017
807.188	27020
807.33	26887
807.472	27024
807.614	26857
807.756	26880
807.898	26743
808.04	26727
808.182	26686
808.324	26788
808.465	26815
808.607	26910
808.749	27062
808.891	27222
809.033	27329
809.174	27222
809.316	27161
809.458	27157
809.6	27142
809.741	27184
809.883	27180
810.025	27340
810.166	27283
810.308	27507
810.45	27241
810.591	27329
810.733	27169
810.875	27051
811.016	27062
811.158	27036
811.299	27142
811.441	27252
811.582	27237
811.724	27024
811.865	27089
812.007	27093
812.148	27165
812.29	27252
812.431	27389
812.573	27458
812.714	27466
812.855	27618
812.997	27789
813.138	27876
813.279	27778
813.421	27572
813.562	27652
813.703	27576
813.845	27313
813.986	27013
814.127	26952
814.268	26872
814.41	26864
814.551	26765
814.692	26925
814.833	26750
814.974	26735
815.115	26708
815.256	26640
815.397	26651
815.539	26701
815.68	26629
815.821	26556
815.962	26697
816.103	26579
816.244	26434
816.385	26453
816.526	26278
816.666	26043
816.807	26096
816.948	26069
817.089	26122
817.23	26130
817.371	26103
817.512	26092
817.653	26130
817.793	26043
817.934	26039
818.075	26081
818.216	26027
818.356	26005
818.497	25940
818.638	25712
818.778	25769
818.919	25651
819.06	26005
819.2	25947
819.341	25909
819.481	25932
819.622	26157
819.762	26244
819.903	26324
820.043	26233
820.184	26202
820.324	26153
820.465	26065
820.605	26252
820.746	26088
820.886	26081
821.026	26077
821.167	26111
821.307	26119
821.447	25974
821.588	26050
821.728	25757
821.868	25750
822.008	25533
822.149	25468
822.289	25635
822.429	25206
822.569	25183
822.709	25133
822.849	25072
822.99	24894
823.13	24973
823.27	24954
823.41	24958
823.55	24669
823.69	24894
823.83	24856
823.97	24928
824.11	24589
824.25	24635
824.389	24669
824.529	24726
824.669	24597
824.809	24768
824.949	24661
825.089	24738
825.228	24673
825.368	24544
825.508	24391
825.648	24673
825.787	24498
825.927	24654
826.067	24471
826.206	24311
826.346	24620
826.485	24551
826.625	24532
826.765	24616
826.904	24627
827.044	24228
827.183	24209
827.323	24125
827.462	24262
827.601	24213
827.741	24205
827.88	24350
828.02	24152
828.159	24216
828.298	24182
828.437	24251
828.577	24251
828.716	24346
828.855	24068
828.994	23950
829.134	23874
829.273	24018
829.412	23958
829.551	23775
829.69	23927
829.829	23843
829.968	24007
830.107	24022
830.246	23992
830.385	23821
830.524	24011
830.663	23665
830.802	23646
830.941	23608
831.08	23398
831.219	23543
831.357	23619
831.496	23699
831.635	23516
831.774	23463
831.913	23414
832.051	23315
832.19	23353
832.329	23448
832.467	23379
832.606	23200
832.744	23178
832.883	23227
833.022	23277
833.16	23235
833.299	23322
833.437	23147
833.576	23296
833.714	23379
833.852	23326
833.991	23463
834.129	23292
834.267	23315
834.406	23155
834.544	23322
834.682	23356
834.821	23280
834.959	23463
835.097	23246
835.235	23379
835.373	23204
835.511	23353
835.65	23246
835.788	23155
835.926	22915
836.064	22930
836.202	23067
836.34	23136
836.478	23185
836.615	23102
836.753	23220
836.891	23143
837.029	23174
837.167	23170
837.305	23124
837.443	23113
837.58	23102
837.718	23083
837.856	23033
837.993	23029
838.131	22968
838.269	22877
838.406	22949
838.544	22771
838.681	22618
838.819	22744
838.956	22500
839.094	22523
839.231	22516
839.369	22706
839.506	22869
839.643	22801
839.781	22409
839.918	22485
840.055	22474
840.193	22417
840.33	22481
840.467	22398
840.604	22459
840.742	22523
840.879	22341
841.016	22379
841.153	22150
841.29	22485
841.427	22508
841.564	22531
841.701	22436
841.838	22424
841.975	22272
842.112	22272
842.249	22223
842.385	22093
842.522	22352
842.659	22242
842.796	22223
842.933	22150
843.069	21983
843.206	22166
843.343	22249
843.479	22234
843.616	22192
843.752	21941
843.889	21941
844.025	22105
844.162	21934
844.298	22116
844.435	22040
844.571	21922
844.708	21972
844.844	22105
844.98	22105
845.117	22059
845.253	21945
845.389	21888
845.525	21857
845.661	21804
845.798	21728
845.934	21701
846.07	21751
846.206	21800
846.342	21736
846.478	21641
846.614	21469
846.75	21363
846.886	21462
847.022	21530
847.158	21435
847.294	21386
847.429	21447
847.565	21443
847.701	21739
847.837	21222
847.972	21146
848.108	21188
848.244	21207
848.379	21055
848.515	20929
848.65	21070
848.786	20979
848.921	21096
849.057	21192
849.192	21108
849.328	21070
849.463	21020
849.598	21024
849.734	20880
849.869	20914
850.004	20876
850.14	20857
850.275	20807
850.41	20758
850.545	20682
850.68	20705
850.815	20773
850.95	20830
851.085	21051
851.22	20853
851.355	20815
851.49	20750
851.625	20765
851.76	20800
851.895	20693
852.03	20609
852.165	20765
852.299	20830
852.434	20834
852.569	20708
852.703	20781
852.838	20765
852.973	20868
853.107	20887
853.242	20651
853.376	20602
853.511	20480
853.645	20659
853.78	20746
853.914	20651
854.048	20473
854.183	20598
854.317	20701
854.451	20781
854.585	20495
854.72	20632
854.854	20689
854.988	20552
855.122	20583
855.256	20514
855.39	20549
855.524	20712
855.658	20663
855.792	20587
855.926	20667
856.06	20712
856.194	20697
856.327	20541
856.461	20476
856.595	20545
856.729	20724
856.862	20629
856.996	20636
857.13	20743
857.263	20777
857.397	20674
857.53	20693
857.664	20621
857.797	20804
857.931	20731
858.064	20826
858.197	20678
858.331	20545
858.464	20473
858.597	20514
858.731	20556
858.864	20537
858.997	20606
859.13	20571
859.263	20712
859.396	20750
859.529	20640
859.662	20404
859.795	20590
859.928	20686
860.061	20781
860.194	20735
860.327	20686
860.46	20526
860.592	20754
860.725	20689
860.858	20743
860.99	20583
861.123	20571
861.256	20511
861.388	20598
861.521	21218
861.653	20549
861.786	20469
861.918	20431
862.05	20598
862.183	20438
862.315	20625
862.447	20594
862.58	20484
862.712	20336
862.844	20351
862.976	20446
863.108	20415
863.24	20849
863.372	20256
863.504	20400
863.636	20263
863.768	20347
863.9	20355
864.032	20259
864.164	20210
864.296	20149
864.428	20476
864.559	20332
864.691	20423
864.823	20393
864.954	20450
865.086	20298
865.217	20343
865.349	20176
865.48	20309
865.612	20259
865.743	20278
865.875	20176
866.006	20218
866.137	20218
866.269	20176
866.4	20172
866.531	20092
866.662	20202
866.793	20256
866.924	20233
867.055	20233
867.186	20096
867.317	20218
867.448	20191
867.579	20164
867.71	19951
867.841	20244
867.972	20180
868.103	20199
868.233	20286
868.364	20122
868.495	20282
868.625	20343
868.756	20488
868.886	20381
869.017	20377
869.147	20480
869.278	20530
869.408	20533
869.539	20465
869.669	20564
869.799	20492
869.929	20537
870.06	20579
870.19	20781
870.32	20708
870.45	20758
870.58	20804
870.71	20876
870.84	20956
870.97	20853
871.1	20788
871.23	20990
871.36	20998
871.489	20883
871.619	20944
871.749	21043
871.879	21024
872.008	21127
872.138	21047
872.267	20933
872.397	20792
872.526	20933
872.656	20781
872.785	20861
872.915	20895
873.044	21146
873.173	21055
873.303	21123
873.432	21127
873.561	21180
873.69	21032
873.819	21188
873.948	21184
874.077	20998
874.206	21005
874.335	20960
874.464	21207
874.593	21218
874.722	21279
874.851	21363
874.979	21431
875.108	21393
875.237	21237
875.365	21119
875.494	21176
875.623	21268
875.751	21116
875.88	21340
876.008	21397
876.136	21511
876.265	21698
876.393	21861
876.521	21774
876.65	21743
876.778	21686
876.906	21572
877.034	21652
877.162	21660
877.29	21538
877.418	21641
877.546	21587
877.674	21698
877.802	21671
877.93	21713
878.058	21583
878.185	21561
878.313	21614
878.441	21709
878.568	21481
878.696	21580
878.824	21622
878.951	21637
879.079	21793
879.206	21934
879.333	21762
879.461	21583
879.588	21625
879.715	21652
879.842	21899
879.97	21686
880.097	21523
880.224	21462
880.351	21500
880.478	21443
880.605	21488
880.732	21496
880.859	21625
880.986	21435
881.112	21534
881.239	21176
881.366	21252
881.493	21131
881.619	20990
881.746	21108
881.872	20994
881.999	21085
882.125	20960
882.252	20979
882.378	21096
882.505	21051
882.631	20925
882.757	20788
882.883	20815
883.01	20743
883.136	20708
883.262	20667
883.388	20617
883.514	20689
883.64	20845
883.766	20659
883.892	20602
884.018	20613
884.143	20670
884.269	20785
884.395	20374
884.52	20393
884.646	20358
884.772	20374
884.897	20301
885.023	20400
885.148	20404
885.274	20454
885.399	20492
885.524	20473
885.65	20374
885.775	20355
885.9	20412
886.025	20343
886.15	20495
886.275	20324
886.4	20301
886.525	20438
886.65	20343
886.775	20347
886.9	20400
887.025	20564
887.149	20355
887.274	20339
887.399	20259
887.523	20176
887.648	20077
887.773	19986
887.897	20259
888.021	20229
888.146	20088
888.27	20210
888.395	20267
888.519	20237
888.643	20221
888.767	20062
888.891	20157
889.015	20073
889.139	19989
889.263	19940
889.387	20122
889.511	20149
889.635	20039
889.759	19883
889.883	20062
890.006	19955
890.13	20149
890.254	19894
890.377	19894
890.501	19830
890.624	19712
890.748	19833
890.871	19700
890.995	19613
891.118	19616
891.241	19544
891.364	19502
891.488	19567
891.611	19563
891.734	19480
891.857	19559
891.98	19639
892.103	19639
892.226	19601
892.349	19510
892.471	19434
892.594	19514
892.717	19556
892.839	19411
892.962	19472
893.085	19480
893.207	19487
893.33	19411
893.452	19445
893.575	19533
893.697	19460
893.819	19597
893.941	19658
894.064	19578
894.186	19346
894.308	19373
894.43	19670
894.552	19723
894.674	19533
894.796	19373
894.918	19457
895.04	19419
895.161	19483
895.283	19495
895.405	19419
895.526	19483
895.648	19422
895.769	19491
895.891	19590
896.012	19616
896.134	19502
896.255	19495
896.376	19354
896.498	19354
896.619	19495
896.74	19533
896.861	19518
896.982	19658
897.103	19963
897.224	19723
897.345	19719
897.466	19685
897.587	19761
897.708	19841
897.828	19799
897.949	19723
898.07	19563
898.19	19578
898.311	19727
898.431	19658
898.552	19750
898.672	19784
898.792	19868
898.913	19696
899.033	19681
899.153	19407
899.273	19377
899.393	19343
899.513	19411
899.633	19430
899.753	19537
899.873	19460
899.993	19499
900.113	19381
900.232	19476
900.352	19373
900.472	19285
900.591	19194
900.711	19381
900.83	19270
900.95	19453
901.069	19293
901.189	19247
901.308	18970
901.427	18848
901.546	18814
901.665	18951
901.784	18787
901.904	18745
902.023	18631
902.141	18498
902.26	18315
902.379	18372
902.498	18262
902.617	18410
902.735	18327
902.854	18410
902.973	18270
903.091	18140
903.21	17946
903.328	17984
903.446	17912
903.565	17866
903.683	17897
903.801	17699
903.919	17779
904.038	17855
904.156	17596
904.274	17684
904.392	17608
904.51	17516
904.627	17634
904.745	17672
904.863	17665
904.981	17459
905.098	17349
905.216	17326
905.334	17440
905.451	17353
905.569	17292
905.686	17356
905.803	17311
905.921	17105
906.038	17242
906.155	17094
906.272	17025
906.389	17109
906.506	16987
906.623	16911
906.74	17041
906.857	16774
906.974	16850
907.091	16949
907.208	17045
907.324	16984
907.441	16873
907.557	16637
907.674	16607
907.79	16630
907.907	16596
908.023	16668
908.139	16672
908.256	16516
908.372	16500
908.488	16485
908.604	16329
908.72	16268
908.836	16242
908.952	16295
909.068	16344
909.184	16447
909.3	16363
909.415	16413
909.531	16344
909.647	16166
909.762	16074
909.878	16021
909.993	16029
910.108	16074
910.224	15994
910.339	16029
910.454	15960
910.57	15911
910.685	15816
910.8	16006
910.915	15892
911.03	15755
911.145	15694
911.259	15584
911.374	15705
911.489	15553
911.604	15523
911.718	15382
911.833	15397
911.947	15275
912.062	15241
912.176	15298
912.291	15351
912.405	15306
912.519	15568
912.633	15515
912.748	15374
912.862	15329
912.976	15203
913.09	15074
913.204	15207
913.318	15176
913.431	15291
913.545	15291
913.659	15298
913.772	15135
913.886	14956
914	15062
914.113	15131
914.226	15249
914.34	15112
914.453	14948
914.566	15043
914.68	14899
914.793	14876
914.906	14746
915.019	14617
915.132	14667
915.245	14526
915.358	14727
915.47	14667
915.583	14705
915.696	14629
915.809	14750
915.921	14765
916.034	14659
916.146	14537
916.259	14518
916.371	14659
916.483	14575
916.595	14473
916.708	14507
916.82	14549
916.932	14393
917.044	14408
917.156	14427
917.268	14358
917.38	14256
917.491	14290
917.603	14389
917.715	14355
917.826	14347
917.938	14233
918.049	14172
918.161	14347
918.272	14389
918.384	14374
918.495	14252
918.606	14073
918.717	14065
918.828	14111
918.939	14100
919.05	14020
919.161	14065
919.272	13868
919.383	13959
919.494	14153
919.604	14256
919.715	14123
919.826	13925
919.936	13989
920.047	14107
920.157	14092
920.267	14271
920.378	14119
920.488	13955
920.598	14202
920.708	14267
920.818	14278
920.928	14187
921.038	14305
921.148	14305
921.258	14069
921.368	13944
921.477	13826
921.587	13757
921.697	13704
921.806	13719
921.916	13693
922.025	13540
922.134	13460
922.244	13362
922.353	13419
922.462	13335
922.571	13343
922.68	13137
922.789	13080
922.898	13152
923.007	12958
923.116	13069
923.224	13129
923.333	13129
923.442	12966
923.55	12932
923.659	12924
923.767	12989
923.876	12928
923.984	12909
924.092	12886
924.201	12905
924.309	12817
924.417	12840
924.525	12772
924.633	12814
924.741	13506
924.849	12532
924.956	12722
925.064	12528
925.172	12509
925.279	12616
925.387	12513
925.494	12585
925.602	12650
925.709	12563
925.816	12365
925.924	12372
926.031	12654
926.138	12456
926.245	12559
926.352	12342
926.459	12532
926.566	12627
926.673	12460
926.779	12330
926.886	12258
926.993	12125
927.099	12129
927.206	12079
927.312	12117
927.419	12220
927.525	12213
927.631	12171
927.737	12041
927.843	11954
927.95	11832
928.056	11992
928.162	11927
928.267	12117
928.373	12597
928.479	11984
928.585	11813
928.69	11882
928.796	12076
928.901	11821
929.007	11748
929.112	11756
929.218	11771
929.323	11775
929.428	11688
929.533	11821
929.638	11672
929.743	11680
929.848	11676
929.953	11638
930.058	11509
930.163	11364
930.267	11356
930.372	11478
930.477	11356
930.581	11532
930.685	11429
930.79	11280
930.894	11231
930.998	11277
931.103	11410
931.207	10995
931.311	11006
931.415	10881
931.519	10717
931.623	10710
