Data from test_V78500241_2272.txt Node
Date: Fri Mar 25 15:25:40 CST 2022
User: usil
Spectrometer: V785-0024
Trigger mode: 0
Integration Time (sec): 4.000000E-1
Scans to average: 1
Nonlinearity correction enabled: false
Boxcar width: 0
Storing dark spectrum: false
XAxis mode: Wavelengths
Number of Pixels in Spectrum: 1024
>>>>>Begin Spectral Data<<<<<
801.071	27530
801.214	27690
801.356	27378
801.499	27306
801.641	27100
801.783	27211
801.926	27222
802.068	27123
802.211	27093
802.353	26925
802.496	26895
802.638	26815
802.78	26781
802.923	26659
803.065	26674
803.208	26629
803.35	26807
803.492	26788
803.635	26952
803.777	26785
803.919	26971
804.061	27195
804.204	27058
804.346	26944
804.488	26918
804.63	26883
804.773	26819
804.915	26948
805.057	27043
805.199	26925
805.341	27138
805.483	27157
805.626	27165
805.768	27062
805.91	27089
806.052	27100
806.194	27074
806.336	27108
806.478	27089
806.62	27043
806.762	27058
806.904	27359
807.046	27538
807.188	27618
807.33	27614
807.472	27412
807.614	27393
807.756	27431
807.898	27340
808.04	27492
808.182	27340
808.324	27408
808.465	27386
808.607	27557
808.749	27770
808.891	27739
809.033	27869
809.174	27694
809.316	27557
809.458	27572
809.6	27625
809.741	27690
809.883	27827
810.025	27926
810.166	27953
810.308	27930
810.45	27907
810.591	27793
810.733	27637
810.875	27538
811.016	27679
811.158	27629
811.299	27732
811.441	27838
811.582	27686
811.724	27690
811.865	27732
812.007	27724
812.148	27583
812.29	27701
812.431	27876
812.573	28002
812.714	28120
812.855	28181
812.997	28325
813.138	28398
813.279	28261
813.421	28143
813.562	28246
813.703	27968
813.845	27899
813.986	27492
814.127	27610
814.268	27408
814.41	27427
814.551	27420
814.692	27450
814.833	27321
814.974	27378
815.115	27462
815.256	27176
815.397	27226
815.539	27252
815.68	27203
815.821	27237
815.962	27165
816.103	27062
816.244	26933
816.385	26826
816.526	26845
816.666	26777
816.807	26716
816.948	26640
817.089	26674
817.23	26606
817.371	26533
817.512	26549
817.653	26621
817.793	26655
817.934	26629
818.075	26716
818.216	26598
818.356	26484
818.497	26476
818.638	26400
818.778	26381
818.919	26290
819.06	26408
819.2	26446
819.341	26712
819.481	26621
819.622	26667
819.762	26918
819.903	26914
820.043	26674
820.184	26868
820.324	26682
820.465	26746
820.605	26765
820.746	26594
820.886	26644
821.026	26621
821.167	26701
821.307	26769
821.447	26743
821.588	26560
821.728	26298
821.868	26195
822.008	26092
822.149	26107
822.289	26103
822.429	25837
822.569	25868
822.709	25776
822.849	25597
822.99	25594
823.13	25548
823.27	25483
823.41	25365
823.55	25308
823.69	25491
823.83	25472
823.97	25468
824.11	25179
824.25	25274
824.389	25228
824.529	25282
824.669	25270
824.809	25304
824.949	25419
825.089	25438
825.228	25327
825.368	25122
825.508	25019
825.648	25137
825.787	25053
825.927	25148
826.067	25065
826.206	25008
826.346	25137
826.485	25156
826.625	25069
826.765	25190
826.904	25069
827.044	24768
827.183	24806
827.323	24776
827.462	24848
827.601	24837
827.741	24776
827.88	24916
828.02	24608
828.159	24707
828.298	24791
828.437	24867
828.577	24646
828.716	24943
828.855	24528
828.994	24509
829.134	24437
829.273	24559
829.412	24429
829.551	24395
829.69	24467
829.829	24502
829.968	24528
830.107	24673
830.246	24521
830.385	24540
830.524	24300
830.663	24273
830.802	24277
830.941	24079
831.08	23977
831.219	24262
831.357	24064
831.496	24327
831.635	24072
831.774	24095
831.913	24083
832.051	23802
832.19	23889
832.329	23954
832.467	23824
832.606	23882
832.744	23710
832.883	23798
833.022	23752
833.16	23813
833.299	23927
833.437	23798
833.576	23859
833.714	23809
833.852	23916
833.991	23748
834.129	23904
834.267	23908
834.406	23809
834.544	23813
834.682	23904
834.821	23942
834.959	24030
835.097	23764
835.235	23824
835.373	23756
835.511	23809
835.65	23714
835.788	23649
835.926	23589
836.064	23417
836.202	23353
836.34	23653
836.478	23771
836.615	23611
836.753	23748
836.891	23737
837.029	23661
837.167	23653
837.305	23558
837.443	23467
837.58	23398
837.718	23566
837.856	23646
837.993	23425
838.131	23459
838.269	23345
838.406	23349
838.544	23383
838.681	23018
838.819	23193
838.956	22934
839.094	23014
839.231	23159
839.369	23105
839.506	23284
839.643	23181
839.781	22999
839.918	22850
840.055	22953
840.193	23052
840.33	22835
840.467	22877
840.604	22946
840.742	23143
840.879	22683
841.016	22797
841.153	22771
841.29	22984
841.427	23003
841.564	22942
841.701	22927
841.838	22889
841.975	22828
842.112	22835
842.249	22656
842.385	22557
842.522	22858
842.659	22607
842.796	22542
842.933	22626
843.069	22519
843.206	22588
843.343	22744
843.479	22729
843.616	22656
843.752	22409
843.889	22455
844.025	22565
844.162	22371
844.298	22478
844.435	22402
844.571	22409
844.708	22557
844.844	22550
844.98	22573
845.117	22436
845.253	22413
845.389	22230
845.525	22402
845.661	22215
845.798	22105
845.934	22181
846.07	22105
846.206	22265
846.342	22299
846.478	22158
846.614	22036
846.75	21800
846.886	21835
847.022	21968
847.158	21915
847.294	21854
847.429	21964
847.565	21835
847.701	22124
847.837	21656
847.972	21618
848.108	21774
848.244	21739
848.379	21549
848.515	21431
848.65	21359
848.786	21690
848.921	21363
849.057	21530
849.192	21515
849.328	21435
849.463	21416
849.598	21488
849.734	21264
849.869	21382
850.004	21283
850.14	21268
850.275	21313
850.41	21260
850.545	21173
850.68	21226
850.815	21237
850.95	21272
851.085	21447
851.22	21336
851.355	21192
851.49	21230
851.625	21256
851.76	21195
851.895	21173
852.03	21173
852.165	21359
852.299	21222
852.434	21408
852.569	21237
852.703	21291
852.838	21348
852.973	21393
853.107	21272
853.242	21199
853.376	21081
853.511	20979
853.645	21100
853.78	21154
853.914	21116
854.048	21032
854.183	21093
854.317	21131
854.451	21310
854.585	21055
854.72	20960
854.854	21135
854.988	21017
855.122	21138
855.256	21013
855.39	21074
855.524	21100
855.658	21077
855.792	21058
855.926	20998
856.06	21085
856.194	21184
856.327	21036
856.461	21032
856.595	21112
856.729	21036
856.862	21245
856.996	21020
857.13	21157
857.263	21192
857.397	21283
857.53	21096
857.664	21127
857.797	21226
857.931	21241
858.064	21161
858.197	21199
858.331	21062
858.464	20887
858.597	21093
858.731	21066
858.864	21123
858.997	21032
859.13	21081
859.263	21135
859.396	21100
859.529	21093
859.662	21005
859.795	20990
859.928	21024
860.061	21317
860.194	21195
860.327	21020
860.46	21074
860.592	21268
860.725	21237
860.858	21085
860.99	20979
861.123	21096
861.256	21127
861.388	21074
861.521	21816
861.653	20857
861.786	20826
861.918	20853
862.05	20861
862.183	21093
862.315	20944
862.447	21066
862.58	20982
862.712	20632
862.844	20644
862.976	20750
863.108	20823
863.24	21138
863.372	20705
863.504	20743
863.636	20762
863.768	20807
863.9	20834
864.032	20777
864.164	20739
864.296	20857
864.428	20887
864.559	20830
864.691	20830
864.823	20800
864.954	20785
865.086	20743
865.217	20743
865.349	20579
865.48	20663
865.612	20689
865.743	20754
865.875	20769
866.006	20655
866.137	20655
866.269	20621
866.4	20632
866.531	20693
866.662	20545
866.793	20575
866.924	20663
867.055	20526
867.186	20629
867.317	20583
867.448	20552
867.579	20587
867.71	20480
867.841	20518
867.972	20697
868.103	20625
868.233	20583
868.364	20530
868.495	20727
868.625	20857
868.756	21047
868.886	20705
869.017	20788
869.147	20906
869.278	21032
869.408	20811
869.539	20971
869.669	20906
869.799	20842
869.929	20918
870.06	20994
870.19	21279
870.32	21062
870.45	21173
870.58	21192
870.71	21294
870.84	21294
870.97	21192
871.1	21249
871.23	21378
871.36	21504
871.489	21321
871.619	21450
871.749	21389
871.879	21523
872.008	21656
872.138	21435
872.267	21523
872.397	21382
872.526	21389
872.656	21443
872.785	21283
872.915	21370
873.044	21583
873.173	21439
873.303	21424
873.432	21481
873.561	21591
873.69	21545
873.819	21447
873.948	21603
874.077	21507
874.206	21405
874.335	21424
874.464	21576
874.593	21728
874.722	21698
874.851	21751
874.979	21663
875.108	21804
875.237	21682
875.365	21641
875.494	21667
875.623	21648
875.751	21648
875.88	21789
876.008	21930
876.136	21827
876.265	22188
876.393	22249
876.521	22177
876.65	22226
876.778	22120
876.906	22074
877.034	21922
877.162	22002
877.29	22097
877.418	22078
877.546	22082
877.674	22093
877.802	22025
877.93	22101
878.058	22029
878.185	21907
878.313	21979
878.441	22025
878.568	21835
878.696	21907
878.824	22063
878.951	22082
879.079	22219
879.206	22333
879.333	22143
879.461	22215
879.588	22139
879.715	22166
879.842	22276
879.97	22169
880.097	21831
880.224	21873
880.351	21945
880.478	21850
880.605	21876
880.732	21873
880.859	22128
880.986	21823
881.112	21869
881.239	21739
881.366	21603
881.493	21485
881.619	21485
881.746	21458
881.872	21515
881.999	21488
882.125	21348
882.252	21462
882.378	21431
882.505	21466
882.631	21332
882.757	21241
882.883	21211
883.01	21165
883.136	21112
883.262	21047
883.388	20880
883.514	21211
883.64	21237
883.766	21085
883.892	21017
884.018	20960
884.143	21039
884.269	21138
884.395	20838
884.52	20746
884.646	20769
884.772	20632
884.897	20701
885.023	20941
885.148	20895
885.274	20823
885.399	20933
885.524	20853
885.65	20792
885.775	20883
885.9	20735
886.025	20861
886.15	20788
886.275	20697
886.4	20674
886.525	20765
886.65	20758
886.775	20758
886.9	20853
887.025	21009
887.149	20750
887.274	20629
887.399	20674
887.523	20636
887.648	20541
887.773	20480
887.897	20594
888.021	20606
888.146	20476
888.27	20686
888.395	20750
888.519	20556
888.643	20686
888.767	20727
888.891	20556
889.015	20389
889.139	20488
889.263	20271
889.387	20400
889.511	20606
889.635	20476
889.759	20438
889.883	20317
890.006	20412
890.13	20492
890.254	20263
890.377	20225
890.501	20180
890.624	20187
890.748	20233
890.871	20062
890.995	19921
891.118	20008
891.241	19890
891.364	20016
891.488	20107
891.611	19967
891.734	19932
891.857	20039
891.98	19902
892.103	20058
892.226	19967
892.349	19959
892.471	19799
892.594	19868
892.717	19917
892.839	19925
892.962	19837
893.085	19947
893.207	19883
893.33	19875
893.452	19841
893.575	19887
893.697	19822
893.819	19989
893.941	20096
894.064	20027
894.186	19833
894.308	19791
894.43	20027
894.552	20005
894.674	19982
894.796	19666
894.918	19921
895.04	19731
895.161	19772
895.283	19963
895.405	19818
895.526	19913
895.648	19814
895.769	19822
895.891	19963
896.012	20012
896.134	19875
896.255	19925
896.376	19818
896.498	19784
896.619	19879
896.74	19947
896.861	19913
896.982	20149
897.103	20275
897.224	20161
897.345	20001
897.466	19986
897.587	20073
897.708	20225
897.828	20115
897.949	19955
898.07	19913
898.19	19944
898.311	20191
898.431	20062
898.552	20054
898.672	20035
898.792	20164
898.913	20107
899.033	19989
899.153	19913
899.273	19951
899.393	20001
899.513	19959
899.633	19841
899.753	19830
899.873	19902
899.993	19883
900.113	19776
900.232	19852
900.352	19822
900.472	19632
900.591	19567
900.711	19700
900.83	19483
900.95	19715
901.069	19670
901.189	19476
901.308	19312
901.427	19228
901.546	19236
901.665	19312
901.784	19206
901.904	19057
902.023	19019
902.141	18844
902.26	18726
902.379	18859
902.498	18707
902.617	18639
902.735	18791
902.854	18726
902.973	18700
903.091	18460
903.21	18395
903.328	18448
903.446	18304
903.565	18178
903.683	18136
903.801	18152
903.919	18140
904.038	18152
904.156	18011
904.274	17984
904.392	17977
904.51	17958
904.627	18003
904.745	17946
904.863	18038
904.981	17741
905.098	17703
905.216	17642
905.334	17646
905.451	17680
905.569	17672
905.686	17623
905.803	17638
905.921	17505
906.038	17539
906.155	17471
906.272	17398
906.389	17372
906.506	17181
906.623	17356
906.74	17174
906.857	17124
906.974	17079
907.091	17216
907.208	17337
907.324	17121
907.441	16999
907.557	16923
907.674	16976
907.79	16809
907.907	16824
908.023	16968
908.139	16930
908.256	16866
908.372	16710
908.488	16736
908.604	16569
908.72	16706
908.836	16698
908.952	16592
909.068	16611
909.184	16710
909.3	16580
909.415	16535
909.531	16596
909.647	16382
909.762	16360
909.878	16272
909.993	16341
910.108	16303
910.224	16265
910.339	16322
910.454	16139
910.57	16112
910.685	16120
910.8	16246
910.915	16242
911.03	16109
911.145	15972
911.259	15918
911.374	15907
911.489	15861
911.604	15831
911.718	15682
911.833	15736
911.947	15500
912.062	15496
912.176	15679
912.291	15576
912.405	15584
912.519	15816
912.633	15812
912.748	15641
912.862	15656
912.976	15515
913.09	15401
913.204	15485
913.318	15549
913.431	15614
913.545	15469
913.659	15557
913.772	15511
913.886	15378
914	15294
914.113	15332
914.226	15424
914.34	15329
914.453	15127
914.566	15332
914.68	15207
914.793	15169
914.906	15119
915.019	14899
915.132	14804
915.245	14918
915.358	14838
915.47	14994
915.583	14918
915.696	14868
915.809	15032
915.921	14975
916.034	14845
916.146	14830
916.259	14788
916.371	14910
916.483	14921
916.595	14663
916.708	14663
916.82	14712
916.932	14682
917.044	14720
917.156	14693
917.268	14583
917.38	14537
917.491	14564
917.603	14537
917.715	14564
917.826	14655
917.938	14522
918.049	14450
918.161	14507
918.272	14587
918.384	14674
918.495	14442
918.606	14385
918.717	14309
918.828	14305
918.939	14332
919.05	14187
919.161	14320
919.272	14119
919.383	14221
919.494	14298
919.604	14495
919.715	14358
919.826	14180
919.936	14248
920.047	14294
920.157	14374
920.267	14457
920.378	14240
920.488	14240
920.598	14351
920.708	14526
920.818	14492
920.928	14362
921.038	14469
921.148	14571
921.258	14347
921.368	14153
921.477	14031
921.587	14031
921.697	13852
921.806	14100
921.916	13902
922.025	13807
922.134	13681
922.244	13613
922.353	13696
922.462	13552
922.571	13529
922.68	13316
922.789	13343
922.898	13388
923.007	13240
923.116	13365
923.224	13327
923.333	13228
923.442	13202
923.55	13160
923.659	13171
923.767	13179
923.876	13126
923.984	13244
924.092	13034
924.201	13164
924.309	13209
924.417	13076
924.525	12905
924.633	12989
924.741	13727
924.849	12798
924.956	12905
925.064	12753
925.172	12734
925.279	12730
925.387	12741
925.494	12730
925.602	12913
925.709	12753
925.816	12681
925.924	12798
926.031	12795
926.138	12692
926.245	12700
926.352	12604
926.459	12703
926.566	12757
926.673	12620
926.779	12528
926.886	12513
926.993	12388
927.099	12319
927.206	12292
927.312	12239
927.419	12289
927.525	12372
927.631	12330
927.737	12323
927.843	12197
927.95	12087
928.056	12201
928.162	12117
928.267	12232
928.373	12772
928.479	12213
928.585	11969
928.69	12114
928.796	12072
928.901	12045
929.007	11901
929.112	12022
929.218	11923
929.323	11893
929.428	11878
929.533	11969
929.638	11809
929.743	11775
929.848	11813
929.953	11878
930.058	11741
930.163	11417
930.267	11539
930.372	11798
930.477	11501
930.581	11790
930.685	11703
930.79	11433
930.894	11520
930.998	11433
931.103	11562
931.207	11197
931.311	11117
931.415	11045
931.519	10881
931.623	10828
