Data from test_V78500241_1704.txt Node
Date: Fri Mar 25 15:21:43 CST 2022
User: usil
Spectrometer: V785-0024
Trigger mode: 0
Integration Time (sec): 4.000000E-1
Scans to average: 1
Nonlinearity correction enabled: false
Boxcar width: 0
Storing dark spectrum: false
XAxis mode: Wavelengths
Number of Pixels in Spectrum: 1024
>>>>>Begin Spectral Data<<<<<
801.071	27682
801.214	27526
801.356	27302
801.499	27416
801.641	27245
801.783	27146
801.926	27310
802.068	27161
802.211	27043
802.353	26956
802.496	26883
802.638	26781
802.78	26777
802.923	26716
803.065	26777
803.208	26785
803.35	26815
803.492	26918
803.635	27039
803.777	26769
803.919	26982
804.061	27283
804.204	26982
804.346	26864
804.488	26906
804.63	26986
804.773	26929
804.915	26967
805.057	27211
805.199	27020
805.341	27131
805.483	27100
805.626	27051
805.768	27108
805.91	27077
806.052	27104
806.194	26975
806.336	27325
806.478	27211
806.62	27150
806.762	27062
806.904	27408
807.046	27462
807.188	27435
807.33	27526
807.472	27671
807.614	27488
807.756	27523
807.898	27405
808.04	27207
808.182	27355
808.324	27431
808.465	27450
808.607	27530
808.749	27755
808.891	27865
809.033	27823
809.174	27899
809.316	27686
809.458	27610
809.6	27637
809.741	27838
809.883	27983
810.025	27953
810.166	28006
810.308	27949
810.45	27979
810.591	27884
810.733	27717
810.875	27679
811.016	27599
811.158	27606
811.299	27766
811.441	27835
811.582	27759
811.724	27709
811.865	27679
812.007	27667
812.148	27778
812.29	27625
812.431	27876
812.573	28093
812.714	28139
812.855	28371
812.997	28466
813.138	28481
813.279	28356
813.421	28238
813.562	28192
813.703	28013
813.845	27934
813.986	27717
814.127	27507
814.268	27549
814.41	27435
814.551	27458
814.692	27500
814.833	27252
814.974	27405
815.115	27564
815.256	27332
815.397	27203
815.539	27272
815.68	27176
815.821	27127
815.962	27275
816.103	27195
816.244	27085
816.385	26979
816.526	26937
816.666	26670
816.807	26568
816.948	26902
817.089	26861
817.23	26781
817.371	26735
817.512	26541
817.653	26648
817.793	26632
817.934	26838
818.075	26556
818.216	26571
818.356	26648
818.497	26583
818.638	26415
818.778	26366
818.919	26286
819.06	26492
819.2	26476
819.341	26659
819.481	26655
819.622	26819
819.762	26876
819.903	26906
820.043	26845
820.184	26758
820.324	26872
820.465	26716
820.605	26815
820.746	26807
820.886	26705
821.026	26815
821.167	26834
821.307	26739
821.447	26648
821.588	26629
821.728	26389
821.868	26377
822.008	26153
822.149	26020
822.289	26103
822.429	25921
822.569	25887
822.709	25715
822.849	25666
822.99	25769
823.13	25590
823.27	25674
823.41	25552
823.55	25419
823.69	25525
823.83	25464
823.97	25422
824.11	25175
824.25	25221
824.389	25320
824.529	25369
824.669	25285
824.809	25362
824.949	25415
825.089	25434
825.228	25350
825.368	25164
825.508	25251
825.648	25141
825.787	25358
825.927	25183
826.067	25110
826.206	25141
826.346	25202
826.485	25107
826.625	25114
826.765	25331
826.904	25209
827.044	24989
827.183	24947
827.323	24928
827.462	24932
827.601	24844
827.741	24825
827.88	24878
828.02	24844
828.159	24871
828.298	25012
828.437	24859
828.577	24764
828.716	24913
828.855	24878
828.994	24608
829.134	24547
829.273	24700
829.412	24563
829.551	24559
829.69	24555
829.829	24677
829.968	24703
830.107	24540
830.246	24517
830.385	24601
830.524	24460
830.663	24418
830.802	24273
830.941	24182
831.08	24247
831.219	24216
831.357	24277
831.496	24414
831.635	24174
831.774	24155
831.913	24155
832.051	24007
832.19	24140
832.329	24011
832.467	23802
832.606	23935
832.744	23863
832.883	23813
833.022	23859
833.16	23802
833.299	23992
833.437	23859
833.576	23935
833.714	23969
833.852	24003
833.991	23999
834.129	24053
834.267	24087
834.406	23969
834.544	23965
834.682	23916
834.821	23927
834.959	24018
835.097	23802
835.235	23980
835.373	23942
835.511	23935
835.65	23767
835.788	23809
835.926	23634
836.064	23581
836.202	23573
836.34	23737
836.478	23870
836.615	23695
836.753	23752
836.891	23931
837.029	23752
837.167	23596
837.305	23695
837.443	23547
837.58	23642
837.718	23790
837.856	23729
837.993	23554
838.131	23695
838.269	23452
838.406	23592
838.544	23520
838.681	23242
838.819	23269
838.956	23071
839.094	23083
839.231	23193
839.369	23246
839.506	23467
839.643	23448
839.781	23140
839.918	22904
840.055	23151
840.193	23014
840.33	22976
840.467	23056
840.604	23200
840.742	23334
840.879	22976
841.016	22927
841.153	23003
841.29	23086
841.427	22965
841.564	22995
841.701	23025
841.838	22972
841.975	22820
842.112	22942
842.249	22850
842.385	22725
842.522	23022
842.659	22793
842.796	22698
842.933	22733
843.069	22641
843.206	22668
843.343	22759
843.479	22934
843.616	22774
843.752	22641
843.889	22531
844.025	22729
844.162	22596
844.298	22611
844.435	22573
844.571	22474
844.708	22550
844.844	22733
844.98	22850
845.117	22630
845.253	22516
845.389	22344
845.525	22436
845.661	22428
845.798	22261
845.934	22329
846.07	22223
846.206	22455
846.342	22485
846.478	22234
846.614	22051
846.75	21953
846.886	22051
847.022	22029
847.158	22044
847.294	21964
847.429	22093
847.565	21987
847.701	22211
847.837	21656
847.972	21705
848.108	21823
848.244	21747
848.379	21648
848.515	21656
848.65	21492
848.786	21633
848.921	21614
849.057	21675
849.192	21591
849.328	21675
849.463	21671
849.598	21587
849.734	21454
849.869	21504
850.004	21298
850.14	21317
850.275	21443
850.41	21249
850.545	21310
850.68	21382
850.815	21408
850.95	21348
851.085	21469
851.22	21420
851.355	21408
851.49	21450
851.625	21325
851.76	21359
851.895	21275
852.03	21214
852.165	21283
852.299	21428
852.434	21401
852.569	21401
852.703	21363
852.838	21374
852.973	21450
853.107	21439
853.242	21363
853.376	21256
853.511	21119
853.645	21066
853.78	21317
853.914	21256
854.048	21131
854.183	21131
854.317	21199
854.451	21386
854.585	21222
854.72	21157
854.854	21230
854.988	21268
855.122	21108
855.256	21032
855.39	21184
855.524	21329
855.658	21146
855.792	21195
855.926	21325
856.06	21298
856.194	21252
856.327	21184
856.461	21203
856.595	21264
856.729	21233
856.862	21329
856.996	21268
857.13	21226
857.263	21199
857.397	21268
857.53	21207
857.664	21214
857.797	21237
857.931	21283
858.064	21112
858.197	21340
858.331	21192
858.464	21058
858.597	21013
858.731	21321
858.864	21123
858.997	21104
859.13	21207
859.263	21199
859.396	21302
859.529	21131
859.662	21146
859.795	21176
859.928	21275
860.061	21321
860.194	21424
860.327	21237
860.46	21195
860.592	21313
860.725	21393
860.858	21340
860.99	21131
861.123	21119
861.256	21104
861.388	21302
861.521	21899
861.653	20941
861.786	20906
861.918	20979
862.05	21001
862.183	21218
862.315	21180
862.447	21211
862.58	21154
862.712	20921
862.844	20929
862.976	21017
863.108	20887
863.24	21294
863.372	20792
863.504	20937
863.636	20933
863.768	20933
863.9	20982
864.032	20826
864.164	20914
864.296	20982
864.428	21024
864.559	21009
864.691	20975
864.823	20941
864.954	20883
865.086	20899
865.217	20830
865.349	20689
865.48	20796
865.612	20819
865.743	20921
865.875	20929
866.006	20750
866.137	20792
866.269	20769
866.4	20781
866.531	20754
866.662	20815
866.793	20769
866.924	20735
867.055	20701
867.186	20785
867.317	20632
867.448	20750
867.579	20724
867.71	20682
867.841	20644
867.972	20644
868.103	20777
868.233	20663
868.364	20655
868.495	20906
868.625	21058
868.756	21043
868.886	20944
869.017	20914
869.147	21055
869.278	21047
869.408	20937
869.539	21013
869.669	21074
869.799	21001
869.929	21165
870.06	21028
870.19	21336
870.32	21230
870.45	21412
870.58	21393
870.71	21473
870.84	21549
870.97	21435
871.1	21374
871.23	21557
871.36	21606
871.489	21454
871.619	21523
871.749	21671
871.879	21591
872.008	21739
872.138	21591
872.267	21523
872.397	21469
872.526	21313
872.656	21466
872.785	21389
872.915	21648
873.044	21671
873.173	21583
873.303	21511
873.432	21736
873.561	21583
873.69	21629
873.819	21583
873.948	21618
874.077	21663
874.206	21424
874.335	21622
874.464	21743
874.593	21698
874.722	21892
874.851	21842
874.979	21861
875.108	21819
875.237	21785
875.365	21793
875.494	21762
875.623	21850
875.751	21774
875.88	21918
876.008	21880
876.136	21937
876.265	22246
876.393	22272
876.521	22253
876.65	22318
876.778	22185
876.906	22169
877.034	22204
877.162	22192
877.29	22105
877.418	22139
877.546	22143
877.674	22131
877.802	22154
877.93	22246
878.058	22200
878.185	22032
878.313	22242
878.441	22215
878.568	21972
878.696	21998
878.824	22166
878.951	22185
879.079	22299
879.206	22508
879.333	22394
879.461	22242
879.588	22360
879.715	22268
879.842	22493
879.97	22257
880.097	22025
880.224	22074
880.351	22010
880.478	22006
880.605	21876
880.732	21960
880.859	22200
880.986	22021
881.112	22055
881.239	21926
881.366	21766
881.493	21633
881.619	21644
881.746	21507
881.872	21694
881.999	21583
882.125	21557
882.252	21629
882.378	21580
882.505	21583
882.631	21435
882.757	21245
882.883	21287
883.01	21348
883.136	21264
883.262	21154
883.388	21165
883.514	21195
883.64	21241
883.766	21108
883.892	20963
884.018	21150
884.143	21275
884.269	21138
884.395	20960
884.52	20921
884.646	20899
884.772	20785
884.897	20735
885.023	20872
885.148	21123
885.274	21100
885.399	20998
885.524	20929
885.65	20918
885.775	20952
885.9	20887
886.025	20990
886.15	20902
886.275	20891
886.4	20838
886.525	20823
886.65	20883
886.775	20796
886.9	21024
887.025	21161
887.149	20880
887.274	20842
887.399	20636
887.523	20621
887.648	20644
887.773	20503
887.897	20796
888.021	20686
888.146	20625
888.27	20762
888.395	20826
888.519	20670
888.643	20621
888.767	20785
888.891	20655
889.015	20480
889.139	20469
889.263	20393
889.387	20499
889.511	20613
889.635	20686
889.759	20434
889.883	20533
890.006	20476
890.13	20507
890.254	20377
890.377	20377
890.501	20301
890.624	20142
890.748	20214
890.871	20206
890.995	20001
891.118	19955
891.241	20012
891.364	19993
891.488	20240
891.611	20062
891.734	19947
891.857	20187
891.98	20134
892.103	20199
892.226	20054
892.349	20020
892.471	19959
892.594	20008
892.717	19921
892.839	19978
892.962	19986
893.085	20054
893.207	19963
893.33	19814
893.452	19921
893.575	19947
893.697	19837
893.819	20054
893.941	20206
894.064	20126
894.186	19879
894.308	19818
894.43	20050
894.552	20126
894.674	20092
894.796	19852
894.918	19932
895.04	19982
895.161	20065
895.283	19997
895.405	19826
895.526	20020
895.648	19921
895.769	19997
895.891	19970
896.012	20008
896.134	19993
896.255	20054
896.376	19967
896.498	19864
896.619	19963
896.74	19940
896.861	20043
896.982	20271
897.103	20385
897.224	20199
897.345	20240
897.466	20043
897.587	20012
897.708	20324
897.828	20199
897.949	20191
898.07	19921
898.19	20077
898.311	20252
898.431	20073
898.552	20168
898.672	20267
898.792	20256
898.913	20153
899.033	20195
899.153	20046
899.273	19921
899.393	19879
899.513	19879
899.633	19864
899.753	19959
899.873	19928
899.993	20062
900.113	19917
900.232	19818
900.352	19795
900.472	19734
900.591	19609
900.711	19772
900.83	19708
900.95	19769
901.069	19803
901.189	19639
901.308	19373
901.427	19270
901.546	19304
901.665	19407
901.784	19343
901.904	19206
902.023	18993
902.141	18779
902.26	18840
902.379	18924
902.498	18825
902.617	18700
902.735	18768
902.854	18760
902.973	18681
903.091	18585
903.21	18395
903.328	18445
903.446	18437
903.565	18342
903.683	18315
903.801	18194
903.919	18277
904.038	18292
904.156	18022
904.274	18174
904.392	17992
904.51	18083
904.627	17992
904.745	18159
904.863	18079
904.981	17798
905.098	17813
905.216	17771
905.334	17752
905.451	17729
905.569	17665
905.686	17680
905.803	17726
905.921	17524
906.038	17642
906.155	17463
906.272	17417
906.389	17467
906.506	17155
906.623	17231
906.74	17277
906.857	17098
906.974	17223
907.091	17299
907.208	17349
907.324	17345
907.441	17181
907.557	17128
907.674	17018
907.79	16927
907.907	16877
908.023	16965
908.139	17109
908.256	16915
908.372	16820
908.488	16927
908.604	16744
908.72	16710
908.836	16748
908.952	16656
909.068	16778
909.184	16805
909.3	16702
909.415	16763
909.531	16801
909.647	16436
909.762	16443
909.878	16432
909.993	16466
910.108	16306
910.224	16325
910.339	16481
910.454	16242
910.57	16276
910.685	16166
910.8	16531
910.915	16409
911.03	16215
911.145	16006
911.259	16044
911.374	15987
911.489	16025
911.604	15842
911.718	15686
911.833	15755
911.947	15774
912.062	15625
912.176	15686
912.291	15732
912.405	15743
912.519	15949
912.633	15937
912.748	15747
912.862	15717
912.976	15545
913.09	15473
913.204	15614
913.318	15580
913.431	15648
913.545	15667
913.659	15675
913.772	15488
913.886	15439
914	15302
914.113	15412
914.226	15431
914.34	15458
914.453	15302
914.566	15549
914.68	15294
914.793	15165
914.906	15001
915.019	15051
915.132	14941
915.245	15024
915.358	15081
915.47	14933
915.583	14990
915.696	15036
915.809	15097
915.921	15097
916.034	14880
916.146	14883
916.259	14925
916.371	14952
916.483	14925
916.595	14830
916.708	14788
916.82	14868
916.932	14800
917.044	14765
917.156	14720
917.268	14610
917.38	14720
917.491	14537
917.603	14651
917.715	14708
917.826	14746
917.938	14594
918.049	14503
918.161	14594
918.272	14598
918.384	14712
918.495	14522
918.606	14469
918.717	14256
918.828	14396
918.939	14412
919.05	14393
919.161	14473
919.272	14191
919.383	14256
919.494	14454
919.604	14629
919.715	14415
919.826	14282
919.936	14320
920.047	14511
920.157	14408
920.267	14625
920.378	14370
920.488	14343
920.598	14522
920.708	14659
920.818	14545
920.928	14457
921.038	14731
921.148	14613
921.258	14343
921.368	14347
921.477	14187
921.587	14088
921.697	13871
921.806	14088
921.916	14005
922.025	13757
922.134	13765
922.244	13723
922.353	13704
922.462	13719
922.571	13544
922.68	13301
922.789	13263
922.898	13411
923.007	13274
923.116	13377
923.224	13369
923.333	13396
923.442	13247
923.55	13194
923.659	13358
923.767	13282
923.876	13251
923.984	13308
924.092	13027
924.201	13156
924.309	13141
924.417	13198
924.525	13107
924.633	12996
924.741	13833
924.849	12886
924.956	12935
925.064	12859
925.172	12768
925.279	12753
925.387	12852
925.494	12856
925.602	12867
925.709	12791
925.816	12673
925.924	12741
926.031	12749
926.138	12707
926.245	12844
926.352	12688
926.459	12779
926.566	12787
926.673	12757
926.779	12540
926.886	12555
926.993	12456
927.099	12410
927.206	12346
927.312	12380
927.419	12429
927.525	12300
927.631	12369
927.737	12239
927.843	12262
927.95	12133
928.056	12194
928.162	12235
928.267	12266
928.373	12658
928.479	12289
928.585	12072
928.69	12129
928.796	12194
928.901	12098
929.007	11882
929.112	12079
929.218	12022
929.323	11980
929.428	11954
929.533	12022
929.638	11863
929.743	11870
929.848	11958
929.953	11923
930.058	11832
930.163	11657
930.267	11634
930.372	11737
930.477	11516
930.581	11756
930.685	11661
930.79	11467
930.894	11592
930.998	11421
931.103	11661
931.207	11341
931.311	11201
931.415	11155
931.519	10995
931.623	10904
