Data from test_V78500241_555.txt Node
Date: Fri Mar 25 15:13:43 CST 2022
User: usil
Spectrometer: V785-0024
Trigger mode: 0
Integration Time (sec): 4.000000E-1
Scans to average: 1
Nonlinearity correction enabled: false
Boxcar width: 0
Storing dark spectrum: false
XAxis mode: Wavelengths
Number of Pixels in Spectrum: 1024
>>>>>Begin Spectral Data<<<<<
801.071	27131
801.214	26994
801.356	26754
801.499	26758
801.641	26735
801.783	26701
801.926	26727
802.068	26579
802.211	26495
802.353	26355
802.496	26362
802.638	26240
802.78	26191
802.923	26313
803.065	26305
803.208	26138
803.35	26225
803.492	26377
803.635	26351
803.777	26263
803.919	26305
804.061	26541
804.204	26343
804.346	26396
804.488	26351
804.63	26301
804.773	26317
804.915	26301
805.057	26408
805.199	26263
805.341	26541
805.483	26514
805.626	26465
805.768	26377
805.91	26358
806.052	26427
806.194	26389
806.336	26625
806.478	26575
806.62	26503
806.762	26465
806.904	26750
807.046	26883
807.188	26868
807.33	26861
807.472	26857
807.614	26838
807.756	26887
807.898	26769
808.04	26583
808.182	26678
808.324	26876
808.465	26796
808.607	26857
808.749	26986
808.891	27036
809.033	27245
809.174	27131
809.316	27001
809.458	27085
809.6	26998
809.741	27214
809.883	27222
810.025	27275
810.166	27325
810.308	27378
810.45	27218
810.591	27310
810.733	26948
810.875	26967
811.016	26823
811.158	26891
811.299	27100
811.441	27260
811.582	27085
811.724	27051
811.865	26967
812.007	27043
812.148	27058
812.29	27070
812.431	27165
812.573	27249
812.714	27462
812.855	27504
812.997	27747
813.138	27759
813.279	27709
813.421	27698
813.562	27504
813.703	27351
813.845	27218
813.986	26948
814.127	26918
814.268	26708
814.41	26724
814.551	26834
814.692	26689
814.833	26632
814.974	26655
815.115	26670
815.256	26678
815.397	26488
815.539	26552
815.68	26606
815.821	26343
815.962	26404
816.103	26495
816.244	26366
816.385	26229
816.526	26210
816.666	26039
816.807	26035
816.948	26107
817.089	26119
817.23	26062
817.371	26107
817.512	25909
817.653	26065
817.793	25913
817.934	25963
818.075	25883
818.216	25955
818.356	25951
818.497	25868
818.638	25681
818.778	25601
818.919	25632
819.06	25681
819.2	25860
819.341	25906
819.481	25932
819.622	26016
819.762	26256
819.903	26248
820.043	26084
820.184	26043
820.324	26020
820.465	26161
820.605	26115
820.746	26100
820.886	25963
821.026	26008
821.167	26069
821.307	26084
821.447	26054
821.588	25997
821.728	25814
821.868	25415
822.008	25358
822.149	25449
822.289	25369
822.429	25270
822.569	25148
822.709	25194
822.849	24985
822.99	24897
823.13	24821
823.27	24817
823.41	24730
823.55	24658
823.69	24859
823.83	24726
823.97	24642
824.11	24486
824.25	24540
824.389	24582
824.529	24551
824.669	24563
824.809	24684
824.949	24593
825.089	24677
825.228	24494
825.368	24380
825.508	24448
825.648	24369
825.787	24486
825.927	24540
826.067	24426
826.206	24410
826.346	24448
826.485	24517
826.625	24471
826.765	24433
826.904	24467
827.044	24194
827.183	24144
827.323	24163
827.462	24178
827.601	24186
827.741	24171
827.88	24091
828.02	23984
828.159	24129
828.298	24235
828.437	24232
828.577	24015
828.716	24194
828.855	24125
828.994	23882
829.134	23950
829.273	23988
829.412	23942
829.551	23824
829.69	23931
829.829	23843
829.968	23912
830.107	23980
830.246	23832
830.385	23798
830.524	23745
830.663	23687
830.802	23634
830.941	23501
831.08	23448
831.219	23722
831.357	23634
831.496	23748
831.635	23459
831.774	23406
831.913	23372
832.051	23307
832.19	23330
832.329	23337
832.467	23307
832.606	23113
832.744	23197
832.883	23181
833.022	23155
833.16	23170
833.299	23322
833.437	23239
833.576	23391
833.714	23292
833.852	23292
833.991	23235
834.129	23349
834.267	23349
834.406	23284
834.544	23166
834.682	23212
834.821	23284
834.959	23345
835.097	23197
835.235	23296
835.373	23204
835.511	23280
835.65	23143
835.788	23140
835.926	22911
836.064	22991
836.202	22957
836.34	23151
836.478	23132
836.615	23102
836.753	23151
836.891	23280
837.029	23079
837.167	23075
837.305	23083
837.443	22953
837.58	22908
837.718	23121
837.856	22984
837.993	22991
838.131	22873
838.269	22854
838.406	22896
838.544	22710
838.681	22729
838.819	22516
838.956	22531
839.094	22455
839.231	22485
839.369	22649
839.506	22740
839.643	22706
839.781	22512
839.918	22386
840.055	22405
840.193	22455
840.33	22226
840.467	22242
840.604	22394
840.742	22596
840.879	22177
841.016	22226
841.153	22268
841.29	22440
841.427	22325
841.564	22299
841.701	22325
841.838	22249
841.975	22249
842.112	22181
842.249	22150
842.385	22059
842.522	22268
842.659	22162
842.796	22181
842.933	22074
843.069	22025
843.206	22139
843.343	22188
843.479	22048
843.616	21991
843.752	21926
843.889	21922
844.025	22067
844.162	21899
844.298	22010
844.435	21911
844.571	21781
844.708	21793
844.844	21945
844.98	21960
845.117	21975
845.253	21930
845.389	21785
845.525	21766
845.661	21812
845.798	21583
845.934	21599
846.07	21564
846.206	21618
846.342	21709
846.478	21564
846.614	21496
846.75	21332
846.886	21363
847.022	21298
847.158	21386
847.294	21469
847.429	21355
847.565	21321
847.701	21507
847.837	20994
847.972	21028
848.108	21157
848.244	21249
848.379	21001
848.515	20948
848.65	20971
848.786	20811
848.921	21017
849.057	21112
849.192	21043
849.328	21074
849.463	21028
849.598	20971
849.734	20895
849.869	20819
850.004	20670
850.14	20678
850.275	20705
850.41	20636
850.545	20670
850.68	20674
850.815	20796
850.95	20746
851.085	20948
851.22	20781
851.355	20750
851.49	20678
851.625	20743
851.76	20651
851.895	20613
852.03	20621
852.165	20686
852.299	20670
852.434	20830
852.569	20834
852.703	20743
852.838	20838
852.973	20823
853.107	20838
853.242	20606
853.376	20617
853.511	20476
853.645	20560
853.78	20739
853.914	20613
854.048	20575
854.183	20495
854.317	20575
854.451	20731
854.585	20549
854.72	20438
854.854	20526
854.988	20514
855.122	20541
855.256	20526
855.39	20400
855.524	20579
855.658	20537
855.792	20583
855.926	20583
856.06	20590
856.194	20746
856.327	20518
856.461	20461
856.595	20511
856.729	20511
856.862	20609
856.996	20495
857.13	20511
857.263	20670
857.397	20530
857.53	20609
857.664	20606
857.797	20670
857.931	20579
858.064	20613
858.197	20617
858.331	20526
858.464	20450
858.597	20358
858.731	20495
858.864	20552
858.997	20480
859.13	20545
859.263	20450
859.396	20564
859.529	20587
859.662	20412
859.795	20454
859.928	20587
860.061	20667
860.194	20720
860.327	20594
860.46	20476
860.592	20568
860.725	20773
860.858	20735
860.99	20606
861.123	20499
861.256	20465
861.388	20587
861.521	21416
861.653	20393
861.786	20370
861.918	20396
862.05	20446
862.183	20427
862.315	20370
862.447	20469
862.58	20495
862.712	20275
862.844	20240
862.976	20298
863.108	20271
863.24	20598
863.372	20202
863.504	20282
863.636	20142
863.768	20259
863.9	20244
864.032	20206
864.164	20282
864.296	20244
864.428	20351
864.559	20267
864.691	20313
864.823	20210
864.954	20149
865.086	20248
865.217	20210
865.349	20111
865.48	20122
865.612	20126
865.743	20362
865.875	20244
866.006	20187
866.137	20233
866.269	20218
866.4	20218
866.531	20043
866.662	20062
866.793	20073
866.924	20031
867.055	20122
867.186	20191
867.317	20027
867.448	19978
867.579	20031
867.71	19978
867.841	19978
867.972	20058
868.103	20100
868.233	20054
868.364	20206
868.495	20126
868.625	20298
868.756	20377
868.886	20157
869.017	20400
869.147	20377
869.278	20427
869.408	20351
869.539	20408
869.669	20507
869.799	20454
869.929	20461
870.06	20518
870.19	20522
870.32	20636
870.45	20648
870.58	20762
870.71	20861
870.84	20826
870.97	20746
871.1	20708
871.23	20933
871.36	20891
871.489	20830
871.619	20933
871.749	20864
871.879	20902
872.008	20952
872.138	21032
872.267	21039
872.397	20845
872.526	20762
872.656	20796
872.785	20701
872.915	21036
873.044	20948
873.173	21001
873.303	21009
873.432	21009
873.561	21074
873.69	21001
873.819	20887
873.948	20960
874.077	20944
874.206	20853
874.335	20963
874.464	21066
874.593	21165
874.722	21195
874.851	21222
874.979	21161
875.108	21252
875.237	21237
875.365	21116
875.494	21252
875.623	21173
875.751	21093
875.88	21192
876.008	21363
876.136	21393
876.265	21648
876.393	21686
876.521	21622
876.65	21854
876.778	21583
876.906	21504
877.034	21454
877.162	21717
877.29	21435
877.418	21572
877.546	21504
877.674	21549
877.802	21439
877.93	21618
878.058	21447
878.185	21504
878.313	21485
878.441	21488
878.568	21401
878.696	21507
878.824	21431
878.951	21572
879.079	21808
879.206	21770
879.333	21766
879.461	21523
879.588	21652
879.715	21781
879.842	21865
879.97	21759
880.097	21405
880.224	21420
880.351	21431
880.478	21355
880.605	21363
880.732	21393
880.859	21694
880.986	21279
881.112	21447
881.239	21245
881.366	21214
881.493	21051
881.619	20887
881.746	20971
881.872	21058
881.999	20918
882.125	20899
882.252	20921
882.378	20910
882.505	21127
882.631	20762
882.757	20674
882.883	20792
883.01	20769
883.136	20564
883.262	20621
883.388	20537
883.514	20735
883.64	20739
883.766	20434
883.892	20415
884.018	20514
884.143	20568
884.269	20686
884.395	20461
884.52	20377
884.646	20187
884.772	20278
884.897	20259
885.023	20503
885.148	20454
885.274	20484
885.399	20381
885.524	20351
885.65	20377
885.775	20438
885.9	20252
886.025	20415
886.15	20366
886.275	20263
886.4	20092
886.525	20267
886.65	20263
886.775	20313
886.9	20469
887.025	20499
887.149	20313
887.274	20183
887.399	19993
887.523	20115
887.648	20100
887.773	20077
887.897	20176
888.021	20100
888.146	20134
888.27	20180
888.395	20237
888.519	20024
888.643	20119
888.767	20016
888.891	20058
889.015	19955
889.139	19955
889.263	19830
889.387	20107
889.511	20161
889.635	19997
889.759	19845
889.883	19887
890.006	19883
890.13	19902
890.254	19913
890.377	19871
890.501	19677
890.624	19685
890.748	19677
890.871	19529
890.995	19476
891.118	19308
891.241	19487
891.364	19533
891.488	19639
891.611	19419
891.734	19377
891.857	19491
891.98	19521
892.103	19537
892.226	19525
892.349	19449
892.471	19377
892.594	19422
892.717	19384
892.839	19365
892.962	19400
893.085	19445
893.207	19403
893.33	19308
893.452	19255
893.575	19384
893.697	19373
893.819	19510
893.941	19578
894.064	19540
894.186	19274
894.308	19373
894.43	19419
894.552	19544
894.674	19480
894.796	19255
894.918	19472
895.04	19480
895.161	19518
895.283	19430
895.405	19445
895.526	19320
895.648	19441
895.769	19377
895.891	19506
896.012	19575
896.134	19392
896.255	19339
896.376	19308
896.498	19430
896.619	19434
896.74	19396
896.861	19384
896.982	19609
897.103	19909
897.224	19605
897.345	19616
897.466	19506
897.587	19658
897.708	19841
897.828	19582
897.949	19624
898.07	19403
898.19	19502
898.311	19704
898.431	19510
898.552	19662
898.672	19666
898.792	19738
898.913	19674
899.033	19597
899.153	19533
899.273	19335
899.393	19320
899.513	19415
899.633	19324
899.753	19457
899.873	19426
899.993	19483
900.113	19304
900.232	19384
900.352	19430
900.472	19327
900.591	19198
900.711	19297
900.83	19183
900.95	19324
901.069	19206
901.189	19080
901.308	18825
901.427	18783
901.546	18787
901.665	18821
901.784	18821
901.904	18585
902.023	18593
902.141	18334
902.26	18460
902.379	18380
902.498	18311
902.617	18304
902.735	18285
902.854	18247
902.973	18178
903.091	18041
903.21	17961
903.328	17999
903.446	17863
903.565	17855
903.683	17729
903.801	17745
903.919	17687
904.038	17684
904.156	17657
904.274	17718
904.392	17520
904.51	17547
904.627	17524
904.745	17630
904.863	17551
904.981	17341
905.098	17326
905.216	17242
905.334	17258
905.451	17284
905.569	17242
905.686	17337
905.803	17208
905.921	17200
906.038	17124
906.155	17220
906.272	16949
906.389	17086
906.506	16854
906.623	16885
906.74	16729
906.857	16725
906.974	16771
907.091	16790
907.208	16946
907.324	16892
907.441	16736
907.557	16637
907.674	16493
907.79	16424
907.907	16508
908.023	16611
908.139	16542
908.256	16558
908.372	16451
908.488	16516
908.604	16356
908.72	16158
908.836	16223
908.952	16234
909.068	16325
909.184	16398
909.3	16337
909.415	16344
909.531	16257
909.647	15949
909.762	16078
909.878	15934
909.993	15994
910.108	15960
910.224	16078
910.339	16025
910.454	15838
910.57	15739
910.685	15705
910.8	16002
910.915	15949
911.03	15838
911.145	15625
911.259	15618
911.374	15500
911.489	15568
911.604	15507
911.718	15355
911.833	15302
911.947	15275
912.062	15192
912.176	15336
912.291	15230
912.405	15294
912.519	15439
912.633	15431
912.748	15370
912.862	15302
912.976	15211
913.09	15024
913.204	15173
913.318	15150
913.431	15279
913.545	15321
913.659	15222
913.772	15207
913.886	15017
914	15017
914.113	15047
914.226	15089
914.34	15001
914.453	14823
914.566	14990
914.68	14792
914.793	14883
914.906	14621
915.019	14537
915.132	14594
915.245	14602
915.358	14613
915.47	14579
915.583	14625
915.696	14598
915.809	14689
915.921	14583
916.034	14526
916.146	14503
916.259	14404
916.371	14522
916.483	14530
916.595	14427
916.708	14377
916.82	14419
916.932	14415
917.044	14419
917.156	14320
917.268	14168
917.38	14149
917.491	14286
917.603	14336
917.715	14301
917.826	14278
917.938	14240
918.049	14092
918.161	14240
918.272	14408
918.384	14415
918.495	14278
918.606	14050
918.717	13970
918.828	14123
918.939	14138
919.05	13951
919.161	14050
919.272	13784
919.383	13909
919.494	14168
919.604	14210
919.715	14103
919.826	13898
919.936	14012
920.047	13989
920.157	13989
920.267	14187
920.378	14050
920.488	13974
920.598	14164
920.708	14339
920.818	14103
920.928	14180
921.038	14259
921.148	14149
921.258	13970
921.368	13925
921.477	13811
921.587	13803
921.697	13597
921.806	13765
921.916	13636
922.025	13529
922.134	13392
922.244	13407
922.353	13373
922.462	13259
922.571	13301
922.68	13080
922.789	12954
922.898	13209
923.007	13050
923.116	12996
923.224	13050
923.333	12996
923.442	12951
923.55	12848
923.659	12966
923.767	12913
923.876	12954
923.984	12837
924.092	12772
924.201	12829
924.309	12821
924.417	12829
924.525	12719
924.633	12783
924.741	13525
924.849	12513
924.956	12715
925.064	12585
925.172	12479
925.279	12494
925.387	12540
925.494	12517
925.602	12650
925.709	12502
925.816	12357
925.924	12414
926.031	12517
926.138	12433
926.245	12528
926.352	12346
926.459	12498
926.566	12437
926.673	12414
926.779	12315
926.886	12247
926.993	12091
927.099	12110
927.206	11988
927.312	12045
927.419	12152
927.525	12125
927.631	12076
927.737	11939
927.843	11996
927.95	11840
928.056	11870
928.162	11988
928.267	11992
928.373	12517
928.479	11996
928.585	11688
928.69	11920
928.796	11916
928.901	11680
929.007	11710
929.112	11729
929.218	11794
929.323	11668
929.428	11627
929.533	11741
929.638	11608
929.743	11611
929.848	11581
929.953	11619
930.058	11471
930.163	11410
930.267	11349
930.372	11459
930.477	11341
930.581	11551
930.685	11353
930.79	11189
930.894	11261
930.998	11216
931.103	11364
931.207	11033
931.311	10957
931.415	10847
931.519	10649
931.623	10626
