Data from test_V78500241_336.txt Node
Date: Fri Mar 25 15:12:11 CST 2022
User: usil
Spectrometer: V785-0024
Trigger mode: 0
Integration Time (sec): 4.000000E-1
Scans to average: 1
Nonlinearity correction enabled: false
Boxcar width: 0
Storing dark spectrum: false
XAxis mode: Wavelengths
Number of Pixels in Spectrum: 1024
>>>>>Begin Spectral Data<<<<<
801.071	27043
801.214	27013
801.356	26731
801.499	26613
801.641	26590
801.783	26526
801.926	26674
802.068	26355
802.211	26560
802.353	26484
802.496	26461
802.638	26248
802.78	26275
802.923	26195
803.065	26081
803.208	26062
803.35	26286
803.492	26351
803.635	26317
803.777	26233
803.919	26385
804.061	26674
804.204	26412
804.346	26294
804.488	26145
804.63	26347
804.773	26229
804.915	26419
805.057	26385
805.199	26294
805.341	26469
805.483	26461
805.626	26465
805.768	26366
805.91	26362
806.052	26514
806.194	26256
806.336	26727
806.478	26522
806.62	26457
806.762	26473
806.904	26731
807.046	27142
807.188	26807
807.33	26773
807.472	26944
807.614	26887
807.756	26815
807.898	26689
808.04	26724
808.182	26514
808.324	26712
808.465	26663
808.607	26842
808.749	26975
808.891	27203
809.033	27142
809.174	26933
809.316	26921
809.458	27039
809.6	26864
809.741	27199
809.883	27138
810.025	27298
810.166	27268
810.308	27207
810.45	27363
810.591	27199
810.733	27077
810.875	26944
811.016	26868
811.158	27013
811.299	27123
811.441	27135
811.582	27188
811.724	27036
811.865	26986
812.007	26948
812.148	26998
812.29	27066
812.431	27184
812.573	27264
812.714	27291
812.855	27564
812.997	27530
813.138	27690
813.279	27591
813.421	27530
813.562	27561
813.703	27355
813.845	27321
813.986	27005
814.127	26796
814.268	26758
814.41	26583
814.551	26598
814.692	26792
814.833	26712
814.974	26617
815.115	26571
815.256	26678
815.397	26602
815.539	26606
815.68	26530
815.821	26473
815.962	26522
816.103	26400
816.244	26385
816.385	26172
816.526	26145
816.666	26050
816.807	25966
816.948	25986
817.089	25989
817.23	26084
817.371	25902
817.512	26065
817.653	26027
817.793	25833
817.934	25826
818.075	25932
818.216	25947
818.356	25875
818.497	25700
818.638	25674
818.778	25605
818.919	25616
819.06	25689
819.2	25944
819.341	26062
819.481	25791
819.622	26005
819.762	26221
819.903	26172
820.043	26062
820.184	25947
820.324	26039
820.465	26024
820.605	26001
820.746	26054
820.886	25936
821.026	25997
821.167	26035
821.307	25997
821.447	25997
821.588	25871
821.728	25704
821.868	25537
822.008	25441
822.149	25468
822.289	25400
822.429	25175
822.569	24970
822.709	25099
822.849	24943
822.99	24973
823.13	24867
823.27	24787
823.41	24768
823.55	24661
823.69	24730
823.83	24734
823.97	24658
824.11	24540
824.25	24547
824.389	24639
824.529	24601
824.669	24536
824.809	24616
824.949	24563
825.089	24745
825.228	24585
825.368	24372
825.508	24403
825.648	24403
825.787	24486
825.927	24544
826.067	24369
826.206	24460
826.346	24429
826.485	24334
826.625	24353
826.765	24486
826.904	24460
827.044	24140
827.183	24209
827.323	24201
827.462	24239
827.601	24270
827.741	24174
827.88	24133
828.02	24034
828.159	24178
828.298	24072
828.437	24194
828.577	24159
828.716	24235
828.855	23992
828.994	23843
829.134	23927
829.273	23866
829.412	23813
829.551	23691
829.69	23893
829.829	23855
829.968	23999
830.107	23927
830.246	23843
830.385	23950
830.524	23809
830.663	23581
830.802	23604
830.941	23433
831.08	23497
831.219	23535
831.357	23562
831.496	23630
831.635	23448
831.774	23474
831.913	23368
832.051	23254
832.19	23337
832.329	23250
832.467	23189
832.606	23056
832.744	23326
832.883	23242
833.022	23060
833.16	23124
833.299	23212
833.437	23235
833.576	23143
833.714	23166
833.852	23265
833.991	23299
834.129	23360
834.267	23273
834.406	23197
834.544	23345
834.682	23140
834.821	23185
834.959	23440
835.097	23254
835.235	23258
835.373	23208
835.511	23261
835.65	23052
835.788	23124
835.926	22885
836.064	22904
836.202	22991
836.34	23124
836.478	23231
836.615	23109
836.753	23140
836.891	23124
837.029	23083
837.167	23060
837.305	23003
837.443	22919
837.58	22824
837.718	22949
837.856	23060
837.993	22896
838.131	22900
838.269	22736
838.406	22793
838.544	22873
838.681	22565
838.819	22512
838.956	22363
839.094	22474
839.231	22481
839.369	22584
839.506	22831
839.643	22615
839.781	22428
839.918	22386
840.055	22474
840.193	22424
840.33	22371
840.467	22363
840.604	22341
840.742	22569
840.879	22070
841.016	22253
841.153	22348
841.29	22459
841.427	22265
841.564	22238
841.701	22314
841.838	22272
841.975	22196
842.112	22303
842.249	22200
842.385	22017
842.522	22261
842.659	22207
842.796	22215
842.933	22074
843.069	22082
843.206	21953
843.343	22112
843.479	22074
843.616	22086
843.752	21884
843.889	21930
844.025	21987
844.162	21736
844.298	21983
844.435	21895
844.571	21743
844.708	21937
844.844	22055
844.98	21941
845.117	21941
845.253	21682
845.389	21880
845.525	21835
845.661	21720
845.798	21610
845.934	21720
846.07	21625
846.206	21614
846.342	21831
846.478	21542
846.614	21557
846.75	21302
846.886	21306
847.022	21355
847.158	21291
847.294	21393
847.429	21431
847.565	21370
847.701	21561
847.837	21108
847.972	21062
848.108	21195
848.244	21070
848.379	20998
848.515	20921
848.65	20925
848.786	20925
848.921	20952
849.057	21055
849.192	21013
849.328	20986
849.463	20952
849.598	20906
849.734	20811
849.869	20880
850.004	20712
850.14	20678
850.275	20636
850.41	20720
850.545	20579
850.68	20746
850.815	20693
850.95	20750
851.085	20986
851.22	20864
851.355	20773
851.49	20701
851.625	20701
851.76	20697
851.895	20568
852.03	20545
852.165	20689
852.299	20792
852.434	20724
852.569	20792
852.703	20773
852.838	20883
852.973	20811
853.107	20883
853.242	20678
853.376	20476
853.511	20431
853.645	20522
853.78	20518
853.914	20689
854.048	20594
854.183	20568
854.317	20556
854.451	20739
854.585	20575
854.72	20594
854.854	20598
854.988	20377
855.122	20507
855.256	20366
855.39	20674
855.524	20522
855.658	20514
855.792	20533
855.926	20579
856.06	20625
856.194	20708
856.327	20511
856.461	20473
856.595	20499
856.729	20419
856.862	20644
856.996	20636
857.13	20632
857.263	20648
857.397	20602
857.53	20473
857.664	20560
857.797	20613
857.931	20689
858.064	20457
858.197	20659
858.331	20503
858.464	20419
858.597	20294
858.731	20526
858.864	20556
858.997	20476
859.13	20461
859.263	20476
859.396	20629
859.529	20492
859.662	20587
859.795	20404
859.928	20518
860.061	20632
860.194	20701
860.327	20556
860.46	20625
860.592	20613
860.725	20579
860.858	20590
860.99	20533
861.123	20446
861.256	20499
861.388	20454
861.521	21112
861.653	20313
861.786	20438
861.918	20396
862.05	20503
862.183	20473
862.315	20457
862.447	20575
862.58	20495
862.712	20328
862.844	20305
862.976	20324
863.108	20313
863.24	20708
863.372	20298
863.504	20225
863.636	20138
863.768	20290
863.9	20252
864.032	20244
864.164	20130
864.296	20206
864.428	20434
864.559	20301
864.691	20248
864.823	20237
864.954	20400
865.086	20218
865.217	20176
865.349	20081
865.48	20195
865.612	20107
865.743	20298
865.875	20180
866.006	20195
866.137	20153
866.269	20134
866.4	20077
866.531	20161
866.662	19982
866.793	20092
866.924	19982
867.055	20111
867.186	20088
867.317	19970
867.448	20027
867.579	19932
867.71	19894
867.841	19947
867.972	20100
868.103	20016
868.233	20153
868.364	20050
868.495	20183
868.625	20431
868.756	20427
868.886	20149
869.017	20259
869.147	20442
869.278	20438
869.408	20366
869.539	20328
869.669	20385
869.799	20347
869.929	20488
870.06	20400
870.19	20579
870.32	20575
870.45	20659
870.58	20769
870.71	20902
870.84	20758
870.97	20758
871.1	20640
871.23	20941
871.36	20857
871.489	20861
871.619	20834
871.749	20956
871.879	20994
872.008	21013
872.138	21047
872.267	20785
872.397	20754
872.526	20708
872.656	20731
872.785	20758
872.915	21043
873.044	20998
873.173	20952
873.303	20971
873.432	21039
873.561	21043
873.69	20963
873.819	21104
873.948	21104
874.077	20956
874.206	20910
874.335	21047
874.464	21024
874.593	21150
874.722	21192
874.851	21192
874.979	21199
875.108	21260
875.237	21173
875.365	21112
875.494	21180
875.623	21313
875.751	21108
875.88	21245
876.008	21443
876.136	21412
876.265	21633
876.393	21705
876.521	21644
876.65	21717
876.778	21629
876.906	21542
877.034	21568
877.162	21530
877.29	21439
877.418	21519
877.546	21644
877.674	21652
877.802	21492
877.93	21606
878.058	21576
878.185	21485
878.313	21507
878.441	21515
878.568	21348
878.696	21344
878.824	21428
878.951	21580
879.079	21682
879.206	21827
879.333	21728
879.461	21656
879.588	21644
879.715	21762
879.842	21808
879.97	21622
880.097	21325
880.224	21329
880.351	21530
880.478	21397
880.605	21241
880.732	21310
880.859	21637
880.986	21355
881.112	21370
881.239	21291
881.366	21096
881.493	20975
881.619	20960
881.746	21039
881.872	20956
881.999	21020
882.125	20864
882.252	20960
882.378	20998
882.505	21093
882.631	20948
882.757	20697
882.883	20686
883.01	20686
883.136	20556
883.262	20514
883.388	20598
883.514	20621
883.64	20773
883.766	20579
883.892	20286
884.018	20476
884.143	20499
884.269	20712
884.395	20412
884.52	20313
884.646	20339
884.772	20145
884.897	20225
885.023	20259
885.148	20446
885.274	20465
885.399	20343
885.524	20347
885.65	20282
885.775	20301
885.9	20324
886.025	20404
886.15	20324
886.275	20317
886.4	20180
886.525	20317
886.65	20233
886.775	20225
886.9	20438
887.025	20503
887.149	20267
887.274	20138
887.399	20115
887.523	20062
887.648	20043
887.773	20065
887.897	20157
888.021	20081
888.146	19955
888.27	20149
888.395	20183
888.519	20149
888.643	20111
888.767	20130
888.891	19974
889.015	20001
889.139	19913
889.263	19894
889.387	19963
889.511	20107
889.635	19925
889.759	19940
889.883	19879
890.006	19864
890.13	19997
890.254	19837
890.377	19875
890.501	19799
890.624	19575
890.748	19708
890.871	19502
890.995	19575
891.118	19434
891.241	19480
891.364	19483
891.488	19559
891.611	19388
891.734	19419
891.857	19639
891.98	19586
892.103	19502
892.226	19616
892.349	19396
892.471	19179
892.594	19358
892.717	19476
892.839	19297
892.962	19441
893.085	19430
893.207	19472
893.33	19316
893.452	19251
893.575	19365
893.697	19350
893.819	19578
893.941	19586
894.064	19540
894.186	19384
894.308	19320
894.43	19514
894.552	19552
894.674	19495
894.796	19331
894.918	19373
895.04	19339
895.161	19460
895.283	19441
895.405	19236
895.526	19441
895.648	19449
895.769	19415
895.891	19445
896.012	19480
896.134	19533
896.255	19533
896.376	19369
896.498	19388
896.619	19346
896.74	19339
896.861	19502
896.982	19750
897.103	19883
897.224	19757
897.345	19632
897.466	19628
897.587	19620
897.708	19712
897.828	19685
897.949	19685
898.07	19384
898.19	19578
898.311	19715
898.431	19567
898.552	19613
898.672	19639
898.792	19734
898.913	19586
899.033	19563
899.153	19384
899.273	19247
899.393	19426
899.513	19441
899.633	19403
899.753	19438
899.873	19384
899.993	19384
900.113	19327
900.232	19289
900.352	19255
900.472	19240
900.591	19202
900.711	19156
900.83	19179
900.95	19194
901.069	19137
901.189	19031
901.308	18753
901.427	18833
901.546	18840
901.665	18859
901.784	18757
901.904	18688
902.023	18490
902.141	18357
902.26	18292
902.379	18376
902.498	18388
902.617	18270
902.735	18338
902.854	18289
902.973	18270
903.091	17958
903.21	17942
903.328	18022
903.446	17973
903.565	17790
903.683	17714
903.801	17653
903.919	17779
904.038	17615
904.156	17516
904.274	17604
904.392	17509
904.51	17566
904.627	17535
904.745	17627
904.863	17604
904.981	17353
905.098	17220
905.216	17231
905.334	17231
905.451	17269
905.569	17200
905.686	17284
905.803	17227
905.921	17045
906.038	17136
906.155	17174
906.272	16854
906.389	16942
906.506	16850
906.623	16771
906.74	16706
906.857	16729
906.974	16618
907.091	16793
907.208	16934
907.324	16812
907.441	16645
907.557	16538
907.674	16538
907.79	16360
907.907	16428
908.023	16470
908.139	16519
908.256	16500
908.372	16379
908.488	16379
908.604	16284
908.72	16223
908.836	16272
908.952	16120
909.068	16181
909.184	16287
909.3	16211
909.415	16325
909.531	16223
909.647	15895
909.762	15998
909.878	15888
909.993	16010
910.108	15835
910.224	15854
910.339	15975
910.454	15857
910.57	15781
910.685	15717
910.8	16029
910.915	15827
911.03	15759
911.145	15656
911.259	15511
911.374	15492
911.489	15481
911.604	15416
911.718	15245
911.833	15256
911.947	15123
912.062	15146
912.176	15268
912.291	15272
912.405	15264
912.519	15386
912.633	15447
912.748	15355
912.862	15207
912.976	15112
913.09	15058
913.204	15085
913.318	15058
913.431	15237
913.545	15173
913.659	15169
913.772	15020
913.886	14925
914	14899
914.113	14986
914.226	15066
914.34	14994
914.453	14861
914.566	15043
914.68	14880
914.793	14693
914.906	14560
915.019	14594
915.132	14537
915.245	14549
915.358	14594
915.47	14610
915.583	14541
915.696	14564
915.809	14693
915.921	14708
916.034	14518
916.146	14343
916.259	14526
916.371	14507
916.483	14503
916.595	14336
916.708	14434
916.82	14450
916.932	14343
917.044	14343
917.156	14313
917.268	14271
917.38	14309
917.491	14111
917.603	14206
917.715	14294
917.826	14309
917.938	14145
918.049	14043
918.161	14096
918.272	14332
918.384	14313
918.495	14134
918.606	14046
918.717	13879
918.828	14020
918.939	14027
919.05	13898
919.161	14016
919.272	13765
919.383	13818
919.494	14027
919.604	14187
919.715	13944
919.826	13906
919.936	13936
920.047	14062
920.157	13909
920.267	14161
920.378	13993
920.488	13879
920.598	14252
920.708	14290
920.818	14077
920.928	14187
921.038	14229
921.148	14199
921.258	14005
921.368	13826
921.477	13715
921.587	13655
921.697	13514
921.806	13757
921.916	13636
922.025	13407
922.134	13365
922.244	13289
922.353	13407
922.462	13202
922.571	13088
922.68	13031
922.789	12951
922.898	12993
923.007	12913
923.116	13099
923.224	12935
923.333	12993
923.442	12897
923.55	12844
923.659	12806
923.767	12916
923.876	12711
923.984	12924
924.092	12757
924.201	12753
924.309	12738
924.417	12734
924.525	12578
924.633	12760
924.741	13460
924.849	12506
924.956	12646
925.064	12429
925.172	12369
925.279	12460
925.387	12494
925.494	12429
925.602	12616
925.709	12494
925.816	12414
925.924	12479
926.031	12456
926.138	12388
926.245	12456
926.352	12369
926.459	12384
926.566	12494
926.673	12319
926.779	12308
926.886	12296
926.993	12152
927.099	12030
927.206	11988
927.312	12022
927.419	12076
927.525	12030
927.631	12079
927.737	11942
927.843	11855
927.95	11840
928.056	11859
928.162	11904
928.267	11874
928.373	12506
928.479	11958
928.585	11707
928.69	11771
928.796	11859
928.901	11764
929.007	11554
929.112	11688
929.218	11756
929.323	11592
929.428	11611
929.533	11733
929.638	11585
929.743	11524
929.848	11627
929.953	11535
930.058	11497
930.163	11368
930.267	11414
930.372	11478
930.477	11212
930.581	11524
930.685	11261
930.79	11174
930.894	11269
930.998	11189
931.103	11330
931.207	10980
931.311	10889
931.415	10809
931.519	10618
931.623	10603
