Data from test_V78500241_2628.txt Node
Date: Fri Mar 25 15:28:09 CST 2022
User: usil
Spectrometer: V785-0024
Trigger mode: 0
Integration Time (sec): 4.000000E-1
Scans to average: 1
Nonlinearity correction enabled: false
Boxcar width: 0
Storing dark spectrum: false
XAxis mode: Wavelengths
Number of Pixels in Spectrum: 1024
>>>>>Begin Spectral Data<<<<<
801.071	27283
801.214	27355
801.356	27108
801.499	26887
801.641	26838
801.783	26746
801.926	26830
802.068	26697
802.211	26632
802.353	26712
802.496	26484
802.638	26461
802.78	26412
802.923	26366
803.065	26358
803.208	26328
803.35	26484
803.492	26480
803.635	26522
803.777	26419
803.919	26526
804.061	26739
804.204	26511
804.346	26511
804.488	26400
804.63	26415
804.773	26495
804.915	26511
805.057	26754
805.199	26511
805.341	26659
805.483	26724
805.626	26617
805.768	26560
805.91	26655
806.052	26712
806.194	26644
806.336	26845
806.478	26598
806.62	26636
806.762	26602
806.904	26845
807.046	27184
807.188	27070
807.33	27112
807.472	27062
807.614	26952
807.756	26967
807.898	26842
808.04	26796
808.182	26975
808.324	26918
808.465	26929
808.607	27199
808.749	27249
808.891	27374
809.033	27496
809.174	27203
809.316	27256
809.458	27203
809.6	27135
809.741	27439
809.883	27386
810.025	27534
810.166	27564
810.308	27389
810.45	27348
810.591	27564
810.733	27321
810.875	27154
811.016	27062
811.158	27089
811.299	27340
811.441	27466
811.582	27370
811.724	27249
811.865	27233
812.007	27161
812.148	27127
812.29	27176
812.431	27283
812.573	27458
812.714	27660
812.855	27667
812.997	27759
813.138	27914
813.279	27914
813.421	27698
813.562	27629
813.703	27603
813.845	27363
813.986	27116
814.127	26940
814.268	26823
814.41	26910
814.551	26811
814.692	26845
814.833	26868
814.974	26815
815.115	27013
815.256	26682
815.397	26621
815.539	26807
815.68	26541
815.821	26644
815.962	26667
816.103	26518
816.244	26431
816.385	26415
816.526	26438
816.666	26202
816.807	26149
816.948	26088
817.089	26218
817.23	26263
817.371	26168
817.512	26252
817.653	26050
817.793	26039
817.934	26035
818.075	26153
818.216	26126
818.356	26024
818.497	25917
818.638	25826
818.778	25928
818.919	25841
819.06	26005
819.2	25970
819.341	26088
819.481	26180
819.622	26256
819.762	26324
819.903	26415
820.043	26309
820.184	26221
820.324	26324
820.465	26259
820.605	26244
820.746	26256
820.886	26043
821.026	26191
821.167	26130
821.307	26339
821.447	25997
821.588	25997
821.728	25845
821.868	25845
822.008	25635
822.149	25696
822.289	25514
822.429	25312
822.569	25457
822.709	25206
822.849	25133
822.99	25137
823.13	24947
823.27	25084
823.41	24996
823.55	24909
823.69	24916
823.83	24859
823.97	24935
824.11	24684
824.25	24745
824.389	24658
824.529	24722
824.669	24764
824.809	24833
824.949	24768
825.089	24707
825.228	24913
825.368	24631
825.508	24494
825.648	24604
825.787	24521
825.927	24707
826.067	24623
826.206	24658
826.346	24673
826.485	24700
826.625	24661
826.765	24627
826.904	24631
827.044	24464
827.183	24403
827.323	24403
827.462	24414
827.601	24376
827.741	24391
827.88	24384
828.02	24224
828.159	24365
828.298	24289
828.437	24376
828.577	24289
828.716	24422
828.855	24182
828.994	24095
829.134	24106
829.273	24057
829.412	24041
829.551	24049
829.69	24068
829.829	24186
829.968	24182
830.107	24011
830.246	24098
830.385	23969
830.524	23889
830.663	23931
830.802	23885
830.941	23737
831.08	23642
831.219	23764
831.357	23699
831.496	23946
831.635	23707
831.774	23554
831.913	23509
832.051	23337
832.19	23360
832.329	23528
832.467	23337
832.606	23296
832.744	23345
832.883	23429
833.022	23193
833.16	23330
833.299	23448
833.437	23318
833.576	23425
833.714	23391
833.852	23421
833.991	23463
834.129	23429
834.267	23505
834.406	23334
834.544	23478
834.682	23471
834.821	23356
834.959	23566
835.097	23414
835.235	23535
835.373	23341
835.511	23429
835.65	23250
835.788	23299
835.926	23246
836.064	23143
836.202	23189
836.34	23208
836.478	23185
836.615	23242
836.753	23174
836.891	23467
837.029	23269
837.167	23204
837.305	23166
837.443	23136
837.58	22984
837.718	23155
837.856	23079
837.993	22987
838.131	23155
838.269	23060
838.406	23056
838.544	22930
838.681	22805
838.819	22774
838.956	22664
839.094	22615
839.231	22752
839.369	22778
839.506	23018
839.643	22881
839.781	22451
839.918	22440
840.055	22630
840.193	22447
840.33	22394
840.467	22653
840.604	22649
840.742	22793
840.879	22371
841.016	22432
841.153	22455
841.29	22641
841.427	22546
841.564	22653
841.701	22588
841.838	22432
841.975	22405
842.112	22451
842.249	22409
842.385	22246
842.522	22577
842.659	22485
842.796	22272
842.933	22329
843.069	22268
843.206	22139
843.343	22344
843.479	22303
843.616	22284
843.752	21998
843.889	22116
844.025	22196
844.162	21979
844.298	22086
844.435	22055
844.571	22173
844.708	22093
844.844	22295
844.98	22135
845.117	22196
845.253	21964
845.389	21854
845.525	21987
845.661	21835
845.798	21907
845.934	21781
846.07	21785
846.206	21789
846.342	21975
846.478	21850
846.614	21629
846.75	21610
846.886	21420
847.022	21492
847.158	21523
847.294	21538
847.429	21504
847.565	21591
847.701	21926
847.837	21222
847.972	21260
848.108	21355
848.244	21283
848.379	21241
848.515	21127
848.65	21096
848.786	21047
848.921	21112
849.057	21245
849.192	21268
849.328	21146
849.463	21188
849.598	21211
849.734	21070
849.869	20929
850.004	20895
850.14	20842
850.275	20933
850.41	20758
850.545	20804
850.68	20853
850.815	20975
850.95	20857
851.085	21047
851.22	20861
851.355	20956
851.49	20910
851.625	20849
851.76	20902
851.895	20845
852.03	20811
852.165	20918
852.299	20914
852.434	20979
852.569	20804
852.703	20933
852.838	20979
852.973	21036
853.107	20895
853.242	20823
853.376	20712
853.511	20625
853.645	20708
853.78	20800
853.914	20769
854.048	20773
854.183	20583
854.317	20811
854.451	21005
854.585	20746
854.72	20712
854.854	20762
854.988	20731
855.122	20735
855.256	20686
855.39	20549
855.524	20716
855.658	20762
855.792	20693
855.926	20788
856.06	20689
856.194	20868
856.327	20785
856.461	20568
856.595	20590
856.729	20712
856.862	20785
856.996	20724
857.13	20765
857.263	20815
857.397	20845
857.53	20716
857.664	20758
857.797	20735
857.931	20910
858.064	20636
858.197	20861
858.331	20708
858.464	20590
858.597	20590
858.731	20682
858.864	20731
858.997	20682
859.13	20731
859.263	20838
859.396	20781
859.529	20697
859.662	20796
859.795	20731
859.928	20689
860.061	20792
860.194	20933
860.327	20636
860.46	20804
860.592	20834
860.725	20956
860.858	20880
860.99	20712
861.123	20727
861.256	20648
861.388	20602
861.521	21332
861.653	20648
861.786	20499
861.918	20579
862.05	20697
862.183	20651
862.315	20583
862.447	20606
862.58	20659
862.712	20461
862.844	20476
862.976	20560
863.108	20522
863.24	20952
863.372	20454
863.504	20415
863.636	20450
863.768	20408
863.9	20408
864.032	20313
864.164	20461
864.296	20545
864.428	20533
864.559	20446
864.691	20518
864.823	20450
864.954	20324
865.086	20511
865.217	20358
865.349	20396
865.48	20301
865.612	20457
865.743	20484
865.875	20396
866.006	20278
866.137	20396
866.269	20358
866.4	20221
866.531	20324
866.662	20138
866.793	20332
866.924	20263
867.055	20290
867.186	20339
867.317	20187
867.448	20176
867.579	20229
867.71	20244
867.841	20225
867.972	20191
868.103	20176
868.233	20328
868.364	20305
868.495	20347
868.625	20549
868.756	20560
868.886	20389
869.017	20495
869.147	20651
869.278	20629
869.408	20621
869.539	20499
869.669	20598
869.799	20579
869.929	20712
870.06	20705
870.19	20819
870.32	20819
870.45	20686
870.58	20960
870.71	21051
870.84	20914
870.97	20853
871.1	20925
871.23	21024
871.36	21081
871.489	21169
871.619	21013
871.749	21116
871.879	21135
872.008	21173
872.138	21104
872.267	21157
872.397	20887
872.526	20994
872.656	20937
872.785	21051
872.915	21165
873.044	21192
873.173	21226
873.303	21256
873.432	21195
873.561	21272
873.69	21154
873.819	21173
873.948	21272
874.077	21131
874.206	21017
874.335	21096
874.464	21241
874.593	21370
874.722	21336
874.851	21359
874.979	21469
875.108	21367
875.237	21279
875.365	21283
875.494	21401
875.623	21519
875.751	21264
875.88	21386
876.008	21530
876.136	21637
876.265	21880
876.393	21804
876.521	21793
876.65	21941
876.778	21915
876.906	21736
877.034	21812
877.162	21724
877.29	21739
877.418	21739
877.546	21724
877.674	21720
877.802	21793
877.93	21576
878.058	21694
878.185	21595
878.313	21743
878.441	21774
878.568	21500
878.696	21701
878.824	21660
878.951	21819
879.079	21941
879.206	22070
879.333	21888
879.461	21778
879.588	21759
879.715	21812
879.842	21983
879.97	21880
880.097	21557
880.224	21595
880.351	21610
880.478	21648
880.605	21736
880.732	21485
880.859	21888
880.986	21473
881.112	21572
881.239	21454
881.366	21260
881.493	21222
881.619	21036
881.746	21230
881.872	21119
881.999	21195
882.125	21032
882.252	21157
882.378	21047
882.505	21222
882.631	20998
882.757	20925
882.883	20952
883.01	20804
883.136	20826
883.262	20792
883.388	20735
883.514	20952
883.64	20887
883.766	20667
883.892	20655
884.018	20659
884.143	20861
884.269	20857
884.395	20511
884.52	20503
884.646	20450
884.772	20526
884.897	20560
885.023	20499
885.148	20648
885.274	20693
885.399	20556
885.524	20396
885.65	20434
885.775	20545
885.9	20499
886.025	20571
886.15	20602
886.275	20465
886.4	20454
886.525	20457
886.65	20355
886.775	20473
886.9	20587
887.025	20697
887.149	20560
887.274	20271
887.399	20248
887.523	20305
887.648	20172
887.773	20096
887.897	20317
888.021	20214
888.146	20172
888.27	20381
888.395	20442
888.519	20271
888.643	20271
888.767	20347
888.891	20161
889.015	20100
889.139	20001
889.263	20107
889.387	20218
889.511	20180
889.635	20214
889.759	20027
889.883	20069
890.006	20138
890.13	20077
890.254	19986
890.377	20020
890.501	19799
890.624	19761
890.748	19970
890.871	19708
890.995	19556
891.118	19658
891.241	19674
891.364	19655
891.488	19776
891.611	19666
891.734	19677
891.857	19708
891.98	19643
892.103	19590
892.226	19662
892.349	19548
892.471	19540
892.594	19472
892.717	19487
892.839	19590
892.962	19571
893.085	19658
893.207	19601
893.33	19460
893.452	19445
893.575	19556
893.697	19590
893.819	19620
893.941	19822
894.064	19685
894.186	19521
894.308	19521
894.43	19609
894.552	19731
894.674	19605
894.796	19472
894.918	19460
895.04	19441
895.161	19658
895.283	19594
895.405	19468
895.526	19506
895.648	19483
895.769	19594
895.891	19605
896.012	19571
896.134	19552
896.255	19655
896.376	19449
896.498	19567
896.619	19616
896.74	19518
896.861	19616
896.982	19997
897.103	20035
897.224	19860
897.345	19742
897.466	19651
897.587	19689
897.708	19868
897.828	19841
897.949	19662
898.07	19540
898.19	19803
898.311	19902
898.431	19704
898.552	19761
898.672	19898
898.792	19856
898.913	19830
899.033	19715
899.153	19548
899.273	19434
899.393	19571
899.513	19559
899.633	19540
899.753	19556
899.873	19430
899.993	19586
900.113	19567
900.232	19518
900.352	19476
900.472	19289
900.591	19324
900.711	19327
900.83	19282
900.95	19487
901.069	19419
901.189	19118
901.308	18966
901.427	18878
901.546	18852
901.665	18981
901.784	18894
901.904	18821
902.023	18703
902.141	18563
902.26	18517
902.379	18566
902.498	18456
902.617	18369
902.735	18448
902.854	18547
902.973	18338
903.091	18041
903.21	18144
903.328	18114
903.446	18038
903.565	17992
903.683	17927
903.801	17866
903.919	17889
904.038	17859
904.156	17756
904.274	17779
904.392	17638
904.51	17707
904.627	17710
904.745	17684
904.863	17733
904.981	17398
905.098	17311
905.216	17379
905.334	17383
905.451	17463
905.569	17315
905.686	17425
905.803	17360
905.921	17162
906.038	17239
906.155	17140
906.272	17102
906.389	17140
906.506	16946
906.623	17029
906.74	16930
906.857	16782
906.974	16820
907.091	17052
907.208	17003
907.324	16911
907.441	16831
907.557	16630
907.674	16649
907.79	16565
907.907	16538
908.023	16664
908.139	16694
908.256	16653
908.372	16497
908.488	16561
908.604	16451
908.72	16344
908.836	16447
908.952	16348
909.068	16436
909.184	16474
909.3	16322
909.415	16341
909.531	16325
909.647	16234
909.762	16169
909.878	16078
909.993	16097
910.108	15964
910.224	16074
910.339	16112
910.454	15979
910.57	15930
910.685	15804
910.8	16025
910.915	16059
911.03	15873
911.145	15686
911.259	15778
911.374	15599
911.489	15599
911.604	15675
911.718	15519
911.833	15515
911.947	15340
912.062	15310
912.176	15526
912.291	15481
912.405	15496
912.519	15660
912.633	15534
912.748	15469
912.862	15424
912.976	15260
913.09	15138
913.204	15237
913.318	15279
913.431	15428
913.545	15397
913.659	15351
913.772	15180
913.886	15009
914	14975
914.113	15135
914.226	15195
914.34	15093
914.453	14925
914.566	15097
914.68	15055
914.793	14880
914.906	14724
915.019	14667
915.132	14488
915.245	14564
915.358	14735
915.47	14625
915.583	14640
915.696	14674
915.809	14777
915.921	14838
916.034	14629
916.146	14556
916.259	14560
916.371	14568
916.483	14697
916.595	14594
916.708	14575
916.82	14530
916.932	14434
917.044	14351
917.156	14385
917.268	14385
917.38	14412
917.491	14256
917.603	14400
917.715	14275
917.826	14362
917.938	14290
918.049	14176
918.161	14229
918.272	14438
918.384	14412
918.495	14343
918.606	14130
918.717	14126
918.828	14103
918.939	14176
919.05	13921
919.161	14111
919.272	13864
919.383	13967
919.494	14134
919.604	14267
919.715	14088
919.826	14008
919.936	14073
920.047	14153
920.157	14020
920.267	14263
920.378	14092
920.488	13967
920.598	14176
920.708	14385
920.818	14199
920.928	14142
921.038	14362
921.148	14263
921.258	14073
921.368	13928
921.477	13849
921.587	13765
921.697	13689
921.806	13837
921.916	13708
922.025	13537
922.134	13556
922.244	13411
922.353	13518
922.462	13324
922.571	13293
922.68	13141
922.789	13164
922.898	13168
923.007	13057
923.116	13171
923.224	13099
923.333	13084
923.442	12954
923.55	12920
923.659	12954
923.767	13012
923.876	12856
923.984	12996
924.092	12897
924.201	12867
924.309	12920
924.417	12878
924.525	12692
924.633	12829
924.741	13753
924.849	12585
924.956	12787
925.064	12635
925.172	12486
925.279	12547
925.387	12563
925.494	12582
925.602	12745
925.709	12555
925.816	12418
925.924	12574
926.031	12700
926.138	12448
926.245	12502
926.352	12391
926.459	12547
926.566	12555
926.673	12418
926.779	12270
926.886	12281
926.993	12228
927.099	12167
927.206	12243
927.312	12152
927.419	12144
927.525	12155
927.631	12224
927.737	11984
927.843	12038
927.95	11935
928.056	11923
928.162	12030
928.267	12095
928.373	12551
928.479	12003
928.585	11855
928.69	11901
928.796	12007
928.901	11866
929.007	11722
929.112	11847
929.218	11760
929.323	11760
929.428	11699
929.533	11824
929.638	11653
929.743	11661
929.848	11718
929.953	11649
930.058	11524
930.163	11497
930.267	11414
930.372	11573
930.477	11356
930.581	11592
930.685	11471
930.79	11307
930.894	11330
930.998	11258
931.103	11337
931.207	11056
931.311	10995
931.415	10839
931.519	10740
931.623	10645
