Data from test_V78500241_728.txt Node
Date: Fri Mar 25 15:14:55 CST 2022
User: usil
Spectrometer: V785-0024
Trigger mode: 0
Integration Time (sec): 4.000000E-1
Scans to average: 1
Nonlinearity correction enabled: false
Boxcar width: 0
Storing dark spectrum: false
XAxis mode: Wavelengths
Number of Pixels in Spectrum: 1024
>>>>>Begin Spectral Data<<<<<
801.071	28086
801.214	28070
801.356	27823
801.499	27831
801.641	27622
801.783	27724
801.926	27774
802.068	27698
802.211	27523
802.353	27504
802.496	27416
802.638	27283
802.78	27332
802.923	27119
803.065	27214
803.208	27397
803.35	27283
803.492	27374
803.635	27507
803.777	27382
803.919	27389
804.061	27884
804.204	27603
804.346	27412
804.488	27477
804.63	27580
804.773	27587
804.915	27576
805.057	27762
805.199	27519
805.341	27542
805.483	27656
805.626	27545
805.768	27564
805.91	27583
806.052	27591
806.194	27694
806.336	27937
806.478	27736
806.62	27603
806.762	27880
806.904	27960
807.046	28272
807.188	28131
807.33	27949
807.472	28029
807.614	27911
807.756	28090
807.898	27895
808.04	27831
808.182	27987
808.324	28059
808.465	27876
808.607	28230
808.749	28356
808.891	28421
809.033	28470
809.174	28352
809.316	28265
809.458	28257
809.6	28432
809.741	28459
809.883	28421
810.025	28698
810.166	28630
810.308	28599
810.45	28508
810.591	28580
810.733	28337
810.875	28348
811.016	28246
811.158	28428
811.299	28409
811.441	28390
811.582	28485
811.724	28344
811.865	28207
812.007	28341
812.148	28295
812.29	28394
812.431	28577
812.573	28782
812.714	28755
812.855	28843
812.997	29014
813.138	29246
813.279	28919
813.421	28786
813.562	28805
813.703	28748
813.845	28809
813.986	28257
814.127	28200
814.268	28025
814.41	28109
814.551	27968
814.692	28082
814.833	28105
814.974	27975
815.115	28063
815.256	27907
815.397	27911
815.539	28048
815.68	27907
815.821	27804
815.962	27816
816.103	27781
816.244	27736
816.385	27591
816.526	27583
816.666	27469
816.807	27412
816.948	27412
817.089	27485
817.23	27389
817.371	27420
817.512	27469
817.653	27367
817.793	27287
817.934	27408
818.075	27363
818.216	27363
818.356	27237
818.497	27313
818.638	27119
818.778	27230
818.919	27127
819.06	27154
819.2	27291
819.341	27431
819.481	27329
819.622	27462
819.762	27595
819.903	27778
820.043	27576
820.184	27439
820.324	27496
820.465	27473
820.605	27515
820.746	27412
820.886	27374
821.026	27519
821.167	27348
821.307	27492
821.447	27420
821.588	27154
821.728	27252
821.868	26979
822.008	26925
822.149	26868
822.289	26777
822.429	26617
822.569	26404
822.709	26328
822.849	26412
822.99	26400
823.13	26275
823.27	26343
823.41	26149
823.55	25989
823.69	26191
823.83	26027
823.97	26172
824.11	25936
824.25	25860
824.389	26005
824.529	26062
824.669	26008
824.809	26180
824.949	26043
825.089	26062
825.228	25997
825.368	25856
825.508	25731
825.648	25993
825.787	25955
825.927	25826
826.067	25799
826.206	25894
826.346	25925
826.485	25898
826.625	25833
826.765	25925
826.904	25974
827.044	25613
827.183	25628
827.323	25510
827.462	25624
827.601	25502
827.741	25632
827.88	25479
828.02	25403
828.159	25639
828.298	25628
828.437	25647
828.577	25495
828.716	25601
828.855	25487
828.994	25251
829.134	25274
829.273	25293
829.412	25209
829.551	25141
829.69	25285
829.829	25316
829.968	25320
830.107	25453
830.246	25312
830.385	25278
830.524	25110
830.663	25034
830.802	24798
830.941	24844
831.08	24920
831.219	24840
831.357	24958
831.496	25122
831.635	24810
831.774	24745
831.913	24821
832.051	24665
832.19	24540
832.329	24722
832.467	24547
832.606	24464
832.744	24574
832.883	24536
833.022	24460
833.16	24585
833.299	24517
833.437	24616
833.576	24703
833.714	24585
833.852	24620
833.991	24589
834.129	24734
834.267	24772
834.406	24616
834.544	24635
834.682	24616
834.821	24593
834.959	24821
835.097	24551
835.235	24741
835.373	24525
835.511	24608
835.65	24525
835.788	24498
835.926	24304
836.064	24182
836.202	24201
836.34	24452
836.478	24448
836.615	24448
836.753	24452
836.891	24540
837.029	24353
837.167	24433
837.305	24330
837.443	24380
837.58	24380
837.718	24315
837.856	24258
837.993	24129
838.131	24266
838.269	24007
838.406	24197
838.544	24091
838.681	23866
838.819	23908
838.956	23687
839.094	23756
839.231	23760
839.369	23840
839.506	24155
839.643	23969
839.781	23653
839.918	23592
840.055	23767
840.193	23710
840.33	23699
840.467	23649
840.604	23646
840.742	23897
840.879	23573
841.016	23524
841.153	23566
841.29	23813
841.427	23429
841.564	23646
841.701	23585
841.838	23634
841.975	23501
842.112	23535
842.249	23395
842.385	23376
842.522	23528
842.659	23478
842.796	23440
842.933	23425
843.069	23296
843.206	23436
843.343	23383
843.479	23448
843.616	23299
843.752	23189
843.889	23197
844.025	23318
844.162	23132
844.298	23223
844.435	23197
844.571	23102
844.708	23277
844.844	23337
844.98	23265
845.117	23197
845.253	23105
845.389	22995
845.525	23010
845.661	23094
845.798	22828
845.934	22934
846.07	22968
846.206	22953
846.342	22972
846.478	22968
846.614	22683
846.75	22577
846.886	22508
847.022	22740
847.158	22607
847.294	22512
847.429	22641
847.565	22554
847.701	22881
847.837	22310
847.972	22413
848.108	22303
848.244	22402
848.379	22192
848.515	22443
848.65	22162
848.786	22280
848.921	22295
849.057	22428
849.192	22413
849.328	22238
849.463	22246
849.598	22101
849.734	22101
849.869	22093
850.004	21991
850.14	21964
850.275	22006
850.41	21922
850.545	21835
850.68	22021
850.815	22017
850.95	21903
851.085	22188
851.22	22010
851.355	22025
851.49	22021
851.625	21960
851.76	21915
851.895	22010
852.03	21865
852.165	21983
852.299	21930
852.434	22124
852.569	21998
852.703	21968
852.838	22059
852.973	22029
853.107	22059
853.242	21991
853.376	21850
853.511	21663
853.645	21838
853.78	21918
853.914	21823
854.048	21686
854.183	21766
854.317	21884
854.451	21949
854.585	21732
854.72	21850
854.854	21968
854.988	21880
855.122	21846
855.256	21595
855.39	21880
855.524	21705
855.658	21812
855.792	21743
855.926	21793
856.06	21793
856.194	21975
856.327	21808
856.461	21755
856.595	21785
856.729	21827
856.862	21819
856.996	21797
857.13	21762
857.263	21960
857.397	21899
857.53	21842
857.664	21854
857.797	21800
857.931	21960
858.064	21892
858.197	21895
858.331	21869
858.464	21797
858.597	21648
858.731	21781
858.864	21770
858.997	21759
859.13	21819
859.263	21831
859.396	21895
859.529	21762
859.662	21770
859.795	21675
859.928	21739
860.061	21857
860.194	21968
860.327	21797
860.46	21865
860.592	21945
860.725	21930
860.858	21819
860.99	21835
861.123	21812
861.256	21728
861.388	21785
861.521	22565
861.653	21644
861.786	21610
861.918	21519
862.05	21694
862.183	21660
862.315	21739
862.447	21736
862.58	21686
862.712	21519
862.844	21412
862.976	21587
863.108	21530
863.24	21960
863.372	21447
863.504	21515
863.636	21450
863.768	21469
863.9	21557
864.032	21431
864.164	21424
864.296	21447
864.428	21545
864.559	21564
864.691	21599
864.823	21526
864.954	21530
865.086	21485
865.217	21355
865.349	21367
865.48	21363
865.612	21249
865.743	21538
865.875	21378
866.006	21340
866.137	21374
866.269	21382
866.4	21378
866.531	21397
866.662	21268
866.793	21374
866.924	21310
867.055	21249
867.186	21351
867.317	21249
867.448	21355
867.579	21412
867.71	21310
867.841	21294
867.972	21283
868.103	21393
868.233	21393
868.364	21332
868.495	21477
868.625	21469
868.756	21633
868.886	21500
869.017	21561
869.147	21759
869.278	21698
869.408	21656
869.539	21443
869.669	21682
869.799	21618
869.929	21618
870.06	21637
870.19	21903
870.32	21857
870.45	21945
870.58	21949
870.71	22029
870.84	22040
870.97	21888
871.1	21888
871.23	22272
871.36	22181
871.489	22036
871.619	22093
871.749	22059
871.879	22090
872.008	22226
872.138	22181
872.267	22196
872.397	21983
872.526	21854
872.656	21998
872.785	21953
872.915	22162
873.044	22226
873.173	22013
873.303	22268
873.432	22181
873.561	22230
873.69	22097
873.819	22223
873.948	22242
874.077	22131
874.206	22120
874.335	22109
874.464	22211
874.593	22428
874.722	22379
874.851	22394
874.979	22379
875.108	22481
875.237	22421
875.365	22257
875.494	22398
875.623	22508
875.751	22352
875.88	22440
876.008	22538
876.136	22596
876.265	22611
876.393	22911
876.521	22881
876.65	22881
876.778	22782
876.906	22656
877.034	22740
877.162	22774
877.29	22748
877.418	22839
877.546	22778
877.674	22736
877.802	22634
877.93	22713
878.058	22698
878.185	22637
878.313	22691
878.441	22653
878.568	22542
878.696	22763
878.824	22698
878.951	22793
879.079	22908
879.206	23044
879.333	22923
879.461	22653
879.588	22820
879.715	22946
879.842	22968
879.97	22782
880.097	22542
880.224	22455
880.351	22694
880.478	22565
880.605	22512
880.732	22531
880.859	22710
880.986	22592
881.112	22561
881.239	22478
881.366	22318
881.493	22242
881.619	22135
881.746	22185
881.872	22090
881.999	22063
882.125	22025
882.252	22192
882.378	22109
882.505	22268
882.631	21968
882.757	21838
882.883	21880
883.01	21941
883.136	21835
883.262	21736
883.388	21576
883.514	21934
883.64	21713
883.766	21667
883.892	21595
884.018	21667
884.143	21778
884.269	21884
884.395	21469
884.52	21473
884.646	21564
884.772	21321
884.897	21294
885.023	21416
885.148	21606
885.274	21614
885.399	21587
885.524	21412
885.65	21458
885.775	21389
885.9	21542
886.025	21564
886.15	21496
886.275	21439
886.4	21405
886.525	21370
886.65	21329
886.775	21370
886.9	21542
887.025	21595
887.149	21466
887.274	21313
887.399	21260
887.523	21180
887.648	21211
887.773	21131
887.897	21230
888.021	21256
888.146	21116
888.27	21363
888.395	21393
888.519	21256
888.643	21294
888.767	21237
888.891	21081
889.015	21135
889.139	21131
889.263	20979
889.387	21089
889.511	21184
889.635	21176
889.759	20823
889.883	21112
890.006	21116
890.13	21047
890.254	20906
890.377	20883
890.501	20807
890.624	20792
890.748	20792
890.871	20724
890.995	20651
891.118	20552
891.241	20579
891.364	20617
891.488	20743
891.611	20602
891.734	20533
891.857	20731
891.98	20606
892.103	20609
892.226	20617
892.349	20499
892.471	20400
892.594	20571
892.717	20499
892.839	20427
892.962	20492
893.085	20427
893.207	20545
893.33	20431
893.452	20469
893.575	20484
893.697	20404
893.819	20507
893.941	20708
894.064	20613
894.186	20438
894.308	20362
894.43	20408
894.552	20575
894.674	20549
894.796	20434
894.918	20571
895.04	20518
895.161	20537
895.283	20419
895.405	20480
895.526	20492
895.648	20507
895.769	20381
895.891	20514
896.012	20537
896.134	20556
896.255	20423
896.376	20511
896.498	20484
896.619	20511
896.74	20400
896.861	20522
896.982	20697
897.103	21047
897.224	20807
897.345	20636
897.466	20655
897.587	20765
897.708	20823
897.828	20663
897.949	20629
898.07	20499
898.19	20560
898.311	20788
898.431	20632
898.552	20579
898.672	20815
898.792	20724
898.913	20602
899.033	20583
899.153	20556
899.273	20370
899.393	20263
899.513	20507
899.633	20358
899.753	20400
899.873	20317
899.993	20465
900.113	20339
900.232	20374
900.352	20347
900.472	20233
900.591	20271
900.711	20206
900.83	20225
900.95	20252
901.069	20408
901.189	20168
901.308	19898
901.427	19772
901.546	19704
901.665	19849
901.784	19807
901.904	19647
902.023	19613
902.141	19430
902.26	19403
902.379	19331
902.498	19373
902.617	19198
902.735	19301
902.854	19236
902.973	19289
903.091	18935
903.21	18916
903.328	18966
903.446	18840
903.565	18688
903.683	18719
903.801	18650
903.919	18741
904.038	18646
904.156	18460
904.274	18559
904.392	18513
904.51	18414
904.627	18521
904.745	18566
904.863	18601
904.981	18304
905.098	18083
905.216	18243
905.334	18224
905.451	18285
905.569	18106
905.686	18213
905.803	18194
905.921	17847
906.038	18163
906.155	17954
906.272	17878
906.389	17904
906.506	17813
906.623	17729
906.74	17695
906.857	17547
906.974	17691
907.091	17752
907.208	17840
907.324	17695
907.441	17543
907.557	17490
907.674	17410
907.79	17414
907.907	17383
908.023	17436
908.139	17467
908.256	17269
908.372	17303
908.488	17250
908.604	17178
908.72	17029
908.836	17143
908.952	17143
909.068	17231
909.184	17220
909.3	17193
909.415	17162
909.531	17155
909.647	16896
909.762	16866
909.878	16839
909.993	16820
910.108	16847
910.224	16797
910.339	16717
910.454	16649
910.57	16706
910.685	16618
910.8	16862
910.915	16748
911.03	16649
911.145	16447
911.259	16519
911.374	16459
911.489	16329
911.604	16238
911.718	16154
911.833	16147
911.947	16040
912.062	15998
912.176	16173
912.291	16128
912.405	16124
912.519	16382
912.633	16363
912.748	16249
912.862	16287
912.976	15968
913.09	15949
913.204	16017
913.318	16021
913.431	16078
913.545	16071
913.659	15994
913.772	15930
913.886	15892
914	15770
914.113	15861
914.226	15831
914.34	15911
914.453	15614
914.566	15861
914.68	15663
914.793	15564
914.906	15469
915.019	15416
915.132	15306
915.245	15397
915.358	15450
915.47	15435
915.583	15412
915.696	15359
915.809	15378
915.921	15595
916.034	15317
916.146	15306
916.259	15279
916.371	15424
916.483	15382
916.595	15222
916.708	15237
916.82	15249
916.932	15192
917.044	15176
917.156	15074
917.268	15036
917.38	15058
917.491	15028
917.603	15013
917.715	15081
917.826	15062
917.938	15024
918.049	14765
918.161	15001
918.272	15207
918.384	15176
918.495	14979
918.606	14899
918.717	14796
918.828	14883
918.939	14902
919.05	14670
919.161	14819
919.272	14511
919.383	14716
919.494	14826
919.604	14902
919.715	14834
919.826	14754
919.936	14731
920.047	14861
920.157	14655
920.267	14979
920.378	14819
920.488	14610
920.598	14891
920.708	14982
920.818	14952
920.928	14838
921.038	15062
921.148	15009
921.258	14693
921.368	14644
921.477	14454
921.587	14442
921.697	14343
921.806	14408
921.916	14351
922.025	14119
922.134	14107
922.244	14065
922.353	14157
922.462	13974
922.571	13944
922.68	13883
922.789	13685
922.898	13780
923.007	13639
923.116	13822
923.224	13811
923.333	13738
923.442	13552
923.55	13480
923.659	13605
923.767	13609
923.876	13601
923.984	13563
924.092	13556
924.201	13499
924.309	13521
924.417	13590
924.525	13373
924.633	13502
924.741	14161
924.849	13244
924.956	13407
925.064	13194
925.172	13057
925.279	13057
925.387	13198
925.494	13187
925.602	13240
925.709	13206
925.816	12985
925.924	13091
926.031	13152
926.138	13133
926.245	13110
926.352	12970
926.459	13141
926.566	13133
926.673	12924
926.779	12837
926.886	12943
926.993	12757
927.099	12719
927.206	12597
927.312	12601
927.419	12757
927.525	12669
927.631	12658
927.737	12642
927.843	12555
927.95	12486
928.056	12521
928.162	12582
928.267	12570
928.373	13198
928.479	12566
928.585	12327
928.69	12513
928.796	12532
928.901	12384
929.007	12220
929.112	12456
929.218	12388
929.323	12292
929.428	12209
929.533	12426
929.638	12262
929.743	12243
929.848	12190
929.953	12235
930.058	12079
930.163	11885
930.267	11965
930.372	12049
930.477	11855
930.581	12129
930.685	12034
930.79	11866
930.894	11840
930.998	11958
931.103	11973
931.207	11581
931.311	11459
931.415	11330
931.519	11242
931.623	11166
