Data from test_V78500241_1471.txt Node
Date: Fri Mar 25 15:20:06 CST 2022
User: usil
Spectrometer: V785-0024
Trigger mode: 0
Integration Time (sec): 4.000000E-1
Scans to average: 1
Nonlinearity correction enabled: false
Boxcar width: 0
Storing dark spectrum: false
XAxis mode: Wavelengths
Number of Pixels in Spectrum: 1024
>>>>>Begin Spectral Data<<<<<
801.071	27842
801.214	27778
801.356	27492
801.499	27310
801.641	27211
801.783	27325
801.926	27367
802.068	27043
802.211	27180
802.353	27180
802.496	27020
802.638	26982
802.78	26868
802.923	26929
803.065	26731
803.208	26857
803.35	26853
803.492	27032
803.635	27195
803.777	27055
803.919	27085
804.061	27488
804.204	27233
804.346	27135
804.488	27024
804.63	27036
804.773	27157
804.915	27135
805.057	27226
805.199	27176
805.341	27291
805.483	27287
805.626	27336
805.768	27211
805.91	27192
806.052	27184
806.194	27226
806.336	27370
806.478	27348
806.62	27294
806.762	27264
806.904	27530
807.046	27778
807.188	27679
807.33	27694
807.472	27835
807.614	27652
807.756	27663
807.898	27519
808.04	27530
808.182	27587
808.324	27473
808.465	27595
808.607	27873
808.749	27949
808.891	27892
809.033	28116
809.174	27873
809.316	27816
809.458	27899
809.6	27922
809.741	28044
809.883	28070
810.025	28207
810.166	28166
810.308	28276
810.45	28169
810.591	28135
810.733	27941
810.875	27831
811.016	27785
811.158	27793
811.299	28017
811.441	28086
811.582	28040
811.724	27873
811.865	27857
812.007	27934
812.148	27842
812.29	27975
812.431	28067
812.573	28341
812.714	28329
812.855	28401
812.997	28440
813.138	28596
813.279	28523
813.421	28493
813.562	28481
813.703	28230
813.845	28124
813.986	27827
814.127	27610
814.268	27603
814.41	27534
814.551	27511
814.692	27732
814.833	27477
814.974	27580
815.115	27477
815.256	27530
815.397	27268
815.539	27466
815.68	27378
815.821	27252
815.962	27283
816.103	27370
816.244	27252
816.385	27184
816.526	27096
816.666	26910
816.807	26842
816.948	26937
817.089	26998
817.23	26960
817.371	26883
817.512	26807
817.653	26731
817.793	26762
817.934	26826
818.075	26754
818.216	26887
818.356	26804
818.497	26735
818.638	26640
818.778	26587
818.919	26568
819.06	26712
819.2	26678
819.341	26960
819.481	26895
819.622	26925
819.762	27203
819.903	27085
820.043	27043
820.184	27108
820.324	26998
820.465	27024
820.605	26910
820.746	26914
820.886	26785
821.026	26933
821.167	26876
821.307	26986
821.447	26838
821.588	26701
821.728	26606
821.868	26461
822.008	26309
822.149	26210
822.289	26347
822.429	25947
822.569	26081
822.709	26001
822.849	25681
822.99	25944
823.13	25856
823.27	25696
823.41	25753
823.55	25544
823.69	25639
823.83	25712
823.97	25639
824.11	25419
824.25	25365
824.389	25445
824.529	25540
824.669	25487
824.809	25552
824.949	25559
825.089	25559
825.228	25616
825.368	25419
825.508	25377
825.648	25426
825.787	25400
825.927	25472
826.067	25304
826.206	25304
826.346	25373
826.485	25419
826.625	25297
826.765	25415
826.904	25274
827.044	25148
827.183	25168
827.323	24981
827.462	25038
827.601	25057
827.741	25095
827.88	25023
828.02	24947
828.159	25084
828.298	24992
828.437	25069
828.577	25031
828.716	25095
828.855	24844
828.994	24658
829.134	24787
829.273	24802
829.412	24700
829.551	24665
829.69	24700
829.829	24795
829.968	24848
830.107	24798
830.246	24715
830.385	24585
830.524	24684
830.663	24563
830.802	24422
830.941	24327
831.08	24342
831.219	24346
831.357	24498
831.496	24650
831.635	24372
831.774	24262
831.913	24270
832.051	24007
832.19	24167
832.329	24079
832.467	24011
832.606	24003
832.744	23988
832.883	24068
833.022	23832
833.16	23973
833.299	24106
833.437	23980
833.576	24079
833.714	24087
833.852	24159
833.991	24133
834.129	24205
834.267	24194
834.406	24049
834.544	24102
834.682	24098
834.821	23984
834.959	24270
835.097	24034
835.235	24125
835.373	24148
835.511	24026
835.65	23996
835.788	24098
835.926	23741
836.064	23771
836.202	23809
836.34	23954
836.478	24022
836.615	23870
836.753	23866
836.891	23977
837.029	23916
837.167	23817
837.305	23847
837.443	23657
837.58	23623
837.718	23794
837.856	23779
837.993	23585
838.131	23623
838.269	23543
838.406	23600
838.544	23524
838.681	23372
838.819	23311
838.956	23197
839.094	23250
839.231	23311
839.369	23326
839.506	23558
839.643	23433
839.781	23254
839.918	23102
840.055	23216
840.193	23052
840.33	23162
840.467	23166
840.604	23060
840.742	23258
840.879	23060
841.016	22923
841.153	22953
841.29	23223
841.427	23098
841.564	23071
841.701	23086
841.838	23174
841.975	22953
842.112	23022
842.249	22843
842.385	22919
842.522	23121
842.659	22862
842.796	22904
842.933	22778
843.069	22748
843.206	22771
843.343	22801
843.479	23083
843.616	22942
843.752	22649
843.889	22771
844.025	22790
844.162	22645
844.298	22622
844.435	22630
844.571	22672
844.708	22626
844.844	22782
844.98	22805
845.117	22790
845.253	22577
845.389	22470
845.525	22542
845.661	22622
845.798	22413
845.934	22329
846.07	22322
846.206	22497
846.342	22603
846.478	22447
846.614	22291
846.75	21953
846.886	21979
847.022	22246
847.158	22143
847.294	22158
847.429	22131
847.565	22253
847.701	22344
847.837	21819
847.972	21785
848.108	21972
848.244	21903
848.379	21789
848.515	21720
848.65	21736
848.786	21603
848.921	21717
849.057	21842
849.192	21778
849.328	21690
849.463	21751
849.598	21713
849.734	21492
849.869	21481
850.004	21447
850.14	21454
850.275	21447
850.41	21443
850.545	21443
850.68	21500
850.815	21382
850.95	21519
851.085	21618
851.22	21519
851.355	21435
851.49	21329
851.625	21412
851.76	21359
851.895	21302
852.03	21359
852.165	21367
852.299	21492
852.434	21652
852.569	21534
852.703	21321
852.838	21591
852.973	21686
853.107	21538
853.242	21416
853.376	21450
853.511	21245
853.645	21272
853.78	21378
853.914	21363
854.048	21165
854.183	21226
854.317	21313
854.451	21496
854.585	21291
854.72	21188
854.854	21397
854.988	21176
855.122	21272
855.256	21188
855.39	21184
855.524	21344
855.658	21344
855.792	21321
855.926	21351
856.06	21344
856.194	21367
856.327	21325
856.461	21325
856.595	21146
856.729	21325
856.862	21287
856.996	21313
857.13	21344
857.263	21374
857.397	21306
857.53	21332
857.664	21260
857.797	21256
857.931	21279
858.064	21249
858.197	21272
858.331	21294
858.464	21275
858.597	21081
858.731	21306
858.864	21214
858.997	21226
859.13	21214
859.263	21363
859.396	21321
859.529	21294
859.662	21329
859.795	21249
859.928	21222
860.061	21397
860.194	21420
860.327	21329
860.46	21279
860.592	21336
860.725	21450
860.858	21344
860.99	21287
861.123	21233
861.256	21195
861.388	21184
861.521	21732
861.653	21119
861.786	21043
861.918	21077
862.05	21161
862.183	21317
862.315	21157
862.447	21291
862.58	21173
862.712	20906
862.844	20952
862.976	21039
863.108	21055
863.24	21443
863.372	20971
863.504	20925
863.636	20975
863.768	20925
863.9	20902
864.032	20857
864.164	20887
864.296	20998
864.428	20990
864.559	20910
864.691	21138
864.823	20910
864.954	20861
865.086	20918
865.217	20937
865.349	20948
865.48	20773
865.612	20891
865.743	21036
865.875	20845
866.006	20838
866.137	20960
866.269	21051
866.4	20956
866.531	20823
866.662	20815
866.793	20750
866.924	20796
867.055	20883
867.186	20819
867.317	20796
867.448	20640
867.579	20727
867.71	20716
867.841	20724
867.972	20857
868.103	20785
868.233	20975
868.364	20826
868.495	20815
868.625	21100
868.756	21199
868.886	21032
869.017	21081
869.147	21127
869.278	21188
869.408	21036
869.539	21100
869.669	21005
869.799	21070
869.929	21211
870.06	21199
870.19	21279
870.32	21386
870.45	21348
870.58	21435
870.71	21504
870.84	21443
870.97	21317
871.1	21488
871.23	21515
871.36	21587
871.489	21595
871.619	21515
871.749	21671
871.879	21675
872.008	21755
872.138	21603
872.267	21675
872.397	21458
872.526	21488
872.656	21382
872.785	21458
872.915	21629
873.044	21778
873.173	21705
873.303	21679
873.432	21766
873.561	21926
873.69	21587
873.819	21618
873.948	21713
874.077	21759
874.206	21599
874.335	21720
874.464	21800
874.593	21739
874.722	21915
874.851	21998
874.979	21949
875.108	21949
875.237	21865
875.365	21903
875.494	21838
875.623	21911
875.751	21907
875.88	21937
876.008	22010
876.136	22048
876.265	22303
876.393	22459
876.521	22360
876.65	22261
876.778	22284
876.906	22188
877.034	22158
877.162	22314
877.29	22299
877.418	22196
877.546	22268
877.674	22291
877.802	22139
877.93	22188
878.058	22242
878.185	22166
878.313	22207
878.441	22040
878.568	22070
878.696	22143
878.824	22219
878.951	22287
879.079	22382
879.206	22379
879.333	22375
879.461	22276
879.588	22344
879.715	22493
879.842	22508
879.97	22360
880.097	22086
880.224	22215
880.351	22082
880.478	22143
880.605	22021
880.732	22097
880.859	22291
880.986	22131
881.112	21987
881.239	21911
881.366	21686
881.493	21793
881.619	21652
881.746	21774
881.872	21610
881.999	21595
882.125	21595
882.252	21629
882.378	21599
882.505	21652
882.631	21561
882.757	21298
882.883	21359
883.01	21279
883.136	21218
883.262	21184
883.388	21093
883.514	21329
883.64	21329
883.766	21252
883.892	21062
884.018	21150
884.143	21291
884.269	21389
884.395	20967
884.52	20880
884.646	21009
884.772	20868
884.897	20807
885.023	20925
885.148	21146
885.274	21142
885.399	21066
885.524	20998
885.65	20914
885.775	21085
885.9	20902
886.025	21036
886.15	21017
886.275	20979
886.4	20952
886.525	20906
886.65	20887
886.775	20826
886.9	21001
887.025	21180
887.149	20876
887.274	20720
887.399	20792
887.523	20788
887.648	20712
887.773	20621
887.897	20899
888.021	20781
888.146	20716
888.27	20804
888.395	20815
888.519	20834
888.643	20845
888.767	20796
888.891	20735
889.015	20575
889.139	20621
889.263	20518
889.387	20636
889.511	20830
889.635	20674
889.759	20488
889.883	20419
890.006	20503
890.13	20659
890.254	20469
890.377	20469
890.501	20290
890.624	20240
890.748	20404
890.871	20328
890.995	20244
891.118	20149
891.241	20119
891.364	20069
891.488	20263
891.611	20202
891.734	20267
891.857	20199
891.98	20176
892.103	20168
892.226	20210
892.349	20153
892.471	19932
892.594	20126
892.717	20100
892.839	20100
892.962	19974
893.085	20073
893.207	20024
893.33	19928
893.452	19822
893.575	20149
893.697	20050
893.819	20172
893.941	20271
894.064	20119
894.186	20027
894.308	20084
894.43	20142
894.552	20142
894.674	20210
894.796	19856
894.918	19883
895.04	20111
895.161	20164
895.283	20081
895.405	20020
895.526	20073
895.648	20081
895.769	19974
895.891	20100
896.012	20134
896.134	20145
896.255	20084
896.376	19940
896.498	19951
896.619	20054
896.74	20001
896.861	20202
896.982	20343
897.103	20454
897.224	20404
897.345	20218
897.466	20275
897.587	20298
897.708	20400
897.828	20347
897.949	20267
898.07	20130
898.19	20221
898.311	20267
898.431	20168
898.552	20313
898.672	20412
898.792	20358
898.913	20240
899.033	20107
899.153	20084
899.273	20008
899.393	20001
899.513	20088
899.633	20065
899.753	20096
899.873	20046
899.993	20062
900.113	19997
900.232	20035
900.352	19856
900.472	19883
900.591	19788
900.711	19894
900.83	19685
900.95	19917
901.069	19879
901.189	19685
901.308	19559
901.427	19460
901.546	19464
901.665	19365
901.784	19358
901.904	19244
902.023	19171
902.141	19034
902.26	18993
902.379	18996
902.498	18890
902.617	19012
902.735	18939
902.854	18939
902.973	18791
903.091	18623
903.21	18673
903.328	18544
903.446	18528
903.565	18357
903.683	18372
903.801	18361
903.919	18304
904.038	18361
904.156	18121
904.274	18273
904.392	18079
904.51	18125
904.627	18110
904.745	18216
904.863	18129
904.981	17984
905.098	17889
905.216	17893
905.334	17847
905.451	17836
905.569	17836
905.686	17790
905.803	17847
905.921	17638
906.038	17733
906.155	17619
906.272	17448
906.389	17482
906.506	17395
906.623	17296
906.74	17349
906.857	17391
906.974	17220
907.091	17471
907.208	17398
907.324	17311
907.441	17299
907.557	17174
907.674	17124
907.79	17033
907.907	17003
908.023	17105
908.139	17170
908.256	16987
908.372	16900
908.488	16968
908.604	16900
908.72	16767
908.836	16820
908.952	16790
909.068	16767
909.184	16915
909.3	16862
909.415	16835
909.531	16740
909.647	16584
909.762	16519
909.878	16451
909.993	16535
910.108	16375
910.224	16428
910.339	16535
910.454	16276
910.57	16318
910.685	16246
910.8	16554
910.915	16417
911.03	16238
911.145	16215
911.259	16124
911.374	16112
911.489	16010
911.604	16013
911.718	15816
911.833	15907
911.947	15770
912.062	15682
912.176	15842
912.291	15736
912.405	15861
912.519	15979
912.633	16135
912.748	15903
912.862	15759
912.976	15739
913.09	15542
913.204	15637
913.318	15644
913.431	15732
913.545	15663
913.659	15766
913.772	15644
913.886	15439
914	15454
914.113	15492
914.226	15526
914.34	15542
914.453	15447
914.566	15496
914.68	15344
914.793	15382
914.906	15157
915.019	15032
915.132	14941
915.245	15055
915.358	15077
915.47	15043
915.583	15058
915.696	15104
915.809	15131
915.921	15268
916.034	15001
916.146	15013
916.259	14979
916.371	15104
916.483	15032
916.595	14872
916.708	14853
916.82	14815
916.932	14823
917.044	14902
917.156	14857
917.268	14701
917.38	14819
917.491	14632
917.603	14758
917.715	14746
917.826	14804
917.938	14625
918.049	14602
918.161	14689
918.272	14796
918.384	14705
918.495	14621
918.606	14629
918.717	14423
918.828	14492
918.939	14415
919.05	14465
919.161	14389
919.272	14210
919.383	14282
919.494	14514
919.604	14651
919.715	14457
919.826	14298
919.936	14408
920.047	14564
920.157	14446
920.267	14667
920.378	14480
920.488	14431
920.598	14648
920.708	14819
920.818	14530
920.928	14465
921.038	14785
921.148	14632
921.258	14400
921.368	14305
921.477	14202
921.587	14180
921.697	14081
921.806	14142
921.916	13993
922.025	13883
922.134	13830
922.244	13837
922.353	13871
922.462	13696
922.571	13594
922.68	13487
922.789	13441
922.898	13491
923.007	13472
923.116	13495
923.224	13430
923.333	13411
923.442	13316
923.55	13297
923.659	13331
923.767	13403
923.876	13259
923.984	13362
924.092	13171
924.201	13266
924.309	13206
924.417	13156
924.525	13103
924.633	13126
924.741	13818
924.849	12882
924.956	13088
925.064	12932
925.172	12787
925.279	12810
925.387	12829
925.494	12935
925.602	13091
925.709	12913
925.816	12821
925.924	12890
926.031	12871
926.138	12867
926.245	12795
926.352	12696
926.459	12829
926.566	12928
926.673	12734
926.779	12726
926.886	12650
926.993	12563
927.099	12445
927.206	12464
927.312	12441
927.419	12422
927.525	12448
927.631	12429
927.737	12395
927.843	12296
927.95	12163
928.056	12357
928.162	12243
928.267	12410
928.373	12829
928.479	12391
928.585	12220
928.69	12155
928.796	12266
928.901	12144
929.007	11942
929.112	12148
929.218	12125
929.323	12087
929.428	11950
929.533	12182
929.638	11939
929.743	11916
929.848	12053
929.953	11961
930.058	11855
930.163	11653
930.267	11703
930.372	11904
930.477	11684
930.581	11912
930.685	11771
930.79	11501
930.894	11581
930.998	11528
931.103	11718
931.207	11261
931.311	11254
931.415	11174
931.519	11006
931.623	10923
