Data from test_V78500241_1863.txt Node
Date: Fri Mar 25 15:22:49 CST 2022
User: usil
Spectrometer: V785-0024
Trigger mode: 0
Integration Time (sec): 4.000000E-1
Scans to average: 1
Nonlinearity correction enabled: false
Boxcar width: 0
Storing dark spectrum: false
XAxis mode: Wavelengths
Number of Pixels in Spectrum: 1024
>>>>>Begin Spectral Data<<<<<
801.071	27774
801.214	27648
801.356	27405
801.499	27435
801.641	27321
801.783	27272
801.926	27348
802.068	27321
802.211	27329
802.353	27161
802.496	26910
802.638	26960
802.78	26925
802.923	27020
803.065	26883
803.208	26849
803.35	26925
803.492	27108
803.635	27146
803.777	27020
803.919	27108
804.061	27481
804.204	27211
804.346	27104
804.488	27096
804.63	27043
804.773	27051
804.915	27043
805.057	27108
805.199	27218
805.341	27241
805.483	27306
805.626	27154
805.768	27199
805.91	27093
806.052	27287
806.194	27135
806.336	27447
806.478	27245
806.62	27203
806.762	27397
806.904	27473
807.046	27835
807.188	27572
807.33	27732
807.472	27827
807.614	27507
807.756	27667
807.898	27583
808.04	27481
808.182	27583
808.324	27454
808.465	27629
808.607	27732
808.749	27998
808.891	27987
809.033	27953
809.174	27888
809.316	27846
809.458	27846
809.6	27804
809.741	27869
809.883	27953
810.025	28112
810.166	28124
810.308	28090
810.45	28070
810.591	27987
810.733	27873
810.875	27930
811.016	27797
811.158	27622
811.299	28025
811.441	28051
811.582	27979
811.724	27972
811.865	27838
812.007	27880
812.148	27739
812.29	27835
812.431	28120
812.573	28181
812.714	28246
812.855	28310
812.997	28455
813.138	28790
813.279	28333
813.421	28322
813.562	28371
813.703	28215
813.845	28143
813.986	27873
814.127	27732
814.268	27644
814.41	27553
814.551	27466
814.692	27736
814.833	27538
814.974	27435
815.115	27530
815.256	27401
815.397	27466
815.539	27469
815.68	27462
815.821	27397
815.962	27447
816.103	27344
816.244	27260
816.385	27127
816.526	27195
816.666	26883
816.807	26872
816.948	26944
817.089	26998
817.23	26933
817.371	26765
817.512	26895
817.653	26899
817.793	26800
817.934	26693
818.075	26823
818.216	26963
818.356	26883
818.497	26697
818.638	26590
818.778	26571
818.919	26693
819.06	26716
819.2	26762
819.341	26998
819.481	26872
819.622	26940
819.762	27249
819.903	27013
820.043	27032
820.184	26914
820.324	27001
820.465	26933
820.605	27047
820.746	27017
820.886	26796
821.026	26971
821.167	26990
821.307	27001
821.447	26693
821.588	26785
821.728	26743
821.868	26511
822.008	26385
822.149	26404
822.289	26343
822.429	26005
822.569	25932
822.709	26020
822.849	25712
822.99	25906
823.13	25830
823.27	25613
823.41	25677
823.55	25635
823.69	25772
823.83	25620
823.97	25537
824.11	25464
824.25	25377
824.389	25331
824.529	25529
824.669	25590
824.809	25521
824.949	25544
825.089	25590
825.228	25613
825.368	25438
825.508	25346
825.648	25285
825.787	25396
825.927	25529
826.067	25304
826.206	25373
826.346	25324
826.485	25270
826.625	25426
826.765	25468
826.904	25434
827.044	25057
827.183	25206
827.323	25019
827.462	25046
827.601	25069
827.741	25019
827.88	25046
828.02	24962
828.159	25190
828.298	25103
828.437	25076
828.577	24966
828.716	25080
828.855	25000
828.994	24688
829.134	24840
829.273	24711
829.412	24768
829.551	24802
829.69	24787
829.829	24837
829.968	24791
830.107	24859
830.246	24688
830.385	24890
830.524	24741
830.663	24646
830.802	24456
830.941	24338
831.08	24384
831.219	24521
831.357	24372
831.496	24589
831.635	24456
831.774	24338
831.913	24174
832.051	24266
832.19	24136
832.329	24186
832.467	24155
832.606	23950
832.744	24041
832.883	24114
833.022	24057
833.16	24178
833.299	24064
833.437	24136
833.576	24163
833.714	24072
833.852	24194
833.991	24308
834.129	24060
834.267	24171
834.406	24254
834.544	24114
834.682	24057
834.821	24152
834.959	24323
835.097	24136
835.235	24121
835.373	24136
835.511	24110
835.65	24136
835.788	24041
835.926	23908
836.064	23863
836.202	23855
836.34	23958
836.478	24060
836.615	23889
836.753	23973
836.891	24022
837.029	23973
837.167	24045
837.305	23931
837.443	23859
837.58	23977
837.718	23942
837.856	23821
837.993	23767
838.131	23859
838.269	23665
838.406	23680
838.544	23570
838.681	23608
838.819	23379
838.956	23303
839.094	23360
839.231	23334
839.369	23490
839.506	23726
839.643	23577
839.781	23307
839.918	23235
840.055	23356
840.193	23292
840.33	23166
840.467	23246
840.604	23345
840.742	23436
840.879	23003
841.016	23193
841.153	23113
841.29	23326
841.427	23155
841.564	23296
841.701	23212
841.838	23094
841.975	23079
842.112	23216
842.249	23018
842.385	23006
842.522	23162
842.659	23113
842.796	23052
842.933	23140
843.069	22919
843.206	22991
843.343	23098
843.479	23071
843.616	23064
843.752	22816
843.889	22729
844.025	22987
844.162	22611
844.298	22809
844.435	22672
844.571	22733
844.708	22744
844.844	22908
844.98	22915
845.117	22866
845.253	22793
845.389	22577
845.525	22706
845.661	22592
845.798	22436
845.934	22588
846.07	22531
846.206	22470
846.342	22565
846.478	22561
846.614	22344
846.75	22284
846.886	22181
847.022	22344
847.158	22238
847.294	22207
847.429	22166
847.565	22405
847.701	22409
847.837	22055
847.972	21960
848.108	22036
848.244	21915
848.379	21865
848.515	21838
848.65	21861
848.786	21747
848.921	21865
849.057	22032
849.192	21998
849.328	21960
849.463	21983
849.598	21759
849.734	21701
849.869	21633
850.004	21587
850.14	21557
850.275	21610
850.41	21454
850.545	21538
850.68	21641
850.815	21583
850.95	21606
851.085	21778
851.22	21732
851.355	21675
851.49	21515
851.625	21549
851.76	21504
851.895	21477
852.03	21412
852.165	21477
852.299	21622
852.434	21526
852.569	21591
852.703	21504
852.838	21583
852.973	21686
853.107	21660
853.242	21606
853.376	21393
853.511	21405
853.645	21477
853.78	21587
853.914	21367
854.048	21507
854.183	21435
854.317	21603
854.451	21572
854.585	21397
854.72	21359
854.854	21496
854.988	21401
855.122	21336
855.256	21226
855.39	21408
855.524	21424
855.658	21351
855.792	21412
855.926	21488
856.06	21549
856.194	21504
856.327	21340
856.461	21374
856.595	21336
856.729	21485
856.862	21466
856.996	21386
857.13	21492
857.263	21511
857.397	21370
857.53	21336
857.664	21515
857.797	21420
857.931	21408
858.064	21351
858.197	21564
858.331	21386
858.464	21306
858.597	21241
858.731	21340
858.864	21397
858.997	21332
859.13	21378
859.263	21336
859.396	21504
859.529	21447
859.662	21279
859.795	21386
859.928	21351
860.061	21488
860.194	21549
860.327	21412
860.46	21519
860.592	21496
860.725	21606
860.858	21492
860.99	21386
861.123	21332
861.256	21420
861.388	21473
861.521	21983
861.653	21249
861.786	21074
861.918	21256
862.05	21291
862.183	21412
862.315	21218
862.447	21344
862.58	21359
862.712	21157
862.844	21119
862.976	21173
863.108	21081
863.24	21332
863.372	21017
863.504	21131
863.636	21157
863.768	21005
863.9	21161
864.032	21096
864.164	21161
864.296	21222
864.428	21199
864.559	21218
864.691	21165
864.823	21135
864.954	21085
865.086	21066
865.217	21093
865.349	20895
865.48	21081
865.612	21036
865.743	21096
865.875	20986
866.006	20975
866.137	20941
866.269	20788
866.4	20842
866.531	20967
866.662	20990
866.793	21005
866.924	20925
867.055	20933
867.186	21039
867.317	20956
867.448	20826
867.579	20891
867.71	20804
867.841	20868
867.972	21017
868.103	20952
868.233	20861
868.364	20842
868.495	21077
868.625	21081
868.756	21291
868.886	21214
869.017	21230
869.147	21332
869.278	21374
869.408	21260
869.539	21104
869.669	21332
869.799	21241
869.929	21241
870.06	21302
870.19	21523
870.32	21485
870.45	21477
870.58	21648
870.71	21663
870.84	21686
870.97	21481
871.1	21511
871.23	21873
871.36	21857
871.489	21599
871.619	21747
871.749	21934
871.879	21861
872.008	21888
872.138	21873
872.267	21842
872.397	21637
872.526	21583
872.656	21599
872.785	21557
872.915	21808
873.044	21800
873.173	21854
873.303	21865
873.432	21842
873.561	21827
873.69	21945
873.819	21854
873.948	21770
874.077	21846
874.206	21789
874.335	21797
874.464	21895
874.593	21975
874.722	22051
874.851	22082
874.979	22063
875.108	22093
875.237	22017
875.365	21934
875.494	22086
875.623	22017
875.751	21975
875.88	22090
876.008	22219
876.136	22234
876.265	22421
876.393	22538
876.521	22554
876.65	22516
876.778	22531
876.906	22512
877.034	22253
877.162	22436
877.29	22322
877.418	22310
877.546	22424
877.674	22360
877.802	22382
877.93	22371
878.058	22303
878.185	22226
878.313	22249
878.441	22333
878.568	22242
878.696	22192
878.824	22390
878.951	22314
879.079	22546
879.206	22634
879.333	22626
879.461	22337
879.588	22375
879.715	22493
879.842	22497
879.97	22348
880.097	22154
880.224	22173
880.351	22097
880.478	22147
880.605	22154
880.732	22166
880.859	22352
880.986	22169
881.112	22154
881.239	22105
881.366	21968
881.493	21854
881.619	21816
881.746	21785
881.872	21800
881.999	21720
882.125	21743
882.252	21728
882.378	21755
882.505	21785
882.631	21690
882.757	21466
882.883	21473
883.01	21523
883.136	21382
883.262	21424
883.388	21302
883.514	21507
883.64	21397
883.766	21405
883.892	21245
884.018	21214
884.143	21374
884.269	21447
884.395	21252
884.52	20956
884.646	21135
884.772	21142
884.897	21017
885.023	21108
885.148	21321
885.274	21268
885.399	21211
885.524	21055
885.65	21093
885.775	21131
885.9	21119
886.025	21195
886.15	21081
886.275	21047
886.4	20982
886.525	21077
886.65	20979
886.775	21093
886.9	21230
887.025	21310
887.149	21074
887.274	20891
887.399	20971
887.523	20880
887.648	20883
887.773	20815
887.897	20952
888.021	20868
888.146	20705
888.27	20880
888.395	20960
888.519	20971
888.643	20971
888.767	20895
888.891	20705
889.015	20720
889.139	20807
889.263	20754
889.387	20853
889.511	20982
889.635	20743
889.759	20667
889.883	20701
890.006	20655
890.13	20693
890.254	20594
890.377	20731
890.501	20343
890.624	20339
890.748	20465
890.871	20355
890.995	20320
891.118	20180
891.241	20412
891.364	20317
891.488	20427
891.611	20267
891.734	20221
891.857	20275
891.98	20309
892.103	20252
892.226	20225
892.349	20183
892.471	19932
892.594	20221
892.717	20199
892.839	20122
892.962	20130
893.085	20278
893.207	20138
893.33	19997
893.452	20008
893.575	20218
893.697	20168
893.819	20199
893.941	20309
894.064	20256
894.186	20134
894.308	20142
894.43	20199
894.552	20339
894.674	20320
894.796	20035
894.918	20145
895.04	20164
895.161	20233
895.283	20046
895.405	20062
895.526	20157
895.648	20084
895.769	20145
895.891	20240
896.012	20244
896.134	20100
896.255	20103
896.376	20088
896.498	20111
896.619	20115
896.74	20107
896.861	20176
896.982	20503
897.103	20583
897.224	20377
897.345	20396
897.466	20282
897.587	20355
897.708	20393
897.828	20423
897.949	20347
898.07	20237
898.19	20126
898.311	20278
898.431	20244
898.552	20427
898.672	20446
898.792	20423
898.913	20389
899.033	20252
899.153	20199
899.273	19989
899.393	20153
899.513	20092
899.633	20256
899.753	20065
899.873	20012
899.993	20130
900.113	20062
900.232	20012
900.352	20077
900.472	19928
900.591	19837
900.711	19932
900.83	19883
900.95	19940
901.069	19921
901.189	19776
901.308	19647
901.427	19373
901.546	19369
901.665	19468
901.784	19468
901.904	19293
902.023	19171
902.141	19069
902.26	18951
902.379	19050
902.498	19065
902.617	18970
902.735	18882
902.854	18966
902.973	18856
903.091	18661
903.21	18635
903.328	18635
903.446	18513
903.565	18502
903.683	18437
903.801	18289
903.919	18414
904.038	18357
904.156	18266
904.274	18296
904.392	18125
904.51	18209
904.627	18213
904.745	18171
904.863	18251
904.981	17996
905.098	17882
905.216	17965
905.334	17939
905.451	17988
905.569	17977
905.686	17843
905.803	17908
905.921	17680
906.038	17802
906.155	17703
906.272	17558
906.389	17600
906.506	17326
906.623	17436
906.74	17425
906.857	17334
906.974	17269
907.091	17490
907.208	17509
907.324	17429
907.441	17284
907.557	17185
907.674	17166
907.79	17124
907.907	17105
908.023	17121
908.139	17105
908.256	17010
908.372	17006
908.488	16976
908.604	16938
908.72	16702
908.836	16869
908.952	16801
909.068	16892
909.184	16976
909.3	16862
909.415	16873
909.531	16816
909.647	16622
909.762	16497
909.878	16519
909.993	16603
910.108	16641
910.224	16421
910.339	16493
910.454	16382
910.57	16451
910.685	16253
910.8	16588
910.915	16478
911.03	16337
911.145	16188
911.259	16207
911.374	16139
911.489	16078
911.604	15964
911.718	15892
911.833	16032
911.947	15876
912.062	15694
912.176	15941
912.291	15892
912.405	15804
912.519	16105
912.633	16143
912.748	15979
912.862	15804
912.976	15778
913.09	15591
913.204	15667
913.318	15778
913.431	15743
913.545	15827
913.659	15831
913.772	15633
913.886	15564
914	15625
914.113	15488
914.226	15660
914.34	15637
914.453	15416
914.566	15568
914.68	15481
914.793	15424
914.906	15211
915.019	15180
915.132	15070
915.245	15142
915.358	15226
915.47	15199
915.583	15154
915.696	15154
915.809	15310
915.921	15313
916.034	15119
916.146	14986
916.259	14944
916.371	15207
916.483	15058
916.595	15032
916.708	14967
916.82	14994
916.932	14902
917.044	14861
917.156	14864
917.268	14693
917.38	14765
917.491	14785
917.603	14788
917.715	14796
917.826	14864
917.938	14689
918.049	14659
918.161	14655
918.272	14826
918.384	14921
918.495	14800
918.606	14549
918.717	14488
918.828	14579
918.939	14549
919.05	14461
919.161	14518
919.272	14183
919.383	14415
919.494	14610
919.604	14743
919.715	14450
919.826	14533
919.936	14473
920.047	14476
920.157	14343
920.267	14689
920.378	14431
920.488	14473
920.598	14743
920.708	14735
920.818	14659
920.928	14579
921.038	14762
921.148	14693
921.258	14457
921.368	14370
921.477	14301
921.587	14161
921.697	14103
921.806	14206
921.916	14024
922.025	13887
922.134	13875
922.244	13814
922.353	13871
922.462	13757
922.571	13586
922.68	13506
922.789	13483
922.898	13506
923.007	13434
923.116	13460
923.224	13499
923.333	13457
923.442	13350
923.55	13339
923.659	13415
923.767	13346
923.876	13304
923.984	13320
924.092	13171
924.201	13255
924.309	13316
924.417	13297
924.525	13221
924.633	13137
924.741	14115
924.849	13000
924.956	13099
925.064	12985
925.172	12867
925.279	12943
925.387	12901
925.494	12932
925.602	13084
925.709	12985
925.816	12844
925.924	12913
926.031	12928
926.138	12806
926.245	12878
926.352	12722
926.459	12970
926.566	12954
926.673	12772
926.779	12783
926.886	12745
926.993	12601
927.099	12513
927.206	12369
927.312	12483
927.419	12528
927.525	12547
927.631	12601
927.737	12376
927.843	12357
927.95	12262
928.056	12311
928.162	12353
928.267	12403
928.373	12897
928.479	12452
928.585	12178
928.69	12285
928.796	12304
928.901	12121
929.007	12106
929.112	12121
929.218	12072
929.323	12015
929.428	12057
929.533	12209
929.638	11969
929.743	12079
929.848	12007
929.953	11946
930.058	11931
930.163	11779
930.267	11783
930.372	11954
930.477	11684
930.581	11939
930.685	11718
930.79	11608
930.894	11665
930.998	11539
931.103	11718
931.207	11368
931.311	11330
931.415	11140
931.519	11025
931.623	11022
