Data from test_V78500241_3430.txt Node
Date: Fri Mar 25 15:33:44 CST 2022
User: usil
Spectrometer: V785-0024
Trigger mode: 0
Integration Time (sec): 4.000000E-1
Scans to average: 1
Nonlinearity correction enabled: false
Boxcar width: 0
Storing dark spectrum: false
XAxis mode: Wavelengths
Number of Pixels in Spectrum: 1024
>>>>>Begin Spectral Data<<<<<
801.071	27207
801.214	27199
801.356	27081
801.499	26849
801.641	26826
801.783	26830
801.926	26765
802.068	26686
802.211	26640
802.353	26944
802.496	26427
802.638	26632
802.78	26366
802.923	26427
803.065	26271
803.208	26320
803.35	26537
803.492	26507
803.635	26617
803.777	26438
803.919	26575
804.061	27001
804.204	26640
804.346	26453
804.488	26499
804.63	26526
804.773	26419
804.915	26575
805.057	26579
805.199	26545
805.341	26480
805.483	26807
805.626	26571
805.768	26571
805.91	26670
806.052	26788
806.194	26632
806.336	26800
806.478	26640
806.62	26579
806.762	26758
806.904	26838
807.046	27157
807.188	27214
807.33	27055
807.472	27157
807.614	26914
807.756	27013
807.898	26868
808.04	26956
808.182	26849
808.324	26861
808.465	26891
808.607	27116
808.749	27302
808.891	27348
809.033	27378
809.174	27264
809.316	27306
809.458	27256
809.6	27089
809.741	27363
809.883	27458
810.025	27568
810.166	27610
810.308	27629
810.45	27519
810.591	27515
810.733	27298
810.875	27245
811.016	27104
811.158	27108
811.299	27302
811.441	27348
811.582	27359
811.724	27302
811.865	27154
812.007	27237
812.148	27268
812.29	27222
812.431	27268
812.573	27595
812.714	27435
812.855	27667
812.997	27793
813.138	28067
813.279	27854
813.421	27720
813.562	27774
813.703	27507
813.845	27412
813.986	27233
814.127	27028
814.268	26819
814.41	26921
814.551	26876
814.692	27036
814.833	26853
814.974	26826
815.115	26811
815.256	26735
815.397	26777
815.539	26842
815.68	26613
815.821	26579
815.962	26762
816.103	26655
816.244	26427
816.385	26514
816.526	26358
816.666	26237
816.807	26271
816.948	26210
817.089	26202
817.23	26145
817.371	26237
817.512	26161
817.653	26130
817.793	26088
817.934	26191
818.075	26210
818.216	26202
818.356	26233
818.497	26050
818.638	25803
818.778	25970
818.919	25811
819.06	25944
819.2	25989
819.341	26103
819.481	26024
819.622	26396
819.762	26571
819.903	26457
820.043	26339
820.184	26248
820.324	26275
820.465	26347
820.605	26290
820.746	26301
820.886	26130
821.026	26294
821.167	26161
821.307	26157
821.447	26138
821.588	26145
821.728	25913
821.868	25925
822.008	25666
822.149	25594
822.289	25651
822.429	25441
822.569	25259
822.709	25312
822.849	25088
822.99	25247
823.13	25198
823.27	25046
823.41	25103
823.55	24856
823.69	25046
823.83	24863
823.97	24852
824.11	24620
824.25	24696
824.389	24806
824.529	24867
824.669	24806
824.809	24932
824.949	24996
825.089	24856
825.228	24734
825.368	24665
825.508	24677
825.648	24623
825.787	24677
825.927	24764
826.067	24627
826.206	24589
826.346	24627
826.485	24730
826.625	24589
826.765	24711
826.904	24760
827.044	24467
827.183	24445
827.323	24498
827.462	24452
827.601	24418
827.741	24330
827.88	24372
828.02	24285
828.159	24292
828.298	24429
828.437	24376
828.577	24247
828.716	24467
828.855	24213
828.994	24133
829.134	23958
829.273	24133
829.412	24163
829.551	23939
829.69	24079
829.829	24060
829.968	24258
830.107	24144
830.246	24110
830.385	24026
830.524	23927
830.663	23927
830.802	23794
830.941	23642
831.08	23585
831.219	23726
831.357	23745
831.496	23908
831.635	23684
831.774	23653
831.913	23516
832.051	23596
832.19	23528
832.329	23505
832.467	23402
832.606	23433
832.744	23436
832.883	23414
833.022	23269
833.16	23292
833.299	23414
833.437	23383
833.576	23383
833.714	23410
833.852	23417
833.991	23337
834.129	23516
834.267	23604
834.406	23353
834.544	23528
834.682	23467
834.821	23482
834.959	23707
835.097	23448
835.235	23414
835.373	23383
835.511	23524
835.65	23406
835.788	23341
835.926	23094
836.064	23033
836.202	23117
836.34	23376
836.478	23421
836.615	23326
836.753	23246
836.891	23429
837.029	23303
837.167	23200
837.305	23181
837.443	23204
837.58	23052
837.718	23220
837.856	23227
837.993	22923
838.131	23052
838.269	22991
838.406	23220
838.544	22892
838.681	22805
838.819	22889
838.956	22721
839.094	22561
839.231	22637
839.369	22919
839.506	23056
839.643	22877
839.781	22679
839.918	22580
840.055	22729
840.193	22527
840.33	22622
840.467	22596
840.604	22637
840.742	22778
840.879	22284
841.016	22516
841.153	22367
841.29	22691
841.427	22485
841.564	22565
841.701	22527
841.838	22432
841.975	22481
842.112	22466
842.249	22382
842.385	22246
842.522	22512
842.659	22470
842.796	22318
842.933	22226
843.069	22200
843.206	22257
843.343	22249
843.479	22177
843.616	22284
843.752	21994
843.889	22128
844.025	22230
844.162	22040
844.298	22120
844.435	22226
844.571	22059
844.708	22101
844.844	22284
844.98	22329
845.117	22211
845.253	21991
845.389	21964
845.525	22002
845.661	22112
845.798	21785
845.934	21934
846.07	21823
846.206	21880
846.342	21949
846.478	21819
846.614	21622
846.75	21519
846.886	21443
847.022	21633
847.158	21690
847.294	21675
847.429	21644
847.565	21542
847.701	21873
847.837	21256
847.972	21340
848.108	21321
848.244	21363
848.379	21150
848.515	21237
848.65	21173
848.786	21127
848.921	21062
849.057	21321
849.192	21241
849.328	21329
849.463	21135
849.598	21207
849.734	21047
849.869	20994
850.004	20963
850.14	20899
850.275	20929
850.41	20842
850.545	20902
850.68	20941
850.815	20967
850.95	21001
851.085	21066
851.22	20952
851.355	20952
851.49	20887
851.625	20891
851.76	20941
851.895	20773
852.03	20906
852.165	20921
852.299	20986
852.434	20963
852.569	21032
852.703	20914
852.838	20944
852.973	20986
853.107	21077
853.242	20910
853.376	20750
853.511	20651
853.645	20670
853.78	20899
853.914	20807
854.048	20739
854.183	20617
854.317	20765
854.451	20876
854.585	20727
854.72	20739
854.854	20864
854.988	20720
855.122	20743
855.256	20708
855.39	20746
855.524	20921
855.658	20804
855.792	20769
855.926	20758
856.06	20800
856.194	20800
856.327	20708
856.461	20750
856.595	20621
856.729	20678
856.862	20925
856.996	20872
857.13	20800
857.263	20826
857.397	20762
857.53	20781
857.664	20720
857.797	20819
857.931	20758
858.064	20849
858.197	20849
858.331	20621
858.464	20792
858.597	20655
858.731	20727
858.864	20667
858.997	20773
859.13	20746
859.263	20868
859.396	20887
859.529	20651
859.662	20708
859.795	20663
859.928	20807
860.061	20956
860.194	20921
860.327	20891
860.46	20708
860.592	20785
860.725	20826
860.858	20868
860.99	20861
861.123	20686
861.256	20731
861.388	20762
861.521	21500
861.653	20587
861.786	20514
861.918	20556
862.05	20579
862.183	20670
862.315	20701
862.447	20796
862.58	20720
862.712	20370
862.844	20473
862.976	20537
863.108	20514
863.24	20906
863.372	20522
863.504	20488
863.636	20590
863.768	20511
863.9	20537
864.032	20438
864.164	20541
864.296	20412
864.428	20530
864.559	20503
864.691	20575
864.823	20507
864.954	20377
865.086	20495
865.217	20389
865.349	20259
865.48	20377
865.612	20370
865.743	20552
865.875	20381
866.006	20377
866.137	20282
866.269	20324
866.4	20309
866.531	20400
866.662	20187
866.793	20305
866.924	20286
867.055	20320
867.186	20278
867.317	20252
867.448	20256
867.579	20290
867.71	20210
867.841	20191
867.972	20431
868.103	20214
868.233	20305
868.364	20362
868.495	20393
868.625	20545
868.756	20689
868.886	20488
869.017	20571
869.147	20678
869.278	20617
869.408	20606
869.539	20469
869.669	20708
869.799	20568
869.929	20686
870.06	20594
870.19	20834
870.32	20765
870.45	20948
870.58	20990
870.71	21123
870.84	20956
870.97	20986
871.1	20990
871.23	21066
871.36	21173
871.489	21062
871.619	21169
871.749	21108
871.879	21154
872.008	21287
872.138	21252
872.267	21211
872.397	21096
872.526	20948
872.656	21039
872.785	21005
872.915	21199
873.044	21173
873.173	21131
873.303	21165
873.432	21203
873.561	21317
873.69	21188
873.819	21165
873.948	21279
874.077	21131
874.206	21138
874.335	21184
874.464	21287
874.593	21405
874.722	21370
874.851	21408
874.979	21454
875.108	21389
875.237	21386
875.365	21340
875.494	21469
875.623	21405
875.751	21359
875.88	21367
876.008	21583
876.136	21606
876.265	21884
876.393	21991
876.521	21903
876.65	21956
876.778	21751
876.906	21892
877.034	21759
877.162	21743
877.29	21709
877.418	21816
877.546	21835
877.674	21793
877.802	21804
877.93	21793
878.058	21720
878.185	21660
878.313	21739
878.441	21751
878.568	21671
878.696	21724
878.824	21694
878.951	21789
879.079	21964
879.206	22242
879.333	21899
879.461	21755
879.588	21892
879.715	21979
879.842	22082
879.97	21739
880.097	21629
880.224	21648
880.351	21568
880.478	21713
880.605	21618
880.732	21663
880.859	21793
880.986	21717
881.112	21561
881.239	21496
881.366	21310
881.493	21397
881.619	21184
881.746	21260
881.872	21154
881.999	21154
882.125	21116
882.252	21154
882.378	21138
882.505	21268
882.631	21089
882.757	20769
882.883	20998
883.01	20906
883.136	20864
883.262	20727
883.388	20693
883.514	20880
883.64	20929
883.766	20887
883.892	20727
884.018	20670
884.143	20842
884.269	20872
884.395	20670
884.52	20522
884.646	20454
884.772	20575
884.897	20446
885.023	20609
885.148	20613
885.274	20712
885.399	20556
885.524	20594
885.65	20590
885.775	20606
885.9	20526
886.025	20682
886.15	20602
886.275	20370
886.4	20465
886.525	20617
886.65	20366
886.775	20461
886.9	20598
887.025	20739
887.149	20537
887.274	20343
887.399	20404
887.523	20370
887.648	20084
887.773	20157
887.897	20381
888.021	20419
888.146	20210
888.27	20343
888.395	20495
888.519	20221
888.643	20377
888.767	20328
888.891	20107
889.015	20248
889.139	20172
889.263	20062
889.387	20161
889.511	20301
889.635	20233
889.759	20012
889.883	20077
890.006	20172
890.13	20248
890.254	19894
890.377	20050
890.501	20012
890.624	19746
890.748	19913
890.871	19719
890.995	19635
891.118	19605
891.241	19658
891.364	19590
891.488	19715
891.611	19811
891.734	19776
891.857	19708
891.98	19670
892.103	19689
892.226	19723
892.349	19674
892.471	19506
892.594	19540
892.717	19715
892.839	19578
892.962	19712
893.085	19681
893.207	19540
893.33	19460
893.452	19548
893.575	19655
893.697	19594
893.819	19803
893.941	19852
894.064	19685
894.186	19464
894.308	19502
894.43	19681
894.552	19712
894.674	19670
894.796	19529
894.918	19670
895.04	19575
895.161	19605
895.283	19624
895.405	19609
895.526	19639
895.648	19586
895.769	19582
895.891	19632
896.012	19791
896.134	19605
896.255	19613
896.376	19651
896.498	19742
896.619	19639
896.74	19533
896.861	19715
896.982	20024
897.103	20031
897.224	19883
897.345	19791
897.466	19864
897.587	19890
897.708	19871
897.828	19887
897.949	19837
898.07	19666
898.19	19719
898.311	19890
898.431	19753
898.552	19890
898.672	19913
898.792	19883
898.913	19883
899.033	19734
899.153	19738
899.273	19594
899.393	19514
899.513	19685
899.633	19590
899.753	19548
899.873	19582
899.993	19708
900.113	19563
900.232	19624
900.352	19628
900.472	19563
900.591	19274
900.711	19445
900.83	19362
900.95	19327
901.069	19480
901.189	19171
901.308	19042
901.427	18932
901.546	19046
901.665	18939
901.784	18973
901.904	18806
902.023	18783
902.141	18650
902.26	18521
902.379	18547
902.498	18506
902.617	18456
902.735	18521
902.854	18365
902.973	18456
903.091	18205
903.21	18213
903.328	18159
903.446	18049
903.565	17969
903.683	18079
903.801	17920
903.919	17939
904.038	17760
904.156	17775
904.274	17866
904.392	17760
904.51	17638
904.627	17623
904.745	17767
904.863	17802
904.981	17528
905.098	17463
905.216	17379
905.334	17387
905.451	17406
905.569	17436
905.686	17444
905.803	17467
905.921	17132
906.038	17322
906.155	17311
906.272	17124
906.389	17197
906.506	17003
906.623	16961
906.74	16866
906.857	16729
906.974	16934
907.091	17003
907.208	17041
907.324	16930
907.441	16866
907.557	16755
907.674	16607
907.79	16622
907.907	16748
908.023	16656
908.139	16694
908.256	16694
908.372	16618
908.488	16542
908.604	16455
908.72	16455
908.836	16542
908.952	16443
909.068	16474
909.184	16596
909.3	16405
909.415	16474
909.531	16379
909.647	16215
909.762	16116
909.878	16010
909.993	16112
910.108	16105
910.224	16158
910.339	16059
910.454	15994
910.57	15998
910.685	15846
910.8	16109
910.915	16063
911.03	15888
911.145	15800
911.259	15720
911.374	15709
911.489	15667
911.604	15720
911.718	15496
911.833	15469
911.947	15473
912.062	15298
912.176	15584
912.291	15477
912.405	15481
912.519	15690
912.633	15690
912.748	15435
912.862	15447
912.976	15325
913.09	15214
913.204	15207
913.318	15382
913.431	15397
913.545	15348
913.659	15386
913.772	15230
913.886	15131
914	15119
914.113	15211
914.226	15310
914.34	15237
914.453	14979
914.566	15070
914.68	15013
914.793	14883
914.906	14754
915.019	14686
915.132	14655
915.245	14739
915.358	14750
915.47	14769
915.583	14773
915.696	14731
915.809	14765
915.921	14754
916.034	14689
916.146	14610
916.259	14682
916.371	14716
916.483	14644
916.595	14575
916.708	14579
916.82	14552
916.932	14492
917.044	14499
917.156	14438
917.268	14431
917.38	14396
917.491	14320
917.603	14336
917.715	14465
917.826	14446
917.938	14225
918.049	14214
918.161	14332
918.272	14400
918.384	14423
918.495	14366
918.606	14149
918.717	14073
918.828	14111
918.939	14126
919.05	14062
919.161	14161
919.272	13986
919.383	14005
919.494	14145
919.604	14286
919.715	14161
919.826	14027
919.936	14069
920.047	14180
920.157	14126
920.267	14366
920.378	14077
920.488	14088
920.598	14271
920.708	14339
920.818	14339
920.928	14324
921.038	14393
921.148	14370
921.258	14138
921.368	14012
921.477	13913
921.587	13887
921.697	13772
921.806	13898
921.916	13772
922.025	13563
922.134	13529
922.244	13495
922.353	13537
922.462	13537
922.571	13377
922.68	13198
922.789	13164
922.898	13099
923.007	13129
923.116	13187
923.224	13095
923.333	13091
923.442	12977
923.55	12954
923.659	13076
923.767	13118
923.876	12962
923.984	13027
924.092	12871
924.201	12966
924.309	12996
924.417	12951
924.525	12802
924.633	12837
924.741	13757
924.849	12578
924.956	12806
925.064	12589
925.172	12528
925.279	12631
925.387	12646
925.494	12654
925.602	12642
925.709	12681
925.816	12506
925.924	12612
926.031	12551
926.138	12532
926.245	12547
926.352	12494
926.459	12620
926.566	12566
926.673	12547
926.779	12319
926.886	12380
926.993	12277
927.099	12258
927.206	12152
927.312	12110
927.419	12213
927.525	12098
927.631	12125
927.737	12140
927.843	12038
927.95	11954
928.056	11916
928.162	12144
928.267	12038
928.373	12563
928.479	12140
928.585	11805
928.69	12030
928.796	12072
928.901	11897
929.007	11794
929.112	11893
929.218	11821
929.323	11817
929.428	11752
929.533	11821
929.638	11642
929.743	11726
929.848	11729
929.953	11699
930.058	11615
930.163	11398
930.267	11440
930.372	11573
930.477	11417
930.581	11665
930.685	11471
930.79	11341
930.894	11417
930.998	11353
931.103	11471
931.207	11151
931.311	11025
931.415	10900
931.519	10672
931.623	10702
