Data from test_V78500241_1169.txt Node
Date: Fri Mar 25 15:17:59 CST 2022
User: usil
Spectrometer: V785-0024
Trigger mode: 0
Integration Time (sec): 4.000000E-1
Scans to average: 1
Nonlinearity correction enabled: false
Boxcar width: 0
Storing dark spectrum: false
XAxis mode: Wavelengths
Number of Pixels in Spectrum: 1024
>>>>>Begin Spectral Data<<<<<
801.071	28158
801.214	28169
801.356	27884
801.499	27945
801.641	27671
801.783	27819
801.926	27838
802.068	27690
802.211	27671
802.353	27599
802.496	27412
802.638	27393
802.78	27466
802.923	27450
803.065	27272
803.208	27222
803.35	27249
803.492	27504
803.635	27534
803.777	27439
803.919	27641
804.061	27914
804.204	27660
804.346	27625
804.488	27447
804.63	27648
804.773	27492
804.915	27816
805.057	27614
805.199	27538
805.341	27686
805.483	27720
805.626	27800
805.768	27656
805.91	27698
806.052	27747
806.194	27568
806.336	27994
806.478	27774
806.62	27728
806.762	27766
806.904	28044
807.046	28265
807.188	28177
807.33	28215
807.472	28261
807.614	27987
807.756	28169
807.898	28070
808.04	28036
808.182	27991
808.324	28055
808.465	28040
808.607	28386
808.749	28443
808.891	28508
809.033	28527
809.174	28478
809.316	28371
809.458	28424
809.6	28306
809.741	28630
809.883	28645
810.025	28634
810.166	28809
810.308	28672
810.45	28626
810.591	28641
810.733	28489
810.875	28466
811.016	28318
811.158	28352
811.299	28474
811.441	28615
811.582	28538
811.724	28409
811.865	28481
812.007	28424
812.148	28447
812.29	28459
812.431	28672
812.573	28691
812.714	28885
812.855	28908
812.997	28873
813.138	29117
813.279	29128
813.421	28900
813.562	28816
813.703	28687
813.845	28698
813.986	28516
814.127	28291
814.268	28006
814.41	28177
814.551	28090
814.692	28131
814.833	28158
814.974	28120
815.115	28196
815.256	28162
815.397	28177
815.539	28013
815.68	27998
815.821	27804
815.962	27975
816.103	27880
816.244	27724
816.385	27633
816.526	27690
816.666	27572
816.807	27519
816.948	27469
817.089	27542
817.23	27420
817.371	27386
817.512	27405
817.653	27382
817.793	27374
817.934	27466
818.075	27530
818.216	27504
818.356	27302
818.497	27340
818.638	27176
818.778	27272
818.919	27283
819.06	27283
819.2	27321
819.341	27447
819.481	27492
819.622	27534
819.762	27675
819.903	27819
820.043	27781
820.184	27526
820.324	27496
820.465	27458
820.605	27641
820.746	27458
820.886	27462
821.026	27614
821.167	27481
821.307	27648
821.447	27481
821.588	27370
821.728	27116
821.868	27028
822.008	26891
822.149	26994
822.289	26883
822.429	26670
822.569	26644
822.709	26587
822.849	26526
822.99	26336
823.13	26370
823.27	26389
823.41	26263
823.55	26077
823.69	26275
823.83	26237
823.97	26366
824.11	26134
824.25	26012
824.389	26149
824.529	26206
824.669	26054
824.809	26256
824.949	26187
825.089	26263
825.228	26206
825.368	25993
825.508	26020
825.648	25902
825.787	26054
825.927	26031
826.067	25890
826.206	26016
826.346	26024
826.485	26119
826.625	25986
826.765	26077
826.904	26065
827.044	25776
827.183	25799
827.323	25715
827.462	25601
827.601	25628
827.741	25590
827.88	25689
828.02	25518
828.159	25533
828.298	25719
828.437	25704
828.577	25632
828.716	25742
828.855	25582
828.994	25411
829.134	25381
829.273	25400
829.412	25411
829.551	25514
829.69	25324
829.829	25445
829.968	25487
830.107	25525
830.246	25407
830.385	25354
830.524	25350
830.663	25171
830.802	25240
830.941	24985
831.08	24989
831.219	25072
831.357	25038
831.496	25247
831.635	25023
831.774	24871
831.913	24894
832.051	24867
832.19	24840
832.329	24875
832.467	24772
832.606	24738
832.744	24650
832.883	24711
833.022	24825
833.16	24661
833.299	24768
833.437	24688
833.576	24776
833.714	24760
833.852	24719
833.991	24890
834.129	24719
834.267	24981
834.406	24730
834.544	24734
834.682	24810
834.821	24837
834.959	24894
835.097	24684
835.235	24783
835.373	24814
835.511	24696
835.65	24768
835.788	24646
835.926	24505
836.064	24505
836.202	24460
836.34	24726
836.478	24665
836.615	24623
836.753	24589
836.891	24631
837.029	24764
837.167	24532
837.305	24517
837.443	24502
837.58	24384
837.718	24391
837.856	24517
837.993	24399
838.131	24498
838.269	24266
838.406	24365
838.544	24232
838.681	24049
838.819	24045
838.956	23935
839.094	23908
839.231	23923
839.369	24152
839.506	24228
839.643	24205
839.781	23939
839.918	23950
840.055	23855
840.193	23912
840.33	23783
840.467	23832
840.604	23885
840.742	24045
840.879	23646
841.016	23821
841.153	23699
841.29	23958
841.427	23809
841.564	23920
841.701	23859
841.838	23699
841.975	23729
842.112	23805
842.249	23657
842.385	23592
842.522	23733
842.659	23596
842.796	23589
842.933	23676
843.069	23630
843.206	23539
843.343	23592
843.479	23482
843.616	23611
843.752	23383
843.889	23269
844.025	23395
844.162	23486
844.298	23444
844.435	23376
844.571	23280
844.708	23493
844.844	23634
844.98	23474
845.117	23395
845.253	23398
845.389	23155
845.525	23254
845.661	23193
845.798	23025
845.934	23124
846.07	23121
846.206	23174
846.342	23220
846.478	23102
846.614	22949
846.75	22854
846.886	22900
847.022	22786
847.158	22824
847.294	22847
847.429	22900
847.565	22812
847.701	23018
847.837	22577
847.972	22474
848.108	22664
848.244	22687
848.379	22451
848.515	22432
848.65	22421
848.786	22474
848.921	22341
849.057	22592
849.192	22535
849.328	22459
849.463	22375
849.598	22344
849.734	22246
849.869	22310
850.004	22261
850.14	22204
850.275	22234
850.41	22162
850.545	22067
850.68	22310
850.815	22253
850.95	22150
851.085	22246
851.22	22249
851.355	22299
851.49	22124
851.625	22109
851.76	22246
851.895	21991
852.03	22090
852.165	22158
852.299	22131
852.434	22314
852.569	22257
852.703	22196
852.838	22169
852.973	22417
853.107	22341
853.242	22086
853.376	22048
853.511	21930
853.645	21998
853.78	22131
853.914	22017
854.048	22025
854.183	21972
854.317	22017
854.451	22188
854.585	22006
854.72	21972
854.854	22025
854.988	21819
855.122	22032
855.256	21911
855.39	21964
855.524	22093
855.658	21960
855.792	22025
855.926	22048
856.06	22036
856.194	22112
856.327	21953
856.461	21865
856.595	21884
856.729	21861
856.862	22097
856.996	21979
857.13	21991
857.263	22090
857.397	21972
857.53	21930
857.664	21987
857.797	22067
857.931	22131
858.064	21884
858.197	22158
858.331	21819
858.464	21876
858.597	21888
858.731	22029
858.864	21876
858.997	22017
859.13	21937
859.263	22013
859.396	22021
859.529	21960
859.662	21960
859.795	21994
859.928	21895
860.061	22204
860.194	22154
860.327	22139
860.46	21964
860.592	22032
860.725	22135
860.858	22025
860.99	21998
861.123	21869
861.256	21960
861.388	21876
861.521	22733
861.653	21922
861.786	21850
861.918	21755
862.05	21797
862.183	21956
862.315	21918
862.447	21861
862.58	21869
862.712	21747
862.844	21762
862.976	21838
863.108	21762
863.24	22063
863.372	21610
863.504	21663
863.636	21679
863.768	21728
863.9	21648
864.032	21682
864.164	21637
864.296	21553
864.428	21770
864.559	21713
864.691	21888
864.823	21789
864.954	21720
865.086	21641
865.217	21542
865.349	21564
865.48	21614
865.612	21545
865.743	21717
865.875	21572
866.006	21576
866.137	21614
866.269	21580
866.4	21599
866.531	21492
866.662	21412
866.793	21488
866.924	21488
867.055	21458
867.186	21416
867.317	21492
867.448	21538
867.579	21408
867.71	21431
867.841	21321
867.972	21466
868.103	21504
868.233	21424
868.364	21462
868.495	21580
868.625	21804
868.756	21823
868.886	21701
869.017	21781
869.147	21785
869.278	21854
869.408	21667
869.539	21583
869.669	21865
869.799	21759
869.929	21819
870.06	21743
870.19	22048
870.32	22120
870.45	22105
870.58	22131
870.71	22177
870.84	22207
870.97	22059
871.1	22128
871.23	22310
871.36	22360
871.489	22265
871.619	22382
871.749	22333
871.879	22421
872.008	22413
872.138	22337
872.267	22303
872.397	22242
872.526	22116
872.656	22234
872.785	22207
872.915	22375
873.044	22531
873.173	22402
873.303	22360
873.432	22341
873.561	22417
873.69	22348
873.819	22314
873.948	22474
874.077	22478
874.206	22261
874.335	22367
874.464	22436
874.593	22500
874.722	22588
874.851	22607
874.979	22691
875.108	22554
875.237	22603
875.365	22569
875.494	22584
875.623	22535
875.751	22508
875.88	22580
876.008	22672
876.136	22839
876.265	22934
876.393	22991
876.521	23048
876.65	23041
876.778	22885
876.906	22873
877.034	22923
877.162	22862
877.29	22843
877.418	22881
877.546	22927
877.674	22809
877.802	22892
877.93	22881
878.058	22908
878.185	22843
878.313	22919
878.441	22877
878.568	22828
878.696	22835
878.824	22900
878.951	22915
879.079	23041
879.206	23208
879.333	23052
879.461	22972
879.588	22908
879.715	23022
879.842	23200
879.97	23003
880.097	22881
880.224	22702
880.351	22866
880.478	22786
880.605	22634
880.732	22618
880.859	22995
880.986	22759
881.112	22740
881.239	22569
881.366	22443
881.493	22394
881.619	22322
881.746	22299
881.872	22360
881.999	22238
882.125	22329
882.252	22371
882.378	22158
882.505	22356
882.631	22105
882.757	22021
882.883	22120
883.01	21964
883.136	22017
883.262	21800
883.388	21804
883.514	21991
883.64	22105
883.766	21979
883.892	21759
884.018	21831
884.143	21880
884.269	22021
884.395	21622
884.52	21583
884.646	21694
884.772	21519
884.897	21587
885.023	21622
885.148	21713
885.274	21622
885.399	21705
885.524	21705
885.65	21637
885.775	21610
885.9	21587
886.025	21690
886.15	21762
886.275	21526
886.4	21515
886.525	21538
886.65	21492
886.775	21511
886.9	21644
887.025	21793
887.149	21629
887.274	21393
887.399	21367
887.523	21313
887.648	21477
887.773	21127
887.897	21564
888.021	21329
888.146	21279
888.27	21500
888.395	21458
888.519	21382
888.643	21355
888.767	21466
888.891	21336
889.015	21252
889.139	21230
889.263	21146
889.387	21233
889.511	21325
889.635	21321
889.759	21275
889.883	21180
890.006	21237
890.13	21283
890.254	21135
890.377	21096
890.501	20986
890.624	20925
890.748	20967
890.871	20826
890.995	20807
891.118	20712
891.241	20727
891.364	20823
891.488	20986
891.611	20845
891.734	20914
891.857	20864
891.98	20765
892.103	20845
892.226	20682
892.349	20716
892.471	20564
892.594	20746
892.717	20746
892.839	20625
892.962	20674
893.085	20724
893.207	20606
893.33	20522
893.452	20568
893.575	20670
893.697	20598
893.819	20902
893.941	20807
894.064	20811
894.186	20579
894.308	20609
894.43	20644
894.552	20788
894.674	20750
894.796	20526
894.918	20526
895.04	20598
895.161	20788
895.283	20674
895.405	20526
895.526	20625
895.648	20686
895.769	20724
895.891	20769
896.012	20682
896.134	20735
896.255	20674
896.376	20522
896.498	20655
896.619	20724
896.74	20678
896.861	20636
896.982	20975
897.103	21100
897.224	20876
897.345	20788
897.466	20861
897.587	20746
897.708	20906
897.828	20788
897.949	20785
898.07	20689
898.19	20701
898.311	20887
898.431	20758
898.552	20746
898.672	20868
898.792	20990
898.913	20891
899.033	20788
899.153	20686
899.273	20549
899.393	20590
899.513	20667
899.633	20632
899.753	20526
899.873	20522
899.993	20594
900.113	20499
900.232	20552
900.352	20579
900.472	20404
900.591	20275
900.711	20362
900.83	20324
900.95	20431
901.069	20396
901.189	20244
901.308	20027
901.427	19986
901.546	19887
901.665	19917
901.784	19963
901.904	19738
902.023	19704
902.141	19514
902.26	19453
902.379	19510
902.498	19438
902.617	19335
902.735	19529
902.854	19441
902.973	19278
903.091	19110
903.21	19038
903.328	19118
903.446	19015
903.565	18894
903.683	18913
903.801	18852
903.919	18901
904.038	18840
904.156	18593
904.274	18768
904.392	18719
904.51	18585
904.627	18692
904.745	18753
904.863	18696
904.981	18422
905.098	18426
905.216	18323
905.334	18456
905.451	18384
905.569	18384
905.686	18380
905.803	18414
905.921	18068
906.038	18220
906.155	18190
906.272	18095
906.389	18015
906.506	17904
906.623	17866
906.74	17863
906.857	17760
906.974	17832
907.091	17885
907.208	17946
907.324	17961
907.441	17657
907.557	17573
907.674	17562
907.79	17509
907.907	17501
908.023	17535
908.139	17619
908.256	17554
908.372	17547
908.488	17497
908.604	17318
908.72	17315
908.836	17315
908.952	17280
909.068	17410
909.184	17532
909.3	17307
909.415	17296
909.531	17292
909.647	16965
909.762	17060
909.878	16934
909.993	16946
910.108	17018
910.224	16984
910.339	17003
910.454	16866
910.57	16816
910.685	16672
910.8	17064
910.915	16843
911.03	16759
911.145	16599
911.259	16554
911.374	16588
911.489	16516
911.604	16375
911.718	16375
911.833	16402
911.947	16135
912.062	16192
912.176	16318
912.291	16329
912.405	16276
912.519	16409
912.633	16432
912.748	16371
912.862	16246
912.976	16177
913.09	16059
913.204	16090
913.318	16051
913.431	16242
913.545	16181
913.659	16230
913.772	16154
913.886	15960
914	15972
914.113	15991
914.226	16044
914.34	16025
914.453	15793
914.566	16002
914.68	15793
914.793	15819
914.906	15519
915.019	15504
915.132	15625
915.245	15545
915.358	15614
915.47	15473
915.583	15481
915.696	15572
915.809	15739
915.921	15648
916.034	15488
916.146	15477
916.259	15405
916.371	15542
916.483	15481
916.595	15294
916.708	15310
916.82	15405
916.932	15420
917.044	15294
917.156	15268
917.268	15203
917.38	15260
917.491	15097
917.603	15245
917.715	15214
917.826	15279
917.938	15154
918.049	15066
918.161	15116
918.272	15237
918.384	15142
918.495	15138
918.606	14937
918.717	14849
918.828	15013
918.939	14975
919.05	14902
919.161	14872
919.272	14804
919.383	14792
919.494	14971
919.604	15142
919.715	14952
919.826	14910
919.936	14842
920.047	15001
920.157	14941
920.267	15024
920.378	14864
920.488	14826
920.598	14979
920.708	15146
920.818	15024
920.928	14899
921.038	15138
921.148	15077
921.258	14845
921.368	14735
921.477	14613
921.587	14564
921.697	14545
921.806	14594
921.916	14438
922.025	14355
922.134	14145
922.244	14202
922.353	14233
922.462	14164
922.571	14016
922.68	13921
922.789	13860
922.898	13852
923.007	13746
923.116	13909
923.224	13852
923.333	13784
923.442	13704
923.55	13628
923.659	13841
923.767	13746
923.876	13575
923.984	13765
924.092	13586
924.201	13594
924.309	13658
924.417	13628
924.525	13453
924.633	13578
924.741	14499
924.849	13293
924.956	13510
925.064	13415
925.172	13179
925.279	13289
925.387	13358
925.494	13293
925.602	13457
925.709	13430
925.816	13145
925.924	13190
926.031	13312
926.138	13217
926.245	13190
926.352	13187
926.459	13244
926.566	13312
926.673	13156
926.779	13061
926.886	12989
926.993	12886
927.099	12817
927.206	12726
927.312	12768
927.419	12848
927.525	12768
927.631	12810
927.737	12642
927.843	12593
927.95	12506
928.056	12593
928.162	12681
928.267	12722
928.373	13118
928.479	12764
928.585	12464
928.69	12582
928.796	12665
928.901	12490
929.007	12399
929.112	12483
929.218	12350
929.323	12372
929.428	12311
929.533	12464
929.638	12388
929.743	12353
929.848	12304
929.953	12251
930.058	12194
930.163	12057
930.267	12083
930.372	12171
930.477	12022
930.581	12251
930.685	12041
930.79	11942
930.894	11999
930.998	11984
931.103	12015
931.207	11764
931.311	11665
931.415	11463
931.519	11318
931.623	11364
