Data from test_V78500241_1112.txt Node
Date: Fri Mar 25 15:17:36 CST 2022
User: usil
Spectrometer: V785-0024
Trigger mode: 0
Integration Time (sec): 4.000000E-1
Scans to average: 1
Nonlinearity correction enabled: false
Boxcar width: 0
Storing dark spectrum: false
XAxis mode: Wavelengths
Number of Pixels in Spectrum: 1024
>>>>>Begin Spectral Data<<<<<
801.071	28154
801.214	27987
801.356	27850
801.499	27873
801.641	27785
801.783	27717
801.926	27694
802.068	27880
802.211	27724
802.353	27698
802.496	27481
802.638	27515
802.78	27348
802.923	27412
803.065	27431
803.208	27340
803.35	27401
803.492	27485
803.635	27568
803.777	27583
803.919	27682
804.061	27922
804.204	27599
804.346	27568
804.488	27542
804.63	27595
804.773	27519
804.915	27591
805.057	27838
805.199	27534
805.341	27736
805.483	27835
805.626	27618
805.768	27534
805.91	27701
806.052	27884
806.194	27629
806.336	27895
806.478	27835
806.62	27827
806.762	27808
806.904	28055
807.046	28325
807.188	28086
807.33	28158
807.472	28234
807.614	28109
807.756	28284
807.898	28032
808.04	28017
808.182	28074
808.324	28158
808.465	28143
808.607	28280
808.749	28500
808.891	28459
809.033	28664
809.174	28493
809.316	28535
809.458	28462
809.6	28538
809.741	28474
809.883	28577
810.025	28725
810.166	28820
810.308	28892
810.45	28675
810.591	28698
810.733	28516
810.875	28440
811.016	28398
811.158	28280
811.299	28531
811.441	28611
811.582	28584
811.724	28634
811.865	28531
812.007	28382
812.148	28348
812.29	28599
812.431	28660
812.573	28816
812.714	28881
812.855	28953
812.997	29113
813.138	29220
813.279	29044
813.421	28984
813.562	28835
813.703	28896
813.845	28706
813.986	28421
814.127	28417
814.268	28249
814.41	28173
814.551	28207
814.692	28120
814.833	28150
814.974	28082
815.115	28124
815.256	28090
815.397	28139
815.539	28173
815.68	27941
815.821	28013
815.962	28101
816.103	28070
816.244	27998
816.385	27732
816.526	27663
816.666	27553
816.807	27477
816.948	27454
817.089	27671
817.23	27466
817.371	27473
817.512	27507
817.653	27389
817.793	27507
817.934	27591
818.075	27561
818.216	27485
818.356	27526
818.497	27370
818.638	27222
818.778	27241
818.919	27199
819.06	27408
819.2	27473
819.341	27469
819.481	27523
819.622	27538
819.762	27808
819.903	27724
820.043	27511
820.184	27568
820.324	27751
820.465	27770
820.605	27618
820.746	27538
820.886	27378
821.026	27641
821.167	27492
821.307	27679
821.447	27614
821.588	27439
821.728	27313
821.868	27093
822.008	27119
822.149	26914
822.289	26910
822.429	26720
822.569	26606
822.709	26678
822.849	26541
822.99	26465
823.13	26526
823.27	26381
823.41	26244
823.55	26221
823.69	26343
823.83	26389
823.97	26282
824.11	26046
824.25	26176
824.389	26069
824.529	26347
824.669	26180
824.809	26446
824.949	26252
825.089	26130
825.228	26100
825.368	26077
825.508	26031
825.648	25955
825.787	26161
825.927	26149
826.067	26020
826.206	25963
826.346	25993
826.485	26092
826.625	25997
826.765	25993
826.904	25921
827.044	25784
827.183	25780
827.323	25742
827.462	25837
827.601	25909
827.741	25727
827.88	25719
828.02	25727
828.159	25772
828.298	25791
828.437	25860
828.577	25700
828.716	25830
828.855	25556
828.994	25578
829.134	25419
829.273	25441
829.412	25495
829.551	25373
829.69	25457
829.829	25472
829.968	25624
830.107	25556
830.246	25362
830.385	25377
830.524	25400
830.663	25289
830.802	25270
830.941	25232
831.08	25050
831.219	25129
831.357	25232
831.496	25346
831.635	25061
831.774	25042
831.913	25012
832.051	24875
832.19	24939
832.329	25034
832.467	24658
832.606	24741
832.744	24646
832.883	24806
833.022	24726
833.16	24795
833.299	24776
833.437	24707
833.576	24886
833.714	24951
833.852	24795
833.991	24806
834.129	24981
834.267	24996
834.406	24859
834.544	24996
834.682	24745
834.821	24749
834.959	24856
835.097	24844
835.235	24802
835.373	24768
835.511	24783
835.65	24715
835.788	24623
835.926	24604
836.064	24555
836.202	24479
836.34	24654
836.478	24681
836.615	24669
836.753	24612
836.891	24707
837.029	24715
837.167	24661
837.305	24494
837.443	24532
837.58	24483
837.718	24566
837.856	24544
837.993	24388
838.131	24509
838.269	24448
838.406	24528
838.544	24258
838.681	24133
838.819	24121
838.956	24049
839.094	23965
839.231	24018
839.369	24117
839.506	24292
839.643	24190
839.781	24057
839.918	23882
840.055	24053
840.193	23973
840.33	23889
840.467	23950
840.604	23958
840.742	24148
840.879	23703
841.016	23775
841.153	23707
841.29	23939
841.427	23855
841.564	23980
841.701	23817
841.838	23779
841.975	23703
842.112	23889
842.249	23790
842.385	23558
842.522	23923
842.659	23821
842.796	23623
842.933	23627
843.069	23687
843.206	23627
843.343	23695
843.479	23691
843.616	23471
843.752	23436
843.889	23535
844.025	23703
844.162	23562
844.298	23425
844.435	23501
844.571	23482
844.708	23414
844.844	23615
844.98	23562
845.117	23528
845.253	23387
845.389	23391
845.525	23315
845.661	23311
845.798	23067
845.934	23242
846.07	23162
846.206	23353
846.342	23334
846.478	23083
846.614	22987
846.75	22835
846.886	22930
847.022	22968
847.158	22771
847.294	22831
847.429	22972
847.565	22755
847.701	23185
847.837	22710
847.972	22478
848.108	22668
848.244	22710
848.379	22481
848.515	22405
848.65	22447
848.786	22432
848.921	22546
849.057	22531
849.192	22542
849.328	22596
849.463	22679
849.598	22565
849.734	22459
849.869	22234
850.004	22261
850.14	22352
850.275	22261
850.41	22192
850.545	22169
850.68	22253
850.815	22497
850.95	22276
851.085	22390
851.22	22440
851.355	22166
851.49	22215
851.625	22348
851.76	22253
851.895	22150
852.03	22192
852.165	22211
852.299	22242
852.434	22367
852.569	22306
852.703	22219
852.838	22261
852.973	22451
853.107	22371
853.242	22162
853.376	22143
853.511	21994
853.645	22036
853.78	22131
853.914	22124
854.048	22067
854.183	21895
854.317	22006
854.451	22242
854.585	22131
854.72	21975
854.854	22131
854.988	22082
855.122	22063
855.256	21941
855.39	22036
855.524	22029
855.658	22173
855.792	22154
855.926	22063
856.06	22143
856.194	22287
856.327	22029
856.461	21975
856.595	21991
856.729	21975
856.862	22200
856.996	22063
857.13	22116
857.263	22158
857.397	22109
857.53	22070
857.664	21994
857.797	22101
857.931	22150
858.064	22112
858.197	22166
858.331	22059
858.464	21926
858.597	22044
858.731	21892
858.864	22063
858.997	21956
859.13	22059
859.263	22082
859.396	22291
859.529	21949
859.662	21979
859.795	22067
859.928	22067
860.061	22200
860.194	22261
860.327	22128
860.46	22055
860.592	22249
860.725	22249
860.858	22272
860.99	21964
861.123	22032
861.256	22090
861.388	22078
861.521	22900
861.653	21926
861.786	21907
861.918	21850
862.05	21934
862.183	21884
862.315	22029
862.447	22048
862.58	21934
862.712	21781
862.844	21736
862.976	21861
863.108	21831
863.24	22238
863.372	21705
863.504	21793
863.636	21720
863.768	21751
863.9	21781
864.032	21644
864.164	21671
864.296	21812
864.428	21964
864.559	21873
864.691	21895
864.823	21785
864.954	21717
865.086	21755
865.217	21739
865.349	21618
865.48	21743
865.612	21675
865.743	21743
865.875	21800
866.006	21675
866.137	21660
866.269	21701
866.4	21656
866.531	21618
866.662	21526
866.793	21515
866.924	21622
867.055	21690
867.186	21583
867.317	21568
867.448	21504
867.579	21625
867.71	21545
867.841	21557
867.972	21572
868.103	21504
868.233	21755
868.364	21633
868.495	21622
868.625	21804
868.756	22048
868.886	21724
869.017	21838
869.147	21991
869.278	21808
869.408	21865
869.539	21846
869.669	21876
869.799	21819
869.929	21972
870.06	22010
870.19	22215
870.32	22135
870.45	22219
870.58	22177
870.71	22363
870.84	22261
870.97	22249
871.1	22181
871.23	22409
871.36	22523
871.489	22318
871.619	22436
871.749	22341
871.879	22500
872.008	22466
872.138	22219
872.267	22493
872.397	22390
872.526	22265
872.656	22272
872.785	22303
872.915	22447
873.044	22531
873.173	22462
873.303	22580
873.432	22508
873.561	22645
873.69	22379
873.819	22432
873.948	22519
874.077	22481
874.206	22371
874.335	22322
874.464	22653
874.593	22698
874.722	22603
874.851	22653
874.979	22649
875.108	22626
875.237	22702
875.365	22577
875.494	22725
875.623	22744
875.751	22615
875.88	22573
876.008	22733
876.136	22843
876.265	23075
876.393	23170
876.521	23086
876.65	23071
876.778	23109
876.906	22938
877.034	22908
877.162	23014
877.29	22949
877.418	22961
877.546	22968
877.674	22896
877.802	22961
877.93	22881
878.058	22904
878.185	22782
878.313	22987
878.441	22900
878.568	22755
878.696	22957
878.824	23010
878.951	23109
879.079	23178
879.206	23265
879.333	23117
879.461	22957
879.588	23083
879.715	23128
879.842	23166
879.97	23117
880.097	22812
880.224	22877
880.351	22835
880.478	22812
880.605	22793
880.732	22691
880.859	23018
880.986	22889
881.112	22816
881.239	22634
881.366	22504
881.493	22443
881.619	22409
881.746	22455
881.872	22348
881.999	22318
882.125	22261
882.252	22375
882.378	22352
882.505	22459
882.631	22280
882.757	22082
882.883	22131
883.01	22078
883.136	22070
883.262	21991
883.388	21880
883.514	22017
883.64	22093
883.766	21975
883.892	21968
884.018	21835
884.143	22059
884.269	22105
884.395	21793
884.52	21648
884.646	21724
884.772	21736
884.897	21545
885.023	21781
885.148	21660
885.274	21869
885.399	21785
885.524	21755
885.65	21686
885.775	21675
885.9	21629
886.025	21789
886.15	21831
886.275	21576
886.4	21561
886.525	21732
886.65	21595
886.775	21679
886.9	21701
887.025	21793
887.149	21656
887.274	21492
887.399	21504
887.523	21530
887.648	21382
887.773	21378
887.897	21481
888.021	21538
888.146	21310
888.27	21496
888.395	21530
888.519	21542
888.643	21462
888.767	21504
888.891	21237
889.015	21207
889.139	21332
889.263	21218
889.387	21363
889.511	21458
889.635	21397
889.759	21108
889.883	21230
890.006	21420
890.13	21412
890.254	21150
890.377	21207
890.501	21093
890.624	20967
890.748	21047
890.871	20990
890.995	20754
891.118	20697
891.241	20765
891.364	20807
891.488	20990
891.611	20941
891.734	20864
891.857	20826
891.98	20887
892.103	20834
892.226	20807
892.349	20613
892.471	20663
892.594	20686
892.717	20834
892.839	20590
892.962	20518
893.085	20826
893.207	20705
893.33	20629
893.452	20621
893.575	20792
893.697	20720
893.819	20834
893.941	20815
894.064	20975
894.186	20655
894.308	20560
894.43	20716
894.552	20857
894.674	20769
894.796	20518
894.918	20602
895.04	20659
895.161	20731
895.283	20720
895.405	20686
895.526	20735
895.648	20667
895.769	20750
895.891	20651
896.012	20697
896.134	20697
896.255	20629
896.376	20678
896.498	20758
896.619	20674
896.74	20636
896.861	20708
896.982	21085
897.103	21150
897.224	20986
897.345	20948
897.466	20998
897.587	20895
897.708	20838
897.828	21032
897.949	20823
898.07	20720
898.19	20804
898.311	20941
898.431	20826
898.552	20826
898.672	21005
898.792	20925
898.913	20872
899.033	20762
899.153	20655
899.273	20552
899.393	20651
899.513	20640
899.633	20663
899.753	20579
899.873	20636
899.993	20655
900.113	20674
900.232	20579
900.352	20465
900.472	20381
900.591	20324
900.711	20427
900.83	20339
900.95	20454
901.069	20499
901.189	20183
901.308	19989
901.427	19906
901.546	20039
901.665	19993
901.784	19883
901.904	19769
902.023	19772
902.141	19559
902.26	19540
902.379	19582
902.498	19411
902.617	19487
902.735	19525
902.854	19434
902.973	19206
903.091	19221
903.21	19107
903.328	19107
903.446	19031
903.565	18825
903.683	18897
903.801	18871
903.919	18867
904.038	18817
904.156	18741
904.274	18817
904.392	18665
904.51	18696
904.627	18730
904.745	18604
904.863	18688
904.981	18650
905.098	18353
905.216	18502
905.334	18338
905.451	18445
905.569	18403
905.686	18483
905.803	18369
905.921	18205
906.038	18235
906.155	18174
906.272	18026
906.389	17999
906.506	17984
906.623	17855
906.74	17897
906.857	17764
906.974	17817
907.091	17840
907.208	17973
907.324	17912
907.441	17760
907.557	17691
907.674	17638
907.79	17482
907.907	17653
908.023	17608
908.139	17661
908.256	17478
908.372	17611
908.488	17410
908.604	17334
908.72	17242
908.836	17379
908.952	17303
909.068	17334
909.184	17452
909.3	17376
909.415	17379
909.531	17330
909.647	17064
909.762	17010
909.878	16995
909.993	17071
910.108	17006
910.224	17010
910.339	17159
910.454	17037
910.57	16892
910.685	16786
910.8	16976
910.915	16957
911.03	16820
911.145	16748
911.259	16721
911.374	16561
911.489	16603
911.604	16462
911.718	16291
911.833	16284
911.947	16253
912.062	16131
912.176	16295
912.291	16363
912.405	16386
912.519	16485
912.633	16493
912.748	16306
912.862	16272
912.976	16166
913.09	16010
913.204	16067
913.318	16162
913.431	16200
913.545	16215
913.659	16154
913.772	16063
913.886	15972
914	15994
914.113	16036
914.226	16147
914.34	16032
914.453	15850
914.566	16017
914.68	15857
914.793	15808
914.906	15614
915.019	15538
915.132	15485
915.245	15584
915.358	15618
915.47	15618
915.583	15492
915.696	15515
915.809	15622
915.921	15610
916.034	15420
916.146	15523
916.259	15389
916.371	15515
916.483	15458
916.595	15325
916.708	15363
916.82	15340
916.932	15348
917.044	15382
917.156	15374
917.268	15116
917.38	15321
917.491	15089
917.603	15119
917.715	15298
917.826	15291
917.938	15165
918.049	15055
918.161	15188
918.272	15291
918.384	15298
918.495	15104
918.606	15005
918.717	14948
918.828	15005
918.939	14849
919.05	14830
919.161	14933
919.272	14781
919.383	14746
919.494	14895
919.604	15169
919.715	14899
919.826	14815
919.936	14819
920.047	14971
920.157	14921
920.267	15097
920.378	14876
920.488	14880
920.598	15036
920.708	15173
920.818	15055
920.928	15032
921.038	15165
921.148	15074
921.258	14739
921.368	14792
921.477	14610
921.587	14655
921.697	14499
921.806	14613
921.916	14492
922.025	14286
922.134	14374
922.244	14267
922.353	14240
922.462	14123
922.571	14138
922.68	13875
922.789	13761
922.898	13902
923.007	13944
923.116	13871
923.224	13841
923.333	13849
923.442	13704
923.55	13769
923.659	13757
923.767	13814
923.876	13666
923.984	13826
924.092	13609
924.201	13651
924.309	13662
924.417	13613
924.525	13537
924.633	13537
924.741	14518
924.849	13434
924.956	13495
925.064	13324
925.172	13187
925.279	13335
925.387	13270
925.494	13255
925.602	13388
925.709	13362
925.816	13236
925.924	13187
926.031	13304
926.138	13240
926.245	13266
926.352	13145
926.459	13358
926.566	13270
926.673	13179
926.779	13072
926.886	13053
926.993	12905
927.099	12852
927.206	12817
927.312	12681
927.419	12970
927.525	12837
927.631	12806
927.737	12722
927.843	12608
927.95	12608
928.056	12623
928.162	12642
928.267	12779
928.373	13190
928.479	12779
928.585	12536
928.69	12635
928.796	12544
928.901	12498
929.007	12407
929.112	12410
929.218	12506
929.323	12475
929.428	12327
929.533	12479
929.638	12372
929.743	12342
929.848	12437
929.953	12300
930.058	12311
930.163	12064
930.267	12083
930.372	12254
930.477	12045
930.581	12201
930.685	12129
930.79	11916
930.894	12026
930.998	11897
931.103	12045
931.207	11726
931.311	11649
931.415	11463
931.519	11330
931.623	11303
