Data from test_V78500241_870.txt Node
Date: Fri Mar 25 15:15:54 CST 2022
User: usil
Spectrometer: V785-0024
Trigger mode: 0
Integration Time (sec): 4.000000E-1
Scans to average: 1
Nonlinearity correction enabled: false
Boxcar width: 0
Storing dark spectrum: false
XAxis mode: Wavelengths
Number of Pixels in Spectrum: 1024
>>>>>Begin Spectral Data<<<<<
801.071	28230
801.214	28154
801.356	28002
801.499	27846
801.641	27819
801.783	27698
801.926	27918
802.068	27785
802.211	27705
802.353	27618
802.496	27504
802.638	27496
802.78	27374
802.923	27378
803.065	27488
803.208	27386
803.35	27473
803.492	27507
803.635	27656
803.777	27534
803.919	27690
804.061	27785
804.204	27671
804.346	27576
804.488	27526
804.63	27633
804.773	27462
804.915	27675
805.057	27732
805.199	27701
805.341	27751
805.483	27736
805.626	27907
805.768	27781
805.91	27667
806.052	27789
806.194	27682
806.336	27934
806.478	27892
806.62	27842
806.762	27903
806.904	28036
807.046	28112
807.188	28116
807.33	28139
807.472	28287
807.614	28051
807.756	28196
807.898	28162
808.04	28105
808.182	28101
808.324	28116
808.465	28200
808.607	28424
808.749	28451
808.891	28573
809.033	28592
809.174	28478
809.316	28440
809.458	28565
809.6	28394
809.741	28603
809.883	28542
810.025	28679
810.166	28820
810.308	28755
810.45	28847
810.591	28550
810.733	28436
810.875	28360
811.016	28379
811.158	28527
811.299	28592
811.441	28516
811.582	28580
811.724	28333
811.865	28455
812.007	28493
812.148	28440
812.29	28462
812.431	28607
812.573	28748
812.714	29018
812.855	29044
812.997	29018
813.138	29391
813.279	29075
813.421	29079
813.562	28984
813.703	28847
813.845	28519
813.986	28382
814.127	28246
814.268	28143
814.41	28143
814.551	28048
814.692	28204
814.833	28177
814.974	28131
815.115	28173
815.256	28032
815.397	28128
815.539	28169
815.68	27979
815.821	28021
815.962	28036
816.103	27888
816.244	27914
816.385	27717
816.526	27739
816.666	27549
816.807	27321
816.948	27549
817.089	27595
817.23	27504
817.371	27492
817.512	27599
817.653	27466
817.793	27363
817.934	27500
818.075	27504
818.216	27595
818.356	27462
818.497	27378
818.638	27169
818.778	27233
818.919	27272
819.06	27344
819.2	27348
819.341	27466
819.481	27351
819.622	27511
819.762	27823
819.903	27774
820.043	27667
820.184	27523
820.324	27511
820.465	27671
820.605	27439
820.746	27572
820.886	27462
821.026	27526
821.167	27625
821.307	27667
821.447	27481
821.588	27500
821.728	27283
821.868	27039
822.008	26971
822.149	27051
822.289	26845
822.429	26640
822.569	26564
822.709	26450
822.849	26393
822.99	26511
823.13	26442
823.27	26453
823.41	26317
823.55	26317
823.69	26206
823.83	26393
823.97	26183
824.11	26073
824.25	26027
824.389	26088
824.529	26183
824.669	26122
824.809	26221
824.949	26221
825.089	26202
825.228	26218
825.368	25974
825.508	25921
825.648	26043
825.787	26039
825.927	26084
826.067	25959
826.206	26096
826.346	26050
826.485	25993
826.625	25993
826.765	26119
826.904	26096
827.044	25742
827.183	25761
827.323	25605
827.462	25875
827.601	25746
827.741	25746
827.88	25807
828.02	25544
828.159	25666
828.298	25727
828.437	25826
828.577	25662
828.716	25871
828.855	25613
828.994	25400
829.134	25453
829.273	25495
829.412	25381
829.551	25312
829.69	25327
829.829	25426
829.968	25495
830.107	25460
830.246	25392
830.385	25350
830.524	25263
830.663	25225
830.802	25080
830.941	25061
831.08	25088
831.219	25145
831.357	25050
831.496	25156
831.635	24970
831.774	24882
831.913	24886
832.051	24878
832.19	24882
832.329	24905
832.467	24696
832.606	24635
832.744	24566
832.883	24734
833.022	24661
833.16	24623
833.299	24700
833.437	24719
833.576	24779
833.714	24810
833.852	24814
833.991	24840
834.129	24768
834.267	24817
834.406	24719
834.544	24726
834.682	24719
834.821	24779
834.959	24894
835.097	24635
835.235	24745
835.373	24802
835.511	24608
835.65	24536
835.788	24654
835.926	24536
836.064	24426
836.202	24338
836.34	24589
836.478	24734
836.615	24661
836.753	24582
836.891	24673
837.029	24707
837.167	24509
837.305	24384
837.443	24407
837.58	24353
837.718	24460
837.856	24452
837.993	24216
838.131	24437
838.269	24232
838.406	24300
838.544	24228
838.681	24209
838.819	23897
838.956	23840
839.094	23996
839.231	23992
839.369	24030
839.506	24353
839.643	24060
839.781	23866
839.918	23741
840.055	23866
840.193	23977
840.33	23729
840.467	23813
840.604	23809
840.742	24022
840.879	23657
841.016	23737
841.153	23764
841.29	23836
841.427	23752
841.564	23764
841.701	23786
841.838	23779
841.975	23680
842.112	23695
842.249	23691
842.385	23463
842.522	23767
842.659	23691
842.796	23566
842.933	23592
843.069	23471
843.206	23474
843.343	23615
843.479	23558
843.616	23497
843.752	23216
843.889	23277
844.025	23425
844.162	23296
844.298	23356
844.435	23178
844.571	23383
844.708	23242
844.844	23372
844.98	23433
845.117	23455
845.253	23330
845.389	23208
845.525	23315
845.661	23181
845.798	23048
845.934	23048
846.07	23006
846.206	23109
846.342	23140
846.478	23018
846.614	22763
846.75	22675
846.886	22835
847.022	22782
847.158	22892
847.294	22763
847.429	22828
847.565	22729
847.701	23037
847.837	22451
847.972	22569
848.108	22729
848.244	22531
848.379	22478
848.515	22386
848.65	22379
848.786	22318
848.921	22386
849.057	22466
849.192	22489
849.328	22485
849.463	22382
849.598	22402
849.734	22253
849.869	22318
850.004	22234
850.14	22109
850.275	22090
850.41	22055
850.545	22124
850.68	22067
850.815	22257
850.95	22158
851.085	22192
851.22	22204
851.355	22135
851.49	22253
851.625	22078
851.76	22143
851.895	22128
852.03	21937
852.165	22177
852.299	22261
852.434	22322
852.569	22219
852.703	22219
852.838	22287
852.973	22325
853.107	22150
853.242	22101
853.376	21956
853.511	21743
853.645	21956
853.78	21953
853.914	22029
854.048	21945
854.183	21983
854.317	22006
854.451	22048
854.585	21892
854.72	22067
854.854	22006
854.988	21956
855.122	21899
855.256	21876
855.39	21979
855.524	21994
855.658	22025
855.792	21907
855.926	21930
856.06	21998
856.194	21945
856.327	21994
856.461	21968
856.595	21972
856.729	21911
856.862	22124
856.996	22017
857.13	21903
857.263	21964
857.397	22074
857.53	21987
857.664	21918
857.797	22105
857.931	21964
858.064	22002
858.197	22070
858.331	21823
858.464	21846
858.597	21873
858.731	21922
858.864	22013
858.997	22002
859.13	21895
859.263	21915
859.396	22120
859.529	21953
859.662	21888
859.795	21812
859.928	21888
860.061	21968
860.194	22124
860.327	21987
860.46	22040
860.592	22128
860.725	22158
860.858	22211
860.99	22036
861.123	21880
861.256	21835
861.388	21918
861.521	22691
861.653	21717
861.786	21846
861.918	21751
862.05	21819
862.183	21759
862.315	21819
862.447	21941
862.58	21873
862.712	21728
862.844	21660
862.976	21686
863.108	21603
863.24	21979
863.372	21545
863.504	21625
863.636	21641
863.768	21701
863.9	21679
864.032	21694
864.164	21534
864.296	21717
864.428	21739
864.559	21785
864.691	21641
864.823	21633
864.954	21633
865.086	21663
865.217	21458
865.349	21500
865.48	21564
865.612	21652
865.743	21682
865.875	21553
866.006	21553
866.137	21435
866.269	21652
866.4	21507
866.531	21477
866.662	21359
866.793	21485
866.924	21424
867.055	21485
867.186	21542
867.317	21382
867.448	21355
867.579	21545
867.71	21416
867.841	21313
867.972	21477
868.103	21450
868.233	21329
868.364	21545
868.495	21447
868.625	21663
868.756	21869
868.886	21709
869.017	21774
869.147	21778
869.278	21766
869.408	21705
869.539	21701
869.669	21682
869.799	21766
869.929	21945
870.06	21831
870.19	22021
870.32	22059
870.45	22070
870.58	22097
870.71	22211
870.84	22150
870.97	22029
871.1	22116
871.23	22268
871.36	22284
871.489	22135
871.619	22246
871.749	22276
871.879	22265
872.008	22436
872.138	22356
872.267	22299
872.397	22265
872.526	22105
872.656	22169
872.785	22101
872.915	22234
873.044	22424
873.173	22295
873.303	22424
873.432	22352
873.561	22489
873.69	22295
873.819	22306
873.948	22443
874.077	22337
874.206	22219
874.335	22284
874.464	22363
874.593	22443
874.722	22504
874.851	22455
874.979	22599
875.108	22618
875.237	22390
875.365	22432
875.494	22497
875.623	22500
875.751	22417
875.88	22561
876.008	22710
876.136	22809
876.265	22828
876.393	23067
876.521	23052
876.65	22927
876.778	22908
876.906	22835
877.034	22809
877.162	22869
877.29	22839
877.418	22999
877.546	22862
877.674	22854
877.802	22927
877.93	22816
878.058	22805
878.185	22820
878.313	22713
878.441	22824
878.568	22550
878.696	22839
878.824	22877
878.951	22896
879.079	23083
879.206	23174
879.333	23014
879.461	22953
879.588	22949
879.715	23064
879.842	23197
879.97	22968
880.097	22649
880.224	22675
880.351	22797
880.478	22622
880.605	22679
880.732	22805
880.859	22965
880.986	22683
881.112	22649
881.239	22508
881.366	22504
881.493	22306
881.619	22280
881.746	22375
881.872	22436
881.999	22158
882.125	22139
882.252	22158
882.378	22166
882.505	22382
882.631	22070
882.757	22086
882.883	21956
883.01	21911
883.136	21937
883.262	21892
883.388	21804
883.514	21972
883.64	22055
883.766	21835
883.892	21838
884.018	21656
884.143	21770
884.269	22021
884.395	21671
884.52	21504
884.646	21576
884.772	21481
884.897	21424
885.023	21553
885.148	21663
885.274	21675
885.399	21698
885.524	21519
885.65	21690
885.775	21660
885.9	21625
886.025	21652
886.15	21667
886.275	21568
886.4	21420
886.525	21507
886.65	21473
886.775	21488
886.9	21618
887.025	21759
887.149	21477
887.274	21401
887.399	21363
887.523	21393
887.648	21321
887.773	21298
887.897	21450
888.021	21439
888.146	21283
888.27	21378
888.395	21351
888.519	21332
888.643	21386
888.767	21332
888.891	21321
889.015	21199
889.139	21405
889.263	21058
889.387	21317
889.511	21382
889.635	21264
889.759	21131
889.883	21116
890.006	21154
890.13	21264
890.254	21009
890.377	21165
890.501	20990
890.624	20861
890.748	20986
890.871	20750
890.995	20743
891.118	20758
891.241	20701
891.364	20708
891.488	20834
891.611	20724
891.734	20758
891.857	20781
891.98	20746
892.103	20853
892.226	20693
892.349	20686
892.471	20461
892.594	20632
892.717	20575
892.839	20727
892.962	20549
893.085	20651
893.207	20560
893.33	20442
893.452	20511
893.575	20686
893.697	20609
893.819	20731
893.941	20708
894.064	20731
894.186	20488
894.308	20530
894.43	20537
894.552	20689
894.674	20617
894.796	20594
894.918	20613
895.04	20549
895.161	20659
895.283	20583
895.405	20476
895.526	20670
895.648	20514
895.769	20590
895.891	20625
896.012	20594
896.134	20632
896.255	20511
896.376	20606
896.498	20457
896.619	20594
896.74	20598
896.861	20511
896.982	20826
897.103	21093
897.224	20864
897.345	20743
897.466	20659
897.587	20819
897.708	20941
897.828	20693
897.949	20746
898.07	20552
898.19	20819
898.311	20872
898.431	20769
898.552	20720
898.672	20746
898.792	20819
898.913	20731
899.033	20568
899.153	20663
899.273	20571
899.393	20511
899.513	20514
899.633	20503
899.753	20636
899.873	20454
899.993	20499
900.113	20370
900.232	20480
900.352	20389
900.472	20374
900.591	20263
900.711	20294
900.83	20149
900.95	20366
901.069	20240
901.189	20210
901.308	19940
901.427	19963
901.546	19890
901.665	19868
901.784	19849
901.904	19700
902.023	19689
902.141	19472
902.26	19506
902.379	19495
902.498	19396
902.617	19426
902.735	19327
902.854	19365
902.973	19411
903.091	19168
903.21	19053
903.328	19107
903.446	19126
903.565	18817
903.683	18909
903.801	18726
903.919	18829
904.038	18814
904.156	18658
904.274	18711
904.392	18639
904.51	18601
904.627	18616
904.745	18684
904.863	18593
904.981	18353
905.098	18266
905.216	18350
905.334	18372
905.451	18281
905.569	18190
905.686	18262
905.803	18308
905.921	18030
906.038	18174
906.155	18091
906.272	18015
906.389	18003
906.506	17904
906.623	17843
906.74	17859
906.857	17726
906.974	17707
907.091	17832
907.208	18030
907.324	17824
907.441	17680
907.557	17630
907.674	17509
907.79	17425
907.907	17520
908.023	17478
908.139	17509
908.256	17486
908.372	17429
908.488	17391
908.604	17208
908.72	17212
908.836	17280
908.952	17113
909.068	17345
909.184	17311
909.3	17181
909.415	17223
909.531	17197
909.647	17075
909.762	16995
909.878	16949
909.993	16976
910.108	16877
910.224	16866
910.339	16968
910.454	16820
910.57	16744
910.685	16698
910.8	16961
910.915	16866
911.03	16721
911.145	16622
911.259	16500
911.374	16569
911.489	16531
911.604	16390
911.718	16246
911.833	16276
911.947	16074
912.062	16135
912.176	16295
912.291	16188
912.405	16261
912.519	16417
912.633	16402
912.748	16363
912.862	16303
912.976	16185
913.09	15861
913.204	16090
913.318	16109
913.431	16105
913.545	16158
913.659	16226
913.772	15964
913.886	15949
914	15907
914.113	15888
914.226	16090
914.34	15983
914.453	15816
914.566	15892
914.68	15751
914.793	15785
914.906	15488
915.019	15534
915.132	15408
915.245	15488
915.358	15572
915.47	15530
915.583	15424
915.696	15374
915.809	15629
915.921	15587
916.034	15374
916.146	15401
916.259	15450
916.371	15374
916.483	15386
916.595	15382
916.708	15294
916.82	15195
916.932	15302
917.044	15195
917.156	15195
917.268	15150
917.38	15123
917.491	15131
917.603	15176
917.715	15135
917.826	15226
917.938	15009
918.049	14944
918.161	15070
918.272	15237
918.384	15100
918.495	15051
918.606	14895
918.717	14842
918.828	14792
918.939	14895
919.05	14777
919.161	14937
919.272	14739
919.383	14632
919.494	14933
919.604	15097
919.715	14895
919.826	14804
919.936	14864
920.047	14834
920.157	14762
920.267	15047
920.378	14834
920.488	14872
920.598	14899
920.708	15005
920.818	14868
920.928	14979
921.038	15097
921.148	15047
921.258	14746
921.368	14682
921.477	14549
921.587	14575
921.697	14450
921.806	14549
921.916	14385
922.025	14294
922.134	14176
922.244	14130
922.353	14233
922.462	14084
922.571	13951
922.68	13860
922.789	13860
922.898	13879
923.007	13708
923.116	13837
923.224	13780
923.333	13845
923.442	13616
923.55	13594
923.659	13693
923.767	13712
923.876	13658
923.984	13719
924.092	13597
924.201	13575
924.309	13464
924.417	13548
924.525	13491
924.633	13422
924.741	14180
924.849	13259
924.956	13396
925.064	13240
925.172	13270
925.279	13225
925.387	13278
925.494	13225
925.602	13362
925.709	13293
925.816	13133
925.924	13137
926.031	13209
926.138	13118
926.245	13141
926.352	13103
926.459	13141
926.566	13099
926.673	13031
926.779	13061
926.886	13008
926.993	12825
927.099	12859
927.206	12745
927.312	12711
927.419	12829
927.525	12768
927.631	12829
927.737	12734
927.843	12582
927.95	12563
928.056	12620
928.162	12559
928.267	12635
928.373	13160
928.479	12608
928.585	12467
928.69	12544
928.796	12589
928.901	12308
929.007	12365
929.112	12513
929.218	12334
929.323	12353
929.428	12311
929.533	12555
929.638	12270
929.743	12346
929.848	12323
929.953	12220
930.058	12087
930.163	12015
930.267	12011
930.372	12205
930.477	11946
930.581	12182
930.685	12072
930.79	11931
930.894	11866
930.998	11931
931.103	12003
931.207	11573
931.311	11600
931.415	11425
931.519	11246
931.623	11239
