Data from test_V78500241_3335.txt Node
Date: Fri Mar 25 15:33:05 CST 2022
User: usil
Spectrometer: V785-0024
Trigger mode: 0
Integration Time (sec): 4.000000E-1
Scans to average: 1
Nonlinearity correction enabled: false
Boxcar width: 0
Storing dark spectrum: false
XAxis mode: Wavelengths
Number of Pixels in Spectrum: 1024
>>>>>Begin Spectral Data<<<<<
801.071	27207
801.214	27077
801.356	26963
801.499	26887
801.641	26765
801.783	26773
801.926	26948
802.068	26819
802.211	26758
802.353	26564
802.496	26446
802.638	26305
802.78	26457
802.923	26347
803.065	26294
803.208	26244
803.35	26419
803.492	26511
803.635	26625
803.777	26434
803.919	26648
804.061	26914
804.204	26678
804.346	26526
804.488	26461
804.63	26594
804.773	26530
804.915	26545
805.057	26701
805.199	26556
805.341	26575
805.483	26590
805.626	26621
805.768	26670
805.91	26667
806.052	26644
806.194	26648
806.336	26800
806.478	26625
806.62	26697
806.762	26769
806.904	26956
807.046	27108
807.188	27096
807.33	27131
807.472	27222
807.614	27017
807.756	27036
807.898	26944
808.04	26743
808.182	26895
808.324	26925
808.465	27009
808.607	27142
808.749	27291
808.891	27321
809.033	27359
809.174	27344
809.316	27264
809.458	27298
809.6	27241
809.741	27401
809.883	27363
810.025	27595
810.166	27549
810.308	27622
810.45	27488
810.591	27545
810.733	27340
810.875	27321
811.016	27298
811.158	27211
811.299	27374
811.441	27481
811.582	27332
811.724	27176
811.865	27245
812.007	27237
812.148	27203
812.29	27378
812.431	27427
812.573	27492
812.714	27595
812.855	27743
812.997	27857
813.138	28032
813.279	27903
813.421	27800
813.562	27713
813.703	27542
813.845	27511
813.986	27058
814.127	27043
814.268	27005
814.41	26994
814.551	26990
814.692	26933
814.833	26796
814.974	26804
815.115	26830
815.256	26746
815.397	26739
815.539	26830
815.68	26655
815.821	26552
815.962	26697
816.103	26590
816.244	26587
816.385	26488
816.526	26537
816.666	26298
816.807	25997
816.948	26240
817.089	26244
817.23	26282
817.371	25982
817.512	26176
817.653	26157
817.793	26130
817.934	26172
818.075	26088
818.216	26122
818.356	26107
818.497	26069
818.638	25772
818.778	25830
818.919	26065
819.06	25974
819.2	25982
819.341	26225
819.481	26138
819.622	26374
819.762	26552
819.903	26381
820.043	26442
820.184	26278
820.324	26263
820.465	26419
820.605	26275
820.746	26237
820.886	26088
821.026	26252
821.167	26168
821.307	26374
821.447	26058
821.588	26084
821.728	25993
821.868	25685
822.008	25601
822.149	25655
822.289	25537
822.429	25339
822.569	25343
822.709	25316
822.849	25198
822.99	25133
823.13	25031
823.27	25099
823.41	24920
823.55	24928
823.69	24989
823.83	24932
823.97	24852
824.11	24745
824.25	24730
824.389	24890
824.529	24844
824.669	24802
824.809	24875
824.949	24848
825.089	24867
825.228	24802
825.368	24547
825.508	24627
825.648	24616
825.787	24711
825.927	24631
826.067	24677
826.206	24601
826.346	24817
826.485	24627
826.625	24658
826.765	24806
826.904	24532
827.044	24448
827.183	24422
827.323	24304
827.462	24407
827.601	24277
827.741	24353
827.88	24361
828.02	24262
828.159	24209
828.298	24300
828.437	24433
828.577	24353
828.716	24418
828.855	24220
828.994	24041
829.134	24083
829.273	24076
829.412	24057
829.551	24011
829.69	24060
829.829	24102
829.968	24182
830.107	24091
830.246	24064
830.385	24064
830.524	24007
830.663	23916
830.802	23851
830.941	23684
831.08	23680
831.219	23798
831.357	23859
831.496	23866
831.635	23676
831.774	23600
831.913	23512
832.051	23512
832.19	23383
832.329	23486
832.467	23448
832.606	23345
832.744	23292
832.883	23334
833.022	23448
833.16	23501
833.299	23433
833.437	23467
833.576	23478
833.714	23414
833.852	23467
833.991	23634
834.129	23455
834.267	23535
834.406	23505
834.544	23440
834.682	23433
834.821	23459
834.959	23585
835.097	23277
835.235	23410
835.373	23630
835.511	23497
835.65	23334
835.788	23250
835.926	23109
836.064	23052
836.202	23090
836.34	23280
836.478	23398
836.615	23303
836.753	23280
836.891	23261
837.029	23269
837.167	23235
837.305	23227
837.443	23147
837.58	23067
837.718	23239
837.856	23132
837.993	23056
838.131	23189
838.269	22942
838.406	23185
838.544	22915
838.681	22721
838.819	22790
838.956	22557
839.094	22599
839.231	22649
839.369	22847
839.506	22972
839.643	22873
839.781	22687
839.918	22653
840.055	22554
840.193	22538
840.33	22615
840.467	22656
840.604	22531
840.742	22748
840.879	22386
841.016	22500
841.153	22443
841.29	22641
841.427	22417
841.564	22508
841.701	22493
841.838	22424
841.975	22493
842.112	22470
842.249	22417
842.385	22436
842.522	22535
842.659	22344
842.796	22272
842.933	22333
843.069	22253
843.206	22200
843.343	22325
843.479	22303
843.616	22226
843.752	22029
843.889	22105
844.025	22207
844.162	22169
844.298	22166
844.435	22150
844.571	21979
844.708	22257
844.844	22185
844.98	22249
845.117	22185
845.253	22010
845.389	22101
845.525	21911
845.661	21937
845.798	21804
845.934	21922
846.07	21766
846.206	21892
846.342	22013
846.478	21819
846.614	21591
846.75	21549
846.886	21526
847.022	21648
847.158	21675
847.294	21656
847.429	21622
847.565	21542
847.701	21656
847.837	21298
847.972	21241
848.108	21359
848.244	21378
848.379	21165
848.515	21127
848.65	21211
848.786	21207
848.921	21211
849.057	21313
849.192	21226
849.328	21142
849.463	21154
849.598	21150
849.734	21112
849.869	20994
850.004	20895
850.14	20929
850.275	20975
850.41	20902
850.545	20929
850.68	20807
850.815	20883
850.95	20918
851.085	21127
851.22	20979
851.355	20899
851.49	20944
851.625	20937
851.76	20918
851.895	20853
852.03	20876
852.165	20842
852.299	20967
852.434	21051
852.569	20925
852.703	20796
852.838	20986
852.973	21116
853.107	20952
853.242	20777
853.376	20811
853.511	20602
853.645	20861
853.78	20853
853.914	20640
854.048	20674
854.183	20621
854.317	20792
854.451	20895
854.585	20674
854.72	20667
854.854	20826
854.988	20655
855.122	20735
855.256	20564
855.39	20743
855.524	20899
855.658	20800
855.792	20777
855.926	20815
856.06	20754
856.194	20823
856.327	20724
856.461	20758
856.595	20792
856.729	20743
856.862	20868
856.996	20788
857.13	20785
857.263	20853
857.397	20834
857.53	20804
857.664	20819
857.797	20861
857.931	20823
858.064	20883
858.197	20762
858.331	20883
858.464	20712
858.597	20670
858.731	20689
858.864	20590
858.997	20906
859.13	20712
859.263	20651
859.396	20906
859.529	20724
859.662	20667
859.795	20579
859.928	20708
860.061	20750
860.194	20933
860.327	20765
860.46	20682
860.592	20823
860.725	20876
860.858	20891
860.99	20769
861.123	20651
861.256	20746
861.388	20739
861.521	21431
861.653	20503
861.786	20541
861.918	20636
862.05	20549
862.183	20701
862.315	20655
862.447	20849
862.58	20575
862.712	20484
862.844	20320
862.976	20469
863.108	20469
863.24	21009
863.372	20404
863.504	20434
863.636	20461
863.768	20488
863.9	20545
864.032	20446
864.164	20465
864.296	20396
864.428	20602
864.559	20469
864.691	20583
864.823	20499
864.954	20499
865.086	20412
865.217	20324
865.349	20294
865.48	20309
865.612	20358
865.743	20484
865.875	20476
866.006	20355
866.137	20419
866.269	20347
866.4	20339
866.531	20328
866.662	20301
866.793	20233
866.924	20328
867.055	20385
867.186	20347
867.317	20336
867.448	20180
867.579	20187
867.71	20267
867.841	20294
867.972	20275
868.103	20320
868.233	20362
868.364	20396
868.495	20457
868.625	20530
868.756	20674
868.886	20488
869.017	20579
869.147	20590
869.278	20598
869.408	20575
869.539	20552
869.669	20697
869.799	20659
869.929	20758
870.06	20594
870.19	20891
870.32	20819
870.45	20842
870.58	20952
870.71	21032
870.84	21081
870.97	21047
871.1	20868
871.23	21199
871.36	21119
871.489	21074
871.619	21119
871.749	21093
871.879	21218
872.008	21283
872.138	21230
872.267	21150
872.397	21180
872.526	21096
872.656	21108
872.785	20925
872.915	21218
873.044	21291
873.173	21192
873.303	21222
873.432	21188
873.561	21214
873.69	21252
873.819	21252
873.948	21359
874.077	21218
874.206	21138
874.335	21249
874.464	21291
874.593	21359
874.722	21329
874.851	21424
874.979	21443
875.108	21401
875.237	21386
875.365	21340
875.494	21473
875.623	21439
875.751	21389
875.88	21485
876.008	21538
876.136	21701
876.265	21789
876.393	21945
876.521	21934
876.65	21823
876.778	21789
876.906	21831
877.034	21838
877.162	21819
877.29	21701
877.418	21808
877.546	21785
877.674	21743
877.802	21690
877.93	21865
878.058	21774
878.185	21641
878.313	21713
878.441	21759
878.568	21625
878.696	21838
878.824	21739
878.951	21880
879.079	21922
879.206	21941
879.333	21850
879.461	21888
879.588	21869
879.715	21842
879.842	22067
879.97	21804
880.097	21618
880.224	21618
880.351	21625
880.478	21671
880.605	21496
880.732	21530
880.859	21679
880.986	21671
881.112	21755
881.239	21515
881.366	21401
881.493	21405
881.619	21154
881.746	21173
881.872	21131
881.999	21260
882.125	20994
882.252	21214
882.378	21135
882.505	21218
882.631	21005
882.757	20868
882.883	21036
883.01	20876
883.136	20769
883.262	20777
883.388	20705
883.514	21005
883.64	20956
883.766	20769
883.892	20712
884.018	20682
884.143	20861
884.269	20880
884.395	20678
884.52	20648
884.646	20526
884.772	20560
884.897	20343
885.023	20541
885.148	20651
885.274	20670
885.399	20648
885.524	20431
885.65	20469
885.775	20469
885.9	20594
886.025	20686
886.15	20587
886.275	20522
886.4	20332
886.525	20507
886.65	20454
886.775	20434
886.9	20590
887.025	20705
887.149	20613
887.274	20396
887.399	20328
887.523	20225
887.648	20157
887.773	20282
887.897	20343
888.021	20301
888.146	20259
888.27	20454
888.395	20290
888.519	20256
888.643	20347
888.767	20343
888.891	20263
889.015	20092
889.139	20199
889.263	20111
889.387	20187
889.511	20442
889.635	20202
889.759	20050
889.883	20081
890.006	20142
890.13	20252
890.254	19997
890.377	20119
890.501	19947
890.624	19788
890.748	19963
890.871	19753
890.995	19852
891.118	19647
891.241	19708
891.364	19788
891.488	19776
891.611	19757
891.734	19708
891.857	19757
891.98	19647
892.103	19761
892.226	19662
892.349	19708
892.471	19556
892.594	19544
892.717	19731
892.839	19594
892.962	19597
893.085	19677
893.207	19586
893.33	19495
893.452	19578
893.575	19628
893.697	19628
893.819	19875
893.941	19883
894.064	19791
894.186	19647
894.308	19571
894.43	19700
894.552	19791
894.674	19693
894.796	19529
894.918	19590
895.04	19647
895.161	19765
895.283	19635
895.405	19533
895.526	19624
895.648	19628
895.769	19616
895.891	19670
896.012	19620
896.134	19700
896.255	19582
896.376	19540
896.498	19632
896.619	19616
896.74	19616
896.861	19613
896.982	19967
897.103	20122
897.224	19917
897.345	19769
897.466	19928
897.587	19746
897.708	19951
897.828	19864
897.949	19784
898.07	19803
898.19	19624
898.311	19864
898.431	19814
898.552	19841
898.672	19807
898.792	19871
898.913	19753
899.033	19632
899.153	19685
899.273	19468
899.393	19575
899.513	19590
899.633	19502
899.753	19559
899.873	19567
899.993	19582
900.113	19658
900.232	19537
900.352	19457
900.472	19476
900.591	19266
900.711	19445
900.83	19316
900.95	19438
901.069	19434
901.189	19263
901.308	18954
901.427	18996
901.546	18966
901.665	19023
901.784	18947
901.904	18821
902.023	18829
902.141	18544
902.26	18490
902.379	18532
902.498	18467
902.617	18452
902.735	18578
902.854	18429
902.973	18357
903.091	18125
903.21	18224
903.328	18194
903.446	18053
903.565	17992
903.683	17935
903.801	17817
903.919	17920
904.038	17939
904.156	17722
904.274	17821
904.392	17756
904.51	17726
904.627	17779
904.745	17729
904.863	17779
904.981	17543
905.098	17379
905.216	17326
905.334	17478
905.451	17414
905.569	17398
905.686	17474
905.803	17482
905.921	17178
906.038	17178
906.155	17223
906.272	17162
906.389	17037
906.506	16911
906.623	16976
906.74	16987
906.857	16782
906.974	16850
907.091	16968
907.208	17083
907.324	16991
907.441	16854
907.557	16660
907.674	16691
907.79	16668
907.907	16702
908.023	16698
908.139	16702
908.256	16687
908.372	16573
908.488	16634
908.604	16443
908.72	16409
908.836	16390
908.952	16432
909.068	16356
909.184	16459
909.3	16402
909.415	16497
909.531	16398
909.647	16154
909.762	16078
909.878	16139
909.993	16090
910.108	16177
910.224	16078
910.339	15991
910.454	15964
910.57	15930
910.685	15884
910.8	16025
910.915	15918
911.03	15983
911.145	15698
911.259	15743
911.374	15717
911.489	15644
911.604	15549
911.718	15458
911.833	15477
911.947	15359
912.062	15378
912.176	15477
912.291	15492
912.405	15420
912.519	15739
912.633	15606
912.748	15542
912.862	15443
912.976	15336
913.09	15081
913.204	15180
913.318	15226
913.431	15397
913.545	15359
913.659	15378
913.772	15195
913.886	15203
914	15062
914.113	15184
914.226	15226
914.34	15169
914.453	15036
914.566	15119
914.68	15005
914.793	14960
914.906	14800
915.019	14708
915.132	14678
915.245	14663
915.358	14716
915.47	14800
915.583	14701
915.696	14788
915.809	14765
915.921	14914
916.034	14632
916.146	14636
916.259	14583
916.371	14750
916.483	14632
916.595	14625
916.708	14648
916.82	14587
916.932	14499
917.044	14575
917.156	14446
917.268	14415
917.38	14408
917.491	14282
917.603	14339
917.715	14537
917.826	14347
917.938	14259
918.049	14252
918.161	14343
918.272	14454
918.384	14419
918.495	14339
918.606	14259
918.717	14008
918.828	14172
918.939	14130
919.05	14107
919.161	14119
919.272	14058
919.383	14046
919.494	14229
919.604	14362
919.715	14115
919.826	13970
919.936	14069
920.047	14187
920.157	14092
920.267	14385
920.378	14180
920.488	14088
920.598	14301
920.708	14328
920.818	14282
920.928	14286
921.038	14412
921.148	14336
921.258	14031
921.368	13906
921.477	13875
921.587	13830
921.697	13746
921.806	13868
921.916	13666
922.025	13556
922.134	13476
922.244	13499
922.353	13567
922.462	13354
922.571	13343
922.68	13198
922.789	13133
922.898	13050
923.007	13103
923.116	13175
923.224	13114
923.333	13057
923.442	13015
923.55	13042
923.659	12970
923.767	13046
923.876	13012
923.984	13008
924.092	12871
924.201	12932
924.309	12947
924.417	12897
924.525	12840
924.633	12798
924.741	13712
924.849	12662
924.956	12764
925.064	12639
925.172	12555
925.279	12551
925.387	12673
925.494	12627
925.602	12639
925.709	12681
925.816	12471
925.924	12612
926.031	12506
926.138	12540
926.245	12559
926.352	12445
926.459	12547
926.566	12585
926.673	12509
926.779	12357
926.886	12270
926.993	12197
927.099	12178
927.206	12117
927.312	12072
927.419	12239
927.525	12152
927.631	12235
927.737	12083
927.843	12045
927.95	11927
928.056	12072
928.162	11874
928.267	12026
928.373	12582
928.479	12117
928.585	11874
928.69	11939
928.796	12076
928.901	11878
929.007	11771
929.112	11859
929.218	11771
929.323	11783
929.428	11699
929.533	11821
929.638	11737
929.743	11741
929.848	11779
929.953	11729
930.058	11604
930.163	11379
930.267	11414
930.372	11642
930.477	11395
930.581	11653
930.685	11520
930.79	11353
930.894	11330
930.998	11368
931.103	11471
931.207	11094
931.311	10984
931.415	10923
931.519	10771
931.623	10702
