Data from test_V78500241_1691.txt Node
Date: Fri Mar 25 15:21:37 CST 2022
User: usil
Spectrometer: V785-0024
Trigger mode: 0
Integration Time (sec): 4.000000E-1
Scans to average: 1
Nonlinearity correction enabled: false
Boxcar width: 0
Storing dark spectrum: false
XAxis mode: Wavelengths
Number of Pixels in Spectrum: 1024
>>>>>Begin Spectral Data<<<<<
801.071	28048
801.214	27964
801.356	27835
801.499	27667
801.641	27633
801.783	27534
801.926	27500
802.068	27473
802.211	27515
802.353	27408
802.496	27477
802.638	27176
802.78	27245
802.923	27218
803.065	27226
803.208	27135
803.35	27214
803.492	27348
803.635	27416
803.777	27348
803.919	27443
804.061	27694
804.204	27583
804.346	27332
804.488	27412
804.63	27534
804.773	27431
804.915	27526
805.057	27595
805.199	27408
805.341	27644
805.483	27469
805.626	27614
805.768	27500
805.91	27538
806.052	27568
806.194	27534
806.336	27717
806.478	27557
806.62	27557
806.762	27720
806.904	28021
807.046	28025
807.188	28055
807.33	28158
807.472	27975
807.614	28002
807.756	28010
807.898	27873
808.04	27831
808.182	27850
808.324	27937
808.465	27869
808.607	28204
808.749	28276
808.891	28371
809.033	28436
809.174	28367
809.316	28272
809.458	28166
809.6	28177
809.741	28379
809.883	28455
810.025	28497
810.166	28478
810.308	28554
810.45	28497
810.591	28466
810.733	28234
810.875	28181
811.016	28109
811.158	28116
811.299	28234
811.441	28242
811.582	28481
811.724	28112
811.865	28147
812.007	28367
812.148	28295
812.29	28421
812.431	28390
812.573	28584
812.714	28634
812.855	28904
812.997	28805
813.138	28843
813.279	28877
813.421	28816
813.562	28679
813.703	28478
813.845	28478
813.986	28318
814.127	28063
814.268	28082
814.41	28124
814.551	27892
814.692	28048
814.833	27945
814.974	27922
815.115	27930
815.256	27808
815.397	27869
815.539	27736
815.68	27713
815.821	27827
815.962	27888
816.103	27698
816.244	27576
816.385	27534
816.526	27431
816.666	27355
816.807	27222
816.948	27184
817.089	27416
817.23	27264
817.371	27321
817.512	27226
817.653	27150
817.793	27237
817.934	27108
818.075	27268
818.216	27317
818.356	27150
818.497	27142
818.638	26963
818.778	27081
818.919	27154
819.06	27017
819.2	27207
819.341	27241
819.481	27070
819.622	27511
819.762	27572
819.903	27500
820.043	27325
820.184	27325
820.324	27370
820.465	27405
820.605	27302
820.746	27298
820.886	27241
821.026	27173
821.167	27344
821.307	27283
821.447	27287
821.588	27085
821.728	27104
821.868	26933
822.008	26708
822.149	26712
822.289	26648
822.429	26492
822.569	26393
822.709	26469
822.849	26336
822.99	26233
823.13	26077
823.27	26183
823.41	26081
823.55	26035
823.69	26081
823.83	25982
823.97	25940
824.11	25875
824.25	25814
824.389	25860
824.529	25966
824.669	25959
824.809	26039
824.949	25974
825.089	25936
825.228	25845
825.368	25632
825.508	25727
825.648	25647
825.787	25803
825.927	25788
826.067	25529
826.206	25822
826.346	25860
826.485	25864
826.625	25765
826.765	25803
826.904	25959
827.044	25525
827.183	25514
827.323	25453
827.462	25464
827.601	25278
827.741	25540
827.88	25487
828.02	25441
828.159	25354
828.298	25381
828.437	25392
828.577	25396
828.716	25441
828.855	25400
828.994	25209
829.134	25156
829.273	25266
829.412	25141
829.551	25251
829.69	25278
829.829	25259
829.968	25274
830.107	25266
830.246	25126
830.385	25023
830.524	25050
830.663	25015
830.802	24890
830.941	24768
831.08	24722
831.219	24654
831.357	24760
831.496	25000
831.635	24981
831.774	24677
831.913	24646
832.051	24498
832.19	24658
832.329	24616
832.467	24490
832.606	24327
832.744	24464
832.883	24490
833.022	24475
833.16	24350
833.299	24483
833.437	24490
833.576	24426
833.714	24494
833.852	24650
833.991	24532
834.129	24536
834.267	24601
834.406	24540
834.544	24582
834.682	24559
834.821	24448
834.959	24696
835.097	24475
835.235	24498
835.373	24540
835.511	24570
835.65	24334
835.788	24391
835.926	24270
836.064	24178
836.202	24277
836.34	24308
836.478	24441
836.615	24292
836.753	24376
836.891	24464
837.029	24448
837.167	24201
837.305	24125
837.443	24239
837.58	24228
837.718	24232
837.856	24133
837.993	24171
838.131	24163
838.269	24045
838.406	24125
838.544	24015
838.681	23802
838.819	23756
838.956	23649
839.094	23737
839.231	23695
839.369	23786
839.506	24133
839.643	23927
839.781	23573
839.918	23634
840.055	23634
840.193	23589
840.33	23676
840.467	23634
840.604	23562
840.742	23847
840.879	23284
841.016	23448
841.153	23509
841.29	23596
841.427	23505
841.564	23558
841.701	23524
841.838	23490
841.975	23383
842.112	23539
842.249	23368
842.385	23322
842.522	23657
842.659	23349
842.796	23265
842.933	23395
843.069	23269
843.206	23292
843.343	23299
843.479	23277
843.616	23391
843.752	23060
843.889	23102
844.025	23242
844.162	22957
844.298	23140
844.435	23105
844.571	23075
844.708	23200
844.844	23280
844.98	23117
845.117	23098
845.253	22942
845.389	22908
845.525	23044
845.661	23025
845.798	22763
845.934	22908
846.07	22740
846.206	22881
846.342	22869
846.478	22854
846.614	22668
846.75	22485
846.886	22417
847.022	22660
847.158	22565
847.294	22580
847.429	22565
847.565	22542
847.701	22889
847.837	22234
847.972	22272
848.108	22451
848.244	22352
848.379	22261
848.515	22287
848.65	22124
848.786	22185
848.921	21998
849.057	22367
849.192	22280
849.328	22185
849.463	22166
849.598	22097
849.734	22097
849.869	21907
850.004	21934
850.14	21941
850.275	21941
850.41	21804
850.545	21873
850.68	21873
850.815	21854
850.95	21876
851.085	22067
851.22	21945
851.355	22006
851.49	21941
851.625	21949
851.76	21922
851.895	21785
852.03	21903
852.165	21865
852.299	21857
852.434	22093
852.569	22021
852.703	21934
852.838	21987
852.973	22090
853.107	21960
853.242	21804
853.376	21808
853.511	21622
853.645	21732
853.78	21759
853.914	21717
854.048	21679
854.183	21774
854.317	21759
854.451	21778
854.585	21690
854.72	21838
854.854	21861
854.988	21751
855.122	21819
855.256	21538
855.39	21724
855.524	21690
855.658	21728
855.792	21690
855.926	21800
856.06	21720
856.194	21876
856.327	21724
856.461	21591
856.595	21606
856.729	21793
856.862	21804
856.996	21808
857.13	21842
857.263	21747
857.397	21850
857.53	21709
857.664	21785
857.797	21857
857.931	21846
858.064	21759
858.197	21983
858.331	21743
858.464	21637
858.597	21629
858.731	21732
858.864	21709
858.997	21717
859.13	21724
859.263	21854
859.396	21751
859.529	21690
859.662	21561
859.795	21637
859.928	21660
860.061	21873
860.194	21899
860.327	21785
860.46	21823
860.592	21819
860.725	21827
860.858	21793
860.99	21804
861.123	21663
861.256	21572
861.388	21610
861.521	22508
861.653	21644
861.786	21443
861.918	21583
862.05	21572
862.183	21671
862.315	21690
862.447	21690
862.58	21728
862.712	21572
862.844	21473
862.976	21477
863.108	21386
863.24	21816
863.372	21397
863.504	21500
863.636	21443
863.768	21481
863.9	21424
864.032	21268
864.164	21317
864.296	21496
864.428	21435
864.559	21534
864.691	21583
864.823	21469
864.954	21519
865.086	21378
865.217	21310
865.349	21279
865.48	21329
865.612	21431
865.743	21424
865.875	21313
866.006	21367
866.137	21195
866.269	21237
866.4	21230
866.531	21310
866.662	21283
866.793	21241
866.924	21249
867.055	21306
867.186	21348
867.317	21298
867.448	21157
867.579	21184
867.71	21119
867.841	21180
867.972	21279
868.103	21180
868.233	21283
868.364	21275
868.495	21488
868.625	21504
868.756	21599
868.886	21424
869.017	21473
869.147	21663
869.278	21561
869.408	21507
869.539	21473
869.669	21595
869.799	21561
869.929	21591
870.06	21694
870.19	21759
870.32	21785
870.45	21895
870.58	21975
870.71	22006
870.84	21968
870.97	21743
871.1	21785
871.23	22074
871.36	22067
871.489	22059
871.619	22055
871.749	22032
871.879	22211
872.008	22192
872.138	22055
872.267	22135
872.397	22051
872.526	21960
872.656	22097
872.785	21854
872.915	22158
873.044	22124
873.173	22105
873.303	22166
873.432	22211
873.561	22223
873.69	22158
873.819	22158
873.948	22112
874.077	22006
874.206	22048
874.335	22048
874.464	22192
874.593	22344
874.722	22295
874.851	22432
874.979	22375
875.108	22440
875.237	22421
875.365	22230
875.494	22325
875.623	22386
875.751	22238
875.88	22394
876.008	22489
876.136	22569
876.265	22778
876.393	22790
876.521	22805
876.65	22733
876.778	22675
876.906	22577
877.034	22569
877.162	22634
877.29	22656
877.418	22679
877.546	22691
877.674	22752
877.802	22725
877.93	22603
878.058	22702
878.185	22550
878.313	22637
878.441	22736
878.568	22504
878.696	22622
878.824	22611
878.951	22809
879.079	22843
879.206	22965
879.333	22729
879.461	22752
879.588	22702
879.715	22911
879.842	22858
879.97	22736
880.097	22329
880.224	22470
880.351	22554
880.478	22500
880.605	22554
880.732	22542
880.859	22641
880.986	22523
881.112	22588
881.239	22390
881.366	22344
881.493	22318
881.619	22097
881.746	22040
881.872	22025
881.999	22090
882.125	22097
882.252	22010
882.378	22090
882.505	22188
882.631	21937
882.757	21865
882.883	21953
883.01	21892
883.136	21854
883.262	21656
883.388	21625
883.514	21812
883.64	21762
883.766	21641
883.892	21454
884.018	21526
884.143	21720
884.269	21679
884.395	21462
884.52	21416
884.646	21268
884.772	21272
884.897	21233
885.023	21428
885.148	21416
885.274	21458
885.399	21511
885.524	21477
885.65	21447
885.775	21412
885.9	21519
886.025	21447
886.15	21454
886.275	21393
886.4	21260
886.525	21336
886.65	21214
886.775	21374
886.9	21485
887.025	21599
887.149	21218
887.274	21188
887.399	21173
887.523	21203
887.648	21138
887.773	21154
887.897	21291
888.021	21165
888.146	21096
888.27	21184
888.395	21188
888.519	21165
888.643	21241
888.767	21203
888.891	21043
889.015	20963
889.139	21009
889.263	20956
889.387	21135
889.511	21154
889.635	21032
889.759	21013
889.883	20975
890.006	20906
890.13	20960
890.254	20963
890.377	20868
890.501	20629
890.624	20682
890.748	20686
890.871	20507
890.995	20499
891.118	20431
891.241	20613
891.364	20499
891.488	20530
891.611	20530
891.734	20442
891.857	20564
891.98	20568
892.103	20629
892.226	20556
892.349	20366
892.471	20347
892.594	20412
892.717	20431
892.839	20374
892.962	20450
893.085	20541
893.207	20423
893.33	20355
893.452	20438
893.575	20423
893.697	20366
893.819	20575
893.941	20568
894.064	20602
894.186	20446
894.308	20298
894.43	20446
894.552	20552
894.674	20446
894.796	20343
894.918	20320
895.04	20301
895.161	20442
895.283	20454
895.405	20415
895.526	20396
895.648	20423
895.769	20434
895.891	20423
896.012	20568
896.134	20438
896.255	20408
896.376	20396
896.498	20374
896.619	20377
896.74	20393
896.861	20446
896.982	20686
897.103	20849
897.224	20670
897.345	20613
897.466	20469
897.587	20632
897.708	20632
897.828	20640
897.949	20602
898.07	20431
898.19	20663
898.311	20758
898.431	20590
898.552	20613
898.672	20552
898.792	20667
898.913	20644
899.033	20461
899.153	20431
899.273	20290
899.393	20423
899.513	20408
899.633	20324
899.753	20309
899.873	20240
899.993	20347
900.113	20347
900.232	20305
900.352	20263
900.472	20278
900.591	20008
900.711	20119
900.83	20054
900.95	20202
901.069	20248
901.189	20077
901.308	19772
901.427	19681
901.546	19788
901.665	19750
901.784	19731
901.904	19635
902.023	19480
902.141	19274
902.26	19198
902.379	19358
902.498	19221
902.617	19190
902.735	19232
902.854	19228
902.973	19114
903.091	18920
903.21	18814
903.328	18935
903.446	18760
903.565	18738
903.683	18730
903.801	18551
903.919	18684
904.038	18627
904.156	18441
904.274	18506
904.392	18384
904.51	18403
904.627	18498
904.745	18448
904.863	18448
904.981	18205
905.098	18072
905.216	18129
905.334	18186
905.451	18209
905.569	18095
905.686	18133
905.803	18152
905.921	17893
906.038	17984
906.155	17870
906.272	17805
906.389	18003
906.506	17737
906.623	17687
906.74	17638
906.857	17512
906.974	17581
907.091	17695
907.208	17760
907.324	17691
907.441	17554
907.557	17387
907.674	17379
907.79	17311
907.907	17417
908.023	17341
908.139	17398
908.256	17326
908.372	17406
908.488	17200
908.604	17124
908.72	17037
908.836	17155
908.952	17037
909.068	17124
909.184	17143
909.3	17025
909.415	17083
909.531	16984
909.647	16843
909.762	16831
909.878	16675
909.993	16797
910.108	16713
910.224	16774
910.339	16725
910.454	16694
910.57	16653
910.685	16421
910.8	16869
910.915	16702
911.03	16588
911.145	16375
911.259	16371
911.374	16432
911.489	16276
911.604	16230
911.718	16181
911.833	16021
911.947	16055
912.062	15926
912.176	16090
912.291	16051
912.405	16181
912.519	16265
912.633	16322
912.748	16143
912.862	16029
912.976	15869
913.09	15835
913.204	15895
913.318	16002
913.431	15994
913.545	15964
913.659	16090
913.772	15922
913.886	15713
914	15785
914.113	15865
914.226	15778
914.34	15778
914.453	15648
914.566	15705
914.68	15614
914.793	15694
914.906	15389
915.019	15351
915.132	15291
915.245	15317
915.358	15428
915.47	15359
915.583	15310
915.696	15287
915.809	15428
915.921	15393
916.034	15355
916.146	15272
916.259	15131
916.371	15252
916.483	15173
916.595	15157
916.708	15188
916.82	15173
916.932	15199
917.044	15074
917.156	15131
917.268	15066
917.38	14925
917.491	14883
917.603	15001
917.715	15013
917.826	15173
917.938	14880
918.049	14792
918.161	14895
918.272	15070
918.384	15097
918.495	14891
918.606	14830
918.717	14655
918.828	14823
918.939	14933
919.05	14708
919.161	14659
919.272	14590
919.383	14602
919.494	14716
919.604	14868
919.715	14632
919.826	14640
919.936	14648
920.047	14754
920.157	14651
920.267	14887
920.378	14720
920.488	14629
920.598	14861
920.708	14986
920.818	14834
920.928	14792
921.038	15009
921.148	14830
921.258	14674
921.368	14575
921.477	14461
921.587	14454
921.697	14218
921.806	14499
921.916	14343
922.025	14225
922.134	14115
922.244	14039
922.353	14046
922.462	13970
922.571	13928
922.68	13746
922.789	13677
922.898	13814
923.007	13681
923.116	13738
923.224	13696
923.333	13734
923.442	13651
923.55	13487
923.659	13586
923.767	13624
923.876	13502
923.984	13575
924.092	13419
924.201	13377
924.309	13362
924.417	13468
924.525	13297
924.633	13278
924.741	14126
924.849	13137
924.956	13312
925.064	13202
925.172	13042
925.279	13080
925.387	13156
925.494	13065
925.602	13255
925.709	13206
925.816	13000
925.924	12996
926.031	13156
926.138	12985
926.245	13107
926.352	12970
926.459	13122
926.566	13107
926.673	12901
926.779	12890
926.886	12875
926.993	12608
927.099	12719
927.206	12662
927.312	12662
927.419	12749
927.525	12772
927.631	12700
927.737	12631
927.843	12547
927.95	12403
928.056	12433
928.162	12410
928.267	12490
928.373	12993
928.479	12525
928.585	12410
928.69	12433
928.796	12471
928.901	12289
929.007	12121
929.112	12308
929.218	12289
929.323	12304
929.428	12216
929.533	12289
929.638	12175
929.743	12209
929.848	12262
929.953	12152
930.058	12049
930.163	11836
930.267	11893
930.372	12053
930.477	11965
930.581	12076
930.685	11847
930.79	11786
930.894	11813
930.998	11707
931.103	11912
931.207	11493
931.311	11474
931.415	11318
931.519	11223
931.623	11159
