Data from test_V78500241_18.txt Node
Date: Fri Mar 25 15:09:59 CST 2022
User: usil
Spectrometer: V785-0024
Trigger mode: 0
Integration Time (sec): 4.000000E-1
Scans to average: 1
Nonlinearity correction enabled: false
Boxcar width: 0
Storing dark spectrum: false
XAxis mode: Wavelengths
Number of Pixels in Spectrum: 1024
>>>>>Begin Spectral Data<<<<<
801.071	28021
801.214	27914
801.356	27747
801.499	27633
801.641	27466
801.783	27492
801.926	27447
802.068	27412
802.211	27435
802.353	27192
802.496	27154
802.638	27184
802.78	27047
802.923	26872
803.065	26918
803.208	26925
803.35	26975
803.492	26975
803.635	27093
803.777	27066
803.919	27138
804.061	27310
804.204	27214
804.346	26963
804.488	26933
804.63	27070
804.773	26925
804.915	26929
805.057	27032
805.199	27001
805.341	27028
805.483	27203
805.626	26956
805.768	27074
805.91	27058
806.052	27180
806.194	27089
806.336	27135
806.478	27180
806.62	27074
806.762	27374
806.904	27397
807.046	27553
807.188	27526
807.33	27473
807.472	27515
807.614	27447
807.756	27313
807.898	27176
808.04	27070
808.182	27340
808.324	27401
808.465	27218
808.607	27443
808.749	27526
808.891	27785
809.033	27591
809.174	27561
809.316	27523
809.458	27526
809.6	27458
809.741	27701
809.883	27705
810.025	27709
810.166	27614
810.308	27831
810.45	27759
810.591	27603
810.733	27542
810.875	27427
811.016	27427
811.158	27321
811.299	27637
811.441	27526
811.582	27530
811.724	27393
811.865	27363
812.007	27374
812.148	27374
812.29	27511
812.431	27572
812.573	27778
812.714	27827
812.855	27876
812.997	27964
813.138	28253
813.279	28074
813.421	27968
813.562	27903
813.703	27679
813.845	27618
813.986	27279
814.127	27131
814.268	27062
814.41	27135
814.551	27047
814.692	27005
814.833	26979
814.974	26979
815.115	26940
815.256	26826
815.397	26781
815.539	26948
815.68	26674
815.821	26617
815.962	26735
816.103	26689
816.244	26583
816.385	26358
816.526	26374
816.666	26309
816.807	26191
816.948	26107
817.089	26256
817.23	26081
817.371	26138
817.512	25955
817.653	26046
817.793	26073
817.934	26138
818.075	26012
818.216	26164
818.356	26100
818.497	25864
818.638	25734
818.778	25795
818.919	25689
819.06	25841
819.2	25753
819.341	25944
819.481	26005
819.622	26183
819.762	26347
819.903	26206
820.043	26081
820.184	25993
820.324	26050
820.465	26180
820.605	26088
820.746	26001
820.886	25753
821.026	25993
821.167	25963
821.307	26153
821.447	26153
821.588	25875
821.728	25624
821.868	25605
822.008	25343
822.149	25422
822.289	25502
822.429	25190
822.569	25171
822.709	25095
822.849	24787
822.99	24821
823.13	24871
823.27	24776
823.41	24654
823.55	24574
823.69	24578
823.83	24604
823.97	24570
824.11	24330
824.25	24441
824.389	24399
824.529	24509
824.669	24456
824.809	24642
824.949	24540
825.089	24475
825.228	24407
825.368	24235
825.508	24205
825.648	24262
825.787	24125
825.927	24155
826.067	24159
826.206	24220
826.346	24152
826.485	24289
826.625	24125
826.765	24266
826.904	24216
827.044	24072
827.183	23973
827.323	23809
827.462	23973
827.601	23897
827.741	23817
827.88	23840
828.02	23786
828.159	23760
828.298	23798
828.437	23817
828.577	23764
828.716	23977
828.855	23771
828.994	23589
829.134	23619
829.273	23577
829.412	23486
829.551	23497
829.69	23535
829.829	23436
829.968	23585
830.107	23608
830.246	23570
830.385	23364
830.524	23425
830.663	23303
830.802	23197
830.941	23094
831.08	23037
831.219	23220
831.357	23170
831.496	23269
831.635	23086
831.774	22942
831.913	22946
832.051	22820
832.19	22847
832.329	22839
832.467	22862
832.606	22778
832.744	22694
832.883	22713
833.022	22516
833.16	22752
833.299	22710
833.437	22649
833.576	22801
833.714	22706
833.852	22805
833.991	22706
834.129	22740
834.267	22713
834.406	22755
834.544	22702
834.682	22691
834.821	22649
834.959	22702
835.097	22691
835.235	22569
835.373	22653
835.511	22634
835.65	22615
835.788	22459
835.926	22398
836.064	22295
836.202	22405
836.34	22573
836.478	22637
836.615	22428
836.753	22580
836.891	22542
837.029	22527
837.167	22474
837.305	22481
837.443	22360
837.58	22394
837.718	22421
837.856	22394
837.993	22261
838.131	22398
838.269	22360
838.406	22242
838.544	22246
838.681	22017
838.819	21937
838.956	21686
839.094	21831
839.231	21895
839.369	21972
839.506	22253
839.643	21949
839.781	21816
839.918	21705
840.055	21793
840.193	21675
840.33	21599
840.467	21671
840.604	21637
840.742	22002
840.879	21526
841.016	21576
841.153	21614
841.29	21793
841.427	21523
841.564	21701
841.701	21686
841.838	21671
841.975	21576
842.112	21504
842.249	21435
842.385	21313
842.522	21568
842.659	21454
842.796	21340
842.933	21321
843.069	21344
843.206	21313
843.343	21393
843.479	21454
843.616	21378
843.752	21051
843.889	21150
844.025	21245
844.162	21066
844.298	21203
844.435	21051
844.571	21043
844.708	21089
844.844	21233
844.98	21222
845.117	21157
845.253	21043
845.389	20994
845.525	20994
845.661	20948
845.798	20804
845.934	20872
846.07	20845
846.206	20769
846.342	20960
846.478	20880
846.614	20705
846.75	20568
846.886	20575
847.022	20602
847.158	20613
847.294	20431
847.429	20545
847.565	20541
847.701	20758
847.837	20282
847.972	20237
848.108	20362
848.244	20244
848.379	20115
848.515	20157
848.65	19993
848.786	20153
848.921	20092
849.057	20157
849.192	20221
849.328	20134
849.463	20119
849.598	19989
849.734	20008
849.869	19909
850.004	19925
850.14	19932
850.275	19909
850.41	19757
850.545	19719
850.68	19856
850.815	19799
850.95	19833
851.085	19932
851.22	19868
851.355	19841
851.49	19830
851.625	19791
851.76	19845
851.895	19742
852.03	19738
852.165	19864
852.299	19814
852.434	19856
852.569	19898
852.703	19715
852.838	19856
852.973	19917
853.107	19868
853.242	19643
853.376	19674
853.511	19499
853.645	19544
853.78	19628
853.914	19666
854.048	19601
854.183	19605
854.317	19719
854.451	19708
854.585	19613
854.72	19521
854.854	19613
854.988	19578
855.122	19529
855.256	19597
855.39	19738
855.524	19670
855.658	19647
855.792	19715
855.926	19571
856.06	19674
856.194	19620
856.327	19677
856.461	19552
856.595	19552
856.729	19483
856.862	19578
856.996	19571
857.13	19712
857.263	19731
857.397	19734
857.53	19651
857.664	19628
857.797	19571
857.931	19757
858.064	19556
858.197	19731
858.331	19499
858.464	19403
858.597	19476
858.731	19445
858.864	19601
858.997	19491
859.13	19563
859.263	19537
859.396	19685
859.529	19438
859.662	19525
859.795	19620
859.928	19533
860.061	19757
860.194	19708
860.327	19514
860.46	19430
860.592	19643
860.725	19613
860.858	19639
860.99	19506
861.123	19327
861.256	19422
861.388	19533
861.521	20092
861.653	19308
861.786	19362
861.918	19449
862.05	19533
862.183	19537
862.315	19510
862.447	19632
862.58	19670
862.712	19445
862.844	19285
862.976	19403
863.108	19270
863.24	19643
863.372	19164
863.504	19209
863.636	19175
863.768	19255
863.9	19293
864.032	19228
864.164	19129
864.296	19213
864.428	19266
864.559	19335
864.691	19175
864.823	19301
864.954	19247
865.086	19198
865.217	19122
865.349	19137
865.48	19069
865.612	19103
865.743	19365
865.875	19244
866.006	19034
866.137	19126
866.269	19225
866.4	19107
866.531	18989
866.662	19046
866.793	18973
866.924	18966
867.055	19152
867.186	19099
867.317	19126
867.448	19046
867.579	18962
867.71	19031
867.841	18981
867.972	19126
868.103	19076
868.233	19053
868.364	19057
868.495	19164
868.625	19282
868.756	19358
868.886	19164
869.017	19297
869.147	19422
869.278	19377
869.408	19388
869.539	19156
869.669	19419
869.799	19464
869.929	19510
870.06	19540
870.19	19559
870.32	19445
870.45	19795
870.58	19849
870.71	19902
870.84	19788
870.97	19753
871.1	19677
871.23	19925
871.36	19814
871.489	19833
871.619	19841
871.749	19898
871.879	19974
872.008	20043
872.138	19841
872.267	19871
872.397	19818
872.526	19765
872.656	19639
872.785	19670
872.915	19932
873.044	20012
873.173	20039
873.303	19887
873.432	19921
873.561	20016
873.69	19917
873.819	19909
873.948	20016
874.077	19982
874.206	19849
874.335	19917
874.464	19993
874.593	20164
874.722	20096
874.851	20259
874.979	20286
875.108	20336
875.237	20145
875.365	20126
875.494	20126
875.623	20263
875.751	20149
875.88	20229
876.008	20427
876.136	20431
876.265	20530
876.393	20746
876.521	20705
876.65	20674
876.778	20617
876.906	20564
877.034	20408
877.162	20492
877.29	20518
877.418	20701
877.546	20648
877.674	20541
877.802	20514
877.93	20587
878.058	20503
878.185	20389
878.313	20606
878.441	20560
878.568	20465
878.696	20621
878.824	20511
878.951	20594
879.079	20792
879.206	20815
879.333	20629
879.461	20632
879.588	20651
879.715	20800
879.842	20792
879.97	20689
880.097	20355
880.224	20305
880.351	20431
880.478	20442
880.605	20271
880.732	20366
880.859	20602
880.986	20370
881.112	20313
881.239	20263
881.366	20081
881.493	20096
881.619	20024
881.746	20024
881.872	19951
881.999	19913
882.125	19864
882.252	20012
882.378	20024
882.505	20180
882.631	19871
882.757	19765
882.883	19807
883.01	19788
883.136	19731
883.262	19540
883.388	19540
883.514	19833
883.64	19769
883.766	19616
883.892	19540
884.018	19480
884.143	19753
884.269	19868
884.395	19460
884.52	19483
884.646	19483
884.772	19434
884.897	19331
885.023	19415
885.148	19510
885.274	19552
885.399	19586
885.524	19369
885.65	19358
885.775	19464
885.9	19430
886.025	19556
886.15	19304
886.275	19255
886.4	19362
886.525	19259
886.65	19308
886.775	19293
886.9	19529
887.025	19586
887.149	19221
887.274	19213
887.399	19228
887.523	19206
887.648	19118
887.773	19050
887.897	19168
888.021	19266
888.146	19198
888.27	19148
888.395	19179
888.519	19148
888.643	19213
888.767	19187
888.891	19107
889.015	18920
889.139	19069
889.263	18932
889.387	18996
889.511	19198
889.635	19080
889.759	18840
889.883	18932
890.006	18897
890.13	18989
890.254	18875
890.377	18802
890.501	18791
890.624	18620
890.748	18749
890.871	18616
890.995	18547
891.118	18525
891.241	18479
891.364	18563
891.488	18703
891.611	18509
891.734	18471
891.857	18585
891.98	18509
892.103	18715
892.226	18566
892.349	18475
892.471	18369
892.594	18410
892.717	18467
892.839	18502
892.962	18551
893.085	18646
893.207	18585
893.33	18311
893.452	18403
893.575	18509
893.697	18551
893.819	18532
893.941	18563
894.064	18521
894.186	18502
894.308	18471
894.43	18608
894.552	18642
894.674	18536
894.796	18414
894.918	18441
895.04	18437
895.161	18525
895.283	18528
895.405	18399
895.526	18441
895.648	18540
895.769	18597
895.891	18578
896.012	18669
896.134	18525
896.255	18582
896.376	18441
896.498	18506
896.619	18585
896.74	18604
896.861	18650
896.982	18951
897.103	19004
897.224	18939
897.345	18928
897.466	18798
897.587	18871
897.708	18878
897.828	18783
897.949	18798
898.07	18665
898.19	18696
898.311	18913
898.431	18757
898.552	18768
898.672	18844
898.792	18894
898.913	18734
899.033	18639
899.153	18627
899.273	18391
899.393	18544
899.513	18528
899.633	18521
899.753	18544
899.873	18502
899.993	18627
900.113	18521
900.232	18513
900.352	18429
900.472	18361
900.591	18292
900.711	18441
900.83	18220
900.95	18365
901.069	18410
901.189	18239
901.308	17958
901.427	17912
901.546	18022
901.665	17870
901.784	17927
901.904	17764
902.023	17714
902.141	17581
902.26	17471
902.379	17528
902.498	17452
902.617	17436
902.735	17486
902.854	17421
902.973	17345
903.091	17193
903.21	17231
903.328	17037
903.446	16911
903.565	17025
903.683	16908
903.801	16816
903.919	16930
904.038	16805
904.156	16725
904.274	16904
904.392	16774
904.51	16675
904.627	16744
904.745	16687
904.863	16710
904.981	16516
905.098	16398
905.216	16455
905.334	16348
905.451	16333
905.569	16409
905.686	16371
905.803	16356
905.921	16204
906.038	16314
906.155	16192
906.272	16093
906.389	16116
906.506	15907
906.623	15972
906.74	15926
906.857	15793
906.974	15739
907.091	16002
907.208	16044
907.324	16017
907.441	15751
907.557	15671
907.674	15629
907.79	15542
907.907	15656
908.023	15656
908.139	15637
908.256	15549
908.372	15504
908.488	15500
908.604	15557
908.72	15344
908.836	15405
908.952	15226
909.068	15275
909.184	15397
909.3	15291
909.415	15252
909.531	15298
909.647	15146
909.762	14956
909.878	15047
909.993	15142
910.108	15013
910.224	14994
910.339	14998
910.454	14887
910.57	14880
910.685	14651
910.8	15138
910.915	15005
911.03	14887
911.145	14708
911.259	14598
911.374	14571
911.489	14594
911.604	14583
911.718	14530
911.833	14343
911.947	14237
912.062	14176
912.176	14423
912.291	14358
912.405	14336
912.519	14533
912.633	14488
912.748	14336
912.862	14419
912.976	14153
913.09	14088
913.204	14149
913.318	14191
913.431	14275
913.545	14298
913.659	14248
913.772	14187
913.886	14058
914	13993
914.113	14115
914.226	14092
914.34	14103
914.453	13890
914.566	14058
914.68	14065
914.793	13887
914.906	13738
915.019	13693
915.132	13628
915.245	13662
915.358	13712
915.47	13769
915.583	13753
915.696	13662
915.809	13883
915.921	13784
916.034	13708
916.146	13616
916.259	13575
916.371	13674
916.483	13613
916.595	13476
916.708	13590
916.82	13529
916.932	13510
917.044	13518
917.156	13468
917.268	13381
917.38	13464
917.491	13430
917.603	13457
917.715	13464
917.826	13537
917.938	13316
918.049	13259
918.161	13304
918.272	13487
918.384	13552
918.495	13400
918.606	13213
918.717	13209
918.828	13190
918.939	13152
919.05	13034
919.161	13133
919.272	12878
919.383	12909
919.494	13255
919.604	13377
919.715	13190
919.826	13004
919.936	13137
920.047	13175
920.157	13160
920.267	13335
920.378	13110
920.488	13107
920.598	13274
920.708	13449
920.818	13251
920.928	13278
921.038	13346
921.148	13403
921.258	13175
921.368	13015
921.477	12878
921.587	12897
921.697	12753
921.806	12958
921.916	12696
922.025	12585
922.134	12437
922.244	12426
922.353	12479
922.462	12350
922.571	12369
922.68	12277
922.789	12197
922.898	12155
923.007	12053
923.116	12247
923.224	12228
923.333	12072
923.442	12022
923.55	11901
923.659	12034
923.767	12102
923.876	12015
923.984	12072
924.092	12053
924.201	11920
924.309	11969
924.417	11939
924.525	11916
924.633	11977
924.741	12707
924.849	11710
924.956	11874
925.064	11672
925.172	11551
925.279	11691
925.387	11710
925.494	11707
925.602	11752
925.709	11737
925.816	11573
925.924	11615
926.031	11813
926.138	11604
926.245	11737
926.352	11558
926.459	11695
926.566	11760
926.673	11528
926.779	11532
926.886	11448
926.993	11246
927.099	11307
927.206	11288
927.312	11162
927.419	11372
927.525	11204
927.631	11299
927.737	11185
927.843	11151
927.95	11052
928.056	11132
928.162	11231
928.267	11223
928.373	11767
928.479	11197
928.585	10995
928.69	11147
928.796	11132
928.901	10987
929.007	10805
929.112	10942
929.218	11003
929.323	10904
929.428	10908
929.533	11083
929.638	10778
929.743	10805
929.848	10946
929.953	10892
930.058	10736
930.163	10565
930.267	10611
930.372	10733
930.477	10558
930.581	10763
930.685	10771
930.79	10466
930.894	10481
930.998	10459
931.103	10527
931.207	10299
931.311	10154
931.415	10105
931.519	9865
931.623	9880
