Data from test_V78500241_2859.txt Node
Date: Fri Mar 25 15:29:46 CST 2022
User: usil
Spectrometer: V785-0024
Trigger mode: 0
Integration Time (sec): 4.000000E-1
Scans to average: 1
Nonlinearity correction enabled: false
Boxcar width: 0
Storing dark spectrum: false
XAxis mode: Wavelengths
Number of Pixels in Spectrum: 1024
>>>>>Begin Spectral Data<<<<<
801.071	27108
801.214	27051
801.356	26777
801.499	26845
801.641	26606
801.783	26499
801.926	26815
802.068	26564
802.211	26511
802.353	26450
802.496	26450
802.638	26309
802.78	26221
802.923	26202
803.065	26176
803.208	26202
803.35	26396
803.492	26446
803.635	26282
803.777	26172
803.919	26511
804.061	26705
804.204	26450
804.346	26244
804.488	26476
804.63	26385
804.773	26252
804.915	26434
805.057	26492
805.199	26347
805.341	26442
805.483	26625
805.626	26621
805.768	26522
805.91	26495
806.052	26438
806.194	26438
806.336	26655
806.478	26579
806.62	26393
806.762	26609
806.904	26876
807.046	26979
807.188	26918
807.33	26887
807.472	26963
807.614	26929
807.756	26998
807.898	26876
808.04	26743
808.182	26750
808.324	26842
808.465	26864
808.607	26914
808.749	27119
808.891	27245
809.033	27161
809.174	27043
809.316	27055
809.458	27203
809.6	26990
809.741	27024
809.883	27237
810.025	27397
810.166	27443
810.308	27564
810.45	27355
810.591	27310
810.733	27127
810.875	27203
811.016	27047
811.158	26963
811.299	27184
811.441	27332
811.582	27325
811.724	27157
811.865	27039
812.007	26979
812.148	27100
812.29	27104
812.431	27279
812.573	27291
812.714	27488
812.855	27583
812.997	27675
813.138	27739
813.279	27755
813.421	27698
813.562	27469
813.703	27279
813.845	27329
813.986	26944
814.127	26876
814.268	26864
814.41	26823
814.551	26785
814.692	26777
814.833	26617
814.974	26785
815.115	26811
815.256	26659
815.397	26625
815.539	26815
815.68	26545
815.821	26492
815.962	26648
816.103	26511
816.244	26438
816.385	26298
816.526	26278
816.666	26130
816.807	26020
816.948	26115
817.089	26142
817.23	26027
817.371	25997
817.512	25928
817.653	26058
817.793	25830
817.934	25951
818.075	26077
818.216	26077
818.356	26111
818.497	25917
818.638	25849
818.778	25757
818.919	25875
819.06	25731
819.2	25860
819.341	26031
819.481	26111
819.622	26240
819.762	26267
819.903	26267
820.043	26298
820.184	26119
820.324	25997
820.465	26191
820.605	26183
820.746	26035
820.886	25951
821.026	26073
821.167	26024
821.307	26126
821.447	26012
821.588	25932
821.728	25772
821.868	25685
822.008	25457
822.149	25533
822.289	25415
822.429	25244
822.569	25148
822.709	25145
822.849	24996
822.99	24875
823.13	24916
823.27	24935
823.41	24764
823.55	24688
823.69	24814
823.83	24802
823.97	24722
824.11	24639
824.25	24574
824.389	24677
824.529	24585
824.669	24673
824.809	24711
824.949	24730
825.089	24623
825.228	24536
825.368	24391
825.508	24304
825.648	24445
825.787	24498
825.927	24551
826.067	24475
826.206	24441
826.346	24547
826.485	24604
826.625	24505
826.765	24513
826.904	24460
827.044	24224
827.183	24277
827.323	24213
827.462	24129
827.601	24121
827.741	24106
827.88	24114
828.02	24049
828.159	24091
828.298	24129
828.437	24114
828.577	24083
828.716	24228
828.855	24030
828.994	23965
829.134	23840
829.273	23821
829.412	23745
829.551	23832
829.69	23885
829.829	23889
829.968	23969
830.107	23954
830.246	23794
830.385	23733
830.524	23745
830.663	23600
830.802	23687
830.941	23467
831.08	23562
831.219	23619
831.357	23619
831.496	23680
831.635	23493
831.774	23235
831.913	23368
832.051	23330
832.19	23307
832.329	23242
832.467	23242
832.606	23185
832.744	23086
832.883	23140
833.022	23166
833.16	23132
833.299	23079
833.437	23109
833.576	23197
833.714	23204
833.852	23254
833.991	23250
834.129	23273
834.267	23170
834.406	23140
834.544	23212
834.682	23181
834.821	23208
834.959	23235
835.097	23231
835.235	23235
835.373	23113
835.511	23216
835.65	23121
835.788	23060
835.926	22938
836.064	22805
836.202	22873
836.34	23159
836.478	23109
836.615	23010
836.753	23113
836.891	23022
837.029	23117
837.167	23037
837.305	22976
837.443	23041
837.58	22854
837.718	22904
837.856	22942
837.993	22877
838.131	22896
838.269	22790
838.406	22694
838.544	22573
838.681	22508
838.819	22443
838.956	22314
839.094	22462
839.231	22409
839.369	22432
839.506	22683
839.643	22637
839.781	22341
839.918	22352
840.055	22360
840.193	22306
840.33	22253
840.467	22322
840.604	22363
840.742	22493
840.879	22261
841.016	22367
841.153	22116
841.29	22344
841.427	22215
841.564	22306
841.701	22226
841.838	22120
841.975	22265
842.112	22162
842.249	22177
842.385	22150
842.522	22337
842.659	22272
842.796	22055
842.933	22040
843.069	21949
843.206	22097
843.343	21983
843.479	22169
843.616	22078
843.752	21759
843.889	21842
844.025	22021
844.162	21842
844.298	21762
844.435	21808
844.571	21895
844.708	21865
844.844	22010
844.98	21892
845.117	21823
845.253	21774
845.389	21599
845.525	21743
845.661	21679
845.798	21599
845.934	21534
846.07	21507
846.206	21504
846.342	21739
846.478	21515
846.614	21233
846.75	21211
846.886	21279
847.022	21397
847.158	21283
847.294	21393
847.429	21397
847.565	21313
847.701	21515
847.837	21036
847.972	21009
848.108	21150
848.244	21055
848.379	21024
848.515	20941
848.65	20883
848.786	20887
848.921	20845
849.057	21013
849.192	21005
849.328	20891
849.463	20891
849.598	20899
849.734	20902
849.869	20587
850.004	20678
850.14	20800
850.275	20708
850.41	20564
850.545	20632
850.68	20674
850.815	20640
850.95	20484
851.085	20804
851.22	20792
851.355	20640
851.49	20651
851.625	20583
851.76	20617
851.895	20541
852.03	20556
852.165	20712
852.299	20697
852.434	20765
852.569	20594
852.703	20682
852.838	20689
852.973	20750
853.107	20739
853.242	20632
853.376	20587
853.511	20457
853.645	20419
853.78	20655
853.914	20446
854.048	20537
854.183	20533
854.317	20522
854.451	20724
854.585	20431
854.72	20393
854.854	20511
854.988	20480
855.122	20412
855.256	20332
855.39	20495
855.524	20575
855.658	20442
855.792	20556
855.926	20514
856.06	20571
856.194	20617
856.327	20522
856.461	20476
856.595	20434
856.729	20408
856.862	20663
856.996	20480
857.13	20545
857.263	20583
857.397	20549
857.53	20415
857.664	20533
857.797	20549
857.931	20606
858.064	20469
858.197	20587
858.331	20469
858.464	20427
858.597	20332
858.731	20404
858.864	20530
858.997	20423
859.13	20450
859.263	20442
859.396	20632
859.529	20514
859.662	20431
859.795	20446
859.928	20499
860.061	20568
860.194	20530
860.327	20492
860.46	20579
860.592	20609
860.725	20552
860.858	20598
860.99	20564
861.123	20427
861.256	20454
861.388	20507
861.521	21150
861.653	20396
861.786	20256
861.918	20358
862.05	20393
862.183	20415
862.315	20415
862.447	20434
862.58	20450
862.712	20199
862.844	20035
862.976	20343
863.108	20229
863.24	20670
863.372	20191
863.504	20149
863.636	20145
863.768	20244
863.9	20206
864.032	20176
864.164	20153
864.296	20130
864.428	20336
864.559	20332
864.691	20278
864.823	20225
864.954	20100
865.086	20176
865.217	20149
865.349	20024
865.48	20119
865.612	20176
865.743	20145
865.875	20107
866.006	20046
866.137	20084
866.269	20096
866.4	20237
866.531	20107
866.662	20035
866.793	20035
866.924	19989
867.055	20024
867.186	20126
867.317	20012
867.448	20016
867.579	19997
867.71	19849
867.841	19959
867.972	19993
868.103	20005
868.233	20092
868.364	20008
868.495	20142
868.625	20286
868.756	20408
868.886	20282
869.017	20256
869.147	20385
869.278	20434
869.408	20233
869.539	20229
869.669	20358
869.799	20275
869.929	20351
870.06	20370
870.19	20583
870.32	20499
870.45	20651
870.58	20667
870.71	20796
870.84	20731
870.97	20659
871.1	20667
871.23	20906
871.36	20830
871.489	20777
871.619	20807
871.749	20845
871.879	20857
872.008	20982
872.138	20902
872.267	20864
872.397	20819
872.526	20735
872.656	20689
872.785	20720
872.915	20937
873.044	21077
873.173	20891
873.303	20929
873.432	20864
873.561	20891
873.69	20864
873.819	20982
873.948	20906
874.077	20876
874.206	20861
874.335	20921
874.464	21142
874.593	21131
874.722	21066
874.851	21146
874.979	21218
875.108	21237
875.237	21039
875.365	21032
875.494	21131
875.623	21233
875.751	21154
875.88	21226
876.008	21192
876.136	21405
876.265	21519
876.393	21762
876.521	21717
876.65	21724
876.778	21622
876.906	21511
877.034	21466
877.162	21511
877.29	21397
877.418	21462
877.546	21523
877.674	21530
877.802	21496
877.93	21534
878.058	21428
878.185	21412
878.313	21492
878.441	21416
878.568	21355
878.696	21401
878.824	21469
878.951	21580
879.079	21732
879.206	21732
879.333	21591
879.461	21477
879.588	21698
879.715	21648
879.842	21713
879.97	21580
880.097	21302
880.224	21256
880.351	21389
880.478	21374
880.605	21310
880.732	21249
880.859	21431
880.986	21306
881.112	21401
881.239	21131
881.366	21119
881.493	20967
881.619	21028
881.746	20994
881.872	20750
881.999	20933
882.125	20842
882.252	20929
882.378	20842
882.505	21005
882.631	20735
882.757	20701
882.883	20777
883.01	20617
883.136	20632
883.262	20549
883.388	20438
883.514	20765
883.64	20655
883.766	20579
883.892	20404
884.018	20423
884.143	20465
884.269	20735
884.395	20438
884.52	20343
884.646	20320
884.772	20153
884.897	20282
885.023	20320
885.148	20385
885.274	20423
885.399	20317
885.524	20286
885.65	20267
885.775	20256
885.9	20199
886.025	20324
886.15	20233
886.275	20164
886.4	20164
886.525	20187
886.65	20202
886.775	20180
886.9	20332
887.025	20583
887.149	20256
887.274	20016
887.399	19925
887.523	20081
887.648	19989
887.773	19902
887.897	20180
888.021	20202
888.146	20054
888.27	20168
888.395	20248
888.519	20043
888.643	19997
888.767	20100
888.891	19989
889.015	19830
889.139	19936
889.263	19833
889.387	19936
889.511	20027
889.635	19822
889.759	19875
889.883	19715
890.006	19902
890.13	19944
890.254	19765
890.377	19780
890.501	19681
890.624	19662
890.748	19616
890.871	19544
890.995	19415
891.118	19373
891.241	19350
891.364	19441
891.488	19693
891.611	19464
891.734	19552
891.857	19438
891.98	19445
892.103	19419
892.226	19491
892.349	19365
892.471	19187
892.594	19400
892.717	19358
892.839	19343
892.962	19312
893.085	19403
893.207	19339
893.33	19266
893.452	19388
893.575	19331
893.697	19331
893.819	19510
893.941	19506
894.064	19544
894.186	19289
894.308	19198
894.43	19441
894.552	19422
894.674	19449
894.796	19316
894.918	19415
895.04	19285
895.161	19354
895.283	19487
895.405	19438
895.526	19240
895.648	19335
895.769	19335
895.891	19365
896.012	19480
896.134	19438
896.255	19373
896.376	19304
896.498	19415
896.619	19396
896.74	19441
896.861	19453
896.982	19685
897.103	19765
897.224	19620
897.345	19685
897.466	19430
897.587	19639
897.708	19712
897.828	19742
897.949	19601
898.07	19476
898.19	19441
898.311	19723
898.431	19563
898.552	19677
898.672	19670
898.792	19632
898.913	19571
899.033	19552
899.153	19320
899.273	19339
899.393	19438
899.513	19373
899.633	19453
899.753	19358
899.873	19285
899.993	19354
900.113	19244
900.232	19464
900.352	19400
900.472	19362
900.591	19209
900.711	19122
900.83	19122
900.95	19312
901.069	19274
901.189	19061
901.308	18810
901.427	18738
901.546	18772
901.665	18878
901.784	18757
901.904	18601
902.023	18521
902.141	18346
902.26	18296
902.379	18350
902.498	18243
902.617	18171
902.735	18300
902.854	18247
902.973	18251
903.091	17977
903.21	17897
903.328	17866
903.446	17840
903.565	17878
903.683	17798
903.801	17767
903.919	17745
904.038	17630
904.156	17554
904.274	17547
904.392	17471
904.51	17581
904.627	17433
904.745	17535
904.863	17493
904.981	17277
905.098	17258
905.216	17258
905.334	17318
905.451	17265
905.569	17178
905.686	17220
905.803	17239
905.921	17010
906.038	17174
906.155	16949
906.272	16938
906.389	16919
906.506	16733
906.623	16824
906.74	16771
906.857	16573
906.974	16607
907.091	16862
907.208	16980
907.324	16771
907.441	16607
907.557	16489
907.674	16512
907.79	16360
907.907	16493
908.023	16394
908.139	16436
908.256	16497
908.372	16337
908.488	16322
908.604	16192
908.72	16268
908.836	16188
908.952	16147
909.068	16207
909.184	16375
909.3	16071
909.415	16196
909.531	16200
909.647	15888
909.762	15827
909.878	15854
909.993	15941
910.108	15785
910.224	15911
910.339	15903
910.454	15812
910.57	15656
910.685	15652
910.8	15983
910.915	15804
911.03	15778
911.145	15587
911.259	15420
911.374	15504
911.489	15450
911.604	15447
911.718	15256
911.833	15207
911.947	15245
912.062	15135
912.176	15249
912.291	15298
912.405	15348
912.519	15523
912.633	15523
912.748	15363
912.862	15245
912.976	15176
913.09	14960
913.204	15077
913.318	15154
913.431	15192
913.545	15112
913.659	15123
913.772	15051
913.886	14929
914	14918
914.113	14963
914.226	15081
914.34	14986
914.453	14781
914.566	14952
914.68	14845
914.793	14804
914.906	14610
915.019	14499
915.132	14492
915.245	14492
915.358	14499
915.47	14465
915.583	14469
915.696	14507
915.809	14705
915.921	14686
916.034	14511
916.146	14419
916.259	14427
916.371	14423
916.483	14446
916.595	14347
916.708	14355
916.82	14358
916.932	14290
917.044	14347
917.156	14294
917.268	14172
917.38	14271
917.491	14225
917.603	14225
917.715	14332
917.826	14412
917.938	14100
918.049	14016
918.161	14077
918.272	14282
918.384	14191
918.495	14123
918.606	14088
918.717	13993
918.828	13986
918.939	14039
919.05	13868
919.161	13852
919.272	13784
919.383	13776
919.494	14077
919.604	14199
919.715	13940
919.826	13799
919.936	13879
920.047	13974
920.157	13913
920.267	14161
920.378	13974
920.488	13909
920.598	14142
920.708	14240
920.818	14065
920.928	14050
921.038	14183
921.148	14142
921.258	13944
921.368	13860
921.477	13704
921.587	13772
921.697	13472
921.806	13738
921.916	13510
922.025	13373
922.134	13335
922.244	13407
922.353	13369
922.462	13324
922.571	13232
922.68	13050
922.789	12993
922.898	13103
923.007	12966
923.116	13012
923.224	12970
923.333	12977
923.442	12844
923.55	12844
923.659	12844
923.767	12856
923.876	12757
923.984	12894
924.092	12730
924.201	12837
924.309	12681
924.417	12722
924.525	12700
924.633	12650
924.741	13689
924.849	12551
924.956	12650
925.064	12448
925.172	12452
925.279	12418
925.387	12433
925.494	12506
925.602	12528
925.709	12471
925.816	12369
925.924	12372
926.031	12525
926.138	12361
926.245	12437
926.352	12281
926.459	12456
926.566	12509
926.673	12304
926.779	12239
926.886	12220
926.993	12072
927.099	11984
927.206	11973
927.312	11988
927.419	12060
927.525	12034
927.631	12121
927.737	11973
927.843	11927
927.95	11767
928.056	11893
928.162	11805
928.267	11828
928.373	12547
928.479	11980
928.585	11703
928.69	11764
928.796	11870
928.901	11764
929.007	11547
929.112	11691
929.218	11718
929.323	11627
929.428	11535
929.533	11634
929.638	11554
929.743	11608
929.848	11646
929.953	11543
930.058	11421
930.163	11307
930.267	11269
930.372	11417
930.477	11307
930.581	11421
930.685	11292
930.79	11220
930.894	11208
930.998	11204
931.103	11292
931.207	10877
931.311	10843
931.415	10790
931.519	10596
931.623	10634
