Data from test_V78500241_1465.txt Node
Date: Fri Mar 25 15:20:03 CST 2022
User: usil
Spectrometer: V785-0024
Trigger mode: 0
Integration Time (sec): 4.000000E-1
Scans to average: 1
Nonlinearity correction enabled: false
Boxcar width: 0
Storing dark spectrum: false
XAxis mode: Wavelengths
Number of Pixels in Spectrum: 1024
>>>>>Begin Spectral Data<<<<<
801.071	28150
801.214	27968
801.356	27698
801.499	27580
801.641	27458
801.783	27549
801.926	27587
802.068	27606
802.211	27405
802.353	27447
802.496	27272
802.638	27275
802.78	27127
802.923	27127
803.065	27173
803.208	27116
803.35	27306
803.492	27306
803.635	27439
803.777	27310
803.919	27538
804.061	27698
804.204	27477
804.346	27378
804.488	27279
804.63	27450
804.773	27207
804.915	27469
805.057	27564
805.199	27302
805.341	27488
805.483	27610
805.626	27568
805.768	27405
805.91	27637
806.052	27618
806.194	27340
806.336	27667
806.478	27648
806.62	27606
806.762	27663
806.904	27789
807.046	28131
807.188	28010
807.33	27922
807.472	28021
807.614	27979
807.756	27865
807.898	27850
808.04	27880
808.182	27812
808.324	27747
808.465	27827
808.607	28029
808.749	28219
808.891	28238
809.033	28318
809.174	28211
809.316	28226
809.458	28067
809.6	28265
809.741	28325
809.883	28333
810.025	28622
810.166	28310
810.308	28493
810.45	28363
810.591	28375
810.733	28192
810.875	28204
811.016	28105
811.158	28204
811.299	28303
811.441	28287
811.582	28348
811.724	28371
811.865	28192
812.007	28082
812.148	28204
812.29	28356
812.431	28333
812.573	28432
812.714	28557
812.855	28778
812.997	28729
813.138	28930
813.279	28839
813.421	28862
813.562	28672
813.703	28577
813.845	28497
813.986	28185
814.127	27994
814.268	27854
814.41	28036
814.551	27926
814.692	28055
814.833	27819
814.974	27838
815.115	27949
815.256	27884
815.397	27709
815.539	27827
815.68	27747
815.821	27800
815.962	27667
816.103	27675
816.244	27648
816.385	27504
816.526	27450
816.666	27272
816.807	27207
816.948	27275
817.089	27252
817.23	27287
817.371	27245
817.512	27218
817.653	27199
817.793	27165
817.934	27207
818.075	27199
818.216	27165
818.356	27214
818.497	27036
818.638	26887
818.778	26906
818.919	26933
819.06	27028
819.2	27062
819.341	27256
819.481	27138
819.622	27294
819.762	27485
819.903	27507
820.043	27321
820.184	27321
820.324	27279
820.465	27363
820.605	27317
820.746	27214
820.886	27233
821.026	27264
821.167	27218
821.307	27188
821.447	27119
821.588	27154
821.728	26994
821.868	26693
822.008	26735
822.149	26571
822.289	26689
822.429	26473
822.569	26278
822.709	26358
822.849	26252
822.99	26134
823.13	26191
823.27	26084
823.41	25894
823.55	25902
823.69	26054
823.83	25959
823.97	25906
824.11	25833
824.25	25689
824.389	25814
824.529	25940
824.669	25845
824.809	25928
824.949	25989
825.089	25879
825.228	25879
825.368	25677
825.508	25670
825.648	25712
825.787	25712
825.927	25845
826.067	25575
826.206	25586
826.346	25788
826.485	25712
826.625	25662
826.765	25662
826.904	25677
827.044	25472
827.183	25335
827.323	25304
827.462	25464
827.601	25407
827.741	25335
827.88	25407
828.02	25388
828.159	25327
828.298	25396
828.437	25540
828.577	25274
828.716	25460
828.855	25320
828.994	25072
829.134	25152
829.273	25202
829.412	25050
829.551	25031
829.69	25095
829.829	25008
829.968	25187
830.107	25228
830.246	25091
830.385	25034
830.524	24981
830.663	24844
830.802	24787
830.941	24745
831.08	24772
831.219	24684
831.357	24856
831.496	24916
831.635	24585
831.774	24608
831.913	24521
832.051	24570
832.19	24471
832.329	24486
832.467	24369
832.606	24304
832.744	24330
832.883	24327
833.022	24281
833.16	24239
833.299	24422
833.437	24285
833.576	24452
833.714	24391
833.852	24429
833.991	24376
834.129	24566
834.267	24486
834.406	24342
834.544	24384
834.682	24315
834.821	24422
834.959	24540
835.097	24464
835.235	24456
835.373	24388
835.511	24380
835.65	24194
835.788	24319
835.926	24281
836.064	24053
836.202	24079
836.34	24220
836.478	24445
836.615	24194
836.753	24311
836.891	24296
837.029	24334
837.167	24163
837.305	24155
837.443	24144
837.58	24136
837.718	24201
837.856	24034
837.993	23984
838.131	23935
838.269	23923
838.406	24076
838.544	23912
838.681	23843
838.819	23668
838.956	23627
839.094	23562
839.231	23668
839.369	23714
839.506	23992
839.643	23779
839.781	23474
839.918	23558
840.055	23600
840.193	23474
840.33	23433
840.467	23524
840.604	23463
840.742	23661
840.879	23273
841.016	23444
841.153	23322
841.29	23634
841.427	23433
841.564	23570
841.701	23402
841.838	23467
841.975	23379
842.112	23258
842.249	23334
842.385	23231
842.522	23493
842.659	23265
842.796	23242
842.933	23292
843.069	23284
843.206	23254
843.343	23223
843.479	23292
843.616	23235
843.752	22942
843.889	23022
844.025	23178
844.162	23060
844.298	23121
844.435	23075
844.571	22961
844.708	22987
844.844	23246
844.98	23212
845.117	23067
845.253	22972
845.389	22847
845.525	22923
845.661	22873
845.798	22809
845.934	22946
846.07	22740
846.206	22736
846.342	22824
846.478	22744
846.614	22470
846.75	22394
846.886	22493
847.022	22565
847.158	22481
847.294	22379
847.429	22573
847.565	22542
847.701	22729
847.837	22166
847.972	22086
848.108	22306
848.244	22348
848.379	22067
848.515	21975
848.65	21960
848.786	22025
848.921	22082
849.057	22105
849.192	22112
849.328	21975
849.463	22082
849.598	22040
849.734	22040
849.869	21842
850.004	21972
850.14	21888
850.275	21842
850.41	21793
850.545	21781
850.68	21724
850.815	21873
850.95	21846
851.085	22082
851.22	21922
851.355	21728
851.49	21831
851.625	21838
851.76	21766
851.895	21751
852.03	21762
852.165	21701
852.299	21793
852.434	21888
852.569	21915
852.703	21717
852.838	21865
852.973	21930
853.107	21876
853.242	21762
853.376	21755
853.511	21599
853.645	21675
853.78	21816
853.914	21724
854.048	21523
854.183	21641
854.317	21648
854.451	21812
854.585	21739
854.72	21610
854.854	21663
854.988	21644
855.122	21610
855.256	21561
855.39	21656
855.524	21667
855.658	21641
855.792	21633
855.926	21671
856.06	21751
856.194	21682
856.327	21644
856.461	21629
856.595	21538
856.729	21511
856.862	21732
856.996	21747
857.13	21675
857.263	21614
857.397	21599
857.53	21591
857.664	21751
857.797	21717
857.931	21705
858.064	21701
858.197	21736
858.331	21698
858.464	21545
858.597	21450
858.731	21561
858.864	21610
858.997	21622
859.13	21724
859.263	21671
859.396	21713
859.529	21660
859.662	21633
859.795	21530
859.928	21679
860.061	21728
860.194	21884
860.327	21671
860.46	21648
860.592	21781
860.725	21793
860.858	21793
860.99	21682
861.123	21488
861.256	21595
861.388	21595
861.521	22067
861.653	21515
861.786	21500
861.918	21439
862.05	21526
862.183	21557
862.315	21641
862.447	21614
862.58	21534
862.712	21424
862.844	21310
862.976	21378
863.108	21473
863.24	21861
863.372	21245
863.504	21386
863.636	21317
863.768	21367
863.9	21329
864.032	21321
864.164	21252
864.296	21431
864.428	21370
864.559	21370
864.691	21363
864.823	21306
864.954	21279
865.086	21283
865.217	21275
865.349	21131
865.48	21104
865.612	21226
865.743	21416
865.875	21211
866.006	21226
866.137	21192
866.269	21146
866.4	21154
866.531	21150
866.662	21176
866.793	21043
866.924	21150
867.055	21256
867.186	21165
867.317	21226
867.448	21138
867.579	21093
867.71	21093
867.841	21055
867.972	21150
868.103	21108
868.233	21199
868.364	21138
868.495	21226
868.625	21237
868.756	21515
868.886	21306
869.017	21393
869.147	21469
869.278	21530
869.408	21405
869.539	21447
869.669	21561
869.799	21462
869.929	21523
870.06	21542
870.19	21622
870.32	21656
870.45	21781
870.58	21857
870.71	21778
870.84	21873
870.97	21732
871.1	21762
871.23	21945
871.36	22010
871.489	21857
871.619	21956
871.749	21918
871.879	22029
872.008	22032
872.138	21975
872.267	21888
872.397	21781
872.526	21800
872.656	21884
872.785	21800
872.915	21926
873.044	22196
873.173	22044
873.303	22112
873.432	22097
873.561	22017
873.69	22055
873.819	22029
873.948	21975
874.077	22021
874.206	21975
874.335	22013
874.464	22105
874.593	22105
874.722	22158
874.851	22181
874.979	22234
875.108	22257
875.237	22086
875.365	22120
875.494	22226
875.623	22299
875.751	22268
875.88	22207
876.008	22371
876.136	22428
876.265	22550
876.393	22801
876.521	22603
876.65	22759
876.778	22607
876.906	22516
877.034	22577
877.162	22542
877.29	22493
877.418	22504
877.546	22523
877.674	22531
877.802	22573
877.93	22596
878.058	22462
878.185	22440
878.313	22577
878.441	22550
878.568	22367
878.696	22504
878.824	22489
878.951	22672
879.079	22812
879.206	22850
879.333	22725
879.461	22611
879.588	22733
879.715	22805
879.842	22877
879.97	22588
880.097	22500
880.224	22375
880.351	22493
880.478	22360
880.605	22268
880.732	22333
880.859	22550
880.986	22413
881.112	22394
881.239	22299
881.366	22074
881.493	22006
881.619	22063
881.746	22029
881.872	21953
881.999	21991
882.125	21915
882.252	21953
882.378	21926
882.505	22048
882.631	21797
882.757	21545
882.883	21778
883.01	21690
883.136	21644
883.262	21656
883.388	21443
883.514	21694
883.64	21652
883.766	21599
883.892	21397
884.018	21412
884.143	21542
884.269	21682
884.395	21378
884.52	21233
884.646	21268
884.772	21313
884.897	21203
885.023	21306
885.148	21401
885.274	21382
885.399	21408
885.524	21367
885.65	21359
885.775	21218
885.9	21256
886.025	21363
886.15	21310
886.275	21287
886.4	21211
886.525	21317
886.65	21127
886.775	21313
886.9	21416
887.025	21450
887.149	21230
887.274	21058
887.399	21123
887.523	21081
887.648	21005
887.773	20956
887.897	21066
888.021	21096
888.146	20956
888.27	21142
888.395	21005
888.519	20990
888.643	21074
888.767	21119
888.891	20963
889.015	20853
889.139	20902
889.263	20826
889.387	20971
889.511	21009
889.635	21055
889.759	20758
889.883	20887
890.006	20735
890.13	20929
890.254	20815
890.377	20735
890.501	20667
890.624	20560
890.748	20743
890.871	20480
890.995	20423
891.118	20434
891.241	20499
891.364	20446
891.488	20594
891.611	20362
891.734	20332
891.857	20461
891.98	20431
892.103	20476
892.226	20362
892.349	20400
892.471	20164
892.594	20446
892.717	20423
892.839	20278
892.962	20263
893.085	20415
893.207	20324
893.33	20164
893.452	20252
893.575	20259
893.697	20275
893.819	20457
893.941	20609
894.064	20423
894.186	20126
894.308	20221
894.43	20374
894.552	20389
894.674	20370
894.796	20210
894.918	20324
895.04	20305
895.161	20343
895.283	20320
895.405	20229
895.526	20218
895.648	20233
895.769	20393
895.891	20309
896.012	20389
896.134	20404
896.255	20355
896.376	20240
896.498	20309
896.619	20427
896.74	20282
896.861	20351
896.982	20552
897.103	20876
897.224	20606
897.345	20480
897.466	20423
897.587	20545
897.708	20625
897.828	20522
897.949	20347
898.07	20320
898.19	20461
898.311	20503
898.431	20503
898.552	20495
898.672	20560
898.792	20568
898.913	20590
899.033	20469
899.153	20332
899.273	20191
899.393	20225
899.513	20336
899.633	20282
899.753	20355
899.873	20275
899.993	20157
900.113	20046
900.232	20218
900.352	20092
900.472	20046
900.591	20058
900.711	20092
900.83	19955
900.95	20195
901.069	20195
901.189	19890
901.308	19651
901.427	19552
901.546	19563
901.665	19632
901.784	19525
901.904	19533
902.023	19358
902.141	19274
902.26	19213
902.379	19114
902.498	19110
902.617	19107
902.735	19179
902.854	19050
902.973	19072
903.091	18791
903.21	18882
903.328	18844
903.446	18673
903.565	18544
903.683	18642
903.801	18525
903.919	18608
904.038	18528
904.156	18456
904.274	18448
904.392	18239
904.51	18376
904.627	18369
904.745	18380
904.863	18452
904.981	18102
905.098	18083
905.216	17999
905.334	18087
905.451	18026
905.569	17999
905.686	18030
905.803	18030
905.921	17813
906.038	17889
906.155	17840
906.272	17695
906.389	17760
906.506	17509
906.623	17642
906.74	17577
906.857	17471
906.974	17368
907.091	17646
907.208	17623
907.324	17573
907.441	17440
907.557	17402
907.674	17284
907.79	17189
907.907	17318
908.023	17345
908.139	17318
908.256	17159
908.372	17216
908.488	17147
908.604	17083
908.72	17022
908.836	17086
908.952	16965
909.068	17075
909.184	17041
909.3	17022
909.415	17045
909.531	17014
909.647	16729
909.762	16694
909.878	16805
909.993	16694
910.108	16573
910.224	16713
910.339	16683
910.454	16611
910.57	16546
910.685	16398
910.8	16763
910.915	16645
911.03	16512
911.145	16325
911.259	16360
911.374	16284
911.489	16303
911.604	16192
911.718	16238
911.833	16067
911.947	16017
912.062	15934
912.176	16067
912.291	16051
912.405	16078
912.519	16207
912.633	16306
912.748	16112
912.862	16040
912.976	15941
913.09	15732
913.204	15922
913.318	15880
913.431	16109
913.545	15934
913.659	16044
913.772	15869
913.886	15789
914	15679
914.113	15800
914.226	15762
914.34	15778
914.453	15591
914.566	15739
914.68	15515
914.793	15530
914.906	15374
915.019	15218
915.132	15138
915.245	15283
915.358	15344
915.47	15332
915.583	15306
915.696	15298
915.809	15405
915.921	15443
916.034	15112
916.146	15165
916.259	15199
916.371	15310
916.483	15127
916.595	15199
916.708	15005
916.82	15093
916.932	15184
917.044	15066
917.156	15001
917.268	14944
917.38	14994
917.491	14891
917.603	14944
917.715	14941
917.826	14937
917.938	14979
918.049	14785
918.161	14960
918.272	14937
918.384	15051
918.495	14864
918.606	14731
918.717	14674
918.828	14731
918.939	14826
919.05	14682
919.161	14636
919.272	14480
919.383	14560
919.494	14773
919.604	14823
919.715	14499
919.826	14629
919.936	14644
920.047	14701
920.157	14667
920.267	14781
920.378	14678
920.488	14663
920.598	14891
920.708	14944
920.818	14743
920.928	14720
921.038	15020
921.148	14842
921.258	14575
921.368	14465
921.477	14438
921.587	14317
921.697	14263
921.806	14362
921.916	14229
922.025	14084
922.134	14065
922.244	13978
922.353	14130
922.462	13883
922.571	13799
922.68	13655
922.789	13734
922.898	13776
923.007	13578
923.116	13769
923.224	13662
923.333	13597
923.442	13518
923.55	13445
923.659	13487
923.767	13647
923.876	13449
923.984	13438
924.092	13358
924.201	13468
924.309	13529
924.417	13472
924.525	13358
924.633	13392
924.741	14084
924.849	13198
924.956	13228
925.064	13046
925.172	13019
925.279	13164
925.387	13114
925.494	13099
925.602	13175
925.709	13194
925.816	12993
925.924	13000
926.031	13023
926.138	13031
926.245	13065
926.352	12882
926.459	13004
926.566	13000
926.673	12985
926.779	12810
926.886	12890
926.993	12673
927.099	12623
927.206	12589
927.312	12502
927.419	12684
927.525	12639
927.631	12692
927.737	12528
927.843	12437
927.95	12346
928.056	12456
928.162	12441
928.267	12490
928.373	12985
928.479	12532
928.585	12296
928.69	12437
928.796	12486
928.901	12323
929.007	12194
929.112	12300
929.218	12289
929.323	12220
929.428	12201
929.533	12247
929.638	12136
929.743	12140
929.848	12190
929.953	12175
930.058	12019
930.163	11885
930.267	11912
930.372	11904
930.477	11828
930.581	12007
930.685	11904
930.79	11790
930.894	11786
930.998	11748
931.103	11939
931.207	11459
931.311	11402
931.415	11356
931.519	11128
931.623	11132
