Data from test_V78500241_1739.txt Node
Date: Fri Mar 25 15:21:57 CST 2022
User: usil
Spectrometer: V785-0024
Trigger mode: 0
Integration Time (sec): 4.000000E-1
Scans to average: 1
Nonlinearity correction enabled: false
Boxcar width: 0
Storing dark spectrum: false
XAxis mode: Wavelengths
Number of Pixels in Spectrum: 1024
>>>>>Begin Spectral Data<<<<<
801.071	28051
801.214	27922
801.356	27485
801.499	27576
801.641	27397
801.783	27279
801.926	27477
802.068	27412
802.211	27397
802.353	27317
802.496	27165
802.638	27131
802.78	27017
802.923	26979
803.065	26982
803.208	26979
803.35	27039
803.492	27157
803.635	27340
803.777	27112
803.919	27363
804.061	27603
804.204	27329
804.346	27211
804.488	27188
804.63	27241
804.773	27218
804.915	27230
805.057	27313
805.199	27287
805.341	27344
805.483	27488
805.626	27287
805.768	27397
805.91	27351
806.052	27424
806.194	27256
806.336	27580
806.478	27408
806.62	27348
806.762	27587
806.904	27549
807.046	27922
807.188	27709
807.33	27804
807.472	27800
807.614	27747
807.756	27846
807.898	27686
808.04	27656
808.182	27500
808.324	27709
808.465	27736
808.607	27884
808.749	28048
808.891	28070
809.033	28257
809.174	28192
809.316	27945
809.458	27998
809.6	28044
809.741	28162
809.883	28223
810.025	28417
810.166	28318
810.308	28337
810.45	28287
810.591	28120
810.733	28006
810.875	28002
811.016	27922
811.158	27956
811.299	28017
811.441	28204
811.582	28078
811.724	28013
811.865	28040
812.007	27987
812.148	28029
812.29	28036
812.431	28128
812.573	28299
812.714	28280
812.855	28481
812.997	28637
813.138	28736
813.279	28687
813.421	28557
813.562	28497
813.703	28352
813.845	28234
813.986	28040
814.127	27876
814.268	27663
814.41	27751
814.551	27762
814.692	27720
814.833	27755
814.974	27759
815.115	27800
815.256	27610
815.397	27751
815.539	27485
815.68	27545
815.821	27363
815.962	27458
816.103	27530
816.244	27359
816.385	27321
816.526	27180
816.666	27096
816.807	26982
816.948	27020
817.089	27081
817.23	27096
817.371	27077
817.512	27055
817.653	26990
817.793	26845
817.934	26998
818.075	27032
818.216	27093
818.356	26895
818.497	26929
818.638	26819
818.778	26762
818.919	26686
819.06	26811
819.2	26815
819.341	27104
819.481	26963
819.622	27180
819.762	27287
819.903	27412
820.043	27085
820.184	27100
820.324	27058
820.465	27154
820.605	27169
820.746	27184
820.886	26781
821.026	27199
821.167	26975
821.307	27116
821.447	26975
821.588	27013
821.728	26777
821.868	26609
822.008	26503
822.149	26469
822.289	26556
822.429	26263
822.569	26237
822.709	25993
822.849	26077
822.99	25993
823.13	26012
823.27	25963
823.41	25826
823.55	25734
823.69	25822
823.83	25811
823.97	25940
824.11	25597
824.25	25647
824.389	25666
824.529	25613
824.669	25658
824.809	25753
824.949	25696
825.089	25731
825.228	25594
825.368	25400
825.508	25552
825.648	25422
825.787	25430
825.927	25506
826.067	25365
826.206	25377
826.346	25533
826.485	25620
826.625	25483
826.765	25559
826.904	25521
827.044	25259
827.183	25350
827.323	25308
827.462	25304
827.601	25289
827.741	25164
827.88	25244
828.02	25141
828.159	25129
828.298	25175
828.437	25263
828.577	25278
828.716	25297
828.855	25088
828.994	24977
829.134	24935
829.273	24882
829.412	24947
829.551	24779
829.69	24913
829.829	24958
829.968	25031
830.107	24962
830.246	24897
830.385	24848
830.524	24768
830.663	24764
830.802	24703
830.941	24635
831.08	24464
831.219	24703
831.357	24635
831.496	24787
831.635	24559
831.774	24410
831.913	24486
832.051	24213
832.19	24388
832.329	24319
832.467	24254
832.606	24095
832.744	24117
832.883	24098
833.022	24213
833.16	24232
833.299	24201
833.437	24262
833.576	24308
833.714	24258
833.852	24399
833.991	24292
834.129	24266
834.267	24460
834.406	24289
834.544	24369
834.682	24296
834.821	24338
834.959	24456
835.097	24258
835.235	24365
835.373	24266
835.511	24357
835.65	24129
835.788	24239
835.926	23992
836.064	23843
836.202	23946
836.34	24247
836.478	24254
836.615	24155
836.753	24136
836.891	24171
837.029	24155
837.167	24030
837.305	24041
837.443	24022
837.58	24011
837.718	24041
837.856	23958
837.993	23988
838.131	23996
838.269	23817
838.406	23923
838.544	23764
838.681	23570
838.819	23638
838.956	23493
839.094	23589
839.231	23425
839.369	23627
839.506	23832
839.643	23600
839.781	23531
839.918	23395
840.055	23387
840.193	23372
840.33	23379
840.467	23383
840.604	23376
840.742	23482
840.879	23212
841.016	23360
841.153	23185
841.29	23376
841.427	23341
841.564	23417
841.701	23429
841.838	23250
841.975	23349
842.112	23303
842.249	23170
842.385	23079
842.522	23391
842.659	23121
842.796	23124
842.933	23098
843.069	23022
843.206	23094
843.343	23178
843.479	23064
843.616	23155
843.752	22949
843.889	23018
844.025	23090
844.162	22820
844.298	22908
844.435	22896
844.571	22805
844.708	22911
844.844	23041
844.98	22972
845.117	23003
845.253	22763
845.389	22812
845.525	22679
845.661	22725
845.798	22493
845.934	22607
846.07	22596
846.206	22782
846.342	22694
846.478	22615
846.614	22424
846.75	22303
846.886	22371
847.022	22409
847.158	22417
847.294	22421
847.429	22481
847.565	22284
847.701	22710
847.837	21941
847.972	21994
848.108	22059
848.244	22120
848.379	21884
848.515	21842
848.65	22063
848.786	21960
848.921	21975
849.057	22048
849.192	21945
849.328	21945
849.463	21918
849.598	22078
849.734	21823
849.869	21762
850.004	21770
850.14	21838
850.275	21694
850.41	21736
850.545	21637
850.68	21709
850.815	21709
850.95	21690
851.085	21941
851.22	21895
851.355	21759
851.49	21705
851.625	21648
851.76	21648
851.895	21679
852.03	21610
852.165	21781
852.299	21720
852.434	21660
852.569	21762
852.703	21747
852.838	21732
852.973	21842
853.107	21785
853.242	21778
853.376	21523
853.511	21477
853.645	21576
853.78	21728
853.914	21603
854.048	21447
854.183	21549
854.317	21564
854.451	21751
854.585	21534
854.72	21545
854.854	21622
854.988	21530
855.122	21599
855.256	21447
855.39	21473
855.524	21553
855.658	21481
855.792	21595
855.926	21591
856.06	21477
856.194	21675
856.327	21648
856.461	21462
856.595	21485
856.729	21599
856.862	21671
856.996	21519
857.13	21576
857.263	21694
857.397	21625
857.53	21454
857.664	21523
857.797	21515
857.931	21652
858.064	21500
858.197	21633
858.331	21542
858.464	21481
858.597	21416
858.731	21504
858.864	21553
858.997	21428
859.13	21545
859.263	21553
859.396	21568
859.529	21488
859.662	21447
859.795	21492
859.928	21587
860.061	21625
860.194	21663
860.327	21614
860.46	21572
860.592	21625
860.725	21705
860.858	21644
860.99	21519
861.123	21408
861.256	21564
861.388	21462
861.521	22238
861.653	21378
861.786	21332
861.918	21218
862.05	21332
862.183	21393
862.315	21561
862.447	21526
862.58	21523
862.712	21291
862.844	21325
862.976	21264
863.108	21332
863.24	21667
863.372	21207
863.504	21283
863.636	21230
863.768	21298
863.9	21256
864.032	21211
864.164	21154
864.296	21336
864.428	21256
864.559	21317
864.691	21325
864.823	21298
864.954	21188
865.086	21344
865.217	21272
865.349	21127
865.48	21135
865.612	21131
865.743	21157
865.875	21176
866.006	21108
866.137	21081
866.269	21146
866.4	21077
866.531	21066
866.662	21112
866.793	21020
866.924	21032
867.055	21203
867.186	21085
867.317	21020
867.448	20845
867.579	21009
867.71	21058
867.841	20963
867.972	21070
868.103	21104
868.233	21096
868.364	21093
868.495	21077
868.625	21321
868.756	21500
868.886	21188
869.017	21367
869.147	21332
869.278	21526
869.408	21306
869.539	21355
869.669	21374
869.799	21321
869.929	21481
870.06	21298
870.19	21633
870.32	21553
870.45	21751
870.58	21682
870.71	21797
870.84	21755
870.97	21694
871.1	21682
871.23	21747
871.36	21888
871.489	21797
871.619	21918
871.749	22002
871.879	21899
872.008	21907
872.138	21812
872.267	21941
872.397	21724
872.526	21800
872.656	21698
872.785	21610
872.915	21880
873.044	21884
873.173	21926
873.303	22025
873.432	21930
873.561	22010
873.69	21911
873.819	21865
873.948	22010
874.077	21892
874.206	21892
874.335	21918
874.464	21983
874.593	22192
874.722	22128
874.851	22204
874.979	22211
875.108	22295
875.237	22257
875.365	22074
875.494	22131
875.623	22112
875.751	22017
875.88	22131
876.008	22185
876.136	22402
876.265	22481
876.393	22649
876.521	22527
876.65	22584
876.778	22535
876.906	22447
877.034	22527
877.162	22500
877.29	22535
877.418	22500
877.546	22554
877.674	22451
877.802	22421
877.93	22504
878.058	22421
878.185	22363
878.313	22519
878.441	22485
878.568	22287
878.696	22474
878.824	22481
878.951	22634
879.079	22649
879.206	22664
879.333	22641
879.461	22447
879.588	22565
879.715	22626
879.842	22786
879.97	22497
880.097	22325
880.224	22188
880.351	22402
880.478	22379
880.605	22310
880.732	22325
880.859	22443
880.986	22303
881.112	22306
881.239	22181
881.366	22051
881.493	21964
881.619	21781
881.746	21831
881.872	21816
881.999	21846
882.125	21751
882.252	21880
882.378	21854
882.505	21899
882.631	21717
882.757	21652
882.883	21679
883.01	21564
883.136	21450
883.262	21469
883.388	21485
883.514	21496
883.64	21732
883.766	21447
883.892	21241
884.018	21393
884.143	21595
884.269	21477
884.395	21401
884.52	21218
884.646	21245
884.772	21233
884.897	21154
885.023	21230
885.148	21340
885.274	21294
885.399	21310
885.524	21180
885.65	21321
885.775	21275
885.9	21142
886.025	21302
886.15	21233
886.275	21135
886.4	21100
886.525	21298
886.65	21112
886.775	21104
886.9	21325
887.025	21344
887.149	21252
887.274	21112
887.399	20933
887.523	20967
887.648	20925
887.773	20853
887.897	21081
888.021	21036
888.146	20918
888.27	21070
888.395	21077
888.519	20941
888.643	20975
888.767	21051
888.891	20895
889.015	20811
889.139	20918
889.263	20712
889.387	20918
889.511	21036
889.635	20872
889.759	20864
889.883	20746
890.006	20811
890.13	20849
890.254	20648
890.377	20765
890.501	20598
890.624	20492
890.748	20674
890.871	20495
890.995	20317
891.118	20355
891.241	20343
891.364	20381
891.488	20552
891.611	20317
891.734	20240
891.857	20393
891.98	20366
892.103	20370
892.226	20278
892.349	20183
892.471	20191
892.594	20332
892.717	20263
892.839	20271
892.962	20130
893.085	20271
893.207	20278
893.33	20149
893.452	20073
893.575	20366
893.697	20126
893.819	20511
893.941	20404
894.064	20389
894.186	20286
894.308	20187
894.43	20294
894.552	20396
894.674	20309
894.796	20100
894.918	20301
895.04	20233
895.161	20408
895.283	20290
895.405	20111
895.526	20218
895.648	20229
895.769	20210
895.891	20282
896.012	20317
896.134	20339
896.255	20275
896.376	20218
896.498	20278
896.619	20305
896.74	20187
896.861	20362
896.982	20450
897.103	20655
897.224	20473
897.345	20465
897.466	20393
897.587	20415
897.708	20434
897.828	20473
897.949	20298
898.07	20229
898.19	20396
898.311	20484
898.431	20389
898.552	20385
898.672	20503
898.792	20587
898.913	20457
899.033	20377
899.153	20324
899.273	20172
899.393	20172
899.513	20138
899.633	20119
899.753	20183
899.873	20164
899.993	20347
900.113	20153
900.232	20191
900.352	20024
900.472	20058
900.591	19989
900.711	19970
900.83	20016
900.95	20043
901.069	20103
901.189	19868
901.308	19784
901.427	19483
901.546	19609
901.665	19514
901.784	19582
901.904	19426
902.023	19240
902.141	19065
902.26	19152
902.379	19255
902.498	19053
902.617	19103
902.735	19069
902.854	19038
902.973	18890
903.091	18772
903.21	18787
903.328	18696
903.446	18711
903.565	18639
903.683	18597
903.801	18475
903.919	18445
904.038	18422
904.156	18258
904.274	18452
904.392	18289
904.51	18186
904.627	18262
904.745	18194
904.863	18258
904.981	18133
905.098	17954
905.216	18003
905.334	18011
905.451	18049
905.569	17958
905.686	17958
905.803	17950
905.921	17786
906.038	17843
906.155	17817
906.272	17691
906.389	17707
906.506	17547
906.623	17448
906.74	17509
906.857	17410
906.974	17467
907.091	17596
907.208	17554
907.324	17512
907.441	17478
907.557	17216
907.674	17326
907.79	17094
907.907	17231
908.023	17277
908.139	17254
908.256	17189
908.372	17052
908.488	17075
908.604	16915
908.72	17006
908.836	16885
908.952	16896
909.068	16892
909.184	17037
909.3	17022
909.415	17041
909.531	17010
909.647	16702
909.762	16542
909.878	16721
909.993	16626
910.108	16611
910.224	16607
910.339	16630
910.454	16508
910.57	16379
910.685	16405
910.8	16649
910.915	16538
911.03	16356
911.145	16303
911.259	16291
911.374	16249
911.489	16318
911.604	16143
911.718	15953
911.833	15945
911.947	15800
912.062	15880
912.176	15915
912.291	15854
912.405	15975
912.519	16112
912.633	16116
912.748	16017
912.862	15934
912.976	15717
913.09	15739
913.204	15774
913.318	15781
913.431	15998
913.545	15964
913.659	15918
913.772	15682
913.886	15644
914	15553
914.113	15701
914.226	15690
914.34	15644
914.453	15557
914.566	15534
914.68	15504
914.793	15435
914.906	15211
915.019	15192
915.132	15127
915.245	15199
915.358	15245
915.47	15157
915.583	15233
915.696	15264
915.809	15226
915.921	15317
916.034	15119
916.146	15108
916.259	15043
916.371	15146
916.483	15169
916.595	15039
916.708	15009
916.82	15093
916.932	15001
917.044	14975
917.156	15013
917.268	14929
917.38	14982
917.491	14811
917.603	14807
917.715	14826
917.826	14944
917.938	14845
918.049	14712
918.161	14826
918.272	14944
918.384	14891
918.495	14815
918.606	14701
918.717	14598
918.828	14663
918.939	14644
919.05	14495
919.161	14651
919.272	14389
919.383	14465
919.494	14598
919.604	14735
919.715	14659
919.826	14522
919.936	14484
920.047	14625
920.157	14556
920.267	14739
920.378	14522
920.488	14575
920.598	14739
920.708	14906
920.818	14674
920.928	14606
921.038	14849
921.148	14743
921.258	14446
921.368	14419
921.477	14263
921.587	14339
921.697	14195
921.806	14332
921.916	14088
922.025	14027
922.134	14008
922.244	13947
922.353	13955
922.462	13811
922.571	13769
922.68	13651
922.789	13559
922.898	13605
923.007	13514
923.116	13734
923.224	13559
923.333	13605
923.442	13464
923.55	13392
923.659	13480
923.767	13510
923.876	13335
923.984	13441
924.092	13289
924.201	13346
924.309	13274
924.417	13331
924.525	13270
924.633	13251
924.741	14043
924.849	12993
924.956	13198
925.064	13050
925.172	12993
925.279	13080
925.387	13015
925.494	13034
925.602	13080
925.709	13012
925.816	12985
925.924	12901
926.031	13065
926.138	12985
926.245	12989
926.352	12882
926.459	12890
926.566	12962
926.673	12894
926.779	12814
926.886	12715
926.993	12593
927.099	12585
927.206	12536
927.312	12547
927.419	12623
927.525	12623
927.631	12566
927.737	12490
927.843	12384
927.95	12262
928.056	12426
928.162	12467
928.267	12475
928.373	12985
928.479	12445
928.585	12152
928.69	12292
928.796	12429
928.901	12270
929.007	12117
929.112	12182
929.218	12258
929.323	12178
929.428	12133
929.533	12197
929.638	11984
929.743	12022
929.848	12083
929.953	12072
930.058	11992
930.163	11756
930.267	11817
930.372	11874
930.477	11794
930.581	11999
930.685	11908
930.79	11688
930.894	11726
930.998	11699
931.103	11805
931.207	11372
931.311	11387
931.415	11181
931.519	11132
931.623	11022
