Data from test_V78500241_1841.txt Node
Date: Fri Mar 25 15:22:40 CST 2022
User: usil
Spectrometer: V785-0024
Trigger mode: 0
Integration Time (sec): 4.000000E-1
Scans to average: 1
Nonlinearity correction enabled: false
Boxcar width: 0
Storing dark spectrum: false
XAxis mode: Wavelengths
Number of Pixels in Spectrum: 1024
>>>>>Begin Spectral Data<<<<<
801.071	27819
801.214	27713
801.356	27431
801.499	27393
801.641	27268
801.783	27230
801.926	27386
802.068	27332
802.211	27252
802.353	27135
802.496	26994
802.638	26967
802.78	27024
802.923	26895
803.065	26842
803.208	26887
803.35	27074
803.492	26971
803.635	27195
803.777	27001
803.919	27074
804.061	27496
804.204	27264
804.346	27142
804.488	27131
804.63	27074
804.773	27074
804.915	27165
805.057	27264
805.199	26982
805.341	27283
805.483	27351
805.626	27367
805.768	27245
805.91	27264
806.052	27249
806.194	27203
806.336	27389
806.478	27359
806.62	27233
806.762	27393
806.904	27507
807.046	27781
807.188	27713
807.33	27679
807.472	27720
807.614	27682
807.756	27720
807.898	27519
808.04	27416
808.182	27633
808.324	27542
808.465	27576
808.607	27747
808.749	27914
808.891	27987
809.033	28086
809.174	27922
809.316	27994
809.458	27960
809.6	27846
809.741	27987
809.883	28139
810.025	28101
810.166	28185
810.308	28219
810.45	28013
810.591	27983
810.733	27991
810.875	27960
811.016	27656
811.158	27770
811.299	27987
811.441	28002
811.582	28051
811.724	27903
811.865	27675
812.007	27934
812.148	27873
812.29	27888
812.431	28082
812.573	28185
812.714	28325
812.855	28421
812.997	28489
813.138	28500
813.279	28531
813.421	28417
813.562	28401
813.703	28265
813.845	28090
813.986	27854
814.127	27625
814.268	27625
814.41	27576
814.551	27557
814.692	27580
814.833	27530
814.974	27538
815.115	27610
815.256	27511
815.397	27530
815.539	27519
815.68	27435
815.821	27268
815.962	27340
816.103	27454
816.244	27272
816.385	27207
816.526	27173
816.666	27077
816.807	26811
816.948	26823
817.089	27028
817.23	26834
817.371	26880
817.512	26842
817.653	26708
817.793	26773
817.934	26773
818.075	26925
818.216	26872
818.356	26823
818.497	26708
818.638	26724
818.778	26640
818.919	26590
819.06	26746
819.2	26609
819.341	26899
819.481	26807
819.622	27036
819.762	27169
819.903	27127
820.043	26876
820.184	26986
820.324	26921
820.465	27058
820.605	27028
820.746	26918
820.886	26834
821.026	26986
821.167	26906
821.307	27005
821.447	26895
821.588	26929
821.728	26644
821.868	26537
822.008	26408
822.149	26374
822.289	26275
822.429	25982
822.569	26001
822.709	26005
822.849	25715
822.99	25894
823.13	25875
823.27	25875
823.41	25727
823.55	25696
823.69	25681
823.83	25734
823.97	25594
824.11	25559
824.25	25445
824.389	25358
824.529	25715
824.669	25483
824.809	25529
824.949	25537
825.089	25635
825.228	25537
825.368	25434
825.508	25331
825.648	25449
825.787	25438
825.927	25472
826.067	25369
826.206	25392
826.346	25491
826.485	25411
826.625	25285
826.765	25518
826.904	25362
827.044	25103
827.183	25251
827.323	25141
827.462	25103
827.601	25175
827.741	25114
827.88	25209
828.02	24970
828.159	25095
828.298	25107
828.437	25217
828.577	25160
828.716	25198
828.855	24958
828.994	24642
829.134	24745
829.273	24932
829.412	24825
829.551	24753
829.69	24867
829.829	24871
829.968	25000
830.107	24703
830.246	24833
830.385	24791
830.524	24814
830.663	24601
830.802	24498
830.941	24486
831.08	24330
831.219	24623
831.357	24479
831.496	24703
831.635	24525
831.774	24380
831.913	24292
832.051	24289
832.19	24319
832.329	24319
832.467	24247
832.606	24022
832.744	24064
832.883	24186
833.022	24216
833.16	24197
833.299	24209
833.437	24292
833.576	24197
833.714	24159
833.852	24296
833.991	24281
834.129	24273
834.267	24315
834.406	24232
834.544	24232
834.682	24095
834.821	24163
834.959	24407
835.097	24182
835.235	24174
835.373	24220
835.511	24159
835.65	24018
835.788	23980
835.926	23863
836.064	23821
836.202	23798
836.34	23939
836.478	24079
836.615	24114
836.753	23980
836.891	24102
837.029	24060
837.167	23988
837.305	23984
837.443	23954
837.58	23843
837.718	24049
837.856	23988
837.993	23790
838.131	23866
838.269	23714
838.406	23897
838.544	23809
838.681	23589
838.819	23493
838.956	23341
839.094	23288
839.231	23425
839.369	23429
839.506	23687
839.643	23665
839.781	23223
839.918	23284
840.055	23315
840.193	23334
840.33	23334
840.467	23280
840.604	23299
840.742	23630
840.879	23178
841.016	23269
841.153	23212
841.29	23406
841.427	23239
841.564	23250
841.701	23242
841.838	23117
841.975	23121
842.112	23261
842.249	23143
842.385	22968
842.522	23322
842.659	23113
842.796	23037
842.933	22949
843.069	23064
843.206	22862
843.343	23056
843.479	22995
843.616	22968
843.752	22797
843.889	22793
844.025	22987
844.162	22710
844.298	22911
844.435	22869
844.571	22793
844.708	22744
844.844	23010
844.98	22881
845.117	22915
845.253	22653
845.389	22641
845.525	22748
845.661	22596
845.798	22557
845.934	22580
846.07	22485
846.206	22664
846.342	22603
846.478	22565
846.614	22204
846.75	22169
846.886	22287
847.022	22337
847.158	22306
847.294	22295
847.429	22280
847.565	22249
847.701	22421
847.837	22025
847.972	21915
848.108	21991
848.244	22120
848.379	21827
848.515	21812
848.65	21812
848.786	21660
848.921	21827
849.057	22090
849.192	22025
849.328	21850
849.463	21793
849.598	21739
849.734	21800
849.869	21701
850.004	21614
850.14	21724
850.275	21633
850.41	21568
850.545	21500
850.68	21622
850.815	21751
850.95	21576
851.085	21774
851.22	21709
851.355	21523
851.49	21511
851.625	21671
851.76	21549
851.895	21610
852.03	21568
852.165	21530
852.299	21694
852.434	21732
852.569	21610
852.703	21720
852.838	21660
852.973	21713
853.107	21709
853.242	21530
853.376	21496
853.511	21332
853.645	21298
853.78	21431
853.914	21500
854.048	21408
854.183	21420
854.317	21572
854.451	21682
854.585	21511
854.72	21473
854.854	21405
854.988	21340
855.122	21462
855.256	21245
855.39	21466
855.524	21462
855.658	21561
855.792	21424
855.926	21348
856.06	21523
856.194	21507
856.327	21439
856.461	21428
856.595	21363
856.729	21447
856.862	21488
856.996	21530
857.13	21576
857.263	21580
857.397	21428
857.53	21458
857.664	21466
857.797	21466
857.931	21530
858.064	21561
858.197	21595
858.331	21431
858.464	21344
858.597	21268
858.731	21458
858.864	21325
858.997	21325
859.13	21408
859.263	21454
859.396	21545
859.529	21363
859.662	21439
859.795	21378
859.928	21504
860.061	21507
860.194	21618
860.327	21469
860.46	21477
860.592	21488
860.725	21492
860.858	21542
860.99	21477
861.123	21435
861.256	21382
861.388	21466
861.521	22116
861.653	21252
861.786	21355
861.918	21230
862.05	21329
862.183	21401
862.315	21237
862.447	21477
862.58	21340
862.712	21154
862.844	21089
862.976	21283
863.108	21195
863.24	21405
863.372	21036
863.504	21195
863.636	21055
863.768	21287
863.9	21112
864.032	21161
864.164	21116
864.296	21195
864.428	21279
864.559	21184
864.691	21173
864.823	21096
864.954	21146
865.086	21195
865.217	21005
865.349	20948
865.48	21081
865.612	21066
865.743	21100
865.875	20986
866.006	21081
866.137	21127
866.269	21028
866.4	21009
866.531	20990
866.662	20960
866.793	21017
866.924	20956
867.055	20982
867.186	21013
867.317	20944
867.448	20876
867.579	21051
867.71	20906
867.841	20925
867.972	20960
868.103	20994
868.233	20994
868.364	20960
868.495	21024
868.625	21199
868.756	21420
868.886	21241
869.017	21146
869.147	21317
869.278	21298
869.408	21294
869.539	21207
869.669	21260
869.799	21321
869.929	21302
870.06	21302
870.19	21614
870.32	21447
870.45	21561
870.58	21572
870.71	21762
870.84	21648
870.97	21519
871.1	21717
871.23	21865
871.36	21762
871.489	21717
871.619	21755
871.749	21835
871.879	21804
872.008	21922
872.138	21793
872.267	21797
872.397	21629
872.526	21485
872.656	21534
872.785	21656
872.915	21850
873.044	21915
873.173	21812
873.303	21895
873.432	22059
873.561	21983
873.69	21629
873.819	21846
873.948	21911
874.077	21778
874.206	21637
874.335	21922
874.464	21945
874.593	22090
874.722	22013
874.851	22082
874.979	22082
875.108	22078
875.237	21968
875.365	21869
875.494	22112
875.623	22112
875.751	22090
875.88	22124
876.008	22181
876.136	22166
876.265	22352
876.393	22664
876.521	22462
876.65	22523
876.778	22409
876.906	22402
877.034	22489
877.162	22363
877.29	22276
877.418	22367
877.546	22318
877.674	22565
877.802	22432
877.93	22531
878.058	22386
878.185	22226
878.313	22451
878.441	22341
878.568	22238
878.696	22291
878.824	22466
878.951	22409
879.079	22637
879.206	22687
879.333	22523
879.461	22451
879.588	22535
879.715	22634
879.842	22626
879.97	22409
880.097	22242
880.224	22139
880.351	22246
880.478	22215
880.605	22139
880.732	22188
880.859	22306
880.986	22169
881.112	22249
881.239	22169
881.366	21998
881.493	21797
881.619	21808
881.746	21884
881.872	21949
881.999	21747
882.125	21686
882.252	21827
882.378	21751
882.505	21915
882.631	21641
882.757	21515
882.883	21553
883.01	21526
883.136	21428
883.262	21252
883.388	21313
883.514	21534
883.64	21523
883.766	21519
883.892	21207
884.018	21264
884.143	21530
884.269	21511
884.395	21302
884.52	21233
884.646	21142
884.772	21165
884.897	21077
885.023	21237
885.148	21241
885.274	21264
885.399	21116
885.524	21100
885.65	21142
885.775	21119
885.9	21119
886.025	21241
886.15	21138
886.275	21195
886.4	21089
886.525	21100
886.65	21142
886.775	20979
886.9	21245
887.025	21336
887.149	21127
887.274	20910
887.399	20956
887.523	20861
887.648	20861
887.773	20895
887.897	20918
888.021	20910
888.146	20872
888.27	20986
888.395	20952
888.519	20975
888.643	20876
888.767	20937
888.891	20632
889.015	20758
889.139	20735
889.263	20697
889.387	20777
889.511	20910
889.635	20887
889.759	20549
889.883	20674
890.006	20807
890.13	20693
890.254	20674
890.377	20518
890.501	20507
890.624	20431
890.748	20492
890.871	20267
890.995	20252
891.118	20275
891.241	20332
891.364	20358
891.488	20347
891.611	20240
891.734	20233
891.857	20404
891.98	20294
892.103	20252
892.226	20275
892.349	20183
892.471	20142
892.594	20100
892.717	20119
892.839	20145
892.962	20195
893.085	20187
893.207	20058
893.33	20027
893.452	20187
893.575	20164
893.697	20119
893.819	20347
893.941	20423
894.064	20301
894.186	20107
894.308	20210
894.43	20214
894.552	20301
894.674	20202
894.796	20065
894.918	20081
895.04	20138
895.161	20168
895.283	20252
895.405	20157
895.526	20206
895.648	20225
895.769	20206
895.891	20259
896.012	20237
896.134	20187
896.255	20050
896.376	20176
896.498	20069
896.619	20214
896.74	20248
896.861	20092
896.982	20396
897.103	20613
897.224	20415
897.345	20415
897.466	20381
897.587	20408
897.708	20587
897.828	20313
897.949	20328
898.07	20240
898.19	20358
898.311	20332
898.431	20282
898.552	20408
898.672	20404
898.792	20454
898.913	20408
899.033	20301
899.153	20210
899.273	20005
899.393	20122
899.513	20058
899.633	20084
899.753	20107
899.873	19993
899.993	20005
900.113	20043
900.232	20077
900.352	20039
900.472	19982
900.591	19852
900.711	20039
900.83	19814
900.95	20050
901.069	19913
901.189	19677
901.308	19590
901.427	19449
901.546	19350
901.665	19521
901.784	19510
901.904	19343
902.023	19225
902.141	19057
902.26	18996
902.379	19057
902.498	18913
902.617	19023
902.735	19034
902.854	18951
902.973	18821
903.091	18673
903.21	18673
903.328	18688
903.446	18521
903.565	18551
903.683	18448
903.801	18407
903.919	18266
904.038	18483
904.156	18323
904.274	18319
904.392	18148
904.51	18239
904.627	18167
904.745	18372
904.863	18174
904.981	18114
905.098	17916
905.216	17866
905.334	18011
905.451	17832
905.569	17843
905.686	17859
905.803	17821
905.921	17714
906.038	17836
906.155	17733
906.272	17551
906.389	17672
906.506	17532
906.623	17455
906.74	17474
906.857	17414
906.974	17372
907.091	17589
907.208	17577
907.324	17448
907.441	17395
907.557	17242
907.674	17185
907.79	17086
907.907	17109
908.023	17128
908.139	17105
908.256	17033
908.372	17071
908.488	17025
908.604	16946
908.72	16835
908.836	16911
908.952	16816
909.068	16881
909.184	16984
909.3	16900
909.415	16900
909.531	16805
909.647	16603
909.762	16558
909.878	16550
909.993	16489
910.108	16538
910.224	16478
910.339	16554
910.454	16432
910.57	16348
910.685	16261
910.8	16607
910.915	16504
911.03	16386
911.145	16200
911.259	16109
911.374	16154
911.489	16116
911.604	16082
911.718	15911
911.833	15876
911.947	15850
912.062	15736
912.176	15869
912.291	15876
912.405	15846
912.519	16147
912.633	16032
912.748	15888
912.862	15975
912.976	15705
913.09	15667
913.204	15671
913.318	15720
913.431	15876
913.545	15797
913.659	15895
913.772	15629
913.886	15591
914	15553
914.113	15667
914.226	15591
914.34	15629
914.453	15515
914.566	15542
914.68	15439
914.793	15370
914.906	15211
915.019	15165
915.132	15066
915.245	15112
915.358	15157
915.47	15138
915.583	15142
915.696	15085
915.809	15272
915.921	15203
916.034	15058
916.146	15047
916.259	14994
916.371	15135
916.483	15051
916.595	15005
916.708	14925
916.82	15032
916.932	14948
917.044	14941
917.156	14975
917.268	14731
917.38	14838
917.491	14804
917.603	14716
917.715	14902
917.826	14838
917.938	14724
918.049	14746
918.161	14689
918.272	14868
918.384	14876
918.495	14735
918.606	14629
918.717	14415
918.828	14579
918.939	14552
919.05	14412
919.161	14602
919.272	14389
919.383	14351
919.494	14533
919.604	14712
919.715	14579
919.826	14450
919.936	14423
920.047	14571
920.157	14564
920.267	14765
920.378	14499
920.488	14503
920.598	14777
920.708	14785
920.818	14598
920.928	14594
921.038	14796
921.148	14845
921.258	14469
921.368	14377
921.477	14374
921.587	14275
921.697	14176
921.806	14225
921.916	14062
922.025	14012
922.134	13887
922.244	13921
922.353	13852
922.462	13738
922.571	13818
922.68	13552
922.789	13457
922.898	13601
923.007	13468
923.116	13590
923.224	13620
923.333	13430
923.442	13411
923.55	13400
923.659	13453
923.767	13438
923.876	13358
923.984	13419
924.092	13304
924.201	13320
924.309	13278
924.417	13282
924.525	13122
924.633	13179
924.741	14081
924.849	13008
924.956	13118
925.064	12935
925.172	12977
925.279	13008
925.387	12970
925.494	12935
925.602	13065
925.709	13019
925.816	12837
925.924	12947
926.031	12985
926.138	12840
926.245	12973
926.352	12837
926.459	12894
926.566	12867
926.673	12867
926.779	12757
926.886	12730
926.993	12559
927.099	12525
927.206	12456
927.312	12471
927.419	12566
927.525	12422
927.631	12616
927.737	12452
927.843	12372
927.95	12228
928.056	12422
928.162	12361
928.267	12441
928.373	12844
928.479	12372
928.585	12197
928.69	12247
928.796	12289
928.901	12163
929.007	11958
929.112	12159
929.218	12194
929.323	12136
929.428	12087
929.533	12171
929.638	11961
929.743	11996
929.848	12049
929.953	11901
930.058	11870
930.163	11733
930.267	11771
930.372	11882
930.477	11718
930.581	11920
930.685	11802
930.79	11600
930.894	11752
930.998	11649
931.103	11752
931.207	11383
931.311	11326
931.415	11254
931.519	11060
931.623	11029
