Data from test_V78500241_1899.txt Node
Date: Fri Mar 25 15:23:04 CST 2022
User: usil
Spectrometer: V785-0024
Trigger mode: 0
Integration Time (sec): 4.000000E-1
Scans to average: 1
Nonlinearity correction enabled: false
Boxcar width: 0
Storing dark spectrum: false
XAxis mode: Wavelengths
Number of Pixels in Spectrum: 1024
>>>>>Begin Spectral Data<<<<<
801.071	27812
801.214	27804
801.356	27553
801.499	27545
801.641	27416
801.783	27473
801.926	27679
802.068	27279
802.211	27180
802.353	27264
802.496	27085
802.638	27154
802.78	27051
802.923	26944
803.065	26933
803.208	26979
803.35	27074
803.492	27199
803.635	27237
803.777	27272
803.919	27230
804.061	27485
804.204	27279
804.346	27237
804.488	27192
804.63	27150
804.773	27051
804.915	27199
805.057	27287
805.199	27222
805.341	27306
805.483	27272
805.626	27367
805.768	27298
805.91	27359
806.052	27351
806.194	27386
806.336	27568
806.478	27397
806.62	27233
806.762	27412
806.904	27591
807.046	27812
807.188	27671
807.33	27682
807.472	27759
807.614	27694
807.756	27812
807.898	27717
808.04	27492
808.182	27553
808.324	27564
808.465	27538
808.607	27804
808.749	27934
808.891	28013
809.033	28021
809.174	27949
809.316	27934
809.458	27941
809.6	27899
809.741	28021
809.883	28040
810.025	28196
810.166	28314
810.308	28150
810.45	28101
810.591	28120
810.733	28070
810.875	27987
811.016	27861
811.158	27762
811.299	28105
811.441	28101
811.582	28154
811.724	27964
811.865	27983
812.007	27949
812.148	27998
812.29	27953
812.431	28074
812.573	28192
812.714	28421
812.855	28481
812.997	28470
813.138	28752
813.279	28634
813.421	28436
813.562	28428
813.703	28333
813.845	28139
813.986	27884
814.127	27804
814.268	27545
814.41	27568
814.551	27644
814.692	27751
814.833	27663
814.974	27614
815.115	27671
815.256	27606
815.397	27610
815.539	27363
815.68	27534
815.821	27351
815.962	27374
816.103	27507
816.244	27313
816.385	27207
816.526	27203
816.666	27024
816.807	26834
816.948	27081
817.089	26872
817.23	26998
817.371	27013
817.512	26819
817.653	26918
817.793	26914
817.934	26940
818.075	26998
818.216	26944
818.356	26891
818.497	26861
818.638	26651
818.778	26731
818.919	26804
819.06	26777
819.2	26781
819.341	26979
819.481	26998
819.622	26998
819.762	27184
819.903	27188
820.043	27173
820.184	27077
820.324	27085
820.465	27135
820.605	27161
820.746	27058
820.886	27047
821.026	27043
821.167	26998
821.307	27127
821.447	26944
821.588	27013
821.728	26731
821.868	26492
822.008	26473
822.149	26412
822.289	26419
822.429	26157
822.569	26172
822.709	26138
822.849	25909
822.99	25894
823.13	26001
823.27	25963
823.41	25788
823.55	25727
823.69	25750
823.83	25734
823.97	25681
824.11	25582
824.25	25563
824.389	25552
824.529	25582
824.669	25445
824.809	25742
824.949	25845
825.089	25620
825.228	25590
825.368	25441
825.508	25362
825.648	25426
825.787	25544
825.927	25457
826.067	25331
826.206	25460
826.346	25430
826.485	25506
826.625	25430
826.765	25487
826.904	25373
827.044	25236
827.183	25137
827.323	25217
827.462	25232
827.601	25095
827.741	25042
827.88	25225
828.02	25031
828.159	25084
828.298	25247
828.437	25194
828.577	25171
828.716	25129
828.855	25015
828.994	24863
829.134	24814
829.273	24875
829.412	24768
829.551	24802
829.69	24802
829.829	25008
829.968	25000
830.107	24992
830.246	24825
830.385	24776
830.524	24772
830.663	24692
830.802	24536
830.941	24418
831.08	24540
831.219	24547
831.357	24528
831.496	24749
831.635	24521
831.774	24353
831.913	24334
832.051	24304
832.19	24216
832.329	24311
832.467	24235
832.606	24174
832.744	24155
832.883	24174
833.022	24273
833.16	24102
833.299	24083
833.437	24247
833.576	24239
833.714	24247
833.852	24174
833.991	24239
834.129	24426
834.267	24186
834.406	24129
834.544	24239
834.682	24201
834.821	24304
834.959	24464
835.097	24098
835.235	24285
835.373	24140
835.511	24201
835.65	24125
835.788	24022
835.926	23908
836.064	23790
836.202	24038
836.34	24178
836.478	24194
836.615	23950
836.753	24072
836.891	24034
837.029	24087
837.167	24018
837.305	23920
837.443	23863
837.58	23821
837.718	23996
837.856	23920
837.993	23840
838.131	23923
838.269	23707
838.406	23882
838.544	23668
838.681	23531
838.819	23566
838.956	23349
839.094	23341
839.231	23497
839.369	23581
839.506	23718
839.643	23653
839.781	23417
839.918	23353
840.055	23414
840.193	23356
840.33	23372
840.467	23349
840.604	23406
840.742	23490
840.879	23185
841.016	23185
841.153	23162
841.29	23265
841.427	23296
841.564	23402
841.701	23284
841.838	23204
841.975	23052
842.112	23227
842.249	23124
842.385	23071
842.522	23322
842.659	23064
842.796	23086
842.933	23048
843.069	22976
843.206	22991
843.343	23208
843.479	23052
843.616	23086
843.752	22896
843.889	22816
844.025	22957
844.162	22748
844.298	22999
844.435	22866
844.571	22717
844.708	22862
844.844	22923
844.98	23044
845.117	23006
845.253	22717
845.389	22721
845.525	22702
845.661	22721
845.798	22637
845.934	22771
846.07	22561
846.206	22588
846.342	22744
846.478	22577
846.614	22409
846.75	22246
846.886	22181
847.022	22440
847.158	22318
847.294	22234
847.429	22459
847.565	22230
847.701	22523
847.837	22036
847.972	21987
848.108	22177
848.244	22006
848.379	21926
848.515	21838
848.65	21903
848.786	21869
848.921	21884
849.057	22025
849.192	21934
849.328	21903
849.463	21964
849.598	21808
849.734	21724
849.869	21759
850.004	21583
850.14	21656
850.275	21747
850.41	21648
850.545	21523
850.68	21606
850.815	21564
850.95	21644
851.085	21850
851.22	21743
851.355	21671
851.49	21504
851.625	21614
851.76	21477
851.895	21564
852.03	21454
852.165	21656
852.299	21641
852.434	21625
852.569	21652
852.703	21606
852.838	21679
852.973	21869
853.107	21606
853.242	21580
853.376	21583
853.511	21370
853.645	21447
853.78	21542
853.914	21473
854.048	21393
854.183	21477
854.317	21549
854.451	21648
854.585	21424
854.72	21412
854.854	21500
854.988	21424
855.122	21378
855.256	21256
855.39	21382
855.524	21504
855.658	21481
855.792	21534
855.926	21500
856.06	21583
856.194	21591
856.327	21466
856.461	21363
856.595	21367
856.729	21382
856.862	21488
856.996	21458
857.13	21454
857.263	21450
857.397	21595
857.53	21485
857.664	21466
857.797	21511
857.931	21553
858.064	21557
858.197	21515
858.331	21412
858.464	21386
858.597	21412
858.731	21473
858.864	21428
858.997	21504
859.13	21488
859.263	21454
859.396	21637
859.529	21538
859.662	21599
859.795	21469
859.928	21496
860.061	21637
860.194	21576
860.327	21519
860.46	21374
860.592	21420
860.725	21682
860.858	21507
860.99	21439
861.123	21355
861.256	21450
861.388	21416
861.521	22036
861.653	21367
861.786	21329
861.918	21359
862.05	21367
862.183	21469
862.315	21306
862.447	21481
862.58	21386
862.712	21203
862.844	21093
862.976	21279
863.108	21310
863.24	21587
863.372	21138
863.504	21184
863.636	21199
863.768	21275
863.9	21195
864.032	21047
864.164	21142
864.296	21157
864.428	21256
864.559	21272
864.691	21310
864.823	21096
864.954	21157
865.086	21112
865.217	21096
865.349	20982
865.48	21028
865.612	21066
865.743	21264
865.875	21074
866.006	20906
866.137	20994
866.269	20967
866.4	21039
866.531	20902
866.662	20998
866.793	20937
866.924	20975
867.055	20941
867.186	21039
867.317	21062
867.448	20811
867.579	20906
867.71	20899
867.841	20956
867.972	20990
868.103	21077
868.233	21066
868.364	21047
868.495	21112
868.625	21192
868.756	21329
868.886	21222
869.017	21154
869.147	21252
869.278	21256
869.408	21256
869.539	21214
869.669	21279
869.799	21245
869.929	21291
870.06	21336
870.19	21576
870.32	21477
870.45	21652
870.58	21618
870.71	21808
870.84	21644
870.97	21667
871.1	21534
871.23	21838
871.36	21975
871.489	21728
871.619	21892
871.749	21751
871.879	21835
872.008	21918
872.138	21797
872.267	21865
872.397	21823
872.526	21603
872.656	21736
872.785	21701
872.915	21827
873.044	21895
873.173	21770
873.303	21892
873.432	21915
873.561	21979
873.69	21926
873.819	21857
873.948	21857
874.077	21865
874.206	21888
874.335	21937
874.464	21899
874.593	22158
874.722	22105
874.851	22021
874.979	22215
875.108	22067
875.237	21964
875.365	21854
875.494	22082
875.623	22166
875.751	22021
875.88	22074
876.008	22181
876.136	22147
876.265	22531
876.393	22500
876.521	22542
876.65	22546
876.778	22417
876.906	22489
877.034	22413
877.162	22478
877.29	22455
877.418	22424
877.546	22417
877.674	22440
877.802	22436
877.93	22356
878.058	22394
878.185	22413
878.313	22390
878.441	22382
878.568	22143
878.696	22390
878.824	22428
878.951	22466
879.079	22519
879.206	22649
879.333	22603
879.461	22481
879.588	22546
879.715	22519
879.842	22694
879.97	22447
880.097	22181
880.224	22337
880.351	22295
880.478	22333
880.605	22051
880.732	22249
880.859	22508
880.986	22200
881.112	22234
881.239	22131
881.366	21979
881.493	21968
881.619	21869
881.746	21812
881.872	21755
881.999	21774
882.125	21835
882.252	21816
882.378	21850
882.505	21869
882.631	21614
882.757	21511
882.883	21660
883.01	21473
883.136	21462
883.262	21435
883.388	21283
883.514	21526
883.64	21485
883.766	21614
883.892	21237
884.018	21412
884.143	21447
884.269	21515
884.395	21241
884.52	21036
884.646	21119
884.772	21093
884.897	21112
885.023	21119
885.148	21268
885.274	21287
885.399	21116
885.524	21100
885.65	21176
885.775	21264
885.9	21135
886.025	21169
886.15	21332
886.275	21112
886.4	21058
886.525	21017
886.65	21001
886.775	20861
886.9	21180
887.025	21412
887.149	21226
887.274	21005
887.399	20811
887.523	20948
887.648	20823
887.773	20887
887.897	21013
888.021	20960
888.146	20823
888.27	21119
888.395	20933
888.519	20929
888.643	20887
888.767	20899
888.891	20826
889.015	20678
889.139	20678
889.263	20750
889.387	20746
889.511	20887
889.635	20876
889.759	20659
889.883	20606
890.006	20758
890.13	20712
890.254	20659
890.377	20689
890.501	20473
890.624	20530
890.748	20522
890.871	20294
890.995	20237
891.118	20252
891.241	20271
891.364	20229
891.488	20408
891.611	20313
891.734	20374
891.857	20385
891.98	20248
892.103	20358
892.226	20259
892.349	20225
892.471	20145
892.594	20214
892.717	20263
892.839	20202
892.962	20119
893.085	20229
893.207	20172
893.33	19993
893.452	20126
893.575	20221
893.697	20176
893.819	20400
893.941	20400
894.064	20393
894.186	20138
894.308	20183
894.43	20248
894.552	20309
894.674	20324
894.796	20031
894.918	20180
895.04	20195
895.161	20168
895.283	20142
895.405	20153
895.526	20206
895.648	20202
895.769	20206
895.891	20149
896.012	20267
896.134	20294
896.255	20237
896.376	20168
896.498	20294
896.619	20111
896.74	20259
896.861	20199
896.982	20636
897.103	20537
897.224	20442
897.345	20454
897.466	20370
897.587	20351
897.708	20564
897.828	20313
897.949	20339
898.07	20271
898.19	20221
898.311	20454
898.431	20309
898.552	20336
898.672	20488
898.792	20507
898.913	20434
899.033	20358
899.153	20218
899.273	20096
899.393	20103
899.513	20202
899.633	20210
899.753	20065
899.873	19921
899.993	20115
900.113	20153
900.232	20084
900.352	20054
900.472	19936
900.591	19837
900.711	20020
900.83	19868
900.95	20031
901.069	19974
901.189	19772
901.308	19597
901.427	19510
901.546	19441
901.665	19468
901.784	19487
901.904	19388
902.023	19293
902.141	18996
902.26	19031
902.379	19019
902.498	19031
902.617	19057
902.735	19042
902.854	18970
902.973	18913
903.091	18703
903.21	18570
903.328	18563
903.446	18509
903.565	18559
903.683	18494
903.801	18403
903.919	18414
904.038	18357
904.156	18174
904.274	18296
904.392	18167
904.51	18220
904.627	18167
904.745	18304
904.863	18296
904.981	17992
905.098	17927
905.216	18011
905.334	17927
905.451	17923
905.569	17851
905.686	17889
905.803	17935
905.921	17794
906.038	17794
906.155	17733
906.272	17627
906.389	17642
906.506	17410
906.623	17539
906.74	17463
906.857	17398
906.974	17455
907.091	17406
907.208	17630
907.324	17379
907.441	17284
907.557	17231
907.674	17220
907.79	17155
907.907	17170
908.023	17242
908.139	17246
908.256	17124
908.372	17109
908.488	17086
908.604	16995
908.72	16961
908.836	16927
908.952	16972
909.068	16908
909.184	17006
909.3	16908
909.415	17006
909.531	16987
909.647	16626
909.762	16577
909.878	16573
909.993	16599
910.108	16550
910.224	16634
910.339	16584
910.454	16455
910.57	16436
910.685	16337
910.8	16713
910.915	16675
911.03	16447
911.145	16207
911.259	16226
911.374	16166
911.489	16105
911.604	15960
911.718	15907
911.833	15922
911.947	15918
912.062	15838
912.176	15850
912.291	15888
912.405	15979
912.519	16086
912.633	16051
912.748	16002
912.862	15895
912.976	15816
913.09	15561
913.204	15743
913.318	15759
913.431	15846
913.545	15755
913.659	15907
913.772	15625
913.886	15648
914	15561
914.113	15660
914.226	15701
914.34	15667
914.453	15408
914.566	15580
914.68	15458
914.793	15447
914.906	15180
915.019	15097
915.132	15097
915.245	15104
915.358	15226
915.47	15150
915.583	15074
915.696	15077
915.809	15275
915.921	15351
916.034	15020
916.146	14925
916.259	14986
916.371	15093
916.483	15131
916.595	14982
916.708	14944
916.82	14948
916.932	14857
917.044	14960
917.156	14902
917.268	14815
917.38	14876
917.491	14864
917.603	14834
917.715	14819
917.826	14906
917.938	14819
918.049	14689
918.161	14712
918.272	14815
918.384	14925
918.495	14743
918.606	14587
918.717	14541
918.828	14598
918.939	14636
919.05	14530
919.161	14571
919.272	14389
919.383	14381
919.494	14537
919.604	14765
919.715	14545
919.826	14412
919.936	14518
920.047	14625
920.157	14526
920.267	14705
920.378	14629
920.488	14495
920.598	14716
920.708	14845
920.818	14663
920.928	14621
921.038	14754
921.148	14811
921.258	14480
921.368	14457
921.477	14240
921.587	14244
921.697	14180
921.806	14187
921.916	14084
922.025	13993
922.134	13875
922.244	13909
922.353	13978
922.462	13708
922.571	13719
922.68	13628
922.789	13464
922.898	13571
923.007	13510
923.116	13487
923.224	13597
923.333	13483
923.442	13369
923.55	13426
923.659	13339
923.767	13346
923.876	13304
923.984	13422
924.092	13171
924.201	13343
924.309	13244
924.417	13217
924.525	13259
924.633	13046
924.741	14077
924.849	13057
924.956	13118
925.064	13031
925.172	12909
925.279	12920
925.387	13042
925.494	12932
925.602	13088
925.709	12966
925.816	12848
925.924	12798
926.031	12962
926.138	12928
926.245	12970
926.352	12779
926.459	12962
926.566	12977
926.673	12894
926.779	12669
926.886	12719
926.993	12593
927.099	12483
927.206	12456
927.312	12407
927.419	12604
927.525	12525
927.631	12559
927.737	12384
927.843	12353
927.95	12175
928.056	12353
928.162	12445
928.267	12437
928.373	12909
928.479	12384
928.585	12144
928.69	12239
928.796	12285
928.901	12194
929.007	12041
929.112	12083
929.218	12144
929.323	12091
929.428	12083
929.533	12148
929.638	12045
929.743	12003
929.848	12064
929.953	12034
930.058	11912
930.163	11783
930.267	11828
930.372	11859
930.477	11691
930.581	12038
930.685	11783
930.79	11630
930.894	11653
930.998	11608
931.103	11729
931.207	11421
931.311	11258
931.415	11235
931.519	11090
931.623	10957
