Data from test_V78500241_1632.txt Node
Date: Fri Mar 25 15:21:13 CST 2022
User: usil
Spectrometer: V785-0024
Trigger mode: 0
Integration Time (sec): 4.000000E-1
Scans to average: 1
Nonlinearity correction enabled: false
Boxcar width: 0
Storing dark spectrum: false
XAxis mode: Wavelengths
Number of Pixels in Spectrum: 1024
>>>>>Begin Spectral Data<<<<<
801.071	27778
801.214	27709
801.356	27500
801.499	27416
801.641	27363
801.783	27374
801.926	27363
802.068	27393
802.211	27260
802.353	27146
802.496	26979
802.638	26994
802.78	27032
802.923	26956
803.065	27024
803.208	26883
803.35	26982
803.492	27108
803.635	27165
803.777	27127
803.919	27150
804.061	27652
804.204	27268
804.346	27165
804.488	27093
804.63	27245
804.773	27100
804.915	27214
805.057	27363
805.199	27252
805.341	27157
805.483	27348
805.626	27325
805.768	27302
805.91	27313
806.052	27367
806.194	27389
806.336	27534
806.478	27306
806.62	27233
806.762	27416
806.904	27511
807.046	27903
807.188	27633
807.33	27724
807.472	27930
807.614	27717
807.756	27644
807.898	27583
808.04	27519
808.182	27545
808.324	27618
808.465	27481
808.607	27934
808.749	27888
808.891	28063
809.033	28002
809.174	28086
809.316	27812
809.458	27816
809.6	28017
809.741	28055
809.883	28101
810.025	28128
810.166	28265
810.308	28280
810.45	28280
810.591	28223
810.733	27884
810.875	28006
811.016	27842
811.158	27960
811.299	27983
811.441	28093
811.582	28048
811.724	28169
811.865	27903
812.007	27876
812.148	27922
812.29	27964
812.431	28211
812.573	28390
812.714	28413
812.855	28447
812.997	28679
813.138	28755
813.279	28645
813.421	28516
813.562	28455
813.703	28287
813.845	28173
813.986	28025
814.127	27720
814.268	27705
814.41	27701
814.551	27557
814.692	27835
814.833	27595
814.974	27728
815.115	27717
815.256	27332
815.397	27511
815.539	27507
815.68	27511
815.821	27291
815.962	27583
816.103	27344
816.244	27275
816.385	27214
816.526	27287
816.666	27150
816.807	27005
816.948	26975
817.089	27036
817.23	26857
817.371	26918
817.512	26998
817.653	26956
817.793	26975
817.934	27085
818.075	26967
818.216	26963
818.356	26921
818.497	26834
818.638	26712
818.778	26750
818.919	26754
819.06	26743
819.2	26834
819.341	26826
819.481	26944
819.622	26994
819.762	27283
819.903	27085
820.043	27154
820.184	27058
820.324	27058
820.465	27188
820.605	26979
820.746	27062
820.886	27024
821.026	27112
821.167	27055
821.307	27096
821.447	26883
821.588	26834
821.728	26667
821.868	26609
822.008	26484
822.149	26396
822.289	26309
822.429	26240
822.569	26001
822.709	26073
822.849	25966
822.99	25917
823.13	25951
823.27	25784
823.41	25719
823.55	25632
823.69	25655
823.83	25811
823.97	25655
824.11	25476
824.25	25510
824.389	25594
824.529	25700
824.669	25567
824.809	25651
824.949	25689
825.089	25597
825.228	25575
825.368	25369
825.508	25476
825.648	25472
825.787	25335
825.927	25407
826.067	25308
826.206	25487
826.346	25438
826.485	25514
826.625	25354
826.765	25472
826.904	25384
827.044	25122
827.183	25259
827.323	25107
827.462	25148
827.601	25148
827.741	25156
827.88	25091
828.02	24962
828.159	25148
828.298	25076
828.437	25228
828.577	25065
828.716	25171
828.855	25000
828.994	24932
829.134	24905
829.273	24779
829.412	24909
829.551	24741
829.69	24779
829.829	24810
829.968	24962
830.107	24875
830.246	24734
830.385	24734
830.524	24913
830.663	24570
830.802	24642
830.941	24456
831.08	24380
831.219	24517
831.357	24525
831.496	24661
831.635	24342
831.774	24232
831.913	24232
832.051	24178
832.19	24334
832.329	24190
832.467	24087
832.606	24076
832.744	24030
832.883	24072
833.022	24129
833.16	24083
833.299	24152
833.437	24190
833.576	24117
833.714	24285
833.852	24167
833.991	24308
834.129	24296
834.267	24213
834.406	24140
834.544	24213
834.682	24197
834.821	24136
834.959	24384
835.097	24083
835.235	24133
835.373	24102
835.511	24186
835.65	24057
835.788	24057
835.926	23980
836.064	23908
836.202	23733
836.34	24072
836.478	24155
836.615	24125
836.753	24007
836.891	24076
837.029	24114
837.167	23901
837.305	23882
837.443	23908
837.58	23821
837.718	23927
837.856	23760
837.993	23756
838.131	23843
838.269	23600
838.406	23665
838.544	23646
838.681	23516
838.819	23455
838.956	23383
839.094	23284
839.231	23349
839.369	23414
839.506	23638
839.643	23547
839.781	23265
839.918	23185
840.055	23337
840.193	23204
840.33	23159
840.467	23296
840.604	23189
840.742	23429
840.879	23109
841.016	23170
841.153	23025
841.29	23410
841.427	23269
841.564	23121
841.701	23121
841.838	23155
841.975	23140
842.112	23159
842.249	23056
842.385	23010
842.522	23204
842.659	22972
842.796	22942
842.933	22949
843.069	22927
843.206	22892
843.343	23029
843.479	22938
843.616	23113
843.752	22809
843.889	22820
844.025	22908
844.162	22691
844.298	22919
844.435	22786
844.571	22736
844.708	22812
844.844	22812
844.98	23010
845.117	22820
845.253	22805
845.389	22702
845.525	22710
845.661	22622
845.798	22390
845.934	22607
846.07	22538
846.206	22474
846.342	22618
846.478	22607
846.614	22322
846.75	22021
846.886	22207
847.022	22363
847.158	22314
847.294	22344
847.429	22272
847.565	22211
847.701	22405
847.837	21979
847.972	21945
848.108	22070
848.244	22006
848.379	21972
848.515	21831
848.65	21800
848.786	21682
848.921	21838
849.057	21918
849.192	21831
849.328	21956
849.463	21869
849.598	21751
849.734	21736
849.869	21587
850.004	21603
850.14	21641
850.275	21561
850.41	21610
850.545	21370
850.68	21519
850.815	21679
850.95	21610
851.085	21835
851.22	21538
851.355	21564
851.49	21542
851.625	21443
851.76	21694
851.895	21378
852.03	21408
852.165	21591
852.299	21542
852.434	21679
852.569	21549
852.703	21644
852.838	21637
852.973	21633
853.107	21625
853.242	21454
853.376	21477
853.511	21367
853.645	21412
853.78	21496
853.914	21386
854.048	21355
854.183	21344
854.317	21382
854.451	21667
854.585	21310
854.72	21466
854.854	21416
854.988	21359
855.122	21298
855.256	21291
855.39	21370
855.524	21424
855.658	21477
855.792	21519
855.926	21408
856.06	21507
856.194	21542
856.327	21428
856.461	21447
856.595	21275
856.729	21313
856.862	21462
856.996	21363
857.13	21408
857.263	21500
857.397	21507
857.53	21382
857.664	21431
857.797	21382
857.931	21488
858.064	21504
858.197	21606
858.331	21317
858.464	21363
858.597	21268
858.731	21439
858.864	21310
858.997	21431
859.13	21279
859.263	21397
859.396	21481
859.529	21313
859.662	21268
859.795	21348
859.928	21241
860.061	21507
860.194	21557
860.327	21378
860.46	21428
860.592	21542
860.725	21542
860.858	21557
860.99	21424
861.123	21370
861.256	21348
861.388	21424
861.521	22097
861.653	21298
861.786	21214
861.918	21321
862.05	21211
862.183	21233
862.315	21317
862.447	21348
862.58	21313
862.712	21150
862.844	21070
862.976	21157
863.108	21161
863.24	21545
863.372	21093
863.504	21085
863.636	21066
863.768	21138
863.9	21135
864.032	20994
864.164	21085
864.296	21123
864.428	21199
864.559	21218
864.691	21165
864.823	21085
864.954	21108
865.086	21127
865.217	20921
865.349	20960
865.48	21074
865.612	20952
865.743	21157
865.875	21039
866.006	20971
866.137	20918
866.269	20982
866.4	20952
866.531	20986
866.662	20914
866.793	20880
866.924	20895
867.055	20933
867.186	21047
867.317	20880
867.448	20849
867.579	20815
867.71	20895
867.841	20883
867.972	20929
868.103	20899
868.233	20887
868.364	20929
868.495	21013
868.625	21104
868.756	21264
868.886	21081
869.017	21207
869.147	21226
869.278	21329
869.408	21211
869.539	21233
869.669	21184
869.799	21112
869.929	21241
870.06	21260
870.19	21416
870.32	21447
870.45	21496
870.58	21561
870.71	21618
870.84	21705
870.97	21496
871.1	21606
871.23	21694
871.36	21656
871.489	21709
871.619	21732
871.749	21823
871.879	21827
872.008	21846
872.138	21724
872.267	21698
872.397	21583
872.526	21553
872.656	21511
872.785	21622
872.915	21682
873.044	21819
873.173	21774
873.303	21774
873.432	21888
873.561	21876
873.69	21770
873.819	21679
873.948	21842
874.077	21819
874.206	21861
874.335	21793
874.464	21800
874.593	21922
874.722	21918
874.851	22082
874.979	22097
875.108	22093
875.237	21880
875.365	21850
875.494	22063
875.623	21991
875.751	21991
875.88	21922
876.008	22131
876.136	22109
876.265	22394
876.393	22546
876.521	22405
876.65	22500
876.778	22432
876.906	22356
877.034	22341
877.162	22504
877.29	22219
877.418	22348
877.546	22352
877.674	22318
877.802	22413
877.93	22421
878.058	22322
878.185	22116
878.313	22432
878.441	22352
878.568	22177
878.696	22249
878.824	22417
878.951	22402
879.079	22512
879.206	22588
879.333	22561
879.461	22443
879.588	22405
879.715	22485
879.842	22588
879.97	22538
880.097	22303
880.224	22158
880.351	22230
880.478	22169
880.605	22257
880.732	22207
880.859	22402
880.986	22139
881.112	22196
881.239	22101
881.366	21934
881.493	21804
881.619	21873
881.746	21808
881.872	21732
881.999	21838
882.125	21736
882.252	21808
882.378	21755
882.505	21781
882.631	21713
882.757	21549
882.883	21530
883.01	21534
883.136	21252
883.262	21233
883.388	21203
883.514	21401
883.64	21500
883.766	21428
883.892	21317
884.018	21275
884.143	21458
884.269	21424
884.395	21195
884.52	20998
884.646	21169
884.772	20933
884.897	21001
885.023	21047
885.148	21207
885.274	21268
885.399	21142
885.524	21116
885.65	21116
885.775	21020
885.9	21096
886.025	21275
886.15	21161
886.275	21036
886.4	20952
886.525	21062
886.65	21089
886.775	21032
886.9	21230
887.025	21298
887.149	21032
887.274	20929
887.399	20811
887.523	20842
887.648	20823
887.773	20785
887.897	20853
888.021	20807
888.146	20716
888.27	21024
888.395	20929
888.519	20986
888.643	20963
888.767	20906
888.891	20758
889.015	20705
889.139	20594
889.263	20667
889.387	20762
889.511	20811
889.635	20796
889.759	20659
889.883	20663
890.006	20598
890.13	20701
890.254	20495
890.377	20735
890.501	20290
890.624	20412
890.748	20450
890.871	20355
890.995	20084
891.118	20267
891.241	20229
891.364	20157
891.488	20347
891.611	20195
891.734	20206
891.857	20298
891.98	20271
892.103	20347
892.226	20248
892.349	20157
892.471	19955
892.594	20130
892.717	20088
892.839	20176
892.962	20202
893.085	20062
893.207	20043
893.33	19993
893.452	19932
893.575	20164
893.697	20145
893.819	20278
893.941	20366
894.064	20263
894.186	19936
894.308	20012
894.43	20180
894.552	20180
894.674	20168
894.796	20027
894.918	20153
895.04	20168
895.161	20263
895.283	20054
895.405	20073
895.526	20229
895.648	20092
895.769	20130
895.891	20187
896.012	20031
896.134	20168
896.255	20256
896.376	20024
896.498	20164
896.619	20298
896.74	20149
896.861	20210
896.982	20427
897.103	20511
897.224	20355
897.345	20278
897.466	20290
897.587	20404
897.708	20450
897.828	20427
897.949	20195
898.07	20202
898.19	20278
898.311	20294
898.431	20313
898.552	20351
898.672	20415
898.792	20381
898.913	20438
899.033	20153
899.153	20142
899.273	20138
899.393	20122
899.513	20024
899.633	20149
899.753	20081
899.873	19967
899.993	20084
900.113	19978
900.232	19974
900.352	20001
900.472	19940
900.591	19795
900.711	19894
900.83	19765
900.95	20012
901.069	19898
901.189	19769
901.308	19582
901.427	19449
901.546	19487
901.665	19483
901.784	19403
901.904	19365
902.023	19160
902.141	18935
902.26	19057
902.379	18954
902.498	18939
902.617	19038
902.735	19031
902.854	19057
902.973	18897
903.091	18734
903.21	18608
903.328	18749
903.446	18601
903.565	18483
903.683	18388
903.801	18365
903.919	18445
904.038	18429
904.156	18125
904.274	18174
904.392	18102
904.51	18125
904.627	18159
904.745	18266
904.863	18220
904.981	17988
905.098	17798
905.216	17771
905.334	17980
905.451	17843
905.569	17889
905.686	17923
905.803	17828
905.921	17668
906.038	17821
906.155	17764
906.272	17558
906.389	17482
906.506	17478
906.623	17478
906.74	17349
906.857	17277
906.974	17349
907.091	17623
907.208	17570
907.324	17436
907.441	17334
907.557	17212
907.674	17048
907.79	17079
907.907	17102
908.023	17174
908.139	17098
908.256	17117
908.372	17045
908.488	16995
908.604	16835
908.72	16911
908.836	16877
908.952	16835
909.068	16877
909.184	16877
909.3	16877
909.415	16927
909.531	16839
909.647	16599
909.762	16546
909.878	16516
909.993	16603
910.108	16550
910.224	16603
910.339	16485
910.454	16436
910.57	16314
910.685	16306
910.8	16584
910.915	16493
911.03	16371
911.145	16284
911.259	16181
911.374	16207
911.489	16090
911.604	16086
911.718	15903
911.833	15888
911.947	15724
912.062	15755
912.176	15884
912.291	15823
912.405	15895
912.519	16036
912.633	16029
912.748	15972
912.862	15846
912.976	15690
913.09	15526
913.204	15644
913.318	15682
913.431	15781
913.545	15835
913.659	15774
913.772	15648
913.886	15481
914	15534
914.113	15564
914.226	15603
914.34	15671
914.453	15329
914.566	15496
914.68	15454
914.793	15348
914.906	15180
915.019	15108
915.132	15112
915.245	15066
915.358	15173
915.47	15161
915.583	15062
915.696	15051
915.809	15195
915.921	15241
916.034	15119
916.146	14975
916.259	14982
916.371	15157
916.483	15074
916.595	15032
916.708	14952
916.82	14963
916.932	14868
917.044	14979
917.156	14914
917.268	14667
917.38	14773
917.491	14731
917.603	14792
917.715	14849
917.826	14895
917.938	14731
918.049	14583
918.161	14727
918.272	14872
918.384	14788
918.495	14716
918.606	14495
918.717	14480
918.828	14644
918.939	14522
919.05	14488
919.161	14514
919.272	14374
919.383	14377
919.494	14590
919.604	14712
919.715	14545
919.826	14442
919.936	14446
920.047	14613
920.157	14438
920.267	14701
920.378	14522
920.488	14427
920.598	14636
920.708	14811
920.818	14606
920.928	14670
921.038	14708
921.148	14659
921.258	14446
921.368	14450
921.477	14218
921.587	14229
921.697	14103
921.806	14259
921.916	14058
922.025	13932
922.134	13826
922.244	13841
922.353	13906
922.462	13746
922.571	13620
922.68	13548
922.789	13495
922.898	13578
923.007	13415
923.116	13499
923.224	13506
923.333	13449
923.442	13445
923.55	13350
923.659	13373
923.767	13403
923.876	13358
923.984	13301
924.092	13228
924.201	13236
924.309	13320
924.417	13293
924.525	13187
924.633	13171
924.741	14054
924.849	12993
924.956	12989
925.064	12947
925.172	12901
925.279	12894
925.387	12943
925.494	12954
925.602	13053
925.709	12985
925.816	12741
925.924	12905
926.031	12996
926.138	12886
926.245	12882
926.352	12764
926.459	12920
926.566	12993
926.673	12776
926.779	12753
926.886	12688
926.993	12555
927.099	12433
927.206	12448
927.312	12464
927.419	12494
927.525	12521
927.631	12494
927.737	12380
927.843	12311
927.95	12243
928.056	12361
928.162	12350
928.267	12376
928.373	12970
928.479	12388
928.585	12148
928.69	12220
928.796	12296
928.901	12277
929.007	12049
929.112	12167
929.218	12106
929.323	12068
929.428	11961
929.533	12159
929.638	11961
929.743	11996
929.848	11992
929.953	11980
930.058	11889
930.163	11688
930.267	11779
930.372	11866
930.477	11760
930.581	11958
930.685	11752
930.79	11623
930.894	11657
930.998	11611
931.103	11695
931.207	11353
931.311	11197
931.415	11261
931.519	11045
931.623	11033
