Data from test_V78500241_2885.txt Node
Date: Fri Mar 25 15:29:56 CST 2022
User: usil
Spectrometer: V785-0024
Trigger mode: 0
Integration Time (sec): 4.000000E-1
Scans to average: 1
Nonlinearity correction enabled: false
Boxcar width: 0
Storing dark spectrum: false
XAxis mode: Wavelengths
Number of Pixels in Spectrum: 1024
>>>>>Begin Spectral Data<<<<<
801.071	27355
801.214	27116
801.356	26800
801.499	26845
801.641	26845
801.783	26845
801.926	26739
802.068	26826
802.211	26651
802.353	26564
802.496	26507
802.638	26385
802.78	26465
802.923	26240
803.065	26183
803.208	26358
803.35	26396
803.492	26514
803.635	26594
803.777	26476
803.919	26484
804.061	26849
804.204	26621
804.346	26518
804.488	26343
804.63	26545
804.773	26423
804.915	26499
805.057	26537
805.199	26609
805.341	26613
805.483	26811
805.626	26796
805.768	26549
805.91	26613
806.052	26648
806.194	26541
806.336	26788
806.478	26826
806.62	26697
806.762	26708
806.904	26948
807.046	27131
807.188	27104
807.33	27123
807.472	27123
807.614	27089
807.756	27001
807.898	26826
808.04	26800
808.182	26727
808.324	26849
808.465	27093
808.607	26971
808.749	27211
808.891	27173
809.033	27332
809.174	27256
809.316	27260
809.458	27249
809.6	27074
809.741	27355
809.883	27389
810.025	27534
810.166	27492
810.308	27519
810.45	27447
810.591	27504
810.733	27405
810.875	27195
811.016	27245
811.158	27302
811.299	27355
811.441	27431
811.582	27443
811.724	27245
811.865	27176
812.007	27214
812.148	27066
812.29	27211
812.431	27367
812.573	27507
812.714	27614
812.855	27656
812.997	27781
813.138	27892
813.279	27789
813.421	27724
813.562	27599
813.703	27515
813.845	27427
813.986	27100
814.127	27020
814.268	26914
814.41	26956
814.551	26872
814.692	26937
814.833	26845
814.974	27001
815.115	26838
815.256	26781
815.397	26720
815.539	26868
815.68	26655
815.821	26701
815.962	26632
816.103	26678
816.244	26507
816.385	26473
816.526	26434
816.666	26328
816.807	26233
816.948	26218
817.089	26366
817.23	26214
817.371	26100
817.512	26233
817.653	26145
817.793	26088
817.934	26187
818.075	26100
818.216	26130
818.356	26062
818.497	26084
818.638	25902
818.778	25913
818.919	25856
819.06	25970
819.2	26001
819.341	26111
819.481	26046
819.622	26351
819.762	26488
819.903	26427
820.043	26263
820.184	26271
820.324	26161
820.465	26347
820.605	26317
820.746	26214
820.886	26073
821.026	26225
821.167	26218
821.307	26362
821.447	26103
821.588	26050
821.728	26005
821.868	25887
822.008	25445
822.149	25571
822.289	25597
822.429	25225
822.569	25297
822.709	25137
822.849	25206
822.99	24977
823.13	25145
823.27	25175
823.41	24829
823.55	24798
823.69	24970
823.83	24992
823.97	24928
824.11	24726
824.25	24646
824.389	24772
824.529	24935
824.669	24848
824.809	24837
824.949	24757
825.089	24943
825.228	24726
825.368	24475
825.508	24570
825.648	24608
825.787	24555
825.927	24635
826.067	24547
826.206	24547
826.346	24604
826.485	24711
826.625	24608
826.765	24642
826.904	24734
827.044	24437
827.183	24277
827.323	24330
827.462	24330
827.601	24330
827.741	24270
827.88	24277
828.02	24163
828.159	24304
828.298	24304
828.437	24311
828.577	24133
828.716	24285
828.855	24232
828.994	24038
829.134	24106
829.273	24057
829.412	23954
829.551	24015
829.69	23977
829.829	24087
829.968	23965
830.107	24186
830.246	24041
830.385	23969
830.524	23897
830.663	23798
830.802	23604
830.941	23760
831.08	23543
831.219	23638
831.357	23665
831.496	23828
831.635	23668
831.774	23478
831.913	23516
832.051	23345
832.19	23402
832.329	23455
832.467	23395
832.606	23227
832.744	23284
832.883	23227
833.022	23334
833.16	23273
833.299	23337
833.437	23277
833.576	23379
833.714	23280
833.852	23501
833.991	23414
834.129	23581
834.267	23379
834.406	23280
834.544	23383
834.682	23440
834.821	23372
834.959	23482
835.097	23269
835.235	23353
835.373	23174
835.511	23318
835.65	23239
835.788	23204
835.926	22980
836.064	22999
836.202	22949
836.34	23265
836.478	23204
836.615	23200
836.753	23140
836.891	23223
837.029	23299
837.167	23151
837.305	23052
837.443	23022
837.58	23018
837.718	23064
837.856	23052
837.993	23014
838.131	22961
838.269	22873
838.406	22965
838.544	22793
838.681	22675
838.819	22622
838.956	22538
839.094	22500
839.231	22660
839.369	22637
839.506	22889
839.643	22687
839.781	22527
839.918	22504
840.055	22459
840.193	22455
840.33	22466
840.467	22451
840.604	22523
840.742	22721
840.879	22268
841.016	22295
841.153	22257
841.29	22535
841.427	22405
841.564	22462
841.701	22352
841.838	22337
841.975	22284
842.112	22341
842.249	22253
842.385	22299
842.522	22557
842.659	22299
842.796	22219
842.933	22242
843.069	22131
843.206	22036
843.343	22265
843.479	22135
843.616	22112
843.752	21968
843.889	21941
844.025	22006
844.162	21892
844.298	21930
844.435	21972
844.571	21861
844.708	22067
844.844	22070
844.98	22006
845.117	22013
845.253	21857
845.389	21785
845.525	21736
845.661	21736
845.798	21679
845.934	21618
846.07	21644
846.206	21701
846.342	21835
846.478	21629
846.614	21481
846.75	21450
846.886	21443
847.022	21557
847.158	21496
847.294	21405
847.429	21481
847.565	21306
847.701	21644
847.837	21074
847.972	21020
848.108	21157
848.244	21237
848.379	21039
848.515	21028
848.65	21005
848.786	20956
848.921	21066
849.057	21093
849.192	21036
849.328	20929
849.463	21058
849.598	20933
849.734	20921
849.869	20864
850.004	20819
850.14	20842
850.275	20750
850.41	20670
850.545	20765
850.68	20788
850.815	20796
850.95	20625
851.085	20857
851.22	20868
851.355	20701
851.49	20731
851.625	20864
851.76	20716
851.895	20754
852.03	20705
852.165	20731
852.299	20765
852.434	20872
852.569	20887
852.703	20750
852.838	20762
852.973	20929
853.107	20830
853.242	20571
853.376	20632
853.511	20541
853.645	20419
853.78	20758
853.914	20575
854.048	20488
854.183	20636
854.317	20609
854.451	20777
854.585	20678
854.72	20530
854.854	20667
854.988	20503
855.122	20678
855.256	20446
855.39	20571
855.524	20743
855.658	20663
855.792	20667
855.926	20746
856.06	20606
856.194	20720
856.327	20583
856.461	20609
856.595	20602
856.729	20602
856.862	20750
856.996	20773
857.13	20724
857.263	20731
857.397	20686
857.53	20480
857.664	20617
857.797	20689
857.931	20750
858.064	20644
858.197	20720
858.331	20655
858.464	20457
858.597	20412
858.731	20571
858.864	20503
858.997	20518
859.13	20518
859.263	20609
859.396	20708
859.529	20617
859.662	20636
859.795	20590
859.928	20583
860.061	20781
860.194	20883
860.327	20663
860.46	20648
860.592	20674
860.725	20743
860.858	20674
860.99	20518
861.123	20514
861.256	20594
861.388	20545
861.521	21275
861.653	20480
861.786	20427
861.918	20282
862.05	20446
862.183	20522
862.315	20434
862.447	20720
862.58	20552
862.712	20328
862.844	20248
862.976	20244
863.108	20336
863.24	20682
863.372	20191
863.504	20396
863.636	20256
863.768	20332
863.9	20225
864.032	20282
864.164	20278
864.296	20370
864.428	20370
864.559	20457
864.691	20343
864.823	20282
864.954	20427
865.086	20290
865.217	20328
865.349	20218
865.48	20103
865.612	20225
865.743	20385
865.875	20134
866.006	20199
866.137	20122
866.269	20275
866.4	20122
866.531	20183
866.662	20199
866.793	20145
866.924	20180
867.055	20115
867.186	20225
867.317	20050
867.448	20050
867.579	20138
867.71	20035
867.841	20024
867.972	20142
868.103	20221
868.233	20065
868.364	20221
868.495	20206
868.625	20454
868.756	20396
868.886	20339
869.017	20473
869.147	20438
869.278	20438
869.408	20579
869.539	20328
869.669	20674
869.799	20450
869.929	20621
870.06	20476
870.19	20788
870.32	20682
870.45	20667
870.58	20765
870.71	20921
870.84	20838
870.97	20876
871.1	20941
871.23	21093
871.36	20933
871.489	20941
871.619	21081
871.749	20982
871.879	21138
872.008	21157
872.138	21058
872.267	20956
872.397	20975
872.526	20937
872.656	20929
872.785	20872
872.915	21058
873.044	21169
873.173	21176
873.303	21096
873.432	21211
873.561	21260
873.69	21055
873.819	21070
873.948	21138
874.077	21233
874.206	21062
874.335	21100
874.464	21157
874.593	21279
874.722	21203
874.851	21348
874.979	21374
875.108	21355
875.237	21359
875.365	21154
875.494	21226
875.623	21408
875.751	21279
875.88	21329
876.008	21340
876.136	21481
876.265	21561
876.393	21876
876.521	21838
876.65	21797
876.778	21781
876.906	21671
877.034	21572
877.162	21629
877.29	21663
877.418	21690
877.546	21717
877.674	21732
877.802	21679
877.93	21762
878.058	21591
878.185	21580
878.313	21625
878.441	21583
878.568	21496
878.696	21629
878.824	21606
878.951	21732
879.079	21785
879.206	21850
879.333	21899
879.461	21656
879.588	21861
879.715	21842
879.842	21991
879.97	21816
880.097	21553
880.224	21519
880.351	21492
880.478	21485
880.605	21458
880.732	21553
880.859	21751
880.986	21473
881.112	21408
881.239	21325
881.366	21298
881.493	21070
881.619	21055
881.746	21131
881.872	20986
881.999	21047
882.125	21024
882.252	21161
882.378	21058
882.505	21100
882.631	20918
882.757	20910
882.883	20804
883.01	20777
883.136	20804
883.262	20670
883.388	20625
883.514	20693
883.64	20765
883.766	20625
883.892	20537
884.018	20590
884.143	20682
884.269	20670
884.395	20579
884.52	20358
884.646	20446
884.772	20355
884.897	20400
885.023	20438
885.148	20560
885.274	20495
885.399	20522
885.524	20511
885.65	20412
885.775	20374
885.9	20450
886.025	20427
886.15	20408
886.275	20393
886.4	20183
886.525	20320
886.65	20309
886.775	20309
886.9	20313
887.025	20590
887.149	20370
887.274	20313
887.399	20214
887.523	20142
887.648	20168
887.773	20084
887.897	20298
888.021	20259
888.146	20122
888.27	20275
888.395	20237
888.519	20103
888.643	20172
888.767	20252
888.891	20164
889.015	20035
889.139	20062
889.263	19909
889.387	20081
889.511	20214
889.635	20126
889.759	19913
889.883	20031
890.006	19967
890.13	20100
890.254	19830
890.377	19917
890.501	19833
890.624	19742
890.748	19883
890.871	19597
890.995	19529
891.118	19480
891.241	19685
891.364	19559
891.488	19571
891.611	19502
891.734	19533
891.857	19666
891.98	19590
892.103	19487
892.226	19609
892.349	19521
892.471	19453
892.594	19434
892.717	19495
892.839	19476
892.962	19597
893.085	19582
893.207	19476
893.33	19384
893.452	19346
893.575	19487
893.697	19514
893.819	19662
893.941	19761
894.064	19529
894.186	19438
894.308	19480
894.43	19540
894.552	19746
894.674	19586
894.796	19472
894.918	19559
895.04	19460
895.161	19540
895.283	19559
895.405	19426
895.526	19449
895.648	19480
895.769	19548
895.891	19480
896.012	19586
896.134	19521
896.255	19457
896.376	19419
896.498	19445
896.619	19613
896.74	19521
896.861	19502
896.982	19738
897.103	19944
897.224	19750
897.345	19765
897.466	19769
897.587	19879
897.708	19750
897.828	19814
897.949	19723
898.07	19681
898.19	19655
898.311	19822
898.431	19590
898.552	19696
898.672	19791
898.792	19784
898.913	19788
899.033	19521
899.153	19567
899.273	19491
899.393	19502
899.513	19502
899.633	19422
899.753	19548
899.873	19487
899.993	19544
900.113	19415
900.232	19506
900.352	19434
900.472	19445
900.591	19320
900.711	19335
900.83	19278
900.95	19396
901.069	19464
901.189	19213
901.308	18973
901.427	18882
901.546	18916
901.665	18958
901.784	18760
901.904	18703
902.023	18715
902.141	18528
902.26	18399
902.379	18547
902.498	18441
902.617	18384
902.735	18414
902.854	18315
902.973	18262
903.091	18140
903.21	18102
903.328	18057
903.446	17897
903.565	17977
903.683	17927
903.801	17786
903.919	17779
904.038	17893
904.156	17657
904.274	17687
904.392	17619
904.51	17665
904.627	17566
904.745	17665
904.863	17710
904.981	17444
905.098	17288
905.216	17288
905.334	17345
905.451	17417
905.569	17360
905.686	17341
905.803	17277
905.921	17128
906.038	17162
906.155	17105
906.272	17060
906.389	17006
906.506	16953
906.623	16889
906.74	16824
906.857	16725
906.974	16729
907.091	16934
907.208	17022
907.324	16938
907.441	16759
907.557	16622
907.674	16653
907.79	16512
907.907	16512
908.023	16580
908.139	16615
908.256	16516
908.372	16542
908.488	16443
908.604	16405
908.72	16371
908.836	16360
908.952	16268
909.068	16276
909.184	16360
909.3	16276
909.415	16329
909.531	16325
909.647	16082
909.762	16032
909.878	16063
909.993	16055
910.108	16048
910.224	16059
910.339	16078
910.454	15953
910.57	15793
910.685	15808
910.8	16112
910.915	15987
911.03	15827
911.145	15667
911.259	15511
911.374	15633
911.489	15625
911.604	15408
911.718	15386
911.833	15386
911.947	15325
912.062	15199
912.176	15408
912.291	15458
912.405	15435
912.519	15618
912.633	15660
912.748	15386
912.862	15389
912.976	15192
913.09	15146
913.204	15142
913.318	15237
913.431	15283
913.545	15249
913.659	15336
913.772	15173
913.886	15009
914	14994
914.113	15184
914.226	15116
914.34	15097
914.453	14868
914.566	15074
914.68	15001
914.793	14826
914.906	14743
915.019	14617
915.132	14564
915.245	14575
915.358	14617
915.47	14735
915.583	14602
915.696	14678
915.809	14708
915.921	14708
916.034	14484
916.146	14541
916.259	14575
916.371	14598
916.483	14579
916.595	14503
916.708	14404
916.82	14526
916.932	14446
917.044	14495
917.156	14355
917.268	14263
917.38	14320
917.491	14343
917.603	14233
917.715	14385
917.826	14492
917.938	14298
918.049	14149
918.161	14286
918.272	14370
918.384	14309
918.495	14202
918.606	14126
918.717	14035
918.828	14111
918.939	14027
919.05	14012
919.161	14005
919.272	13890
919.383	13890
919.494	14069
919.604	14275
919.715	14100
919.826	14005
919.936	13997
920.047	14046
920.157	14092
920.267	14229
920.378	13989
920.488	14088
920.598	14191
920.708	14355
920.818	14130
920.928	14180
921.038	14317
921.148	14343
921.258	13993
921.368	13944
921.477	13913
921.587	13868
921.697	13620
921.806	13833
921.916	13559
922.025	13529
922.134	13510
922.244	13419
922.353	13518
922.462	13270
922.571	13274
922.68	13114
922.789	13080
922.898	13221
923.007	13053
923.116	13084
923.224	13088
923.333	13027
923.442	12924
923.55	12909
923.659	13004
923.767	12989
923.876	12954
923.984	12958
924.092	12894
924.201	12825
924.309	12916
924.417	12821
924.525	12779
924.633	12760
924.741	13681
924.849	12509
924.956	12760
925.064	12498
925.172	12384
925.279	12506
925.387	12563
925.494	12475
925.602	12570
925.709	12513
925.816	12483
925.924	12479
926.031	12597
926.138	12525
926.245	12509
926.352	12407
926.459	12574
926.566	12521
926.673	12448
926.779	12254
926.886	12292
926.993	12152
927.099	12076
927.206	12159
927.312	12045
927.419	12194
927.525	12060
927.631	12049
927.737	11954
927.843	11923
927.95	11904
928.056	11988
928.162	11965
928.267	11942
928.373	12585
928.479	11999
928.585	11836
928.69	11855
928.796	11923
928.901	11832
929.007	11642
929.112	11745
929.218	11745
929.323	11718
929.428	11703
929.533	11805
929.638	11528
929.743	11611
929.848	11707
929.953	11668
930.058	11539
930.163	11356
930.267	11398
930.372	11505
930.477	11303
930.581	11471
930.685	11360
930.79	11201
930.894	11273
930.998	11265
931.103	11387
931.207	11098
931.311	10877
931.415	10919
931.519	10675
931.623	10584
