Data from test_V78500241_111.txt Node
Date: Fri Mar 25 16:49:46 CST 2022
User: usil
Spectrometer: V785-0024
Trigger mode: 0
Integration Time (sec): 4.000000E-1
Scans to average: 1
Nonlinearity correction enabled: false
Boxcar width: 0
Storing dark spectrum: false
XAxis mode: Wavelengths
Number of Pixels in Spectrum: 1024
>>>>>Begin Spectral Data<<<<<
801.071	8020
801.214	8054
801.356	7970
801.499	7936
801.641	7822
801.783	7879
801.926	8088
802.068	7940
802.211	7955
802.353	8005
802.496	7944
802.638	7921
802.78	8043
802.923	8012
803.065	7849
803.208	7833
803.35	7978
803.492	8088
803.635	8123
803.777	7947
803.919	8111
804.061	8381
804.204	8130
804.346	8054
804.488	7898
804.63	8069
804.773	7989
804.915	8039
805.057	8237
805.199	8176
805.341	8187
805.483	8244
805.626	8202
805.768	8111
805.91	8161
806.052	8164
806.194	8103
806.336	8309
806.478	8031
806.62	8050
806.762	8180
806.904	8199
807.046	8389
807.188	8343
807.33	8298
807.472	8279
807.614	8161
807.756	8119
807.898	8024
808.04	7928
808.182	7963
808.324	7909
808.465	7906
808.607	7993
808.749	8054
808.891	8256
809.033	8294
809.174	8221
809.316	8043
809.458	8020
809.6	8054
809.741	8039
809.883	8062
810.025	8157
810.166	8100
810.308	8073
810.45	8001
810.591	7947
810.733	7826
810.875	7696
811.016	7540
811.158	7472
811.299	7594
811.441	7753
811.582	7776
811.724	7658
811.865	7643
812.007	7590
812.148	7578
812.29	7674
812.431	7830
812.573	7906
812.714	8050
812.855	8263
812.997	8294
813.138	8400
813.279	8237
813.421	8210
813.562	8024
813.703	7959
813.845	7772
813.986	7578
814.127	7320
814.268	7282
814.41	7259
814.551	7209
814.692	7225
814.833	7175
814.974	7198
815.115	7240
815.256	6996
815.397	6981
815.539	6977
815.68	6825
815.821	6779
815.962	6844
816.103	6776
816.244	6783
816.385	6650
816.526	6631
816.666	6540
816.807	6365
816.948	6445
817.089	6570
817.23	6448
817.371	6414
817.512	6456
817.653	6388
817.793	6399
817.934	6452
818.075	6479
818.216	6399
818.356	6445
818.497	6266
818.638	6163
818.778	6136
818.919	6175
819.06	6175
819.2	6331
819.341	6338
819.481	6429
819.622	6563
819.762	6783
819.903	6692
820.043	6597
820.184	6563
820.324	6612
820.465	6673
820.605	6681
820.746	6669
820.886	6483
821.026	6677
821.167	6738
821.307	6818
821.447	6802
821.588	6688
821.728	6608
821.868	6509
822.008	6319
822.149	6399
822.289	6388
822.429	6171
822.569	6152
822.709	6114
822.849	5942
822.99	5866
823.13	5965
823.27	5939
823.41	5783
823.55	5802
823.69	5840
823.83	5813
823.97	5653
824.11	5608
824.25	5520
824.389	5551
824.529	5638
824.669	5573
824.809	5665
824.949	5653
825.089	5638
825.228	5570
825.368	5452
825.508	5353
825.648	5353
825.787	5387
825.927	5391
826.067	5353
826.206	5330
826.346	5402
826.485	5440
826.625	5436
826.765	5573
826.904	5512
827.044	5292
827.183	5212
827.323	5143
827.462	5231
827.601	5193
827.741	5201
827.88	5254
828.02	5170
828.159	5261
828.298	5250
828.437	5376
828.577	5330
828.716	5528
828.855	5322
828.994	5189
829.134	5140
829.273	5235
829.412	5223
829.551	5155
829.69	5178
829.829	5246
829.968	5417
830.107	5326
830.246	5334
830.385	5208
830.524	5143
830.663	5098
830.802	4987
830.941	4877
831.08	4881
831.219	4995
831.357	4984
831.496	5185
831.635	4900
831.774	4866
831.913	4870
832.051	4759
832.19	4786
832.329	4870
832.467	4721
832.606	4630
832.744	4736
832.883	4733
833.022	4755
833.16	4809
833.299	4877
833.437	4889
833.576	4820
833.714	4915
833.852	4885
833.991	4927
834.129	4968
834.267	4949
834.406	4919
834.544	5003
834.682	5003
834.821	4976
834.959	5208
835.097	5048
835.235	5204
835.373	5136
835.511	5140
835.65	5083
835.788	5052
835.926	4908
836.064	4908
836.202	4930
836.34	5124
836.478	5239
836.615	5181
836.753	5208
836.891	5357
837.029	5265
837.167	5212
837.305	5204
837.443	5132
837.58	5143
837.718	5296
837.856	5208
837.993	5162
838.131	5277
838.269	5193
838.406	5239
838.544	5201
838.681	5060
838.819	4999
838.956	4904
839.094	4934
839.231	4995
839.369	5128
839.506	5455
839.643	5246
839.781	5071
839.918	4984
840.055	5094
840.193	5136
840.33	5109
840.467	5155
840.604	5250
840.742	5459
840.879	5170
841.016	5094
841.153	5189
841.29	5402
841.427	5280
841.564	5284
841.701	5387
841.838	5220
841.975	5208
842.112	5292
842.249	5216
842.385	5121
842.522	5353
842.659	5193
842.796	5208
842.933	5216
843.069	5185
843.206	5231
843.343	5284
843.479	5242
843.616	5265
843.752	5067
843.889	5033
844.025	5239
844.162	5018
844.298	5220
844.435	5155
844.571	5067
844.708	5212
844.844	5376
844.98	5345
845.117	5315
845.253	5162
845.389	5052
845.525	5166
845.661	5143
845.798	5041
845.934	5151
846.07	5060
846.206	5216
846.342	5296
846.478	5223
846.614	5045
846.75	5029
846.886	4946
847.022	5155
847.158	5033
847.294	5109
847.429	5143
847.565	5067
847.701	5322
847.837	4843
847.972	4835
848.108	4968
848.244	4965
848.379	4809
848.515	4706
848.65	4759
848.786	4755
848.921	4763
849.057	4942
849.192	4957
849.328	4866
849.463	4862
849.598	4824
849.734	4828
849.869	4748
850.004	4653
850.14	4714
850.275	4630
850.41	4531
850.545	4626
850.68	4630
850.815	4668
850.95	4637
851.085	4839
851.22	4744
851.355	4683
851.49	4603
851.625	4656
851.76	4645
851.895	4599
852.03	4573
852.165	4649
852.299	4740
852.434	4763
852.569	4816
852.703	4771
852.838	4858
852.973	4930
853.107	4980
853.242	4729
853.376	4702
853.511	4531
853.645	4615
853.78	4820
853.914	4656
854.048	4641
854.183	4634
854.317	4706
854.451	4831
854.585	4706
854.72	4717
854.854	4790
854.988	4599
855.122	4656
855.256	4527
855.39	4653
855.524	4782
855.658	4755
855.792	4740
855.926	4725
856.06	4816
856.194	4831
856.327	4668
856.461	4626
856.595	4634
856.729	4653
856.862	4812
856.996	4736
857.13	4721
857.263	4801
857.397	4847
857.53	4706
857.664	4736
857.797	4740
857.931	4816
858.064	4698
858.197	4828
858.331	4687
858.464	4603
858.597	4531
858.731	4672
858.864	4626
858.997	4649
859.13	4641
859.263	4687
859.396	4687
859.529	4588
859.662	4573
859.795	4603
859.928	4634
860.061	4839
860.194	4812
860.327	4615
860.46	4561
860.592	4759
860.725	4755
860.858	4755
860.99	4569
861.123	4500
861.256	4569
861.388	4618
861.521	5307
861.653	4508
861.786	4470
861.918	4474
862.05	4500
862.183	4535
862.315	4588
862.447	4664
862.58	4588
862.712	4443
862.844	4367
862.976	4512
863.108	4447
863.24	4881
863.372	4348
863.504	4447
863.636	4432
863.768	4478
863.9	4424
864.032	4386
864.164	4436
864.296	4447
864.428	4516
864.559	4577
864.691	4538
864.823	4527
864.954	4516
865.086	4554
865.217	4500
865.349	4421
865.48	4489
865.612	4512
865.743	4691
865.875	4474
866.006	4481
866.137	4508
866.269	4432
866.4	4466
866.531	4508
866.662	4478
866.793	4440
866.924	4417
867.055	4512
867.186	4485
867.317	4394
867.448	4375
867.579	4398
867.71	4405
867.841	4405
867.972	4493
868.103	4481
868.233	4466
868.364	4470
868.495	4500
868.625	4691
868.756	4771
868.886	4592
869.017	4645
869.147	4771
869.278	4767
869.408	4653
869.539	4683
869.669	4759
869.799	4675
869.929	4767
870.06	4744
870.19	4930
870.32	4877
870.45	4961
870.58	5045
870.71	5166
870.84	5132
870.97	4995
871.1	4972
871.23	5143
871.36	5132
871.489	5018
871.619	5189
871.749	5124
871.879	5166
872.008	5178
872.138	5052
872.267	5006
872.397	4854
872.526	4850
872.656	4801
872.785	4839
872.915	4930
873.044	4991
873.173	5014
873.303	4999
873.432	4968
873.561	4942
873.69	4980
873.819	4870
873.948	4911
874.077	4850
874.206	4797
874.335	4820
874.464	4968
874.593	5060
874.722	5052
874.851	5140
874.979	5102
875.108	5022
875.237	4946
875.365	4927
875.494	4904
875.623	5003
875.751	4843
875.88	4949
876.008	4984
876.136	5025
876.265	5204
876.393	5357
876.521	5284
876.65	5204
876.778	5216
876.906	5052
877.034	5037
877.162	5105
877.29	4984
877.418	5071
877.546	5048
877.674	5025
877.802	5086
877.93	5064
878.058	4965
878.185	4900
878.313	4976
878.441	4953
878.568	4767
878.696	4862
878.824	4972
878.951	5025
879.079	5204
879.206	5303
879.333	5098
879.461	4965
879.588	5033
879.715	5170
879.842	5273
879.97	4999
880.097	4797
880.224	4778
880.351	4885
880.478	4835
880.605	4778
880.732	4820
880.859	5121
880.986	4892
881.112	4900
881.239	4828
881.366	4714
881.493	4596
881.619	4641
881.746	4668
881.872	4710
881.999	4637
882.125	4706
882.252	4763
882.378	4839
882.505	4980
882.631	4782
882.757	4675
882.883	4767
883.01	4687
883.136	4694
883.262	4618
883.388	4634
883.514	4828
883.64	4885
883.766	4744
883.892	4702
884.018	4752
884.143	4930
884.269	5045
884.395	4691
884.52	4622
884.646	4653
884.772	4596
884.897	4523
885.023	4664
885.148	4812
885.274	4858
885.399	4835
885.524	4736
885.65	4729
885.775	4717
885.9	4702
886.025	4889
886.15	4774
886.275	4771
886.4	4668
886.525	4736
886.65	4729
886.775	4710
886.9	4889
887.025	5048
887.149	4809
887.274	4656
887.399	4588
887.523	4710
887.648	4622
887.773	4550
887.897	4774
888.021	4763
888.146	4683
888.27	4854
888.395	4919
888.519	4858
888.643	4820
888.767	4850
888.891	4675
889.015	4618
889.139	4714
889.263	4588
889.387	4771
889.511	4866
889.635	4850
889.759	4683
889.883	4649
890.006	4740
890.13	4824
890.254	4683
890.377	4649
890.501	4546
890.624	4512
890.748	4634
890.871	4535
890.995	4474
891.118	4386
891.241	4569
891.364	4519
891.488	4653
891.611	4481
891.734	4558
891.857	4615
891.98	4497
892.103	4683
892.226	4611
892.349	4554
892.471	4394
892.594	4527
892.717	4641
892.839	4580
892.962	4615
893.085	4660
893.207	4626
893.33	4508
893.452	4584
893.575	4702
893.697	4599
893.819	4801
893.941	4919
894.064	4805
894.186	4588
894.308	4573
894.43	4748
894.552	4866
894.674	4774
894.796	4603
894.918	4664
895.04	4599
895.161	4740
895.283	4679
895.405	4607
895.526	4691
895.648	4714
895.769	4736
895.891	4733
896.012	4778
896.134	4782
896.255	4744
896.376	4721
896.498	4672
896.619	4767
896.74	4630
896.861	4717
896.982	5025
897.103	5132
897.224	4946
897.345	4812
897.466	4759
897.587	4790
897.708	4873
897.828	4782
897.949	4698
898.07	4603
898.19	4687
898.311	4873
898.431	4706
898.552	4816
898.672	4881
898.792	4850
898.913	4820
899.033	4656
899.153	4558
899.273	4519
899.393	4569
899.513	4554
899.633	4558
899.753	4637
899.873	4569
899.993	4603
900.113	4672
900.232	4664
900.352	4599
900.472	4542
900.591	4497
900.711	4527
900.83	4474
900.95	4660
901.069	4755
901.189	4622
901.308	4474
901.427	4402
901.546	4451
901.665	4485
901.784	4603
901.904	4421
902.023	4367
902.141	4234
902.26	4253
902.379	4417
902.498	4284
902.617	4299
902.735	4428
902.854	4470
902.973	4421
903.091	4265
903.21	4268
903.328	4348
903.446	4344
903.565	4344
903.683	4390
903.801	4337
903.919	4459
904.038	4478
904.156	4383
904.274	4489
904.392	4432
904.51	4538
904.627	4519
904.745	4656
904.863	4702
904.981	4489
905.098	4329
905.216	4455
905.334	4523
905.451	4508
905.569	4512
905.686	4592
905.803	4592
905.921	4516
906.038	4641
906.155	4523
906.272	4383
906.389	4470
906.506	4428
906.623	4462
906.74	4478
906.857	4402
906.974	4417
907.091	4588
907.208	4767
907.324	4664
907.441	4561
907.557	4390
907.674	4379
907.79	4421
907.907	4409
908.023	4535
908.139	4500
908.256	4512
908.372	4550
908.488	4542
908.604	4466
908.72	4375
908.836	4470
908.952	4447
909.068	4447
909.184	4599
909.3	4512
909.415	4675
909.531	4622
909.647	4451
909.762	4436
909.878	4417
909.993	4519
910.108	4470
910.224	4500
910.339	4561
910.454	4455
910.57	4436
910.685	4371
910.8	4702
910.915	4675
911.03	4561
911.145	4360
911.259	4371
911.374	4459
911.489	4344
911.604	4310
911.718	4169
911.833	4265
911.947	4131
912.062	4086
912.176	4242
912.291	4306
912.405	4295
912.519	4550
912.633	4584
912.748	4466
912.862	4379
912.976	4303
913.09	4147
913.204	4265
913.318	4310
913.431	4428
913.545	4383
913.659	4542
913.772	4436
913.886	4291
914	4280
914.113	4440
914.226	4489
914.34	4455
914.453	4303
914.566	4489
914.68	4394
914.793	4337
914.906	4215
915.019	4188
915.132	4101
915.245	4211
915.358	4268
915.47	4310
915.583	4291
915.696	4352
915.809	4417
915.921	4470
916.034	4310
916.146	4287
916.259	4295
916.371	4413
916.483	4421
916.595	4352
916.708	4386
916.82	4413
916.932	4363
917.044	4386
917.156	4405
917.268	4280
917.38	4348
917.491	4333
917.603	4417
917.715	4443
917.826	4500
917.938	4409
918.049	4280
918.161	4440
918.272	4603
918.384	4596
918.495	4516
918.606	4394
918.717	4280
918.828	4386
918.939	4447
919.05	4306
919.161	4390
919.272	4143
919.383	4257
919.494	4519
919.604	4714
919.715	4523
919.826	4375
919.936	4459
920.047	4577
920.157	4527
920.267	4759
920.378	4603
920.488	4561
920.598	4752
920.708	4953
920.818	4835
920.928	4828
921.038	5022
921.148	4972
921.258	4683
921.368	4641
921.477	4516
921.587	4504
921.697	4455
921.806	4592
921.916	4424
922.025	4360
922.134	4329
922.244	4291
922.353	4383
922.462	4234
922.571	4204
922.68	4067
922.789	4071
922.898	4097
923.007	4010
923.116	4211
923.224	4131
923.333	4124
923.442	4002
923.55	4017
923.659	4074
923.767	4154
923.876	4051
923.984	4192
924.092	4032
924.201	4166
924.309	4135
924.417	4166
924.525	4139
924.633	4143
924.741	4908
924.849	3979
924.956	4185
925.064	4010
925.172	3991
925.279	3998
925.387	4101
925.494	4124
925.602	4276
925.709	4192
925.816	4116
925.924	4181
926.031	4265
926.138	4204
926.245	4242
926.352	4139
926.459	4341
926.566	4325
926.673	4223
926.779	4162
926.886	4154
926.993	4029
927.099	4002
927.206	3975
927.312	3987
927.419	4135
927.525	4090
927.631	4131
927.737	3998
927.843	3998
927.95	3926
928.056	3975
928.162	4010
928.267	4067
928.373	4664
928.479	4204
928.585	3937
928.69	4059
928.796	4154
928.901	4025
929.007	3892
929.112	4036
929.218	4063
929.323	3987
929.428	3994
929.533	4196
929.638	3960
929.743	4029
929.848	4093
929.953	4040
930.058	4002
930.163	3850
930.267	3861
930.372	4021
930.477	3865
930.581	4169
930.685	4002
930.79	3892
930.894	3937
930.998	3907
931.103	4086
931.207	3804
931.311	3755
931.415	3751
931.519	3572
931.623	3587
