Data from test_V78500241_15.txt Node
Date: Fri Mar 25 16:49:06 CST 2022
User: usil
Spectrometer: V785-0024
Trigger mode: 0
Integration Time (sec): 4.000000E-1
Scans to average: 1
Nonlinearity correction enabled: false
Boxcar width: 0
Storing dark spectrum: false
XAxis mode: Wavelengths
Number of Pixels in Spectrum: 1024
>>>>>Begin Spectral Data<<<<<
801.071	8077
801.214	8119
801.356	7989
801.499	7970
801.641	7894
801.783	7868
801.926	8058
802.068	8001
802.211	8065
802.353	8073
802.496	7947
802.638	7974
802.78	7917
802.923	7989
803.065	7883
803.208	7871
803.35	8050
803.492	8134
803.635	8176
803.777	8043
803.919	8077
804.061	8495
804.204	8123
804.346	8031
804.488	8027
804.63	8168
804.773	8016
804.915	8123
805.057	8252
805.199	8176
805.341	8332
805.483	8282
805.626	8267
805.768	8107
805.91	8157
806.052	8263
806.194	8073
806.336	8256
806.478	8073
806.62	8115
806.762	8153
806.904	8259
807.046	8503
807.188	8412
807.33	8313
807.472	8332
807.614	8206
807.756	8138
807.898	7978
808.04	7902
808.182	7967
808.324	7902
808.465	7890
808.607	8005
808.749	8001
808.891	8237
809.033	8317
809.174	8191
809.316	8092
809.458	8054
809.6	8001
809.741	7982
809.883	8024
810.025	8077
810.166	8103
810.308	8115
810.45	8077
810.591	7936
810.733	7738
810.875	7674
811.016	7544
811.158	7487
811.299	7674
811.441	7818
811.582	7746
811.724	7613
811.865	7567
812.007	7597
812.148	7700
812.29	7704
812.431	7746
812.573	7936
812.714	7928
812.855	8130
812.997	8259
813.138	8317
813.279	8218
813.421	8119
813.562	8065
813.703	7932
813.845	7795
813.986	7491
814.127	7327
814.268	7213
814.41	7259
814.551	7225
814.692	7236
814.833	7164
814.974	7160
815.115	7206
815.256	7042
815.397	6935
815.539	6954
815.68	6821
815.821	6829
815.962	6905
816.103	6920
816.244	6722
816.385	6662
816.526	6608
816.666	6551
816.807	6353
816.948	6464
817.089	6513
817.23	6426
817.371	6460
817.512	6445
817.653	6407
817.793	6437
817.934	6429
818.075	6479
818.216	6452
818.356	6494
818.497	6311
818.638	6175
818.778	6228
818.919	6152
819.06	6163
819.2	6388
819.341	6388
819.481	6384
819.622	6585
819.762	6802
819.903	6741
820.043	6658
820.184	6688
820.324	6593
820.465	6757
820.605	6719
820.746	6677
820.886	6597
821.026	6745
821.167	6749
821.307	6833
821.447	6859
821.588	6749
821.728	6589
821.868	6498
822.008	6414
822.149	6452
822.289	6399
822.429	6205
822.569	6140
822.709	6224
822.849	6022
822.99	5916
823.13	5958
823.27	5885
823.41	5863
823.55	5836
823.69	5836
823.83	5809
823.97	5775
824.11	5615
824.25	5566
824.389	5596
824.529	5646
824.669	5592
824.809	5691
824.949	5672
825.089	5691
825.228	5619
825.368	5436
825.508	5391
825.648	5368
825.787	5383
825.927	5398
826.067	5296
826.206	5353
826.346	5474
826.485	5444
826.625	5463
826.765	5615
826.904	5490
827.044	5322
827.183	5220
827.323	5189
827.462	5288
827.601	5242
827.741	5235
827.88	5269
828.02	5121
828.159	5246
828.298	5357
828.437	5383
828.577	5353
828.716	5482
828.855	5383
828.994	5246
829.134	5189
829.273	5250
829.412	5193
829.551	5231
829.69	5227
829.829	5311
829.968	5383
830.107	5353
830.246	5383
830.385	5193
830.524	5181
830.663	5083
830.802	4987
830.941	4927
831.08	4896
831.219	4995
831.357	5029
831.496	5201
831.635	4930
831.774	4892
831.913	4892
832.051	4759
832.19	4793
832.329	4904
832.467	4733
832.606	4725
832.744	4748
832.883	4729
833.022	4790
833.16	4847
833.299	4854
833.437	4873
833.576	4915
833.714	4911
833.852	4896
833.991	4965
834.129	5045
834.267	5033
834.406	4980
834.544	4984
834.682	4991
834.821	4995
834.959	5204
835.097	5014
835.235	5189
835.373	5067
835.511	5178
835.65	5102
835.788	5102
835.926	4930
836.064	4911
836.202	5003
836.34	5189
836.478	5307
836.615	5155
836.753	5318
836.891	5311
837.029	5296
837.167	5261
837.305	5113
837.443	5201
837.58	5117
837.718	5280
837.856	5250
837.993	5174
838.131	5254
838.269	5197
838.406	5242
838.544	5250
838.681	5094
838.819	5022
838.956	4949
839.094	4980
839.231	5003
839.369	5121
839.506	5459
839.643	5246
839.781	5124
839.918	5071
840.055	5128
840.193	5109
840.33	5147
840.467	5216
840.604	5246
840.742	5501
840.879	5159
841.016	5086
841.153	5189
841.29	5387
841.427	5353
841.564	5360
841.701	5376
841.838	5311
841.975	5280
842.112	5353
842.249	5212
842.385	5064
842.522	5391
842.659	5204
842.796	5151
842.933	5254
843.069	5235
843.206	5159
843.343	5345
843.479	5284
843.616	5273
843.752	5075
843.889	5045
844.025	5269
844.162	5045
844.298	5212
844.435	5117
844.571	5086
844.708	5189
844.844	5307
844.98	5326
845.117	5299
845.253	5166
845.389	5166
845.525	5204
845.661	5212
845.798	5155
845.934	5193
846.07	5086
846.206	5269
846.342	5303
846.478	5258
846.614	5037
846.75	5014
846.886	4953
847.022	5174
847.158	5052
847.294	5113
847.429	5151
847.565	5121
847.701	5379
847.837	4892
847.972	4870
848.108	4938
848.244	4934
848.379	4809
848.515	4717
848.65	4687
848.786	4820
848.921	4805
849.057	4923
849.192	4968
849.328	4824
849.463	4900
849.598	4805
849.734	4759
849.869	4710
850.004	4691
850.14	4660
850.275	4653
850.41	4584
850.545	4565
850.68	4611
850.815	4596
850.95	4668
851.085	4930
851.22	4801
851.355	4706
851.49	4603
851.625	4694
851.76	4683
851.895	4611
852.03	4580
852.165	4683
852.299	4729
852.434	4835
852.569	4809
852.703	4850
852.838	4843
852.973	4980
853.107	5010
853.242	4793
853.376	4698
853.511	4599
853.645	4706
853.78	4881
853.914	4752
854.048	4744
854.183	4714
854.317	4782
854.451	4919
854.585	4733
854.72	4714
854.854	4847
854.988	4668
855.122	4763
855.256	4588
855.39	4759
855.524	4866
855.658	4767
855.792	4778
855.926	4793
856.06	4839
856.194	4908
856.327	4790
856.461	4691
856.595	4694
856.729	4683
856.862	4828
856.996	4812
857.13	4790
857.263	4843
857.397	4858
857.53	4740
857.664	4809
857.797	4881
857.931	4850
858.064	4801
858.197	4790
858.331	4774
858.464	4714
858.597	4584
858.731	4656
858.864	4706
858.997	4687
859.13	4717
859.263	4748
859.396	4835
859.529	4694
859.662	4691
859.795	4634
859.928	4710
860.061	4843
860.194	4812
860.327	4672
860.46	4649
860.592	4740
860.725	4797
860.858	4816
860.99	4675
861.123	4592
861.256	4592
861.388	4687
861.521	5493
861.653	4554
861.786	4550
861.918	4535
862.05	4626
862.183	4653
862.315	4736
862.447	4748
862.58	4626
862.712	4512
862.844	4417
862.976	4580
863.108	4554
863.24	4930
863.372	4424
863.504	4535
863.636	4485
863.768	4592
863.9	4481
864.032	4440
864.164	4500
864.296	4561
864.428	4649
864.559	4626
864.691	4641
864.823	4607
864.954	4577
865.086	4630
865.217	4565
865.349	4478
865.48	4573
865.612	4580
865.743	4733
865.875	4573
866.006	4516
866.137	4577
866.269	4535
866.4	4512
866.531	4512
866.662	4489
866.793	4519
866.924	4481
867.055	4550
867.186	4546
867.317	4474
867.448	4451
867.579	4466
867.71	4474
867.841	4440
867.972	4497
868.103	4573
868.233	4531
868.364	4504
868.495	4554
868.625	4702
868.756	4809
868.886	4645
869.017	4675
869.147	4915
869.278	4858
869.408	4733
869.539	4706
869.669	4793
869.799	4786
869.929	4824
870.06	4828
870.19	5003
870.32	4991
870.45	4995
870.58	5102
870.71	5197
870.84	5113
870.97	5018
871.1	5029
871.23	5250
871.36	5204
871.489	5067
871.619	5083
871.749	5128
871.879	5151
872.008	5250
872.138	5128
872.267	4972
872.397	4968
872.526	4923
872.656	4805
872.785	4877
872.915	5060
873.044	5155
873.173	5006
873.303	5010
873.432	5094
873.561	5090
873.69	4953
873.819	4972
873.948	4984
874.077	4923
874.206	4782
874.335	4858
874.464	5018
874.593	5136
874.722	5033
874.851	5185
874.979	5132
875.108	5098
875.237	5018
875.365	4965
875.494	4961
875.623	5083
875.751	4949
875.88	4965
876.008	5083
876.136	5124
876.265	5299
876.393	5474
876.521	5284
876.65	5292
876.778	5201
876.906	5201
877.034	5136
877.162	5178
877.29	5060
877.418	5178
877.546	5121
877.674	5147
877.802	5094
877.93	5048
878.058	5022
878.185	4942
878.313	5022
878.441	5052
878.568	4877
878.696	4946
878.824	5029
878.951	5086
879.079	5231
879.206	5398
879.333	5166
879.461	5067
879.588	5117
879.715	5201
879.842	5337
879.97	5090
880.097	4873
880.224	4866
880.351	4915
880.478	4938
880.605	4911
880.732	4892
880.859	5166
880.986	4980
881.112	4965
881.239	4850
881.366	4725
881.493	4702
881.619	4675
881.746	4714
881.872	4767
881.999	4733
882.125	4782
882.252	4862
882.378	4896
882.505	5056
882.631	4881
882.757	4778
882.883	4824
883.01	4801
883.136	4752
883.262	4679
883.388	4656
883.514	4896
883.64	4915
883.766	4908
883.892	4752
884.018	4854
884.143	4961
884.269	5071
884.395	4748
884.52	4675
884.646	4744
884.772	4672
884.897	4607
885.023	4733
885.148	4889
885.274	4976
885.399	4885
885.524	4793
885.65	4782
885.775	4824
885.9	4786
886.025	4885
886.15	4839
886.275	4812
886.4	4771
886.525	4862
886.65	4782
886.775	4729
886.9	4987
887.025	5151
887.149	4889
887.274	4729
887.399	4675
887.523	4729
887.648	4664
887.773	4664
887.897	4763
888.021	4877
888.146	4740
888.27	4850
888.395	4965
888.519	4892
888.643	4919
888.767	4934
888.891	4702
889.015	4668
889.139	4710
889.263	4660
889.387	4847
889.511	4953
889.635	4892
889.759	4710
889.883	4729
890.006	4793
890.13	4911
890.254	4717
890.377	4759
890.501	4630
890.624	4558
890.748	4740
890.871	4561
890.995	4504
891.118	4512
891.241	4565
891.364	4580
891.488	4752
891.611	4588
891.734	4592
891.857	4653
891.98	4634
892.103	4698
892.226	4656
892.349	4584
892.471	4512
892.594	4611
892.717	4656
892.839	4645
892.962	4656
893.085	4736
893.207	4668
893.33	4523
893.452	4573
893.575	4759
893.697	4672
893.819	4847
893.941	4892
894.064	4873
894.186	4611
894.308	4645
894.43	4835
894.552	4877
894.674	4850
894.796	4607
894.918	4725
895.04	4637
895.161	4793
895.283	4698
895.405	4645
895.526	4740
895.648	4774
895.769	4793
895.891	4790
896.012	4847
896.134	4805
896.255	4698
896.376	4702
896.498	4687
896.619	4744
896.74	4664
896.861	4736
896.982	4984
897.103	5189
897.224	4927
897.345	4858
897.466	4755
897.587	4782
897.708	4927
897.828	4873
897.949	4771
898.07	4668
898.19	4710
898.311	4927
898.431	4763
898.552	4797
898.672	4885
898.792	4828
898.913	4797
899.033	4702
899.153	4660
899.273	4523
899.393	4527
899.513	4603
899.633	4584
899.753	4645
899.873	4584
899.993	4653
900.113	4573
900.232	4675
900.352	4641
900.472	4531
900.591	4432
900.711	4561
900.83	4481
900.95	4714
901.069	4733
901.189	4618
901.308	4375
901.427	4386
901.546	4447
901.665	4561
901.784	4580
901.904	4436
902.023	4424
902.141	4257
902.26	4249
902.379	4348
902.498	4291
902.617	4310
902.735	4455
902.854	4474
902.973	4405
903.091	4238
903.21	4276
903.328	4371
903.446	4363
903.565	4325
903.683	4451
903.801	4280
903.919	4455
904.038	4481
904.156	4394
904.274	4516
904.392	4519
904.51	4493
904.627	4538
904.745	4603
904.863	4683
904.981	4436
905.098	4398
905.216	4432
905.334	4470
905.451	4493
905.569	4535
905.686	4645
905.803	4603
905.921	4466
906.038	4577
906.155	4573
906.272	4443
906.389	4538
906.506	4424
906.623	4474
906.74	4470
906.857	4394
906.974	4493
907.091	4660
907.208	4748
907.324	4664
907.441	4565
907.557	4440
907.674	4432
907.79	4424
907.907	4432
908.023	4573
908.139	4573
908.256	4470
908.372	4523
908.488	4531
908.604	4413
908.72	4398
908.836	4474
908.952	4421
909.068	4470
909.184	4630
909.3	4538
909.415	4649
909.531	4630
909.647	4413
909.762	4478
909.878	4390
909.993	4527
910.108	4512
910.224	4527
910.339	4558
910.454	4459
910.57	4443
910.685	4360
910.8	4698
910.915	4725
911.03	4565
911.145	4371
911.259	4413
911.374	4466
911.489	4394
911.604	4394
911.718	4162
911.833	4280
911.947	4173
912.062	4067
912.176	4284
912.291	4249
912.405	4333
912.519	4523
912.633	4531
912.748	4436
912.862	4386
912.976	4261
913.09	4120
913.204	4238
913.318	4242
913.431	4462
913.545	4409
913.659	4485
913.772	4383
913.886	4306
914	4291
914.113	4459
914.226	4500
914.34	4421
914.453	4284
914.566	4478
914.68	4375
914.793	4356
914.906	4207
915.019	4204
915.132	4181
915.245	4276
915.358	4265
915.47	4268
915.583	4356
915.696	4367
915.809	4481
915.921	4485
916.034	4314
916.146	4314
916.259	4246
916.371	4462
916.483	4432
916.595	4303
916.708	4352
916.82	4348
916.932	4356
917.044	4386
917.156	4371
917.268	4295
917.38	4360
917.491	4314
917.603	4421
917.715	4489
917.826	4485
917.938	4356
918.049	4299
918.161	4440
918.272	4584
918.384	4599
918.495	4489
918.606	4348
918.717	4322
918.828	4436
918.939	4398
919.05	4318
919.161	4367
919.272	4173
919.383	4272
919.494	4485
919.604	4683
919.715	4466
919.826	4443
919.936	4474
920.047	4565
920.157	4558
920.267	4763
920.378	4653
920.488	4561
920.598	4767
920.708	4927
920.818	4835
920.928	4877
921.038	4965
921.148	5010
921.258	4744
921.368	4660
921.477	4599
921.587	4489
921.697	4436
921.806	4630
921.916	4542
922.025	4325
922.134	4371
922.244	4272
922.353	4405
922.462	4280
922.571	4196
922.68	4105
922.789	4017
922.898	4150
923.007	4093
923.116	4177
923.224	4181
923.333	4173
923.442	4109
923.55	4063
923.659	4124
923.767	4177
923.876	4082
923.984	4223
924.092	4093
924.201	4177
924.309	4131
924.417	4246
924.525	4185
924.633	4204
924.741	5178
924.849	4044
924.956	4211
925.064	4071
925.172	4021
925.279	4055
925.387	4120
925.494	4101
925.602	4337
925.709	4257
925.816	4147
925.924	4181
926.031	4325
926.138	4325
926.245	4322
926.352	4185
926.459	4356
926.566	4428
926.673	4234
926.779	4158
926.886	4181
926.993	4051
927.099	4044
927.206	4036
927.312	4063
927.419	4128
927.525	4120
927.631	4154
927.737	4063
927.843	4040
927.95	3903
928.056	4036
928.162	4086
928.267	4147
928.373	4812
928.479	4219
928.585	3975
928.69	4139
928.796	4204
928.901	4055
929.007	3945
929.112	4139
929.218	4150
929.323	4017
929.428	4040
929.533	4185
929.638	3991
929.743	4055
929.848	4124
929.953	4090
930.058	4010
930.163	3838
930.267	3918
930.372	4032
930.477	3896
930.581	4150
930.685	4059
930.79	3915
930.894	3983
930.998	3972
931.103	4105
931.207	3774
931.311	3774
931.415	3781
931.519	3622
931.623	3625
