Data from test_V78500241_2510.txt Node
Date: Fri Mar 25 17:06:27 CST 2022
User: usil
Spectrometer: V785-0024
Trigger mode: 0
Integration Time (sec): 4.000000E-1
Scans to average: 1
Nonlinearity correction enabled: false
Boxcar width: 0
Storing dark spectrum: false
XAxis mode: Wavelengths
Number of Pixels in Spectrum: 1024
>>>>>Begin Spectral Data<<<<<
801.071	8001
801.214	8016
801.356	7849
801.499	7852
801.641	7776
801.783	7841
801.926	7928
802.068	7955
802.211	7997
802.353	7974
802.496	7818
802.638	7890
802.78	7868
802.923	7852
803.065	7906
803.208	7883
803.35	7902
803.492	8008
803.635	8145
803.777	8092
803.919	8164
804.061	8347
804.204	8157
804.346	8145
804.488	7951
804.63	8088
804.773	7989
804.915	8073
805.057	8362
805.199	8126
805.341	8214
805.483	8259
805.626	8221
805.768	8161
805.91	8157
806.052	8214
806.194	8100
806.336	8275
806.478	8096
806.62	8065
806.762	8103
806.904	8191
807.046	8457
807.188	8309
807.33	8267
807.472	8305
807.614	8149
807.756	8157
807.898	7993
808.04	7845
808.182	7833
808.324	7860
808.465	7928
808.607	8103
808.749	8111
808.891	8149
809.033	8343
809.174	8225
809.316	8073
809.458	8077
809.6	7925
809.741	7997
809.883	8016
810.025	8138
810.166	8107
810.308	7989
810.45	8035
810.591	7883
810.733	7723
810.875	7681
811.016	7487
811.158	7483
811.299	7578
811.441	7677
811.582	7704
811.724	7518
811.865	7506
812.007	7582
812.148	7628
812.29	7647
812.431	7715
812.573	7841
812.714	8020
812.855	8134
812.997	8210
813.138	8248
813.279	8164
813.421	8088
813.562	7955
813.703	7890
813.845	7723
813.986	7445
814.127	7247
814.268	7183
814.41	7213
814.551	7190
814.692	7187
814.833	7076
814.974	7110
815.115	7057
815.256	6962
815.397	6939
815.539	6954
815.68	6852
815.821	6753
815.962	6875
816.103	6848
816.244	6734
816.385	6703
816.526	6658
816.666	6479
816.807	6315
816.948	6460
817.089	6494
817.23	6460
817.371	6380
817.512	6391
817.653	6410
817.793	6331
817.934	6426
818.075	6445
818.216	6376
818.356	6369
818.497	6232
818.638	6133
818.778	6102
818.919	6110
819.06	6140
819.2	6334
819.341	6346
819.481	6414
819.622	6521
819.762	6741
819.903	6734
820.043	6642
820.184	6623
820.324	6563
820.465	6703
820.605	6692
820.746	6635
820.886	6578
821.026	6635
821.167	6738
821.307	6707
821.447	6741
821.588	6684
821.728	6601
821.868	6532
822.008	6323
822.149	6372
822.289	6410
822.429	6144
822.569	6026
822.709	6125
822.849	5923
822.99	5916
823.13	5939
823.27	5977
823.41	5805
823.55	5771
823.69	5764
823.83	5824
823.97	5653
824.11	5516
824.25	5478
824.389	5592
824.529	5611
824.669	5493
824.809	5688
824.949	5665
825.089	5566
825.228	5554
825.368	5410
825.508	5345
825.648	5334
825.787	5410
825.927	5360
826.067	5379
826.206	5288
826.346	5395
826.485	5372
826.625	5444
826.765	5554
826.904	5493
827.044	5292
827.183	5155
827.323	5132
827.462	5265
827.601	5181
827.741	5181
827.88	5151
828.02	5060
828.159	5246
828.298	5337
828.437	5353
828.577	5303
828.716	5505
828.855	5315
828.994	5147
829.134	5109
829.273	5242
829.412	5181
829.551	5113
829.69	5128
829.829	5265
829.968	5372
830.107	5223
830.246	5212
830.385	5178
830.524	5098
830.663	5056
830.802	4961
830.941	4801
831.08	4839
831.219	4976
831.357	4987
831.496	5155
831.635	4968
831.774	4835
831.913	4866
832.051	4748
832.19	4763
832.329	4801
832.467	4679
832.606	4577
832.744	4736
832.883	4740
833.022	4702
833.16	4748
833.299	4801
833.437	4828
833.576	4870
833.714	4870
833.852	4850
833.991	4911
834.129	4968
834.267	4942
834.406	4858
834.544	4965
834.682	4987
834.821	4968
834.959	5178
835.097	5003
835.235	5162
835.373	5124
835.511	5083
835.65	5029
835.788	5025
835.926	4877
836.064	4892
836.202	4938
836.34	5201
836.478	5284
836.615	5079
836.753	5246
836.891	5284
837.029	5220
837.167	5254
837.305	5178
837.443	5166
837.58	5075
837.718	5220
837.856	5204
837.993	5166
838.131	5201
838.269	5258
838.406	5166
838.544	5185
838.681	5010
838.819	5014
838.956	4923
839.094	4873
839.231	4968
839.369	5048
839.506	5440
839.643	5296
839.781	5022
839.918	5025
840.055	5147
840.193	5075
840.33	5132
840.467	5102
840.604	5170
840.742	5459
840.879	5010
841.016	5132
841.153	5159
841.29	5307
841.427	5311
841.564	5318
841.701	5326
841.838	5242
841.975	5261
842.112	5311
842.249	5090
842.385	5155
842.522	5307
842.659	5201
842.796	5140
842.933	5254
843.069	5189
843.206	5159
843.343	5277
843.479	5288
843.616	5231
843.752	5037
843.889	5045
844.025	5143
844.162	4995
844.298	5189
844.435	5102
844.571	5041
844.708	5227
844.844	5303
844.98	5322
845.117	5303
845.253	5113
845.389	5083
845.525	5121
845.661	5117
845.798	5048
845.934	5170
846.07	5025
846.206	5147
846.342	5280
846.478	5181
846.614	5014
846.75	4946
846.886	4919
847.022	5109
847.158	4999
847.294	5056
847.429	5102
847.565	5037
847.701	5258
847.837	4824
847.972	4744
848.108	4915
848.244	4934
848.379	4763
848.515	4744
848.65	4672
848.786	4805
848.921	4786
849.057	4873
849.192	4873
849.328	4843
849.463	4850
849.598	4793
849.734	4740
849.869	4615
850.004	4607
850.14	4626
850.275	4603
850.41	4519
850.545	4550
850.68	4618
850.815	4664
850.95	4615
851.085	4816
851.22	4721
851.355	4664
851.49	4626
851.625	4645
851.76	4653
851.895	4611
852.03	4535
852.165	4725
852.299	4660
852.434	4797
852.569	4752
852.703	4793
852.838	4873
852.973	4870
853.107	4911
853.242	4733
853.376	4656
853.511	4554
853.645	4618
853.78	4801
853.914	4683
854.048	4664
854.183	4649
854.317	4694
854.451	4862
854.585	4687
854.72	4683
854.854	4725
854.988	4607
855.122	4645
855.256	4519
855.39	4664
855.524	4755
855.658	4729
855.792	4672
855.926	4721
856.06	4698
856.194	4820
856.327	4672
856.461	4599
856.595	4603
856.729	4569
856.862	4740
856.996	4645
857.13	4706
857.263	4752
857.397	4797
857.53	4645
857.664	4714
857.797	4721
857.931	4763
858.064	4660
858.197	4687
858.331	4603
858.464	4618
858.597	4538
858.731	4630
858.864	4691
858.997	4603
859.13	4641
859.263	4668
859.396	4668
859.529	4592
859.662	4569
859.795	4569
859.928	4649
860.061	4774
860.194	4767
860.327	4641
860.46	4565
860.592	4656
860.725	4721
860.858	4774
860.99	4550
861.123	4493
861.256	4531
861.388	4584
861.521	5208
861.653	4440
861.786	4455
861.918	4451
862.05	4504
862.183	4577
862.315	4577
862.447	4641
862.58	4577
862.712	4371
862.844	4329
862.976	4504
863.108	4462
863.24	4850
863.372	4322
863.504	4428
863.636	4421
863.768	4455
863.9	4447
864.032	4363
864.164	4390
864.296	4424
864.428	4546
864.559	4527
864.691	4497
864.823	4523
864.954	4485
865.086	4500
865.217	4470
865.349	4409
865.48	4428
865.612	4470
865.743	4641
865.875	4497
866.006	4417
866.137	4459
866.269	4413
866.4	4390
866.531	4424
866.662	4405
866.793	4440
866.924	4383
867.055	4481
867.186	4409
867.317	4402
867.448	4402
867.579	4379
867.71	4417
867.841	4386
867.972	4405
868.103	4421
868.233	4421
868.364	4440
868.495	4447
868.625	4630
868.756	4744
868.886	4550
869.017	4630
869.147	4759
869.278	4740
869.408	4630
869.539	4660
869.669	4748
869.799	4637
869.929	4725
870.06	4725
870.19	4911
870.32	4911
870.45	4930
870.58	5018
870.71	5105
870.84	5075
870.97	4961
871.1	4858
871.23	5140
871.36	5124
871.489	4972
871.619	5041
871.749	5083
871.879	5121
872.008	5162
872.138	5102
872.267	4930
872.397	4866
872.526	4824
872.656	4714
872.785	4812
872.915	4972
873.044	5056
873.173	4885
873.303	4930
873.432	4961
873.561	4991
873.69	4877
873.819	4873
873.948	4927
874.077	4831
874.206	4736
874.335	4812
874.464	4965
874.593	5045
874.722	4965
874.851	5143
874.979	5086
875.108	5071
875.237	4892
875.365	4870
875.494	4866
875.623	4961
875.751	4870
875.88	4866
876.008	5014
876.136	5025
876.265	5185
876.393	5315
876.521	5277
876.65	5193
876.778	5155
876.906	5067
877.034	4972
877.162	5033
877.29	5003
877.418	5079
877.546	5056
877.674	5041
877.802	5025
877.93	5083
878.058	4930
878.185	4873
878.313	4972
878.441	4904
878.568	4774
878.696	4809
878.824	4961
878.951	4980
879.079	5090
879.206	5296
879.333	5067
879.461	4930
879.588	5045
879.715	5083
879.842	5265
879.97	5014
880.097	4778
880.224	4736
880.351	4812
880.478	4828
880.605	4767
880.732	4828
880.859	5056
880.986	4858
881.112	4938
881.239	4771
881.366	4622
881.493	4603
881.619	4588
881.746	4599
881.872	4649
881.999	4672
882.125	4649
882.252	4782
882.378	4805
882.505	4987
882.631	4774
882.757	4637
882.883	4767
883.01	4698
883.136	4653
883.262	4554
883.388	4611
883.514	4835
883.64	4889
883.766	4812
883.892	4672
884.018	4721
884.143	4854
884.269	4976
884.395	4679
884.52	4615
884.646	4634
884.772	4538
884.897	4565
885.023	4653
885.148	4763
885.274	4854
885.399	4755
885.524	4733
885.65	4672
885.775	4721
885.9	4710
886.025	4900
886.15	4847
886.275	4710
886.4	4664
886.525	4694
886.65	4664
886.775	4668
886.9	4873
887.025	5052
887.149	4801
887.274	4649
887.399	4603
887.523	4569
887.648	4546
887.773	4584
887.897	4828
888.021	4774
888.146	4637
888.27	4820
888.395	4908
888.519	4793
888.643	4801
888.767	4809
888.891	4679
889.015	4603
889.139	4641
889.263	4603
889.387	4763
889.511	4812
889.635	4706
889.759	4607
889.883	4626
890.006	4744
890.13	4824
890.254	4607
890.377	4649
890.501	4523
890.624	4538
890.748	4645
890.871	4508
890.995	4432
891.118	4379
891.241	4516
891.364	4512
891.488	4630
891.611	4462
891.734	4538
891.857	4592
891.98	4558
892.103	4653
892.226	4584
892.349	4554
892.471	4405
892.594	4519
892.717	4523
892.839	4550
892.962	4603
893.085	4645
893.207	4558
893.33	4405
893.452	4500
893.575	4687
893.697	4561
893.819	4801
893.941	4839
894.064	4752
894.186	4531
894.308	4565
894.43	4675
894.552	4805
894.674	4763
894.796	4573
894.918	4569
895.04	4550
895.161	4710
895.283	4668
895.405	4546
895.526	4649
895.648	4656
895.769	4683
895.891	4683
896.012	4763
896.134	4618
896.255	4603
896.376	4656
896.498	4649
896.619	4653
896.74	4580
896.861	4641
896.982	4953
897.103	5064
897.224	4778
897.345	4717
897.466	4683
897.587	4752
897.708	4877
897.828	4816
897.949	4710
898.07	4535
898.19	4641
898.311	4790
898.431	4660
898.552	4744
898.672	4801
898.792	4812
898.913	4801
899.033	4622
899.153	4535
899.273	4451
899.393	4523
899.513	4538
899.633	4573
899.753	4573
899.873	4516
899.993	4603
900.113	4569
900.232	4615
900.352	4592
900.472	4485
900.591	4409
900.711	4546
900.83	4516
900.95	4649
901.069	4721
901.189	4603
901.308	4413
901.427	4390
901.546	4413
901.665	4508
901.784	4554
901.904	4424
902.023	4352
902.141	4242
902.26	4196
902.379	4356
902.498	4272
902.617	4268
902.735	4436
902.854	4413
902.973	4402
903.091	4238
903.21	4276
903.328	4360
903.446	4276
903.565	4280
903.683	4390
903.801	4310
903.919	4413
904.038	4485
904.156	4352
904.274	4470
904.392	4398
904.51	4466
904.627	4527
904.745	4580
904.863	4668
904.981	4436
905.098	4352
905.216	4402
905.334	4474
905.451	4428
905.569	4478
905.686	4588
905.803	4626
905.921	4413
906.038	4573
906.155	4554
906.272	4440
906.389	4481
906.506	4413
906.623	4428
906.74	4424
906.857	4344
906.974	4428
907.091	4618
907.208	4729
907.324	4645
907.441	4550
907.557	4386
907.674	4417
907.79	4363
907.907	4402
908.023	4554
908.139	4519
908.256	4451
908.372	4523
908.488	4500
908.604	4367
908.72	4341
908.836	4402
908.952	4413
909.068	4455
909.184	4607
909.3	4493
909.415	4584
909.531	4580
909.647	4432
909.762	4421
909.878	4337
909.993	4447
910.108	4466
910.224	4451
910.339	4504
910.454	4432
910.57	4402
910.685	4333
910.8	4672
910.915	4615
911.03	4535
911.145	4379
911.259	4379
911.374	4436
911.489	4306
911.604	4322
911.718	4162
911.833	4215
911.947	4147
912.062	4040
912.176	4192
912.291	4287
912.405	4306
912.519	4436
912.633	4504
912.748	4402
912.862	4356
912.976	4219
913.09	4135
913.204	4200
913.318	4287
913.431	4402
913.545	4417
913.659	4459
913.772	4386
913.886	4287
914	4261
914.113	4383
914.226	4455
914.34	4398
914.453	4287
914.566	4489
914.68	4337
914.793	4360
914.906	4188
915.019	4105
915.132	4158
915.245	4185
915.358	4238
915.47	4219
915.583	4337
915.696	4314
915.809	4371
915.921	4504
916.034	4261
916.146	4295
916.259	4246
916.371	4379
916.483	4428
916.595	4284
916.708	4379
916.82	4337
916.932	4363
917.044	4348
917.156	4348
917.268	4242
917.38	4299
917.491	4306
917.603	4386
917.715	4432
917.826	4455
917.938	4394
918.049	4287
918.161	4413
918.272	4538
918.384	4542
918.495	4474
918.606	4352
918.717	4276
918.828	4402
918.939	4390
919.05	4287
919.161	4360
919.272	4154
919.383	4257
919.494	4451
919.604	4691
919.715	4455
919.826	4390
919.936	4417
920.047	4558
920.157	4519
920.267	4721
920.378	4618
920.488	4554
920.598	4763
920.708	4847
920.818	4790
920.928	4809
921.038	4980
921.148	4984
921.258	4660
921.368	4558
921.477	4577
921.587	4512
921.697	4428
921.806	4596
921.916	4489
922.025	4310
922.134	4284
922.244	4253
922.353	4371
922.462	4192
922.571	4166
922.68	4036
922.789	3998
922.898	4067
923.007	4032
923.116	4116
923.224	4086
923.333	4097
923.442	4025
923.55	3987
923.659	4051
923.767	4109
923.876	4032
923.984	4120
924.092	4051
924.201	4143
924.309	4071
924.417	4135
924.525	4063
924.633	4112
924.741	5064
924.849	3964
924.956	4158
925.064	4002
925.172	3960
925.279	4017
925.387	4090
925.494	4078
925.602	4204
925.709	4150
925.816	4055
925.924	4166
926.031	4253
926.138	4200
926.245	4227
926.352	4173
926.459	4253
926.566	4318
926.673	4177
926.779	4090
926.886	4082
926.993	4036
927.099	4006
927.206	3975
927.312	3975
927.419	4048
927.525	4105
927.631	4093
927.737	3994
927.843	3987
927.95	3869
928.056	4002
928.162	4021
928.267	4063
928.373	4634
928.479	4131
928.585	3888
928.69	4002
928.796	4078
928.901	3994
929.007	3873
929.112	4032
929.218	3960
929.323	3945
929.428	4006
929.533	4158
929.638	3892
929.743	4025
929.848	4078
929.953	4017
930.058	3926
930.163	3789
930.267	3876
930.372	3998
930.477	3816
930.581	4158
930.685	3941
930.79	3804
930.894	3915
930.998	3869
931.103	4112
931.207	3694
931.311	3679
931.415	3724
931.519	3530
931.623	3534
