Data from test_V78500241_433.txt Node
Date: Fri Mar 25 16:52:00 CST 2022
User: usil
Spectrometer: V785-0024
Trigger mode: 0
Integration Time (sec): 4.000000E-1
Scans to average: 1
Nonlinearity correction enabled: false
Boxcar width: 0
Storing dark spectrum: false
XAxis mode: Wavelengths
Number of Pixels in Spectrum: 1024
>>>>>Begin Spectral Data<<<<<
801.071	8084
801.214	8024
801.356	7928
801.499	7932
801.641	7830
801.783	7845
801.926	7959
802.068	8020
802.211	7974
802.353	8046
802.496	7883
802.638	7906
802.78	7898
802.923	7917
803.065	7887
803.208	7845
803.35	7928
803.492	8020
803.635	8115
803.777	7970
803.919	8142
804.061	8412
804.204	8183
804.346	8039
804.488	7909
804.63	8058
804.773	8050
804.915	8077
805.057	8317
805.199	8183
805.341	8259
805.483	8286
805.626	8172
805.768	8103
805.91	8092
806.052	8164
806.194	8187
806.336	8328
806.478	8149
806.62	8107
806.762	8210
806.904	8309
807.046	8480
807.188	8347
807.33	8332
807.472	8294
807.614	8240
807.756	8168
807.898	8065
808.04	7978
808.182	7940
808.324	7936
808.465	7974
808.607	8081
808.749	8107
808.891	8256
809.033	8396
809.174	8206
809.316	8024
809.458	8145
809.6	8020
809.741	8069
809.883	8050
810.025	8168
810.166	8123
810.308	8111
810.45	7982
810.591	7928
810.733	7792
810.875	7765
811.016	7575
811.158	7616
811.299	7655
811.441	7837
811.582	7776
811.724	7594
811.865	7586
812.007	7651
812.148	7628
812.29	7647
812.431	7799
812.573	7936
812.714	8092
812.855	8202
812.997	8229
813.138	8324
813.279	8248
813.421	8191
813.562	8123
813.703	7963
813.845	7883
813.986	7552
814.127	7403
814.268	7346
814.41	7247
814.551	7190
814.692	7263
814.833	7114
814.974	7152
815.115	7107
815.256	6970
815.397	6954
815.539	6932
815.68	6848
815.821	6878
815.962	6886
816.103	6890
816.244	6764
816.385	6719
816.526	6677
816.666	6566
816.807	6346
816.948	6502
817.089	6555
817.23	6506
817.371	6426
817.512	6452
817.653	6433
817.793	6426
817.934	6464
818.075	6525
818.216	6471
818.356	6486
818.497	6270
818.638	6182
818.778	6159
818.919	6167
819.06	6224
819.2	6357
819.341	6346
819.481	6452
819.622	6536
819.762	6726
819.903	6787
820.043	6566
820.184	6608
820.324	6559
820.465	6684
820.605	6654
820.746	6623
820.886	6566
821.026	6726
821.167	6768
821.307	6844
821.447	6878
821.588	6741
821.728	6642
821.868	6494
822.008	6353
822.149	6414
822.289	6407
822.429	6209
822.569	6079
822.709	6155
822.849	5920
822.99	5942
823.13	5942
823.27	5992
823.41	5821
823.55	5840
823.69	5813
823.83	5824
823.97	5676
824.11	5562
824.25	5608
824.389	5611
824.529	5676
824.669	5573
824.809	5703
824.949	5745
825.089	5638
825.228	5589
825.368	5463
825.508	5398
825.648	5360
825.787	5406
825.927	5417
826.067	5395
826.206	5246
826.346	5395
826.485	5436
826.625	5398
826.765	5585
826.904	5558
827.044	5292
827.183	5235
827.323	5185
827.462	5315
827.601	5193
827.741	5250
827.88	5212
828.02	5185
828.159	5242
828.298	5307
828.437	5417
828.577	5265
828.716	5482
828.855	5368
828.994	5189
829.134	5208
829.273	5201
829.412	5174
829.551	5113
829.69	5189
829.829	5326
829.968	5410
830.107	5311
830.246	5315
830.385	5220
830.524	5094
830.663	5090
830.802	4991
830.941	4896
831.08	4930
831.219	5037
831.357	4980
831.496	5170
831.635	4915
831.774	4892
831.913	4835
832.051	4759
832.19	4786
832.329	4866
832.467	4721
832.606	4694
832.744	4748
832.883	4729
833.022	4755
833.16	4790
833.299	4854
833.437	4843
833.576	4858
833.714	4885
833.852	4923
833.991	4927
834.129	4972
834.267	4999
834.406	4934
834.544	5006
834.682	5006
834.821	5037
834.959	5185
835.097	5010
835.235	5242
835.373	5132
835.511	5128
835.65	5102
835.788	5075
835.926	4930
836.064	4870
836.202	4980
836.34	5166
836.478	5284
836.615	5124
836.753	5250
836.891	5307
837.029	5288
837.167	5189
837.305	5147
837.443	5155
837.58	5113
837.718	5288
837.856	5201
837.993	5197
838.131	5250
838.269	5250
838.406	5231
838.544	5277
838.681	5045
838.819	5079
838.956	4915
839.094	4923
839.231	5025
839.369	5090
839.506	5433
839.643	5296
839.781	5022
839.918	5033
840.055	5094
840.193	5086
840.33	5136
840.467	5185
840.604	5216
840.742	5467
840.879	5128
841.016	5098
841.153	5181
841.29	5360
841.427	5368
841.564	5364
841.701	5345
841.838	5280
841.975	5235
842.112	5292
842.249	5166
842.385	5098
842.522	5337
842.659	5197
842.796	5216
842.933	5246
843.069	5239
843.206	5132
843.343	5364
843.479	5185
843.616	5334
843.752	5022
843.889	4946
844.025	5235
844.162	5056
844.298	5246
844.435	5113
844.571	5029
844.708	5242
844.844	5322
844.98	5349
845.117	5372
845.253	5143
845.389	5124
845.525	5181
845.661	5136
845.798	5025
845.934	5162
846.07	5117
846.206	5220
846.342	5292
846.478	5204
846.614	5075
846.75	5029
846.886	4972
847.022	5185
847.158	5094
847.294	5094
847.429	5090
847.565	5064
847.701	5387
847.837	4892
847.972	4850
848.108	4953
848.244	4968
848.379	4816
848.515	4752
848.65	4774
848.786	4778
848.921	4854
849.057	4915
849.192	4953
849.328	4847
849.463	4843
849.598	4816
849.734	4809
849.869	4744
850.004	4691
850.14	4683
850.275	4641
850.41	4558
850.545	4577
850.68	4580
850.815	4656
850.95	4607
851.085	4812
851.22	4801
851.355	4668
851.49	4599
851.625	4641
851.76	4630
851.895	4622
852.03	4554
852.165	4710
852.299	4717
852.434	4805
852.569	4694
852.703	4793
852.838	4904
852.973	4987
853.107	5018
853.242	4774
853.376	4729
853.511	4565
853.645	4664
853.78	4816
853.914	4710
854.048	4714
854.183	4664
854.317	4702
854.451	4870
854.585	4733
854.72	4656
854.854	4729
854.988	4622
855.122	4649
855.256	4573
855.39	4706
855.524	4793
855.658	4729
855.792	4786
855.926	4752
856.06	4748
856.194	4797
856.327	4725
856.461	4653
856.595	4645
856.729	4626
856.862	4790
856.996	4717
857.13	4733
857.263	4805
857.397	4854
857.53	4675
857.664	4782
857.797	4797
857.931	4774
858.064	4679
858.197	4778
858.331	4710
858.464	4660
858.597	4558
858.731	4691
858.864	4649
858.997	4637
859.13	4637
859.263	4752
859.396	4687
859.529	4607
859.662	4611
859.795	4569
859.928	4679
860.061	4805
860.194	4782
860.327	4668
860.46	4641
860.592	4706
860.725	4812
860.858	4706
860.99	4603
861.123	4527
861.256	4508
861.388	4634
861.521	5493
861.653	4516
861.786	4417
861.918	4500
862.05	4561
862.183	4558
862.315	4634
862.447	4694
862.58	4550
862.712	4447
862.844	4371
862.976	4523
863.108	4497
863.24	4717
863.372	4325
863.504	4436
863.636	4443
863.768	4519
863.9	4470
864.032	4383
864.164	4402
864.296	4493
864.428	4558
864.559	4542
864.691	4592
864.823	4535
864.954	4516
865.086	4523
865.217	4459
865.349	4417
865.48	4538
865.612	4531
865.743	4641
865.875	4485
866.006	4413
866.137	4478
866.269	4451
866.4	4436
866.531	4409
866.662	4405
866.793	4398
866.924	4470
867.055	4508
867.186	4489
867.317	4424
867.448	4371
867.579	4424
867.71	4440
867.841	4360
867.972	4474
868.103	4523
868.233	4474
868.364	4451
868.495	4542
868.625	4668
868.756	4771
868.886	4630
869.017	4645
869.147	4793
869.278	4774
869.408	4672
869.539	4626
869.669	4725
869.799	4687
869.929	4790
870.06	4733
870.19	4968
870.32	4980
870.45	4911
870.58	5010
870.71	5067
870.84	5155
870.97	4927
871.1	4927
871.23	5147
871.36	5151
871.489	5052
871.619	5109
871.749	5128
871.879	5166
872.008	5197
872.138	5086
872.267	5006
872.397	4870
872.526	4778
872.656	4740
872.785	4847
872.915	4968
873.044	5067
873.173	5003
873.303	5014
873.432	5025
873.561	4991
873.69	4854
873.819	4908
873.948	4911
874.077	4835
874.206	4805
874.335	4847
874.464	4976
874.593	5075
874.722	4946
874.851	5098
874.979	5121
875.108	5056
875.237	4919
875.365	4911
875.494	4900
875.623	4965
875.751	4797
875.88	4870
876.008	4949
876.136	5014
876.265	5216
876.393	5330
876.521	5265
876.65	5204
876.778	5136
876.906	5098
877.034	5067
877.162	5056
877.29	5075
877.418	5090
877.546	5033
877.674	5052
877.802	5041
877.93	5098
878.058	4976
878.185	4889
878.313	4991
878.441	4987
878.568	4733
878.696	4900
878.824	5014
878.951	4995
879.079	5166
879.206	5288
879.333	5159
879.461	4987
879.588	5090
879.715	5124
879.842	5242
879.97	5029
880.097	4797
880.224	4736
880.351	4797
880.478	4847
880.605	4828
880.732	4778
880.859	5124
880.986	4904
881.112	4972
881.239	4752
881.366	4687
881.493	4611
881.619	4588
881.746	4668
881.872	4668
881.999	4672
882.125	4668
882.252	4797
882.378	4824
882.505	4930
882.631	4858
882.757	4710
882.883	4710
883.01	4801
883.136	4694
883.262	4599
883.388	4630
883.514	4797
883.64	4850
883.766	4809
883.892	4714
884.018	4797
884.143	4915
884.269	5010
884.395	4706
884.52	4649
884.646	4710
884.772	4538
884.897	4584
885.023	4668
885.148	4812
885.274	4892
885.399	4839
885.524	4706
885.65	4698
885.775	4767
885.9	4733
886.025	4866
886.15	4725
886.275	4752
886.4	4634
886.525	4721
886.65	4752
886.775	4706
886.9	4892
887.025	5048
887.149	4839
887.274	4710
887.399	4634
887.523	4584
887.648	4622
887.773	4630
887.897	4733
888.021	4809
888.146	4672
888.27	4843
888.395	4915
888.519	4805
888.643	4843
888.767	4831
888.891	4691
889.015	4588
889.139	4694
889.263	4618
889.387	4782
889.511	4858
889.635	4839
889.759	4611
889.883	4618
890.006	4740
890.13	4854
890.254	4641
890.377	4634
890.501	4504
890.624	4523
890.748	4645
890.871	4546
890.995	4470
891.118	4390
891.241	4489
891.364	4558
891.488	4637
891.611	4554
891.734	4577
891.857	4603
891.98	4588
892.103	4603
892.226	4577
892.349	4577
892.471	4417
892.594	4577
892.717	4618
892.839	4611
892.962	4630
893.085	4664
893.207	4615
893.33	4497
893.452	4523
893.575	4702
893.697	4603
893.819	4835
893.941	4877
894.064	4812
894.186	4599
894.308	4554
894.43	4759
894.552	4870
894.674	4748
894.796	4573
894.918	4607
895.04	4546
895.161	4733
895.283	4698
895.405	4573
895.526	4660
895.648	4691
895.769	4744
895.891	4710
896.012	4717
896.134	4721
896.255	4675
896.376	4611
896.498	4634
896.619	4698
896.74	4668
896.861	4626
896.982	4930
897.103	5018
897.224	4847
897.345	4748
897.466	4710
897.587	4717
897.708	4843
897.828	4774
897.949	4694
898.07	4588
898.19	4675
898.311	4835
898.431	4637
898.552	4710
898.672	4820
898.792	4805
898.913	4748
899.033	4622
899.153	4531
899.273	4405
899.393	4550
899.513	4523
899.633	4512
899.753	4512
899.873	4535
899.993	4603
900.113	4531
900.232	4584
900.352	4538
900.472	4531
900.591	4402
900.711	4470
900.83	4474
900.95	4672
901.069	4694
901.189	4523
901.308	4352
901.427	4333
901.546	4390
901.665	4451
901.784	4451
901.904	4428
902.023	4310
902.141	4185
902.26	4177
902.379	4318
902.498	4265
902.617	4246
902.735	4360
902.854	4394
902.973	4409
903.091	4238
903.21	4196
903.328	4303
903.446	4329
903.565	4291
903.683	4356
903.801	4318
903.919	4402
904.038	4481
904.156	4337
904.274	4489
904.392	4417
904.51	4424
904.627	4470
904.745	4546
904.863	4645
904.981	4405
905.098	4318
905.216	4360
905.334	4421
905.451	4455
905.569	4455
905.686	4546
905.803	4588
905.921	4459
906.038	4542
906.155	4508
906.272	4428
906.389	4440
906.506	4371
906.623	4375
906.74	4398
906.857	4318
906.974	4413
907.091	4592
907.208	4744
907.324	4573
907.441	4481
907.557	4413
907.674	4341
907.79	4318
907.907	4371
908.023	4481
908.139	4508
908.256	4478
908.372	4432
908.488	4443
908.604	4405
908.72	4322
908.836	4352
908.952	4352
909.068	4417
909.184	4592
909.3	4489
909.415	4550
909.531	4573
909.647	4383
909.762	4329
909.878	4367
909.993	4402
910.108	4379
910.224	4424
910.339	4497
910.454	4398
910.57	4318
910.685	4367
910.8	4630
910.915	4634
911.03	4481
911.145	4337
911.259	4318
911.374	4363
911.489	4295
911.604	4284
911.718	4162
911.833	4192
911.947	4109
912.062	4029
912.176	4147
912.291	4219
912.405	4268
912.519	4459
912.633	4516
912.748	4341
912.862	4318
912.976	4192
913.09	4135
913.204	4211
913.318	4280
913.431	4390
913.545	4405
913.659	4417
913.772	4386
913.886	4230
914	4276
914.113	4402
914.226	4474
914.34	4379
914.453	4223
914.566	4424
914.68	4310
914.793	4284
914.906	4154
915.019	4143
915.132	4097
915.245	4185
915.358	4223
915.47	4223
915.583	4310
915.696	4352
915.809	4459
915.921	4443
916.034	4265
916.146	4249
916.259	4234
916.371	4367
916.483	4371
916.595	4306
916.708	4352
916.82	4295
916.932	4375
917.044	4356
917.156	4356
917.268	4207
917.38	4310
917.491	4272
917.603	4348
917.715	4386
917.826	4455
917.938	4363
918.049	4242
918.161	4413
918.272	4531
918.384	4550
918.495	4466
918.606	4303
918.717	4238
918.828	4379
918.939	4367
919.05	4234
919.161	4325
919.272	4166
919.383	4249
919.494	4451
919.604	4683
919.715	4398
919.826	4333
919.936	4383
920.047	4550
920.157	4497
920.267	4710
920.378	4519
920.488	4523
920.598	4736
920.708	4847
920.818	4725
920.928	4763
921.038	4938
921.148	4942
921.258	4637
921.368	4561
921.477	4500
921.587	4508
921.697	4390
921.806	4523
921.916	4436
922.025	4291
922.134	4242
922.244	4215
922.353	4284
922.462	4177
922.571	4147
922.68	4044
922.789	3983
922.898	4071
923.007	4002
923.116	4112
923.224	4067
923.333	4032
923.442	3991
923.55	4010
923.659	4010
923.767	4120
923.876	4029
923.984	4116
924.092	3956
924.201	4044
924.309	4105
924.417	4116
924.525	4021
924.633	4139
924.741	5067
924.849	3903
924.956	4166
925.064	3991
925.172	3937
925.279	3998
925.387	4006
925.494	4071
925.602	4223
925.709	4177
925.816	4059
925.924	4150
926.031	4249
926.138	4223
926.245	4207
926.352	4074
926.459	4291
926.566	4329
926.673	4147
926.779	4063
926.886	4071
926.993	3964
927.099	3975
927.206	3949
927.312	3960
927.419	4078
927.525	4093
927.631	4048
927.737	3934
927.843	3915
927.95	3857
928.056	3960
928.162	4006
928.267	4040
928.373	4717
928.479	4074
928.585	3873
928.69	4036
928.796	4074
928.901	4017
929.007	3854
929.112	4032
929.218	3964
929.323	3896
929.428	3937
929.533	4093
929.638	3915
929.743	4013
929.848	4063
929.953	4013
930.058	3968
930.163	3774
930.267	3838
930.372	4002
930.477	3838
930.581	4074
930.685	3926
930.79	3819
930.894	3869
930.998	3869
931.103	4025
931.207	3705
931.311	3713
931.415	3675
931.519	3488
931.623	3553
