Data from test_V78500241_1197.txt Node
Date: Fri Mar 25 16:57:19 CST 2022
User: usil
Spectrometer: V785-0024
Trigger mode: 0
Integration Time (sec): 4.000000E-1
Scans to average: 1
Nonlinearity correction enabled: false
Boxcar width: 0
Storing dark spectrum: false
XAxis mode: Wavelengths
Number of Pixels in Spectrum: 1024
>>>>>Begin Spectral Data<<<<<
801.071	8027
801.214	8012
801.356	7894
801.499	7788
801.641	7674
801.783	7795
801.926	7963
802.068	7921
802.211	7997
802.353	7978
802.496	7852
802.638	7932
802.78	7944
802.923	7974
803.065	7913
803.208	7928
803.35	7906
803.492	8016
803.635	8134
803.777	8027
803.919	8168
804.061	8469
804.204	8145
804.346	7989
804.488	7936
804.63	8050
804.773	8005
804.915	8115
805.057	8339
805.199	8126
805.341	8142
805.483	8309
805.626	8183
805.768	8092
805.91	8183
806.052	8180
806.194	8100
806.336	8355
806.478	8126
806.62	8084
806.762	8191
806.904	8294
807.046	8450
807.188	8290
807.33	8271
807.472	8324
807.614	8176
807.756	8096
807.898	8065
808.04	7928
808.182	7909
808.324	7902
808.465	7845
808.607	8138
808.749	8077
808.891	8149
809.033	8320
809.174	8218
809.316	8043
809.458	8058
809.6	7974
809.741	7982
809.883	8001
810.025	8123
810.166	7989
810.308	7978
810.45	7997
810.591	7860
810.733	7738
810.875	7670
811.016	7529
811.158	7552
811.299	7556
811.441	7700
811.582	7738
811.724	7597
811.865	7548
812.007	7578
812.148	7613
812.29	7605
812.431	7742
812.573	7784
812.714	7856
812.855	8024
812.997	8107
813.138	8279
813.279	8240
813.421	8054
813.562	8035
813.703	7860
813.845	7734
813.986	7430
814.127	7301
814.268	7168
814.41	7171
814.551	7118
814.692	7171
814.833	7057
814.974	7072
815.115	7114
815.256	6947
815.397	6878
815.539	6913
815.68	6802
815.821	6783
815.962	6848
816.103	6772
816.244	6757
816.385	6635
816.526	6555
816.666	6452
816.807	6308
816.948	6391
817.089	6479
817.23	6429
817.371	6422
817.512	6384
817.653	6372
817.793	6376
817.934	6380
818.075	6407
818.216	6433
818.356	6437
818.497	6186
818.638	6068
818.778	6133
818.919	6110
819.06	6171
819.2	6376
819.341	6323
819.481	6342
819.622	6498
819.762	6734
819.903	6681
820.043	6566
820.184	6532
820.324	6612
820.465	6654
820.605	6684
820.746	6604
820.886	6509
821.026	6703
821.167	6665
821.307	6787
821.447	6749
821.588	6623
821.728	6544
821.868	6494
822.008	6289
822.149	6353
822.289	6365
822.429	6095
822.569	6083
822.709	6087
822.849	5897
822.99	5897
823.13	5851
823.27	5908
823.41	5786
823.55	5786
823.69	5756
823.83	5729
823.97	5630
824.11	5585
824.25	5493
824.389	5554
824.529	5520
824.669	5554
824.809	5710
824.949	5634
825.089	5581
825.228	5509
825.368	5387
825.508	5345
825.648	5353
825.787	5318
825.927	5353
826.067	5273
826.206	5277
826.346	5391
826.485	5360
826.625	5414
826.765	5539
826.904	5501
827.044	5258
827.183	5208
827.323	5132
827.462	5239
827.601	5147
827.741	5162
827.88	5254
828.02	5086
828.159	5208
828.298	5296
828.437	5330
828.577	5212
828.716	5452
828.855	5311
828.994	5159
829.134	5109
829.273	5124
829.412	5140
829.551	5121
829.69	5170
829.829	5227
829.968	5345
830.107	5280
830.246	5246
830.385	5193
830.524	5128
830.663	5006
830.802	4991
830.941	4873
831.08	4870
831.219	4976
831.357	4908
831.496	5151
831.635	4923
831.774	4870
831.913	4831
832.051	4679
832.19	4740
832.329	4778
832.467	4641
832.606	4641
832.744	4736
832.883	4717
833.022	4683
833.16	4793
833.299	4812
833.437	4816
833.576	4854
833.714	4820
833.852	4854
833.991	4847
834.129	4953
834.267	4927
834.406	4835
834.544	4980
834.682	4972
834.821	4892
834.959	5185
835.097	5029
835.235	5151
835.373	5048
835.511	5109
835.65	5060
835.788	5037
835.926	4889
836.064	4820
836.202	4881
836.34	5132
836.478	5239
836.615	5098
836.753	5185
836.891	5273
837.029	5201
837.167	5201
837.305	5155
837.443	5143
837.58	5045
837.718	5261
837.856	5151
837.993	5136
838.131	5193
838.269	5185
838.406	5223
838.544	5166
838.681	5018
838.819	5014
838.956	4896
839.094	4938
839.231	4980
839.369	5052
839.506	5436
839.643	5250
839.781	5060
839.918	5022
840.055	5041
840.193	5086
840.33	5075
840.467	5098
840.604	5155
840.742	5398
840.879	5060
841.016	5041
841.153	5174
841.29	5334
841.427	5273
841.564	5318
841.701	5318
841.838	5254
841.975	5212
842.112	5250
842.249	5140
842.385	5056
842.522	5254
842.659	5162
842.796	5162
842.933	5193
843.069	5140
843.206	5128
843.343	5280
843.479	5208
843.616	5318
843.752	4980
843.889	4972
844.025	5235
844.162	5029
844.298	5185
844.435	5064
844.571	5048
844.708	5136
844.844	5250
844.98	5318
845.117	5288
845.253	5132
845.389	5048
845.525	5132
845.661	5102
845.798	5010
845.934	5098
846.07	5010
846.206	5204
846.342	5250
846.478	5174
846.614	5018
846.75	4980
846.886	4911
847.022	5071
847.158	4991
847.294	5018
847.429	5105
847.565	5029
847.701	5296
847.837	4839
847.972	4782
848.108	4915
848.244	4946
848.379	4805
848.515	4725
848.65	4687
848.786	4679
848.921	4801
849.057	4835
849.192	4881
849.328	4801
849.463	4847
849.598	4790
849.734	4755
849.869	4653
850.004	4615
850.14	4660
850.275	4527
850.41	4508
850.545	4523
850.68	4603
850.815	4645
850.95	4641
851.085	4820
851.22	4740
851.355	4641
851.49	4599
851.625	4565
851.76	4634
851.895	4542
852.03	4535
852.165	4615
852.299	4714
852.434	4767
852.569	4744
852.703	4755
852.838	4839
852.973	4930
853.107	4930
853.242	4710
853.376	4672
853.511	4558
853.645	4607
853.78	4778
853.914	4645
854.048	4645
854.183	4603
854.317	4634
854.451	4839
854.585	4675
854.72	4641
854.854	4752
854.988	4561
855.122	4615
855.256	4512
855.39	4664
855.524	4793
855.658	4714
855.792	4672
855.926	4755
856.06	4702
856.194	4824
856.327	4630
856.461	4618
856.595	4618
856.729	4599
856.862	4721
856.996	4675
857.13	4687
857.263	4721
857.397	4797
857.53	4672
857.664	4710
857.797	4774
857.931	4729
858.064	4687
858.197	4778
858.331	4615
858.464	4577
858.597	4512
858.731	4649
858.864	4588
858.997	4584
859.13	4634
859.263	4653
859.396	4675
859.529	4565
859.662	4546
859.795	4504
859.928	4637
860.061	4714
860.194	4778
860.327	4603
860.46	4565
860.592	4729
860.725	4714
860.858	4729
860.99	4546
861.123	4542
861.256	4512
861.388	4630
861.521	5288
861.653	4478
861.786	4466
861.918	4462
862.05	4459
862.183	4538
862.315	4584
862.447	4584
862.58	4535
862.712	4424
862.844	4257
862.976	4474
863.108	4508
863.24	4892
863.372	4322
863.504	4440
863.636	4379
863.768	4500
863.9	4383
864.032	4383
864.164	4428
864.296	4470
864.428	4565
864.559	4542
864.691	4550
864.823	4504
864.954	4459
865.086	4527
865.217	4455
865.349	4398
865.48	4459
865.612	4516
865.743	4668
865.875	4455
866.006	4405
866.137	4459
866.269	4432
866.4	4455
866.531	4424
866.662	4383
866.793	4375
866.924	4363
867.055	4459
867.186	4451
867.317	4379
867.448	4402
867.579	4413
867.71	4455
867.841	4333
867.972	4440
868.103	4443
868.233	4367
868.364	4421
868.495	4489
868.625	4634
868.756	4733
868.886	4554
869.017	4580
869.147	4759
869.278	4778
869.408	4672
869.539	4641
869.669	4691
869.799	4672
869.929	4748
870.06	4733
870.19	4934
870.32	4911
870.45	4896
870.58	4976
870.71	5117
870.84	5132
870.97	4911
871.1	4858
871.23	5162
871.36	5117
871.489	4995
871.619	5033
871.749	5075
871.879	5105
872.008	5185
872.138	5071
872.267	4938
872.397	4771
872.526	4763
872.656	4698
872.785	4805
872.915	4915
873.044	5022
873.173	4942
873.303	4946
873.432	4908
873.561	4908
873.69	4881
873.819	4828
873.948	4889
874.077	4790
874.206	4687
874.335	4759
874.464	4858
874.593	5052
874.722	4949
874.851	5025
874.979	5029
875.108	5025
875.237	4885
875.365	4847
875.494	4870
875.623	4934
875.751	4820
875.88	4835
876.008	4930
876.136	5029
876.265	5242
876.393	5360
876.521	5216
876.65	5227
876.778	5140
876.906	5060
877.034	5033
877.162	5090
877.29	4995
877.418	5052
877.546	5041
877.674	4984
877.802	5041
877.93	5048
878.058	4942
878.185	4820
878.313	4980
878.441	4957
878.568	4828
878.696	4877
878.824	4961
878.951	4972
879.079	5086
879.206	5299
879.333	5098
879.461	4953
879.588	4999
879.715	5113
879.842	5159
879.97	4946
880.097	4771
880.224	4763
880.351	4828
880.478	4843
880.605	4828
880.732	4797
880.859	5102
880.986	4934
881.112	4877
881.239	4759
881.366	4683
881.493	4615
881.619	4577
881.746	4615
881.872	4630
881.999	4622
882.125	4660
882.252	4797
882.378	4816
882.505	4953
882.631	4816
882.757	4618
882.883	4759
883.01	4736
883.136	4714
883.262	4603
883.388	4626
883.514	4805
883.64	4835
883.766	4782
883.892	4630
884.018	4698
884.143	4877
884.269	5067
884.395	4664
884.52	4607
884.646	4622
884.772	4630
884.897	4573
885.023	4664
885.148	4778
885.274	4881
885.399	4767
885.524	4710
885.65	4729
885.775	4714
885.9	4679
886.025	4850
886.15	4797
886.275	4706
886.4	4618
886.525	4672
886.65	4668
886.775	4675
886.9	4900
887.025	5010
887.149	4767
887.274	4672
887.399	4542
887.523	4603
887.648	4580
887.773	4577
887.897	4790
888.021	4805
888.146	4672
888.27	4797
888.395	4942
888.519	4759
888.643	4801
888.767	4835
888.891	4672
889.015	4615
889.139	4645
889.263	4637
889.387	4774
889.511	4850
889.635	4755
889.759	4683
889.883	4599
890.006	4717
890.13	4767
890.254	4603
890.377	4706
890.501	4527
890.624	4519
890.748	4622
890.871	4519
890.995	4436
891.118	4367
891.241	4504
891.364	4546
891.488	4588
891.611	4512
891.734	4523
891.857	4649
891.98	4550
892.103	4660
892.226	4550
892.349	4527
892.471	4409
892.594	4542
892.717	4546
892.839	4542
892.962	4611
893.085	4641
893.207	4554
893.33	4417
893.452	4519
893.575	4683
893.697	4535
893.819	4797
893.941	4828
894.064	4752
894.186	4561
894.308	4561
894.43	4725
894.552	4816
894.674	4702
894.796	4516
894.918	4580
895.04	4561
895.161	4634
895.283	4691
895.405	4580
895.526	4615
895.648	4710
895.769	4691
895.891	4714
896.012	4706
896.134	4771
896.255	4599
896.376	4656
896.498	4649
896.619	4660
896.74	4573
896.861	4656
896.982	4881
897.103	5029
897.224	4835
897.345	4725
897.466	4660
897.587	4717
897.708	4854
897.828	4714
897.949	4717
898.07	4554
898.19	4668
898.311	4809
898.431	4664
898.552	4725
898.672	4774
898.792	4790
898.913	4755
899.033	4611
899.153	4550
899.273	4466
899.393	4489
899.513	4462
899.633	4531
899.753	4546
899.873	4493
899.993	4546
900.113	4512
900.232	4577
900.352	4474
900.472	4489
900.591	4417
900.711	4504
900.83	4413
900.95	4565
901.069	4714
901.189	4500
901.308	4356
901.427	4344
901.546	4421
901.665	4481
901.784	4527
901.904	4398
902.023	4333
902.141	4200
902.26	4200
902.379	4291
902.498	4238
902.617	4204
902.735	4352
902.854	4371
902.973	4333
903.091	4177
903.21	4192
903.328	4318
903.446	4268
903.565	4280
903.683	4352
903.801	4287
903.919	4344
904.038	4409
904.156	4318
904.274	4424
904.392	4398
904.51	4390
904.627	4478
904.745	4550
904.863	4653
904.981	4383
905.098	4295
905.216	4386
905.334	4402
905.451	4481
905.569	4424
905.686	4519
905.803	4546
905.921	4424
906.038	4535
906.155	4523
906.272	4383
906.389	4417
906.506	4344
906.623	4337
906.74	4344
906.857	4276
906.974	4371
907.091	4569
907.208	4660
907.324	4538
907.441	4527
907.557	4352
907.674	4306
907.79	4341
907.907	4352
908.023	4508
908.139	4512
908.256	4394
908.372	4455
908.488	4417
908.604	4360
908.72	4352
908.836	4356
908.952	4371
909.068	4436
909.184	4542
909.3	4478
909.415	4618
909.531	4558
909.647	4310
909.762	4367
909.878	4322
909.993	4447
910.108	4405
910.224	4405
910.339	4470
910.454	4417
910.57	4314
910.685	4325
910.8	4599
910.915	4577
911.03	4466
911.145	4375
911.259	4310
911.374	4344
911.489	4303
911.604	4276
911.718	4139
911.833	4196
911.947	4048
912.062	4032
912.176	4162
912.291	4238
912.405	4238
912.519	4470
912.633	4451
912.748	4371
912.862	4272
912.976	4207
913.09	4082
913.204	4177
913.318	4253
913.431	4386
913.545	4363
913.659	4421
913.772	4344
913.886	4242
914	4188
914.113	4386
914.226	4413
914.34	4398
914.453	4234
914.566	4455
914.68	4322
914.793	4306
914.906	4112
915.019	4112
915.132	4120
915.245	4169
915.358	4166
915.47	4242
915.583	4219
915.696	4268
915.809	4371
915.921	4402
916.034	4234
916.146	4249
916.259	4211
916.371	4402
916.483	4375
916.595	4265
916.708	4322
916.82	4314
916.932	4306
917.044	4344
917.156	4356
917.268	4200
917.38	4257
917.491	4268
917.603	4306
917.715	4470
917.826	4409
917.938	4356
918.049	4219
918.161	4363
918.272	4523
918.384	4542
918.495	4478
918.606	4310
918.717	4215
918.828	4363
918.939	4352
919.05	4227
919.161	4325
919.272	4109
919.383	4223
919.494	4447
919.604	4645
919.715	4451
919.826	4329
919.936	4379
920.047	4538
920.157	4462
920.267	4653
920.378	4523
920.488	4516
920.598	4721
920.708	4866
920.818	4694
920.928	4782
921.038	4961
921.148	4900
921.258	4607
921.368	4550
921.477	4481
921.587	4455
921.697	4394
921.806	4546
921.916	4417
922.025	4291
922.134	4230
922.244	4200
922.353	4363
922.462	4169
922.571	4139
922.68	4032
922.789	3968
922.898	4051
923.007	3991
923.116	4063
923.224	4063
923.333	4093
923.442	3964
923.55	4021
923.659	4021
923.767	4112
923.876	4002
923.984	4097
924.092	4010
924.201	4071
924.309	4044
924.417	4169
924.525	4036
924.633	4071
924.741	5010
924.849	3903
924.956	4150
925.064	3994
925.172	3945
925.279	3918
925.387	4029
925.494	3994
925.602	4207
925.709	4131
925.816	4006
925.924	4090
926.031	4219
926.138	4185
926.245	4192
926.352	4097
926.459	4211
926.566	4310
926.673	4162
926.779	4063
926.886	4101
926.993	3983
927.099	3934
927.206	3911
927.312	3975
927.419	4059
927.525	4002
927.631	4059
927.737	3930
927.843	3960
927.95	3812
928.056	3956
928.162	3953
928.267	4071
928.373	4675
928.479	4120
928.585	3857
928.69	4025
928.796	4067
928.901	3964
929.007	3842
929.112	3964
929.218	4006
929.323	3915
929.428	3903
929.533	4128
929.638	3915
929.743	3972
929.848	3983
929.953	4006
930.058	3903
930.163	3740
930.267	3804
930.372	3960
930.477	3800
930.581	4078
930.685	3949
930.79	3800
930.894	3846
930.998	3835
931.103	4051
931.207	3736
931.311	3660
931.415	3682
931.519	3523
931.623	3557
