Data from test_V78500241_218.txt Node
Date: Fri Mar 25 16:50:31 CST 2022
User: usil
Spectrometer: V785-0024
Trigger mode: 0
Integration Time (sec): 4.000000E-1
Scans to average: 1
Nonlinearity correction enabled: false
Boxcar width: 0
Storing dark spectrum: false
XAxis mode: Wavelengths
Number of Pixels in Spectrum: 1024
>>>>>Begin Spectral Data<<<<<
801.071	8027
801.214	8073
801.356	7970
801.499	7833
801.641	7860
801.783	7852
801.926	8005
802.068	7993
802.211	8035
802.353	8039
802.496	7883
802.638	7879
802.78	7940
802.923	7967
803.065	7811
803.208	7856
803.35	8008
803.492	8084
803.635	8134
803.777	8035
803.919	8081
804.061	8446
804.204	8058
804.346	8039
804.488	7967
804.63	8107
804.773	7993
804.915	8126
805.057	8244
805.199	8111
805.341	8164
805.483	8252
805.626	8176
805.768	8005
805.91	8145
806.052	8172
806.194	8039
806.336	8301
806.478	8138
806.62	8111
806.762	8134
806.904	8145
807.046	8514
807.188	8358
807.33	8290
807.472	8271
807.614	8142
807.756	8062
807.898	7947
808.04	7894
808.182	7879
808.324	7856
808.465	8005
808.607	8050
808.749	8138
808.891	8263
809.033	8324
809.174	8229
809.316	8062
809.458	8012
809.6	8008
809.741	8027
809.883	8031
810.025	8027
810.166	8103
810.308	8001
810.45	8005
810.591	7841
810.733	7761
810.875	7685
811.016	7495
811.158	7506
811.299	7624
811.441	7769
811.582	7696
811.724	7597
811.865	7578
812.007	7590
812.148	7605
812.29	7655
812.431	7788
812.573	7909
812.714	7928
812.855	8229
812.997	8191
813.138	8374
813.279	8183
813.421	8081
813.562	8024
813.703	7837
813.845	7822
813.986	7449
814.127	7305
814.268	7213
814.41	7209
814.551	7171
814.692	7129
814.833	7118
814.974	7122
815.115	7076
815.256	7019
815.397	6954
815.539	6954
815.68	6840
815.821	6749
815.962	6867
816.103	6783
816.244	6787
816.385	6700
816.526	6650
816.666	6517
816.807	6273
816.948	6399
817.089	6486
817.23	6437
817.371	6391
817.512	6384
817.653	6384
817.793	6277
817.934	6426
818.075	6445
818.216	6464
818.356	6338
818.497	6228
818.638	6144
818.778	6091
818.919	6098
819.06	6144
819.2	6311
819.341	6315
819.481	6361
819.622	6528
819.762	6722
819.903	6612
820.043	6612
820.184	6597
820.324	6631
820.465	6700
820.605	6627
820.746	6555
820.886	6498
821.026	6631
821.167	6673
821.307	6795
821.447	6772
821.588	6662
821.728	6559
821.868	6441
822.008	6357
822.149	6399
822.289	6338
822.429	6201
822.569	6110
822.709	6083
822.849	5984
822.99	5904
823.13	5935
823.27	5961
823.41	5805
823.55	5840
823.69	5726
823.83	5729
823.97	5699
824.11	5539
824.25	5520
824.389	5535
824.529	5512
824.669	5497
824.809	5634
824.949	5657
825.089	5646
825.228	5600
825.368	5436
825.508	5368
825.648	5368
825.787	5383
825.927	5372
826.067	5330
826.206	5303
826.346	5360
826.485	5440
826.625	5364
826.765	5528
826.904	5512
827.044	5254
827.183	5193
827.323	5151
827.462	5288
827.601	5193
827.741	5185
827.88	5204
828.02	5102
828.159	5239
828.298	5273
828.437	5395
828.577	5261
828.716	5463
828.855	5345
828.994	5159
829.134	5185
829.273	5189
829.412	5159
829.551	5090
829.69	5216
829.829	5273
829.968	5440
830.107	5292
830.246	5303
830.385	5185
830.524	5136
830.663	5094
830.802	4991
830.941	4965
831.08	4854
831.219	5022
831.357	4961
831.496	5212
831.635	4949
831.774	4904
831.913	4850
832.051	4721
832.19	4733
832.329	4774
832.467	4717
832.606	4641
832.744	4725
832.883	4729
833.022	4702
833.16	4786
833.299	4858
833.437	4873
833.576	4854
833.714	4870
833.852	4847
833.991	4847
834.129	5018
834.267	4995
834.406	4953
834.544	4930
834.682	4923
834.821	4938
834.959	5231
835.097	5018
835.235	5132
835.373	5071
835.511	5136
835.65	5086
835.788	5010
835.926	4934
836.064	4892
836.202	4938
836.34	5166
836.478	5235
836.615	5162
836.753	5212
836.891	5315
837.029	5242
837.167	5204
837.305	5143
837.443	5181
837.58	5075
837.718	5220
837.856	5197
837.993	5151
838.131	5242
838.269	5204
838.406	5258
838.544	5174
838.681	5025
838.819	5022
838.956	4946
839.094	4892
839.231	4972
839.369	5033
839.506	5391
839.643	5254
839.781	5060
839.918	5029
840.055	5174
840.193	5098
840.33	5102
840.467	5124
840.604	5147
840.742	5410
840.879	5064
841.016	5067
841.153	5208
841.29	5372
841.427	5296
841.564	5376
841.701	5360
841.838	5277
841.975	5239
842.112	5269
842.249	5109
842.385	5094
842.522	5349
842.659	5166
842.796	5174
842.933	5178
843.069	5143
843.206	5143
843.343	5284
843.479	5258
843.616	5292
843.752	5037
843.889	5045
844.025	5231
844.162	5029
844.298	5231
844.435	5128
844.571	5033
844.708	5178
844.844	5337
844.98	5345
845.117	5273
845.253	5155
845.389	5128
845.525	5178
845.661	5170
845.798	5067
845.934	5143
846.07	5048
846.206	5197
846.342	5258
846.478	5201
846.614	5025
846.75	4946
846.886	4923
847.022	5143
847.158	4995
847.294	5056
847.429	5094
847.565	5041
847.701	5299
847.837	4904
847.972	4824
848.108	4980
848.244	4976
848.379	4786
848.515	4710
848.65	4721
848.786	4790
848.921	4809
849.057	4877
849.192	4904
849.328	4774
849.463	4873
849.598	4790
849.734	4763
849.869	4664
850.004	4634
850.14	4679
850.275	4584
850.41	4527
850.545	4550
850.68	4668
850.815	4649
850.95	4645
851.085	4790
851.22	4797
851.355	4660
851.49	4607
851.625	4641
851.76	4664
851.895	4603
852.03	4546
852.165	4641
852.299	4729
852.434	4786
852.569	4763
852.703	4816
852.838	4839
852.973	4919
853.107	4919
853.242	4793
853.376	4702
853.511	4592
853.645	4607
853.78	4816
853.914	4687
854.048	4725
854.183	4698
854.317	4641
854.451	4866
854.585	4733
854.72	4679
854.854	4733
854.988	4626
855.122	4664
855.256	4569
855.39	4687
855.524	4801
855.658	4752
855.792	4710
855.926	4687
856.06	4759
856.194	4774
856.327	4698
856.461	4630
856.595	4645
856.729	4656
856.862	4752
856.996	4664
857.13	4752
857.263	4752
857.397	4816
857.53	4649
857.664	4744
857.797	4812
857.931	4771
858.064	4649
858.197	4774
858.331	4714
858.464	4626
858.597	4516
858.731	4675
858.864	4626
858.997	4580
859.13	4675
859.263	4664
859.396	4687
859.529	4596
859.662	4569
859.795	4542
859.928	4588
860.061	4752
860.194	4774
860.327	4607
860.46	4550
860.592	4698
860.725	4752
860.858	4725
860.99	4580
861.123	4489
861.256	4535
861.388	4599
861.521	5330
861.653	4535
861.786	4421
861.918	4523
862.05	4569
862.183	4573
862.315	4596
862.447	4649
862.58	4504
862.712	4394
862.844	4333
862.976	4466
863.108	4451
863.24	4896
863.372	4322
863.504	4417
863.636	4421
863.768	4459
863.9	4440
864.032	4371
864.164	4440
864.296	4478
864.428	4516
864.559	4538
864.691	4538
864.823	4538
864.954	4485
865.086	4527
865.217	4542
865.349	4421
865.48	4451
865.612	4508
865.743	4630
865.875	4436
866.006	4459
866.137	4447
866.269	4481
866.4	4466
866.531	4421
866.662	4417
866.793	4428
866.924	4493
867.055	4485
867.186	4413
867.317	4440
867.448	4383
867.579	4394
867.71	4371
867.841	4421
867.972	4478
868.103	4489
868.233	4447
868.364	4459
868.495	4489
868.625	4622
868.756	4702
868.886	4580
869.017	4588
869.147	4752
869.278	4763
869.408	4694
869.539	4634
869.669	4755
869.799	4672
869.929	4793
870.06	4702
870.19	4953
870.32	4942
870.45	4915
870.58	5060
870.71	5090
870.84	5102
870.97	4934
871.1	4866
871.23	5136
871.36	5178
871.489	5067
871.619	5098
871.749	5067
871.879	5109
872.008	5162
872.138	5045
872.267	4991
872.397	4892
872.526	4797
872.656	4672
872.785	4847
872.915	4972
873.044	5010
873.173	4968
873.303	5010
873.432	4976
873.561	5003
873.69	4892
873.819	4885
873.948	4881
874.077	4805
874.206	4771
874.335	4805
874.464	4953
874.593	5045
874.722	4984
874.851	5105
874.979	5022
875.108	5018
875.237	4927
875.365	4896
875.494	4911
875.623	4972
875.751	4828
875.88	4881
876.008	4995
876.136	5045
876.265	5201
876.393	5368
876.521	5250
876.65	5204
876.778	5113
876.906	5060
877.034	5018
877.162	5060
877.29	4930
877.418	5075
877.546	5037
877.674	5056
877.802	5025
877.93	5052
878.058	4896
878.185	4862
878.313	4957
878.441	4987
878.568	4820
878.696	4870
878.824	5025
878.951	5014
879.079	5132
879.206	5345
879.333	5113
879.461	4999
879.588	5048
879.715	5147
879.842	5204
879.97	4984
880.097	4820
880.224	4736
880.351	4831
880.478	4820
880.605	4809
880.732	4816
880.859	5128
880.986	4949
881.112	4930
881.239	4831
881.366	4740
881.493	4584
881.619	4626
881.746	4649
881.872	4645
881.999	4660
882.125	4706
882.252	4752
882.378	4839
882.505	4961
882.631	4786
882.757	4645
882.883	4744
883.01	4714
883.136	4618
883.262	4630
883.388	4656
883.514	4858
883.64	4847
883.766	4831
883.892	4691
884.018	4698
884.143	4923
884.269	5045
884.395	4660
884.52	4592
884.646	4653
884.772	4573
884.897	4615
885.023	4675
885.148	4801
885.274	4843
885.399	4862
885.524	4729
885.65	4656
885.775	4710
885.9	4698
886.025	4866
886.15	4805
886.275	4729
886.4	4645
886.525	4759
886.65	4702
886.775	4668
886.9	4908
887.025	5090
887.149	4778
887.274	4649
887.399	4607
887.523	4531
887.648	4580
887.773	4550
887.897	4717
888.021	4797
888.146	4710
888.27	4771
888.395	4877
888.519	4797
888.643	4828
888.767	4850
888.891	4672
889.015	4611
889.139	4691
889.263	4653
889.387	4801
889.511	4870
889.635	4797
889.759	4649
889.883	4630
890.006	4771
890.13	4881
890.254	4622
890.377	4660
890.501	4546
890.624	4512
890.748	4634
890.871	4531
890.995	4417
891.118	4348
891.241	4462
891.364	4542
891.488	4603
891.611	4500
891.734	4523
891.857	4599
891.98	4577
892.103	4645
892.226	4561
892.349	4584
892.471	4394
892.594	4538
892.717	4584
892.839	4580
892.962	4596
893.085	4675
893.207	4565
893.33	4500
893.452	4535
893.575	4691
893.697	4558
893.819	4820
893.941	4824
894.064	4763
894.186	4573
894.308	4550
894.43	4721
894.552	4828
894.674	4736
894.796	4580
894.918	4599
895.04	4565
895.161	4740
895.283	4653
895.405	4577
895.526	4626
895.648	4710
895.769	4679
895.891	4736
896.012	4698
896.134	4729
896.255	4656
896.376	4656
896.498	4672
896.619	4660
896.74	4626
896.861	4653
896.982	4927
897.103	5079
897.224	4889
897.345	4763
897.466	4710
897.587	4706
897.708	4862
897.828	4778
897.949	4683
898.07	4561
898.19	4672
898.311	4820
898.431	4710
898.552	4725
898.672	4805
898.792	4782
898.913	4752
899.033	4672
899.153	4519
899.273	4447
899.393	4542
899.513	4523
899.633	4519
899.753	4577
899.873	4569
899.993	4580
900.113	4508
900.232	4550
900.352	4550
900.472	4558
900.591	4371
900.711	4531
900.83	4421
900.95	4649
901.069	4725
901.189	4558
901.308	4413
901.427	4299
901.546	4413
901.665	4485
901.784	4542
901.904	4386
902.023	4287
902.141	4207
902.26	4211
902.379	4333
902.498	4249
902.617	4223
902.735	4363
902.854	4379
902.973	4360
903.091	4181
903.21	4242
903.328	4299
903.446	4337
903.565	4284
903.683	4325
903.801	4276
903.919	4405
904.038	4447
904.156	4295
904.274	4497
904.392	4383
904.51	4440
904.627	4459
904.745	4622
904.863	4634
904.981	4390
905.098	4348
905.216	4341
905.334	4409
905.451	4440
905.569	4466
905.686	4584
905.803	4569
905.921	4432
906.038	4584
906.155	4516
906.272	4379
906.389	4504
906.506	4360
906.623	4447
906.74	4440
906.857	4367
906.974	4405
907.091	4599
907.208	4687
907.324	4592
907.441	4493
907.557	4329
907.674	4371
907.79	4268
907.907	4409
908.023	4497
908.139	4481
908.256	4421
908.372	4474
908.488	4417
908.604	4337
908.72	4322
908.836	4409
908.952	4402
909.068	4447
909.184	4622
909.3	4455
909.415	4622
909.531	4550
909.647	4371
909.762	4390
909.878	4360
909.993	4413
910.108	4440
910.224	4466
910.339	4500
910.454	4409
910.57	4363
910.685	4276
910.8	4607
910.915	4641
911.03	4481
911.145	4318
911.259	4291
911.374	4375
911.489	4325
911.604	4276
911.718	4204
911.833	4257
911.947	4109
912.062	3994
912.176	4200
912.291	4272
912.405	4246
912.519	4447
912.633	4516
912.748	4375
912.862	4303
912.976	4211
913.09	4105
913.204	4196
913.318	4257
913.431	4398
913.545	4379
913.659	4440
913.772	4303
913.886	4261
914	4230
914.113	4348
914.226	4443
914.34	4379
914.453	4238
914.566	4413
914.68	4306
914.793	4318
914.906	4204
915.019	4181
915.132	4074
915.245	4230
915.358	4192
915.47	4265
915.583	4219
915.696	4314
915.809	4390
915.921	4455
916.034	4207
916.146	4257
916.259	4196
916.371	4352
916.483	4363
916.595	4253
916.708	4306
916.82	4348
916.932	4310
917.044	4318
917.156	4329
917.268	4196
917.38	4303
917.491	4276
917.603	4348
917.715	4421
917.826	4447
917.938	4375
918.049	4242
918.161	4394
918.272	4596
918.384	4580
918.495	4478
918.606	4280
918.717	4242
918.828	4348
918.939	4348
919.05	4284
919.161	4405
919.272	4120
919.383	4284
919.494	4440
919.604	4653
919.715	4455
919.826	4398
919.936	4356
920.047	4538
920.157	4538
920.267	4748
920.378	4584
920.488	4500
920.598	4774
920.708	4946
920.818	4717
920.928	4755
921.038	5003
921.148	4957
921.258	4630
921.368	4596
921.477	4493
921.587	4455
921.697	4386
921.806	4558
921.916	4440
922.025	4257
922.134	4249
922.244	4249
922.353	4360
922.462	4181
922.571	4181
922.68	4013
922.789	3956
922.898	4063
923.007	3991
923.116	4090
923.224	4063
923.333	4090
923.442	4013
923.55	4021
923.659	4040
923.767	4147
923.876	3983
923.984	4150
924.092	3991
924.201	4124
924.309	4169
924.417	4154
924.525	4059
924.633	4097
924.741	5071
924.849	3953
924.956	4166
925.064	3941
925.172	3949
925.279	3964
925.387	4055
925.494	4101
925.602	4238
925.709	4223
925.816	4078
925.924	4109
926.031	4265
926.138	4166
926.245	4223
926.352	4071
926.459	4238
926.566	4249
926.673	4177
926.779	4063
926.886	4093
926.993	4021
927.099	3956
927.206	3918
927.312	3953
927.419	4082
927.525	4074
927.631	4124
927.737	3979
927.843	3930
927.95	3926
928.056	3930
928.162	3964
928.267	4082
928.373	4675
928.479	4131
928.585	3880
928.69	4044
928.796	4074
928.901	3994
929.007	3888
929.112	3998
929.218	3964
929.323	3979
929.428	3949
929.533	4173
929.638	3896
929.743	3945
929.848	4032
929.953	3987
930.058	4002
930.163	3831
930.267	3827
930.372	3934
930.477	3812
930.581	4135
930.685	3960
930.79	3838
930.894	3915
930.998	3857
931.103	4044
931.207	3732
931.311	3698
931.415	3667
931.519	3530
931.623	3568
