Data from test_V78500241_36.txt Node
Date: Fri Mar 25 16:49:15 CST 2022
User: usil
Spectrometer: V785-0024
Trigger mode: 0
Integration Time (sec): 4.000000E-1
Scans to average: 1
Nonlinearity correction enabled: false
Boxcar width: 0
Storing dark spectrum: false
XAxis mode: Wavelengths
Number of Pixels in Spectrum: 1024
>>>>>Begin Spectral Data<<<<<
801.071	8043
801.214	8092
801.356	7928
801.499	7921
801.641	7871
801.783	7868
801.926	8024
802.068	8062
802.211	8020
802.353	8020
802.496	7963
802.638	7974
802.78	7978
802.923	7997
803.065	7967
803.208	7913
803.35	8012
803.492	8103
803.635	8164
803.777	8054
803.919	8187
804.061	8495
804.204	8142
804.346	8111
804.488	7967
804.63	8134
804.773	7997
804.915	8134
805.057	8256
805.199	8240
805.341	8358
805.483	8279
805.626	8339
805.768	8168
805.91	8324
806.052	8214
806.194	8240
806.336	8294
806.478	8172
806.62	8123
806.762	8199
806.904	8370
807.046	8571
807.188	8431
807.33	8400
807.472	8442
807.614	8225
807.756	8225
807.898	7993
808.04	7974
808.182	8020
808.324	7936
808.465	7860
808.607	8065
808.749	8142
808.891	8229
809.033	8259
809.174	8164
809.316	8054
809.458	8107
809.6	7989
809.741	8046
809.883	8020
810.025	8073
810.166	8149
810.308	8161
810.45	8046
810.591	7955
810.733	7852
810.875	7685
811.016	7639
811.158	7556
811.299	7647
811.441	7799
811.582	7727
811.724	7658
811.865	7624
812.007	7670
812.148	7636
812.29	7723
812.431	7753
812.573	7974
812.714	8001
812.855	8191
812.997	8259
813.138	8347
813.279	8176
813.421	8172
813.562	8115
813.703	7963
813.845	7849
813.986	7453
814.127	7266
814.268	7274
814.41	7240
814.551	7282
814.692	7228
814.833	7129
814.974	7187
815.115	7141
815.256	7038
815.397	6993
815.539	6970
815.68	6882
815.821	6852
815.962	6909
816.103	6890
816.244	6757
816.385	6669
816.526	6658
816.666	6486
816.807	6342
816.948	6445
817.089	6521
817.23	6475
817.371	6464
817.512	6429
817.653	6528
817.793	6384
817.934	6517
818.075	6486
818.216	6509
818.356	6445
818.497	6296
818.638	6220
818.778	6220
818.919	6247
819.06	6171
819.2	6353
819.341	6353
819.481	6407
819.622	6627
819.762	6825
819.903	6833
820.043	6642
820.184	6631
820.324	6681
820.465	6715
820.605	6707
820.746	6677
820.886	6597
821.026	6722
821.167	6753
821.307	6814
821.447	6818
821.588	6696
821.728	6612
821.868	6593
822.008	6365
822.149	6414
822.289	6380
822.429	6205
822.569	6159
822.709	6144
822.849	5958
822.99	5939
823.13	5954
823.27	5958
823.41	5828
823.55	5859
823.69	5767
823.83	5912
823.97	5695
824.11	5573
824.25	5516
824.389	5657
824.529	5646
824.669	5566
824.809	5665
824.949	5691
825.089	5668
825.228	5547
825.368	5501
825.508	5368
825.648	5429
825.787	5482
825.927	5387
826.067	5372
826.206	5277
826.346	5402
826.485	5463
826.625	5372
826.765	5611
826.904	5562
827.044	5315
827.183	5239
827.323	5181
827.462	5311
827.601	5231
827.741	5265
827.88	5292
828.02	5197
828.159	5261
828.298	5303
828.437	5376
828.577	5334
828.716	5512
828.855	5391
828.994	5193
829.134	5204
829.273	5235
829.412	5143
829.551	5193
829.69	5174
829.829	5288
829.968	5433
830.107	5387
830.246	5368
830.385	5204
830.524	5159
830.663	5067
830.802	4991
830.941	4946
831.08	4892
831.219	5037
831.357	5064
831.496	5212
831.635	4968
831.774	4881
831.913	4854
832.051	4748
832.19	4839
832.329	4870
832.467	4748
832.606	4710
832.744	4759
832.883	4778
833.022	4797
833.16	4786
833.299	4843
833.437	4862
833.576	4870
833.714	4889
833.852	4877
833.991	4957
834.129	5022
834.267	4999
834.406	4923
834.544	4999
834.682	5029
834.821	5041
834.959	5212
835.097	5041
835.235	5223
835.373	5090
835.511	5128
835.65	5037
835.788	5086
835.926	4961
836.064	4873
836.202	4919
836.34	5239
836.478	5303
836.615	5105
836.753	5303
836.891	5315
837.029	5292
837.167	5223
837.305	5185
837.443	5235
837.58	5086
837.718	5277
837.856	5231
837.993	5201
838.131	5303
838.269	5242
838.406	5216
838.544	5189
838.681	5060
838.819	5056
838.956	4927
839.094	4949
839.231	5075
839.369	5086
839.506	5436
839.643	5292
839.781	5102
839.918	5033
840.055	5170
840.193	5079
840.33	5128
840.467	5235
840.604	5193
840.742	5505
840.879	5113
841.016	5143
841.153	5162
841.29	5402
841.427	5349
841.564	5337
841.701	5414
841.838	5341
841.975	5254
842.112	5322
842.249	5189
842.385	5113
842.522	5395
842.659	5166
842.796	5185
842.933	5204
843.069	5185
843.206	5147
843.343	5357
843.479	5273
843.616	5280
843.752	5109
843.889	5033
844.025	5220
844.162	5037
844.298	5212
844.435	5113
844.571	5086
844.708	5250
844.844	5322
844.98	5398
845.117	5326
845.253	5151
845.389	5136
845.525	5227
845.661	5159
845.798	5071
845.934	5170
846.07	5071
846.206	5231
846.342	5326
846.478	5204
846.614	5045
846.75	5025
846.886	4980
847.022	5212
847.158	5067
847.294	5086
847.429	5204
847.565	5052
847.701	5391
847.837	4900
847.972	4843
848.108	4995
848.244	5037
848.379	4850
848.515	4733
848.65	4755
848.786	4809
848.921	4839
849.057	4930
849.192	4927
849.328	4824
849.463	4862
849.598	4831
849.734	4812
849.869	4729
850.004	4626
850.14	4748
850.275	4664
850.41	4535
850.545	4622
850.68	4641
850.815	4656
850.95	4634
851.085	4900
851.22	4729
851.355	4748
851.49	4679
851.625	4622
851.76	4679
851.895	4573
852.03	4577
852.165	4668
852.299	4717
852.434	4828
852.569	4793
852.703	4835
852.838	4831
852.973	4942
853.107	4949
853.242	4778
853.376	4687
853.511	4611
853.645	4603
853.78	4801
853.914	4717
854.048	4691
854.183	4683
854.317	4714
854.451	4911
854.585	4771
854.72	4668
854.854	4793
854.988	4634
855.122	4675
855.256	4580
855.39	4656
855.524	4797
855.658	4774
855.792	4752
855.926	4744
856.06	4801
856.194	4805
856.327	4748
856.461	4683
856.595	4714
856.729	4637
856.862	4790
856.996	4755
857.13	4790
857.263	4790
857.397	4885
857.53	4698
857.664	4786
857.797	4778
857.931	4870
858.064	4729
858.197	4786
858.331	4710
858.464	4630
858.597	4550
858.731	4618
858.864	4706
858.997	4615
859.13	4656
859.263	4706
859.396	4725
859.529	4611
859.662	4577
859.795	4580
859.928	4721
860.061	4759
860.194	4820
860.327	4679
860.46	4630
860.592	4790
860.725	4763
860.858	4793
860.99	4618
861.123	4584
861.256	4573
861.388	4702
861.521	5387
861.653	4542
861.786	4462
861.918	4523
862.05	4538
862.183	4569
862.315	4634
862.447	4687
862.58	4630
862.712	4424
862.844	4398
862.976	4531
863.108	4504
863.24	4904
863.372	4375
863.504	4405
863.636	4402
863.768	4523
863.9	4489
864.032	4413
864.164	4451
864.296	4508
864.428	4561
864.559	4630
864.691	4527
864.823	4527
864.954	4558
865.086	4584
865.217	4466
865.349	4462
865.48	4489
865.612	4519
865.743	4649
865.875	4447
866.006	4432
866.137	4493
866.269	4497
866.4	4470
866.531	4481
866.662	4455
866.793	4432
866.924	4428
867.055	4538
867.186	4508
867.317	4424
867.448	4405
867.579	4383
867.71	4398
867.841	4371
867.972	4485
868.103	4470
868.233	4512
868.364	4466
868.495	4580
868.625	4725
868.756	4790
868.886	4611
869.017	4653
869.147	4805
869.278	4847
869.408	4714
869.539	4710
869.669	4752
869.799	4702
869.929	4835
870.06	4793
870.19	5029
870.32	4896
870.45	4927
870.58	5033
870.71	5178
870.84	5197
870.97	4999
871.1	4991
871.23	5216
871.36	5174
871.489	5086
871.619	5159
871.749	5151
871.879	5178
872.008	5216
872.138	5090
872.267	5037
872.397	4877
872.526	4881
872.656	4771
872.785	4824
872.915	4987
873.044	5003
873.173	4972
873.303	4987
873.432	5010
873.561	4999
873.69	4946
873.819	4915
873.948	4923
874.077	4919
874.206	4835
874.335	4843
874.464	4991
874.593	5117
874.722	4999
874.851	5166
874.979	5121
875.108	5033
875.237	4911
875.365	4919
875.494	4976
875.623	4965
875.751	4812
875.88	4904
876.008	5086
876.136	5056
876.265	5307
876.393	5368
876.521	5284
876.65	5212
876.778	5216
876.906	5090
877.034	5025
877.162	5090
877.29	5037
877.418	5094
877.546	5071
877.674	5086
877.802	5075
877.93	5029
878.058	4984
878.185	4866
878.313	4953
878.441	4972
878.568	4854
878.696	4934
878.824	4984
878.951	5033
879.079	5178
879.206	5402
879.333	5162
879.461	5056
879.588	5083
879.715	5189
879.842	5250
879.97	5022
880.097	4873
880.224	4809
880.351	4824
880.478	4831
880.605	4862
880.732	4850
880.859	5174
880.986	4923
881.112	4976
881.239	4839
881.366	4725
881.493	4584
881.619	4596
881.746	4664
881.872	4672
881.999	4679
882.125	4744
882.252	4850
882.378	4858
882.505	5006
882.631	4828
882.757	4725
882.883	4748
883.01	4809
883.136	4740
883.262	4668
883.388	4729
883.514	4782
883.64	4892
883.766	4828
883.892	4702
884.018	4820
884.143	4908
884.269	5010
884.395	4714
884.52	4687
884.646	4653
884.772	4611
884.897	4596
885.023	4706
885.148	4816
885.274	4915
885.399	4847
885.524	4786
885.65	4767
885.775	4797
885.9	4714
886.025	4908
886.15	4824
886.275	4759
886.4	4668
886.525	4767
886.65	4694
886.775	4805
886.9	4934
887.025	5090
887.149	4862
887.274	4664
887.399	4649
887.523	4675
887.648	4596
887.773	4645
887.897	4828
888.021	4824
888.146	4729
888.27	4900
888.395	4908
888.519	4866
888.643	4862
888.767	4889
888.891	4687
889.015	4580
889.139	4664
889.263	4626
889.387	4831
889.511	4889
889.635	4831
889.759	4694
889.883	4683
890.006	4790
890.13	4870
890.254	4702
890.377	4759
890.501	4584
890.624	4558
890.748	4664
890.871	4580
890.995	4447
891.118	4436
891.241	4565
891.364	4588
891.488	4694
891.611	4535
891.734	4580
891.857	4660
891.98	4618
892.103	4679
892.226	4630
892.349	4554
892.471	4485
892.594	4622
892.717	4607
892.839	4592
892.962	4599
893.085	4706
893.207	4679
893.33	4497
893.452	4630
893.575	4744
893.697	4656
893.819	4858
893.941	4892
894.064	4839
894.186	4618
894.308	4596
894.43	4790
894.552	4873
894.674	4801
894.796	4626
894.918	4645
895.04	4615
895.161	4763
895.283	4717
895.405	4649
895.526	4664
895.648	4752
895.769	4706
895.891	4759
896.012	4816
896.134	4725
896.255	4679
896.376	4634
896.498	4645
896.619	4702
896.74	4645
896.861	4687
896.982	4930
897.103	5166
897.224	4881
897.345	4820
897.466	4714
897.587	4835
897.708	4908
897.828	4790
897.949	4679
898.07	4618
898.19	4668
898.311	4843
898.431	4714
898.552	4740
898.672	4835
898.792	4824
898.913	4805
899.033	4717
899.153	4573
899.273	4462
899.393	4519
899.513	4580
899.633	4554
899.753	4592
899.873	4508
899.993	4592
900.113	4580
900.232	4641
900.352	4603
900.472	4527
900.591	4462
900.711	4531
900.83	4531
900.95	4603
901.069	4626
901.189	4615
901.308	4436
901.427	4363
901.546	4409
901.665	4485
901.784	4523
901.904	4402
902.023	4287
902.141	4227
902.26	4219
902.379	4303
902.498	4261
902.617	4253
902.735	4436
902.854	4485
902.973	4398
903.091	4261
903.21	4227
903.328	4344
903.446	4291
903.565	4287
903.683	4417
903.801	4276
903.919	4459
904.038	4489
904.156	4299
904.274	4500
904.392	4466
904.51	4512
904.627	4462
904.745	4615
904.863	4740
904.981	4443
905.098	4356
905.216	4440
905.334	4462
905.451	4470
905.569	4466
905.686	4592
905.803	4653
905.921	4459
906.038	4596
906.155	4512
906.272	4459
906.389	4470
906.506	4363
906.623	4405
906.74	4459
906.857	4363
906.974	4413
907.091	4596
907.208	4714
907.324	4637
907.441	4580
907.557	4360
907.674	4394
907.79	4356
907.907	4398
908.023	4508
908.139	4523
908.256	4489
908.372	4512
908.488	4523
908.604	4379
908.72	4383
908.836	4409
908.952	4409
909.068	4451
909.184	4561
909.3	4527
909.415	4618
909.531	4569
909.647	4432
909.762	4379
909.878	4398
909.993	4485
910.108	4474
910.224	4421
910.339	4527
910.454	4436
910.57	4417
910.685	4371
910.8	4637
910.915	4653
911.03	4508
911.145	4398
911.259	4352
911.374	4440
911.489	4356
911.604	4325
911.718	4238
911.833	4265
911.947	4124
912.062	4048
912.176	4265
912.291	4265
912.405	4276
912.519	4512
912.633	4573
912.748	4436
912.862	4383
912.976	4257
913.09	4139
913.204	4223
913.318	4291
913.431	4424
913.545	4371
913.659	4424
913.772	4413
913.886	4280
914	4272
914.113	4405
914.226	4462
914.34	4421
914.453	4303
914.566	4443
914.68	4356
914.793	4409
914.906	4177
915.019	4147
915.132	4128
915.245	4207
915.358	4238
915.47	4253
915.583	4314
915.696	4337
915.809	4440
915.921	4523
916.034	4284
916.146	4299
916.259	4207
916.371	4398
916.483	4436
916.595	4268
916.708	4436
916.82	4371
916.932	4379
917.044	4440
917.156	4367
917.268	4284
917.38	4306
917.491	4295
917.603	4398
917.715	4512
917.826	4466
917.938	4402
918.049	4257
918.161	4447
918.272	4558
918.384	4577
918.495	4493
918.606	4344
918.717	4280
918.828	4390
918.939	4386
919.05	4265
919.161	4306
919.272	4166
919.383	4280
919.494	4451
919.604	4694
919.715	4451
919.826	4356
919.936	4466
920.047	4561
920.157	4500
920.267	4755
920.378	4611
920.488	4538
920.598	4763
920.708	4915
920.818	4759
920.928	4782
921.038	4995
921.148	4999
921.258	4641
921.368	4596
921.477	4516
921.587	4489
921.697	4398
921.806	4546
921.916	4466
922.025	4360
922.134	4265
922.244	4291
922.353	4348
922.462	4253
922.571	4188
922.68	4063
922.789	4025
922.898	4071
923.007	4025
923.116	4154
923.224	4128
923.333	4131
923.442	4044
923.55	4025
923.659	4078
923.767	4147
923.876	4044
923.984	4200
924.092	4025
924.201	4120
924.309	4097
924.417	4215
924.525	4116
924.633	4154
924.741	5094
924.849	3956
924.956	4162
925.064	3998
925.172	3945
925.279	3987
925.387	4074
925.494	4063
925.602	4238
925.709	4223
925.816	4082
925.924	4181
926.031	4295
926.138	4181
926.245	4280
926.352	4154
926.459	4295
926.566	4352
926.673	4185
926.779	4074
926.886	4093
926.993	4013
927.099	3987
927.206	4029
927.312	3979
927.419	4128
927.525	4055
927.631	4131
927.737	3994
927.843	3945
927.95	3911
928.056	3991
928.162	4025
928.267	4139
928.373	4622
928.479	4112
928.585	3876
928.69	4101
928.796	4109
928.901	3983
929.007	3876
929.112	4040
929.218	4055
929.323	4013
929.428	3922
929.533	4109
929.638	3934
929.743	3975
929.848	4032
929.953	4063
930.058	4002
930.163	3781
930.267	3842
930.372	4006
930.477	3865
930.581	4147
930.685	3960
930.79	3857
930.894	3972
930.998	3899
931.103	4101
931.207	3732
931.311	3755
931.415	3694
931.519	3523
931.623	3584
