Data from test_V78500241_809.txt Node
Date: Fri Mar 25 16:54:37 CST 2022
User: usil
Spectrometer: V785-0024
Trigger mode: 0
Integration Time (sec): 4.000000E-1
Scans to average: 1
Nonlinearity correction enabled: false
Boxcar width: 0
Storing dark spectrum: false
XAxis mode: Wavelengths
Number of Pixels in Spectrum: 1024
>>>>>Begin Spectral Data<<<<<
801.071	7989
801.214	8012
801.356	7898
801.499	7894
801.641	7723
801.783	7841
801.926	7951
802.068	7955
802.211	7917
802.353	7932
802.496	7887
802.638	7814
802.78	7906
802.923	7928
803.065	7921
803.208	7875
803.35	7913
803.492	8046
803.635	8161
803.777	8031
803.919	8157
804.061	8450
804.204	8134
804.346	8073
804.488	7974
804.63	8088
804.773	7947
804.915	8065
805.057	8267
805.199	8153
805.341	8267
805.483	8271
805.626	8164
805.768	8126
805.91	8218
806.052	8176
806.194	8134
806.336	8199
806.478	8024
806.62	8024
806.762	8111
806.904	8180
807.046	8484
807.188	8305
807.33	8279
807.472	8366
807.614	8164
807.756	8012
807.898	8046
808.04	7860
808.182	7841
808.324	7875
808.465	7883
808.607	8016
808.749	8126
808.891	8210
809.033	8275
809.174	8130
809.316	8065
809.458	8077
809.6	7944
809.741	8054
809.883	8062
810.025	8077
810.166	8039
810.308	8058
810.45	8035
810.591	7864
810.733	7696
810.875	7674
811.016	7514
811.158	7449
811.299	7578
811.441	7655
811.582	7609
811.724	7590
811.865	7510
812.007	7540
812.148	7540
812.29	7521
812.431	7700
812.573	7849
812.714	7955
812.855	8096
812.997	8199
813.138	8279
813.279	8164
813.421	8092
813.562	8046
813.703	7807
813.845	7799
813.986	7514
814.127	7297
814.268	7282
814.41	7175
814.551	7160
814.692	7126
814.833	6973
814.974	7110
815.115	7122
815.256	6935
815.397	6897
815.539	6939
815.68	6867
815.821	6783
815.962	6863
816.103	6776
816.244	6677
816.385	6639
816.526	6623
816.666	6494
816.807	6296
816.948	6407
817.089	6456
817.23	6414
817.371	6357
817.512	6380
817.653	6334
817.793	6327
817.934	6422
818.075	6475
818.216	6422
818.356	6414
818.497	6201
818.638	6068
818.778	6091
818.919	6129
819.06	6095
819.2	6281
819.341	6338
819.481	6289
819.622	6490
819.762	6684
819.903	6681
820.043	6604
820.184	6528
820.324	6570
820.465	6631
820.605	6604
820.746	6601
820.886	6502
821.026	6623
821.167	6677
821.307	6757
821.447	6719
821.588	6547
821.728	6566
821.868	6498
822.008	6281
822.149	6361
822.289	6338
822.429	6163
822.569	6083
822.709	6072
822.849	5923
822.99	5882
823.13	5904
823.27	5908
823.41	5783
823.55	5737
823.69	5714
823.83	5764
823.97	5668
824.11	5497
824.25	5509
824.389	5554
824.529	5551
824.669	5512
824.809	5634
824.949	5608
825.089	5596
825.228	5566
825.368	5315
825.508	5341
825.648	5326
825.787	5379
825.927	5334
826.067	5288
826.206	5311
826.346	5383
826.485	5360
826.625	5417
826.765	5543
826.904	5452
827.044	5277
827.183	5166
827.323	5075
827.462	5201
827.601	5121
827.741	5174
827.88	5220
828.02	5117
828.159	5201
828.298	5292
828.437	5292
828.577	5277
828.716	5471
828.855	5303
828.994	5136
829.134	5159
829.273	5189
829.412	5098
829.551	5113
829.69	5105
829.829	5155
829.968	5410
830.107	5258
830.246	5292
830.385	5124
830.524	5113
830.663	5071
830.802	4991
830.941	4896
831.08	4866
831.219	4968
831.357	4972
831.496	5178
831.635	4923
831.774	4828
831.913	4816
832.051	4717
832.19	4744
832.329	4782
832.467	4672
832.606	4660
832.744	4725
832.883	4744
833.022	4752
833.16	4824
833.299	4786
833.437	4790
833.576	4793
833.714	4858
833.852	4812
833.991	4858
834.129	4965
834.267	4980
834.406	4923
834.544	4930
834.682	4957
834.821	4961
834.959	5170
835.097	4930
835.235	5132
835.373	5090
835.511	5056
835.65	5010
835.788	5018
835.926	4858
836.064	4805
836.202	4923
836.34	5147
836.478	5239
836.615	5124
836.753	5178
836.891	5280
837.029	5269
837.167	5185
837.305	5143
837.443	5170
837.58	5098
837.718	5197
837.856	5174
837.993	5132
838.131	5193
838.269	5174
838.406	5201
838.544	5227
838.681	5045
838.819	4976
838.956	4927
839.094	4908
839.231	4930
839.369	5029
839.506	5372
839.643	5277
839.781	5083
839.918	5006
840.055	5067
840.193	5090
840.33	5086
840.467	5121
840.604	5189
840.742	5463
840.879	5086
841.016	5064
841.153	5098
841.29	5345
841.427	5349
841.564	5292
841.701	5341
841.838	5231
841.975	5185
842.112	5258
842.249	5151
842.385	5140
842.522	5322
842.659	5136
842.796	5132
842.933	5174
843.069	5121
843.206	5159
843.343	5292
843.479	5242
843.616	5280
843.752	5006
843.889	4965
844.025	5159
844.162	4972
844.298	5197
844.435	5105
844.571	5010
844.708	5162
844.844	5288
844.98	5357
845.117	5322
845.253	5136
845.389	5067
845.525	5151
845.661	5105
845.798	5025
845.934	5117
846.07	5048
846.206	5174
846.342	5254
846.478	5174
846.614	5018
846.75	4946
846.886	4923
847.022	5136
847.158	5071
847.294	5025
847.429	5060
847.565	5006
847.701	5280
847.837	4858
847.972	4831
848.108	4957
848.244	4889
848.379	4744
848.515	4729
848.65	4664
848.786	4740
848.921	4774
849.057	4858
849.192	4896
849.328	4847
849.463	4831
849.598	4786
849.734	4733
849.869	4641
850.004	4626
850.14	4653
850.275	4611
850.41	4546
850.545	4588
850.68	4649
850.815	4645
850.95	4664
851.085	4847
851.22	4771
851.355	4653
851.49	4561
851.625	4626
851.76	4607
851.895	4577
852.03	4527
852.165	4664
852.299	4729
852.434	4759
852.569	4725
852.703	4782
852.838	4847
852.973	4908
853.107	4858
853.242	4717
853.376	4694
853.511	4558
853.645	4577
853.78	4767
853.914	4668
854.048	4653
854.183	4622
854.317	4721
854.451	4824
854.585	4679
854.72	4630
854.854	4755
854.988	4527
855.122	4584
855.256	4531
855.39	4649
855.524	4778
855.658	4748
855.792	4733
855.926	4763
856.06	4733
856.194	4820
856.327	4698
856.461	4561
856.595	4626
856.729	4634
856.862	4717
856.996	4679
857.13	4740
857.263	4744
857.397	4771
857.53	4603
857.664	4679
857.797	4763
857.931	4759
858.064	4675
858.197	4778
858.331	4656
858.464	4626
858.597	4428
858.731	4634
858.864	4603
858.997	4577
859.13	4599
859.263	4668
859.396	4706
859.529	4561
859.662	4561
859.795	4474
859.928	4630
860.061	4782
860.194	4767
860.327	4558
860.46	4535
860.592	4702
860.725	4702
860.858	4687
860.99	4542
861.123	4500
861.256	4481
861.388	4618
861.521	5204
861.653	4485
861.786	4428
861.918	4485
862.05	4455
862.183	4497
862.315	4626
862.447	4622
862.58	4512
862.712	4398
862.844	4280
862.976	4485
863.108	4466
863.24	4801
863.372	4325
863.504	4402
863.636	4436
863.768	4417
863.9	4443
864.032	4367
864.164	4356
864.296	4485
864.428	4516
864.559	4527
864.691	4519
864.823	4462
864.954	4478
865.086	4519
865.217	4447
865.349	4383
865.48	4413
865.612	4519
865.743	4630
865.875	4459
866.006	4421
866.137	4451
866.269	4436
866.4	4455
866.531	4409
866.662	4386
866.793	4386
866.924	4455
867.055	4546
867.186	4413
867.317	4432
867.448	4360
867.579	4363
867.71	4394
867.841	4367
867.972	4436
868.103	4455
868.233	4432
868.364	4375
868.495	4478
868.625	4664
868.756	4725
868.886	4569
869.017	4565
869.147	4767
869.278	4729
869.408	4641
869.539	4611
869.669	4687
869.799	4641
869.929	4714
870.06	4725
870.19	4927
870.32	4927
870.45	4908
870.58	4991
870.71	5105
870.84	5037
870.97	4968
871.1	4873
871.23	5140
871.36	5086
871.489	4976
871.619	5075
871.749	5102
871.879	5143
872.008	5136
872.138	5033
872.267	4995
872.397	4805
872.526	4778
872.656	4744
872.785	4778
872.915	4949
873.044	5022
873.173	4930
873.303	4995
873.432	4980
873.561	4919
873.69	4892
873.819	4835
873.948	4911
874.077	4790
874.206	4763
874.335	4809
874.464	4938
874.593	5071
874.722	4938
874.851	5113
874.979	5048
875.108	5022
875.237	4900
875.365	4835
875.494	4900
875.623	5033
875.751	4812
875.88	4862
876.008	4995
876.136	4987
876.265	5178
876.393	5280
876.521	5223
876.65	5239
876.778	5162
876.906	5071
877.034	4987
877.162	5006
877.29	4991
877.418	5029
877.546	5037
877.674	5060
877.802	5006
877.93	4972
878.058	4965
878.185	4889
878.313	4953
878.441	4919
878.568	4797
878.696	4870
878.824	4980
878.951	5025
879.079	5151
879.206	5288
879.333	5113
879.461	4927
879.588	5018
879.715	5121
879.842	5204
879.97	4980
880.097	4809
880.224	4752
880.351	4771
880.478	4911
880.605	4793
880.732	4801
880.859	5056
880.986	4858
881.112	4968
881.239	4736
881.366	4660
881.493	4615
881.619	4615
881.746	4615
881.872	4637
881.999	4691
882.125	4698
882.252	4801
882.378	4843
882.505	4923
882.631	4858
882.757	4672
882.883	4717
883.01	4752
883.136	4656
883.262	4577
883.388	4599
883.514	4805
883.64	4885
883.766	4767
883.892	4634
884.018	4725
884.143	4862
884.269	5041
884.395	4641
884.52	4641
884.646	4641
884.772	4603
884.897	4558
885.023	4656
885.148	4774
885.274	4816
885.399	4816
885.524	4725
885.65	4675
885.775	4736
885.9	4744
886.025	4805
886.15	4805
886.275	4702
886.4	4622
886.525	4710
886.65	4683
886.775	4653
886.9	4896
887.025	5045
887.149	4816
887.274	4679
887.399	4561
887.523	4588
887.648	4596
887.773	4546
887.897	4797
888.021	4736
888.146	4694
888.27	4835
888.395	4919
888.519	4797
888.643	4824
888.767	4847
888.891	4683
889.015	4592
889.139	4641
889.263	4592
889.387	4744
889.511	4873
889.635	4805
889.759	4656
889.883	4611
890.006	4714
890.13	4824
890.254	4577
890.377	4698
890.501	4546
890.624	4554
890.748	4622
890.871	4508
890.995	4478
891.118	4383
891.241	4481
891.364	4516
891.488	4649
891.611	4554
891.734	4558
891.857	4618
891.98	4519
892.103	4649
892.226	4588
892.349	4504
892.471	4413
892.594	4565
892.717	4649
892.839	4561
892.962	4535
893.085	4675
893.207	4584
893.33	4508
893.452	4554
893.575	4599
893.697	4558
893.819	4797
893.941	4850
894.064	4717
894.186	4565
894.308	4580
894.43	4702
894.552	4843
894.674	4748
894.796	4558
894.918	4615
895.04	4607
895.161	4683
895.283	4668
895.405	4588
895.526	4615
895.648	4714
895.769	4679
895.891	4706
896.012	4736
896.134	4702
896.255	4702
896.376	4630
896.498	4615
896.619	4645
896.74	4615
896.861	4675
896.982	4930
897.103	5094
897.224	4828
897.345	4717
897.466	4561
897.587	4717
897.708	4828
897.828	4801
897.949	4687
898.07	4527
898.19	4618
898.311	4812
898.431	4656
898.552	4755
898.672	4850
898.792	4786
898.913	4755
899.033	4611
899.153	4485
899.273	4413
899.393	4466
899.513	4580
899.633	4584
899.753	4508
899.873	4538
899.993	4584
900.113	4542
900.232	4599
900.352	4531
900.472	4455
900.591	4409
900.711	4481
900.83	4466
900.95	4618
901.069	4698
901.189	4535
901.308	4379
901.427	4310
901.546	4386
901.665	4478
901.784	4500
901.904	4405
902.023	4310
902.141	4181
902.26	4211
902.379	4348
902.498	4246
902.617	4234
902.735	4356
902.854	4360
902.973	4367
903.091	4169
903.21	4215
903.328	4306
903.446	4284
903.565	4246
903.683	4322
903.801	4249
903.919	4383
904.038	4421
904.156	4303
904.274	4478
904.392	4443
904.51	4421
904.627	4481
904.745	4573
904.863	4626
904.981	4405
905.098	4329
905.216	4360
905.334	4455
905.451	4440
905.569	4421
905.686	4538
905.803	4535
905.921	4436
906.038	4561
906.155	4481
906.272	4341
906.389	4478
906.506	4333
906.623	4428
906.74	4390
906.857	4318
906.974	4322
907.091	4512
907.208	4694
907.324	4607
907.441	4535
907.557	4329
907.674	4344
907.79	4341
907.907	4360
908.023	4474
908.139	4485
908.256	4447
908.372	4443
908.488	4481
908.604	4352
908.72	4352
908.836	4405
908.952	4363
909.068	4394
909.184	4558
909.3	4538
909.415	4535
909.531	4577
909.647	4352
909.762	4356
909.878	4287
909.993	4409
910.108	4436
910.224	4379
910.339	4455
910.454	4398
910.57	4371
910.685	4268
910.8	4603
910.915	4588
911.03	4485
911.145	4295
911.259	4356
911.374	4329
911.489	4234
911.604	4287
911.718	4154
911.833	4234
911.947	4048
912.062	4021
912.176	4215
912.291	4238
912.405	4215
912.519	4443
912.633	4519
912.748	4333
912.862	4272
912.976	4234
913.09	4078
913.204	4188
913.318	4238
913.431	4356
913.545	4341
913.659	4405
913.772	4310
913.886	4215
914	4169
914.113	4428
914.226	4398
914.34	4417
914.453	4169
914.566	4394
914.68	4272
914.793	4322
914.906	4150
915.019	4169
915.132	4086
915.245	4147
915.358	4188
915.47	4238
915.583	4272
915.696	4268
915.809	4443
915.921	4455
916.034	4299
916.146	4204
916.259	4207
916.371	4402
916.483	4337
916.595	4234
916.708	4310
916.82	4299
916.932	4284
917.044	4348
917.156	4314
917.268	4234
917.38	4272
917.491	4284
917.603	4367
917.715	4409
917.826	4459
917.938	4367
918.049	4268
918.161	4417
918.272	4554
918.384	4516
918.495	4428
918.606	4325
918.717	4219
918.828	4284
918.939	4329
919.05	4230
919.161	4344
919.272	4158
919.383	4223
919.494	4421
919.604	4611
919.715	4428
919.826	4341
919.936	4386
920.047	4535
920.157	4493
920.267	4672
920.378	4531
920.488	4531
920.598	4698
920.708	4915
920.818	4736
920.928	4759
921.038	4892
921.148	4923
921.258	4588
921.368	4497
921.477	4493
921.587	4462
921.697	4402
921.806	4531
921.916	4409
922.025	4242
922.134	4280
922.244	4200
922.353	4333
922.462	4143
922.571	4131
922.68	4036
922.789	3945
922.898	4021
923.007	4006
923.116	4071
923.224	4078
923.333	4051
923.442	3975
923.55	3975
923.659	4029
923.767	4086
923.876	3941
923.984	4116
924.092	3926
924.201	4048
924.309	4128
924.417	4131
924.525	4040
924.633	4105
924.741	4900
924.849	3934
924.956	4090
925.064	3994
925.172	3880
925.279	3953
925.387	4082
925.494	4044
925.602	4211
925.709	4154
925.816	3983
925.924	4112
926.031	4242
926.138	4196
926.245	4196
926.352	4090
926.459	4276
926.566	4337
926.673	4143
926.779	4090
926.886	4078
926.993	3987
927.099	3968
927.206	3941
927.312	3922
927.419	4063
927.525	4036
927.631	4090
927.737	3968
927.843	3937
927.95	3812
928.056	3983
928.162	3975
928.267	4093
928.373	4710
928.479	4154
928.585	3884
928.69	4021
928.796	4055
928.901	4002
929.007	3812
929.112	3991
929.218	3987
929.323	3937
929.428	3941
929.533	4074
929.638	3903
929.743	3975
929.848	4006
929.953	3998
930.058	4002
930.163	3759
930.267	3797
930.372	3934
930.477	3827
930.581	4040
930.685	3945
930.79	3827
930.894	3911
930.998	3884
931.103	3991
931.207	3686
931.311	3724
931.415	3705
931.519	3523
931.623	3545
