Data from test_V78500241_456.txt Node
Date: Fri Mar 25 16:52:10 CST 2022
User: usil
Spectrometer: V785-0024
Trigger mode: 0
Integration Time (sec): 4.000000E-1
Scans to average: 1
Nonlinearity correction enabled: false
Boxcar width: 0
Storing dark spectrum: false
XAxis mode: Wavelengths
Number of Pixels in Spectrum: 1024
>>>>>Begin Spectral Data<<<<<
801.071	8016
801.214	7970
801.356	7849
801.499	7833
801.641	7875
801.783	7833
801.926	8005
802.068	8035
802.211	8001
802.353	8031
802.496	7860
802.638	7883
802.78	7978
802.923	7883
803.065	7837
803.208	7818
803.35	7944
803.492	8043
803.635	8149
803.777	7986
803.919	8176
804.061	8393
804.204	8130
804.346	7940
804.488	7940
804.63	8081
804.773	8035
804.915	8107
805.057	8332
805.199	8134
805.341	8259
805.483	8275
805.626	8149
805.768	8024
805.91	8058
806.052	8172
806.194	8092
806.336	8328
806.478	8153
806.62	8081
806.762	8199
806.904	8221
807.046	8434
807.188	8351
807.33	8320
807.472	8259
807.614	8100
807.756	8187
807.898	8046
808.04	7902
808.182	7970
808.324	7978
808.465	7887
808.607	8115
808.749	8107
808.891	8176
809.033	8256
809.174	8191
809.316	8027
809.458	8077
809.6	7974
809.741	8077
809.883	8016
810.025	8107
810.166	8027
810.308	8012
810.45	8001
810.591	7837
810.733	7849
810.875	7616
811.016	7575
811.158	7552
811.299	7719
811.441	7734
811.582	7685
811.724	7655
811.865	7616
812.007	7636
812.148	7632
812.29	7666
812.431	7788
812.573	7894
812.714	7997
812.855	8145
812.997	8309
813.138	8309
813.279	8214
813.421	8103
813.562	8084
813.703	7890
813.845	7814
813.986	7556
814.127	7346
814.268	7350
814.41	7236
814.551	7168
814.692	7221
814.833	7088
814.974	7069
815.115	7095
815.256	6993
815.397	6894
815.539	6947
815.68	6802
815.821	6818
815.962	6905
816.103	6863
816.244	6795
816.385	6665
816.526	6585
816.666	6483
816.807	6369
816.948	6467
817.089	6464
817.23	6471
817.371	6395
817.512	6388
817.653	6426
817.793	6403
817.934	6475
818.075	6445
818.216	6441
818.356	6407
818.497	6331
818.638	6079
818.778	6232
818.919	6152
819.06	6121
819.2	6331
819.341	6266
819.481	6342
819.622	6490
819.762	6711
819.903	6696
820.043	6604
820.184	6570
820.324	6513
820.465	6681
820.605	6623
820.746	6570
820.886	6582
821.026	6700
821.167	6715
821.307	6837
821.447	6798
821.588	6662
821.728	6616
821.868	6460
822.008	6323
822.149	6376
822.289	6357
822.429	6152
822.569	6117
822.709	6098
822.849	6007
822.99	5836
823.13	5931
823.27	5870
823.41	5748
823.55	5779
823.69	5790
823.83	5767
823.97	5691
824.11	5570
824.25	5512
824.389	5505
824.529	5615
824.669	5532
824.809	5634
824.949	5672
825.089	5611
825.228	5532
825.368	5410
825.508	5387
825.648	5322
825.787	5341
825.927	5379
826.067	5280
826.206	5307
826.346	5353
826.485	5402
826.625	5414
826.765	5554
826.904	5509
827.044	5273
827.183	5254
827.323	5143
827.462	5311
827.601	5181
827.741	5162
827.88	5223
828.02	5147
828.159	5185
828.298	5318
828.437	5357
828.577	5288
828.716	5524
828.855	5360
828.994	5174
829.134	5189
829.273	5174
829.412	5117
829.551	5140
829.69	5136
829.829	5231
829.968	5444
830.107	5280
830.246	5261
830.385	5208
830.524	5155
830.663	5075
830.802	4987
830.941	4870
831.08	4930
831.219	4953
831.357	4946
831.496	5136
831.635	4972
831.774	4831
831.913	4831
832.051	4733
832.19	4744
832.329	4877
832.467	4725
832.606	4626
832.744	4721
832.883	4725
833.022	4691
833.16	4805
833.299	4752
833.437	4774
833.576	4900
833.714	4858
833.852	4858
833.991	4885
834.129	5003
834.267	4984
834.406	4889
834.544	4980
834.682	4980
834.821	4980
834.959	5189
835.097	5003
835.235	5136
835.373	5071
835.511	5128
835.65	5048
835.788	5060
835.926	4919
836.064	4892
836.202	4908
836.34	5223
836.478	5246
836.615	5109
836.753	5212
836.891	5288
837.029	5280
837.167	5227
837.305	5155
837.443	5147
837.58	5090
837.718	5223
837.856	5197
837.993	5178
838.131	5197
838.269	5204
838.406	5250
838.544	5185
838.681	5037
838.819	5041
838.956	4881
839.094	4862
839.231	4946
839.369	5086
839.506	5444
839.643	5299
839.781	4984
839.918	5006
840.055	5105
840.193	5113
840.33	5136
840.467	5121
840.604	5159
840.742	5421
840.879	5124
841.016	5083
841.153	5113
841.29	5322
841.427	5337
841.564	5299
841.701	5360
841.838	5235
841.975	5216
842.112	5258
842.249	5166
842.385	5128
842.522	5292
842.659	5140
842.796	5105
842.933	5212
843.069	5136
843.206	5174
843.343	5341
843.479	5254
843.616	5284
843.752	5029
843.889	5041
844.025	5147
844.162	5010
844.298	5223
844.435	5102
844.571	5086
844.708	5197
844.844	5368
844.98	5258
845.117	5277
845.253	5162
845.389	5113
845.525	5181
845.661	5117
845.798	5064
845.934	5151
846.07	5010
846.206	5159
846.342	5277
846.478	5231
846.614	4949
846.75	5010
846.886	4953
847.022	5178
847.158	5018
847.294	5041
847.429	5067
847.565	5079
847.701	5345
847.837	4828
847.972	4778
848.108	4991
848.244	4930
848.379	4767
848.515	4748
848.65	4706
848.786	4752
848.921	4755
849.057	4930
849.192	4847
849.328	4809
849.463	4812
849.598	4801
849.734	4805
849.869	4691
850.004	4622
850.14	4645
850.275	4630
850.41	4580
850.545	4596
850.68	4607
850.815	4561
850.95	4637
851.085	4820
851.22	4702
851.355	4668
851.49	4580
851.625	4622
851.76	4630
851.895	4573
852.03	4573
852.165	4660
852.299	4714
852.434	4771
852.569	4729
852.703	4786
852.838	4839
852.973	4965
853.107	4911
853.242	4733
853.376	4641
853.511	4516
853.645	4569
853.78	4816
853.914	4721
854.048	4668
854.183	4611
854.317	4706
854.451	4862
854.585	4668
854.72	4626
854.854	4714
854.988	4573
855.122	4641
855.256	4542
855.39	4653
855.524	4812
855.658	4710
855.792	4653
855.926	4763
856.06	4748
856.194	4824
856.327	4653
856.461	4607
856.595	4618
856.729	4649
856.862	4763
856.996	4717
857.13	4710
857.263	4752
857.397	4797
857.53	4691
857.664	4748
857.797	4748
857.931	4839
858.064	4672
858.197	4706
858.331	4645
858.464	4637
858.597	4523
858.731	4653
858.864	4630
858.997	4607
859.13	4668
859.263	4656
859.396	4706
859.529	4546
859.662	4577
859.795	4542
859.928	4603
860.061	4786
860.194	4782
860.327	4596
860.46	4565
860.592	4725
860.725	4729
860.858	4748
860.99	4565
861.123	4512
861.256	4500
861.388	4603
861.521	5376
861.653	4489
861.786	4459
861.918	4428
862.05	4519
862.183	4531
862.315	4618
862.447	4672
862.58	4538
862.712	4390
862.844	4337
862.976	4497
863.108	4443
863.24	4809
863.372	4371
863.504	4432
863.636	4447
863.768	4493
863.9	4451
864.032	4383
864.164	4386
864.296	4489
864.428	4546
864.559	4523
864.691	4561
864.823	4504
864.954	4569
865.086	4569
865.217	4474
865.349	4417
865.48	4451
865.612	4500
865.743	4641
865.875	4462
866.006	4451
866.137	4493
866.269	4478
866.4	4478
866.531	4432
866.662	4409
866.793	4417
866.924	4428
867.055	4489
867.186	4443
867.317	4409
867.448	4379
867.579	4405
867.71	4428
867.841	4379
867.972	4504
868.103	4402
868.233	4459
868.364	4428
868.495	4478
868.625	4664
868.756	4782
868.886	4584
869.017	4641
869.147	4748
869.278	4752
869.408	4641
869.539	4691
869.669	4721
869.799	4694
869.929	4782
870.06	4755
870.19	4934
870.32	4938
870.45	4957
870.58	5037
870.71	5083
870.84	5121
870.97	4961
871.1	4911
871.23	5086
871.36	5052
871.489	5060
871.619	5064
871.749	5067
871.879	5151
872.008	5162
872.138	5075
872.267	4995
872.397	4885
872.526	4786
872.656	4672
872.785	4767
872.915	4965
873.044	4957
873.173	4915
873.303	5006
873.432	4987
873.561	4946
873.69	4889
873.819	4839
873.948	4900
874.077	4786
874.206	4801
874.335	4797
874.464	4885
874.593	5064
874.722	4976
874.851	5094
874.979	5033
875.108	5083
875.237	4904
875.365	4885
875.494	4847
875.623	4991
875.751	4843
875.88	4873
876.008	4942
876.136	5079
876.265	5185
876.393	5345
876.521	5288
876.65	5193
876.778	5159
876.906	5098
877.034	5037
877.162	5003
877.29	5014
877.418	5010
877.546	5121
877.674	5083
877.802	5048
877.93	5052
878.058	4961
878.185	4873
878.313	4949
878.441	4953
878.568	4793
878.696	4873
878.824	4991
878.951	5003
879.079	5105
879.206	5250
879.333	5083
879.461	4946
879.588	4957
879.715	5124
879.842	5235
879.97	4999
880.097	4839
880.224	4714
880.351	4847
880.478	4820
880.605	4835
880.732	4850
880.859	5094
880.986	4908
881.112	4927
881.239	4774
881.366	4649
881.493	4630
881.619	4618
881.746	4637
881.872	4611
881.999	4664
882.125	4710
882.252	4805
882.378	4809
882.505	4984
882.631	4835
882.757	4687
882.883	4694
883.01	4755
883.136	4660
883.262	4588
883.388	4584
883.514	4809
883.64	4881
883.766	4797
883.892	4694
884.018	4744
884.143	4858
884.269	5052
884.395	4683
884.52	4637
884.646	4664
884.772	4573
884.897	4546
885.023	4637
885.148	4778
885.274	4896
885.399	4824
885.524	4725
885.65	4721
885.775	4774
885.9	4736
886.025	4873
886.15	4805
886.275	4660
886.4	4668
886.525	4691
886.65	4675
886.775	4687
886.9	4961
887.025	5102
887.149	4835
887.274	4660
887.399	4569
887.523	4664
887.648	4584
887.773	4584
887.897	4774
888.021	4771
888.146	4679
888.27	4805
888.395	4873
888.519	4828
888.643	4812
888.767	4831
888.891	4687
889.015	4607
889.139	4683
889.263	4599
889.387	4714
889.511	4892
889.635	4793
889.759	4668
889.883	4656
890.006	4721
890.13	4873
890.254	4599
890.377	4717
890.501	4554
890.624	4519
890.748	4626
890.871	4489
890.995	4424
891.118	4409
891.241	4535
891.364	4573
891.488	4675
891.611	4466
891.734	4569
891.857	4596
891.98	4535
892.103	4729
892.226	4596
892.349	4462
892.471	4447
892.594	4550
892.717	4622
892.839	4561
892.962	4607
893.085	4592
893.207	4649
893.33	4462
893.452	4493
893.575	4660
893.697	4592
893.819	4771
893.941	4881
894.064	4755
894.186	4565
894.308	4607
894.43	4752
894.552	4824
894.674	4797
894.796	4580
894.918	4649
895.04	4580
895.161	4698
895.283	4691
895.405	4565
895.526	4656
895.648	4660
895.769	4675
895.891	4733
896.012	4740
896.134	4729
896.255	4687
896.376	4630
896.498	4622
896.619	4698
896.74	4607
896.861	4668
896.982	4877
897.103	5094
897.224	4877
897.345	4740
897.466	4660
897.587	4725
897.708	4835
897.828	4759
897.949	4668
898.07	4565
898.19	4668
898.311	4828
898.431	4706
898.552	4767
898.672	4835
898.792	4771
898.913	4725
899.033	4656
899.153	4504
899.273	4409
899.393	4516
899.513	4523
899.633	4500
899.753	4512
899.873	4535
899.993	4599
900.113	4538
900.232	4611
900.352	4542
900.472	4443
900.591	4398
900.711	4470
900.83	4424
900.95	4565
901.069	4683
901.189	4542
901.308	4371
901.427	4333
901.546	4417
901.665	4565
901.784	4489
901.904	4375
902.023	4318
902.141	4215
902.26	4143
902.379	4306
902.498	4242
902.617	4238
902.735	4363
902.854	4428
902.973	4371
903.091	4261
903.21	4227
903.328	4265
903.446	4284
903.565	4276
903.683	4363
903.801	4265
903.919	4413
904.038	4405
904.156	4341
904.274	4413
904.392	4428
904.51	4470
904.627	4493
904.745	4565
904.863	4611
904.981	4371
905.098	4367
905.216	4428
905.334	4436
905.451	4432
905.569	4470
905.686	4584
905.803	4569
905.921	4432
906.038	4497
906.155	4447
906.272	4409
906.389	4481
906.506	4394
906.623	4363
906.74	4367
906.857	4310
906.974	4371
907.091	4584
907.208	4653
907.324	4580
907.441	4485
907.557	4360
907.674	4360
907.79	4337
907.907	4371
908.023	4493
908.139	4504
908.256	4451
908.372	4459
908.488	4443
908.604	4363
908.72	4318
908.836	4356
908.952	4398
909.068	4455
909.184	4508
909.3	4478
909.415	4611
909.531	4554
909.647	4383
909.762	4421
909.878	4333
909.993	4421
910.108	4432
910.224	4379
910.339	4478
910.454	4428
910.57	4398
910.685	4291
910.8	4664
910.915	4588
911.03	4489
911.145	4360
911.259	4344
911.374	4310
911.489	4272
911.604	4314
911.718	4177
911.833	4192
911.947	4059
912.062	4044
912.176	4177
912.291	4223
912.405	4268
912.519	4512
912.633	4516
912.748	4390
912.862	4341
912.976	4242
913.09	4071
913.204	4173
913.318	4242
913.431	4402
913.545	4386
913.659	4459
913.772	4371
913.886	4227
914	4242
914.113	4367
914.226	4421
914.34	4405
914.453	4246
914.566	4394
914.68	4318
914.793	4318
914.906	4162
915.019	4139
915.132	4101
915.245	4185
915.358	4211
915.47	4265
915.583	4272
915.696	4303
915.809	4405
915.921	4390
916.034	4234
916.146	4268
916.259	4181
916.371	4421
916.483	4367
916.595	4238
916.708	4333
916.82	4352
916.932	4303
917.044	4341
917.156	4390
917.268	4249
917.38	4265
917.491	4348
917.603	4329
917.715	4405
917.826	4474
917.938	4314
918.049	4257
918.161	4360
918.272	4554
918.384	4538
918.495	4440
918.606	4314
918.717	4234
918.828	4352
918.939	4375
919.05	4295
919.161	4284
919.272	4162
919.383	4227
919.494	4428
919.604	4618
919.715	4447
919.826	4341
919.936	4398
920.047	4527
920.157	4489
920.267	4664
920.378	4523
920.488	4523
920.598	4748
920.708	4862
920.818	4740
920.928	4828
921.038	4972
921.148	4942
921.258	4603
921.368	4561
921.477	4504
921.587	4474
921.697	4371
921.806	4569
921.916	4432
922.025	4207
922.134	4272
922.244	4238
922.353	4356
922.462	4196
922.571	4135
922.68	4010
922.789	3991
922.898	4067
923.007	3983
923.116	4116
923.224	4090
923.333	4078
923.442	3975
923.55	4010
923.659	4032
923.767	4112
923.876	3994
923.984	4112
924.092	3998
924.201	4086
924.309	4055
924.417	4128
924.525	4036
924.633	4074
924.741	5041
924.849	3892
924.956	4124
925.064	3979
925.172	3876
925.279	3953
925.387	4063
925.494	4093
925.602	4181
925.709	4181
925.816	4078
925.924	4173
926.031	4223
926.138	4177
926.245	4181
926.352	4093
926.459	4261
926.566	4280
926.673	4169
926.779	4090
926.886	4059
926.993	4029
927.099	3968
927.206	3937
927.312	3937
927.419	4093
927.525	4029
927.631	4097
927.737	3979
927.843	3968
927.95	3831
928.056	3934
928.162	3983
928.267	4055
928.373	4717
928.479	4124
928.585	3880
928.69	4040
928.796	4051
928.901	3960
929.007	3816
929.112	3994
929.218	4029
929.323	3968
929.428	3945
929.533	4112
929.638	3956
929.743	3979
929.848	4044
929.953	4029
930.058	3926
930.163	3762
930.267	3800
930.372	3934
930.477	3823
930.581	4090
930.685	3926
930.79	3793
930.894	3903
930.998	3873
931.103	4063
931.207	3709
931.311	3698
931.415	3633
931.519	3553
931.623	3572
