Data from test_V78500241_1782.txt Node
Date: Fri Mar 25 17:01:23 CST 2022
User: usil
Spectrometer: V785-0024
Trigger mode: 0
Integration Time (sec): 4.000000E-1
Scans to average: 1
Nonlinearity correction enabled: false
Boxcar width: 0
Storing dark spectrum: false
XAxis mode: Wavelengths
Number of Pixels in Spectrum: 1024
>>>>>Begin Spectral Data<<<<<
801.071	7982
801.214	7989
801.356	7932
801.499	7917
801.641	7811
801.783	7875
801.926	7970
802.068	7932
802.211	7944
802.353	7970
802.496	7818
802.638	7906
802.78	7883
802.923	7909
803.065	7852
803.208	7856
803.35	7936
803.492	8058
803.635	8149
803.777	8054
803.919	8119
804.061	8419
804.204	8180
804.346	8024
804.488	7951
804.63	8111
804.773	8054
804.915	8168
805.057	8313
805.199	8206
805.341	8168
805.483	8248
805.626	8248
805.768	8145
805.91	8256
806.052	8252
806.194	8172
806.336	8324
806.478	8134
806.62	7967
806.762	8103
806.904	8290
807.046	8461
807.188	8377
807.33	8290
807.472	8324
807.614	8214
807.756	8115
807.898	7989
808.04	7894
808.182	7917
808.324	7932
808.465	7894
808.607	8142
808.749	8172
808.891	8218
809.033	8343
809.174	8271
809.316	8081
809.458	8081
809.6	8050
809.741	7978
809.883	8081
810.025	8119
810.166	8157
810.308	8050
810.45	8027
810.591	7921
810.733	7765
810.875	7651
811.016	7552
811.158	7537
811.299	7586
811.441	7696
811.582	7689
811.724	7540
811.865	7506
812.007	7563
812.148	7628
812.29	7647
812.431	7811
812.573	7913
812.714	8024
812.855	8145
812.997	8275
813.138	8377
813.279	8199
813.421	8103
813.562	8020
813.703	7795
813.845	7792
813.986	7445
814.127	7297
814.268	7236
814.41	7164
814.551	7168
814.692	7187
814.833	7091
814.974	7133
815.115	7099
815.256	6966
815.397	6970
815.539	6973
815.68	6779
815.821	6787
815.962	6897
816.103	6829
816.244	6760
816.385	6623
816.526	6616
816.666	6513
816.807	6342
816.948	6471
817.089	6483
817.23	6452
817.371	6388
817.512	6410
817.653	6391
817.793	6353
817.934	6437
818.075	6437
818.216	6426
818.356	6407
818.497	6273
818.638	6140
818.778	6171
818.919	6140
819.06	6197
819.2	6346
819.341	6376
819.481	6410
819.622	6555
819.762	6741
819.903	6741
820.043	6608
820.184	6646
820.324	6525
820.465	6738
820.605	6688
820.746	6665
820.886	6506
821.026	6707
821.167	6768
821.307	6897
821.447	6757
821.588	6745
821.728	6563
821.868	6506
822.008	6319
822.149	6369
822.289	6342
822.429	6182
822.569	6121
822.709	6098
822.849	5897
822.99	5897
823.13	5950
823.27	5908
823.41	5832
823.55	5824
823.69	5752
823.83	5817
823.97	5646
824.11	5577
824.25	5501
824.389	5551
824.529	5684
824.669	5558
824.809	5600
824.949	5680
825.089	5668
825.228	5581
825.368	5444
825.508	5379
825.648	5364
825.787	5372
825.927	5349
826.067	5277
826.206	5349
826.346	5360
826.485	5440
826.625	5372
826.765	5596
826.904	5444
827.044	5254
827.183	5201
827.323	5113
827.462	5220
827.601	5178
827.741	5231
827.88	5254
828.02	5117
828.159	5223
828.298	5330
828.437	5315
828.577	5296
828.716	5410
828.855	5398
828.994	5151
829.134	5178
829.273	5147
829.412	5117
829.551	5147
829.69	5204
829.829	5220
829.968	5391
830.107	5280
830.246	5273
830.385	5178
830.524	5162
830.663	5064
830.802	5003
830.941	4900
831.08	4900
831.219	5025
831.357	4968
831.496	5178
831.635	4904
831.774	4831
831.913	4847
832.051	4679
832.19	4755
832.329	4831
832.467	4706
832.606	4641
832.744	4774
832.883	4755
833.022	4748
833.16	4820
833.299	4870
833.437	4854
833.576	4828
833.714	4805
833.852	4862
833.991	4915
834.129	5003
834.267	4930
834.406	4927
834.544	4972
834.682	5029
834.821	4999
834.959	5181
835.097	5029
835.235	5113
835.373	5121
835.511	5086
835.65	5048
835.788	5022
835.926	4896
836.064	4862
836.202	4968
836.34	5117
836.478	5292
836.615	5090
836.753	5185
836.891	5227
837.029	5261
837.167	5235
837.305	5143
837.443	5136
837.58	5086
837.718	5235
837.856	5189
837.993	5143
838.131	5246
838.269	5235
838.406	5147
838.544	5174
838.681	5151
838.819	5041
838.956	4915
839.094	4889
839.231	4980
839.369	5052
839.506	5417
839.643	5242
839.781	5048
839.918	5025
840.055	5067
840.193	5090
840.33	5079
840.467	5170
840.604	5197
840.742	5433
840.879	5018
841.016	5098
841.153	5117
841.29	5337
841.427	5341
841.564	5368
841.701	5368
841.838	5303
841.975	5197
842.112	5235
842.249	5170
842.385	5109
842.522	5334
842.659	5197
842.796	5143
842.933	5181
843.069	5162
843.206	5124
843.343	5360
843.479	5208
843.616	5326
843.752	4995
843.889	4991
844.025	5178
844.162	5052
844.298	5201
844.435	5083
844.571	5041
844.708	5201
844.844	5280
844.98	5379
845.117	5250
845.253	5136
845.389	5132
845.525	5132
845.661	5201
845.798	5075
845.934	5128
846.07	5006
846.206	5136
846.342	5299
846.478	5147
846.614	5090
846.75	4984
846.886	4957
847.022	5185
847.158	5014
847.294	5052
847.429	5132
847.565	5064
847.701	5368
847.837	4847
847.972	4812
848.108	4968
848.244	4919
848.379	4786
848.515	4759
848.65	4759
848.786	4744
848.921	4824
849.057	4915
849.192	4911
849.328	4797
849.463	4850
849.598	4774
849.734	4744
849.869	4675
850.004	4626
850.14	4675
850.275	4634
850.41	4523
850.545	4584
850.68	4588
850.815	4607
850.95	4634
851.085	4862
851.22	4774
851.355	4683
851.49	4596
851.625	4649
851.76	4687
851.895	4622
852.03	4519
852.165	4607
852.299	4679
852.434	4744
852.569	4748
852.703	4774
852.838	4831
852.973	4949
853.107	4938
853.242	4710
853.376	4717
853.511	4538
853.645	4637
853.78	4771
853.914	4672
854.048	4653
854.183	4622
854.317	4733
854.451	4843
854.585	4649
854.72	4607
854.854	4717
854.988	4611
855.122	4584
855.256	4504
855.39	4634
855.524	4790
855.658	4755
855.792	4675
855.926	4755
856.06	4778
856.194	4797
856.327	4710
856.461	4630
856.595	4626
856.729	4653
856.862	4740
856.996	4706
857.13	4725
857.263	4774
857.397	4797
857.53	4645
857.664	4717
857.797	4755
857.931	4805
858.064	4679
858.197	4755
858.331	4626
858.464	4554
858.597	4535
858.731	4645
858.864	4637
858.997	4615
859.13	4626
859.263	4687
859.396	4702
859.529	4622
859.662	4592
859.795	4573
859.928	4637
860.061	4733
860.194	4740
860.327	4622
860.46	4573
860.592	4687
860.725	4725
860.858	4649
860.99	4558
861.123	4558
861.256	4542
861.388	4596
861.521	5254
861.653	4485
861.786	4417
861.918	4485
862.05	4508
862.183	4561
862.315	4611
862.447	4637
862.58	4542
862.712	4421
862.844	4337
862.976	4466
863.108	4443
863.24	4843
863.372	4344
863.504	4459
863.636	4432
863.768	4447
863.9	4413
864.032	4333
864.164	4409
864.296	4440
864.428	4523
864.559	4542
864.691	4538
864.823	4531
864.954	4462
865.086	4489
865.217	4481
865.349	4428
865.48	4474
865.612	4508
865.743	4641
865.875	4538
866.006	4428
866.137	4424
866.269	4466
866.4	4459
866.531	4421
866.662	4398
866.793	4417
866.924	4360
867.055	4478
867.186	4447
867.317	4405
867.448	4360
867.579	4390
867.71	4398
867.841	4402
867.972	4398
868.103	4421
868.233	4402
868.364	4432
868.495	4485
868.625	4656
868.756	4763
868.886	4527
869.017	4694
869.147	4733
869.278	4763
869.408	4660
869.539	4599
869.669	4717
869.799	4630
869.929	4763
870.06	4740
870.19	4915
870.32	4942
870.45	4949
870.58	5018
870.71	5086
870.84	5090
870.97	4923
871.1	4911
871.23	5105
871.36	5102
871.489	5029
871.619	5033
871.749	5124
871.879	5121
872.008	5136
872.138	5086
872.267	4984
872.397	4870
872.526	4797
872.656	4706
872.785	4744
872.915	4938
873.044	4999
873.173	4968
873.303	4968
873.432	4965
873.561	4930
873.69	4873
873.819	4862
873.948	4892
874.077	4839
874.206	4755
874.335	4809
874.464	4927
874.593	5045
874.722	4953
874.851	5075
874.979	5048
875.108	4961
875.237	4900
875.365	4896
875.494	4919
875.623	5025
875.751	4828
875.88	4900
876.008	4976
876.136	5060
876.265	5170
876.393	5364
876.521	5258
876.65	5216
876.778	5155
876.906	5060
877.034	5033
877.162	5033
877.29	5010
877.418	5048
877.546	5022
877.674	5022
877.802	5067
877.93	4980
878.058	4976
878.185	4873
878.313	4927
878.441	4957
878.568	4801
878.696	4854
878.824	4999
878.951	5033
879.079	5102
879.206	5273
879.333	5086
879.461	4984
879.588	5029
879.715	5121
879.842	5208
879.97	5041
880.097	4812
880.224	4778
880.351	4774
880.478	4858
880.605	4828
880.732	4816
880.859	5025
880.986	4854
881.112	4915
881.239	4790
881.366	4691
881.493	4626
881.619	4550
881.746	4618
881.872	4649
881.999	4656
882.125	4691
882.252	4752
882.378	4809
882.505	4946
882.631	4847
882.757	4649
882.883	4702
883.01	4763
883.136	4691
883.262	4592
883.388	4615
883.514	4782
883.64	4824
883.766	4854
883.892	4626
884.018	4755
884.143	4870
884.269	4972
884.395	4710
884.52	4618
884.646	4622
884.772	4580
884.897	4607
885.023	4607
885.148	4744
885.274	4881
885.399	4759
885.524	4714
885.65	4687
885.775	4748
885.9	4664
886.025	4862
886.15	4778
886.275	4763
886.4	4687
886.525	4698
886.65	4733
886.775	4660
886.9	4942
887.025	5071
887.149	4805
887.274	4664
887.399	4630
887.523	4622
887.648	4573
887.773	4580
887.897	4820
888.021	4782
888.146	4721
888.27	4839
888.395	4915
888.519	4744
888.643	4767
888.767	4831
888.891	4687
889.015	4618
889.139	4645
889.263	4637
889.387	4752
889.511	4843
889.635	4793
889.759	4683
889.883	4618
890.006	4763
890.13	4790
890.254	4615
890.377	4664
890.501	4493
890.624	4504
890.748	4626
890.871	4516
890.995	4409
891.118	4352
891.241	4508
891.364	4485
891.488	4626
891.611	4478
891.734	4599
891.857	4561
891.98	4504
892.103	4618
892.226	4634
892.349	4535
892.471	4417
892.594	4504
892.717	4599
892.839	4584
892.962	4588
893.085	4645
893.207	4577
893.33	4432
893.452	4535
893.575	4630
893.697	4561
893.819	4797
893.941	4793
894.064	4744
894.186	4542
894.308	4607
894.43	4736
894.552	4801
894.674	4729
894.796	4542
894.918	4611
895.04	4558
895.161	4683
895.283	4664
895.405	4592
895.526	4611
895.648	4679
895.769	4660
895.891	4691
896.012	4744
896.134	4736
896.255	4626
896.376	4622
896.498	4599
896.619	4634
896.74	4599
896.861	4637
896.982	4934
897.103	5109
897.224	4786
897.345	4736
897.466	4634
897.587	4721
897.708	4801
897.828	4774
897.949	4607
898.07	4577
898.19	4645
898.311	4816
898.431	4668
898.552	4725
898.672	4873
898.792	4778
898.913	4748
899.033	4558
899.153	4481
899.273	4375
899.393	4462
899.513	4565
899.633	4535
899.753	4542
899.873	4489
899.993	4542
900.113	4481
900.232	4577
900.352	4527
900.472	4497
900.591	4417
900.711	4470
900.83	4390
900.95	4580
901.069	4706
901.189	4512
901.308	4371
901.427	4325
901.546	4356
901.665	4504
901.784	4504
901.904	4352
902.023	4310
902.141	4188
902.26	4181
902.379	4299
902.498	4234
902.617	4185
902.735	4360
902.854	4383
902.973	4341
903.091	4177
903.21	4238
903.328	4303
903.446	4276
903.565	4265
903.683	4363
903.801	4314
903.919	4352
904.038	4466
904.156	4329
904.274	4421
904.392	4417
904.51	4455
904.627	4489
904.745	4592
904.863	4599
904.981	4371
905.098	4322
905.216	4405
905.334	4398
905.451	4405
905.569	4455
905.686	4546
905.803	4584
905.921	4413
906.038	4561
906.155	4428
906.272	4360
906.389	4386
906.506	4333
906.623	4348
906.74	4383
906.857	4299
906.974	4337
907.091	4592
907.208	4645
907.324	4542
907.441	4512
907.557	4371
907.674	4303
907.79	4329
907.907	4375
908.023	4474
908.139	4478
908.256	4424
908.372	4455
908.488	4485
908.604	4352
908.72	4310
908.836	4379
908.952	4375
909.068	4394
909.184	4592
909.3	4459
909.415	4584
909.531	4519
909.647	4367
909.762	4314
909.878	4280
909.993	4428
910.108	4421
910.224	4451
910.339	4478
910.454	4409
910.57	4348
910.685	4272
910.8	4634
910.915	4596
911.03	4447
911.145	4257
911.259	4310
911.374	4341
911.489	4299
911.604	4280
911.718	4188
911.833	4230
911.947	4044
912.062	4032
912.176	4207
912.291	4211
912.405	4227
912.519	4474
912.633	4466
912.748	4386
912.862	4314
912.976	4211
913.09	4078
913.204	4147
913.318	4295
913.431	4363
913.545	4390
913.659	4447
913.772	4402
913.886	4276
914	4223
914.113	4337
914.226	4443
914.34	4390
914.453	4215
914.566	4432
914.68	4299
914.793	4367
914.906	4143
915.019	4101
915.132	4090
915.245	4166
915.358	4223
915.47	4181
915.583	4249
915.696	4325
915.809	4424
915.921	4417
916.034	4204
916.146	4219
916.259	4230
916.371	4398
916.483	4394
916.595	4246
916.708	4310
916.82	4333
916.932	4329
917.044	4322
917.156	4310
917.268	4230
917.38	4230
917.491	4227
917.603	4333
917.715	4428
917.826	4394
917.938	4379
918.049	4249
918.161	4443
918.272	4558
918.384	4542
918.495	4481
918.606	4303
918.717	4242
918.828	4383
918.939	4379
919.05	4291
919.161	4314
919.272	4116
919.383	4238
919.494	4440
919.604	4622
919.715	4455
919.826	4341
919.936	4440
920.047	4558
920.157	4489
920.267	4698
920.378	4519
920.488	4481
920.598	4733
920.708	4862
920.818	4752
920.928	4801
921.038	4972
921.148	4957
921.258	4607
921.368	4592
921.477	4485
921.587	4474
921.697	4383
921.806	4573
921.916	4409
922.025	4287
922.134	4253
922.244	4234
922.353	4325
922.462	4150
922.571	4150
922.68	4025
922.789	3953
922.898	4006
923.007	3975
923.116	4105
923.224	4059
923.333	4044
923.442	3972
923.55	4017
923.659	4048
923.767	4082
923.876	3983
923.984	4150
924.092	4029
924.201	4040
924.309	4074
924.417	4116
924.525	4086
924.633	4147
924.741	5018
924.849	3888
924.956	4071
925.064	3949
925.172	3918
925.279	3964
925.387	4074
925.494	4013
925.602	4188
925.709	4139
925.816	4074
925.924	4154
926.031	4204
926.138	4150
926.245	4158
926.352	4116
926.459	4242
926.566	4306
926.673	4147
926.779	4067
926.886	4078
926.993	4013
927.099	3991
927.206	3945
927.312	3949
927.419	4090
927.525	4032
927.631	4074
927.737	3956
927.843	3941
927.95	3873
928.056	3926
928.162	3956
928.267	4044
928.373	4580
928.479	4101
928.585	3842
928.69	4025
928.796	4105
928.901	3930
929.007	3850
929.112	4017
929.218	3934
929.323	3930
929.428	3926
929.533	4154
929.638	3915
929.743	3930
929.848	4055
929.953	4010
930.058	3926
930.163	3755
930.267	3800
930.372	3956
930.477	3831
930.581	4063
930.685	3956
930.79	3835
930.894	3892
930.998	3857
931.103	4029
931.207	3762
931.311	3713
931.415	3644
931.519	3530
931.623	3530
