Data from test_V78500241_29.txt Node
Date: Fri Mar 25 16:49:12 CST 2022
User: usil
Spectrometer: V785-0024
Trigger mode: 0
Integration Time (sec): 4.000000E-1
Scans to average: 1
Nonlinearity correction enabled: false
Boxcar width: 0
Storing dark spectrum: false
XAxis mode: Wavelengths
Number of Pixels in Spectrum: 1024
>>>>>Begin Spectral Data<<<<<
801.071	8111
801.214	8065
801.356	7967
801.499	7913
801.641	7875
801.783	7868
801.926	8027
802.068	8005
802.211	8062
802.353	8046
802.496	7925
802.638	7967
802.78	8039
802.923	7963
803.065	7909
803.208	7906
803.35	8035
803.492	8119
803.635	8157
803.777	8001
803.919	8107
804.061	8465
804.204	8157
804.346	8134
804.488	7963
804.63	8073
804.773	8039
804.915	8142
805.057	8240
805.199	8195
805.341	8267
805.483	8267
805.626	8267
805.768	8176
805.91	8244
806.052	8286
806.194	8191
806.336	8317
806.478	8153
806.62	8088
806.762	8256
806.904	8324
807.046	8442
807.188	8419
807.33	8351
807.472	8358
807.614	8176
807.756	8153
807.898	8054
808.04	7955
808.182	7894
808.324	7936
808.465	7944
808.607	8077
808.749	8161
808.891	8221
809.033	8248
809.174	8191
809.316	8062
809.458	8088
809.6	8084
809.741	8046
809.883	8073
810.025	8084
810.166	8119
810.308	8005
810.45	7978
810.591	7940
810.733	7868
810.875	7731
811.016	7525
811.158	7487
811.299	7632
811.441	7887
811.582	7826
811.724	7662
811.865	7597
812.007	7666
812.148	7655
812.29	7696
812.431	7696
812.573	7940
812.714	8031
812.855	8134
812.997	8237
813.138	8419
813.279	8195
813.421	8077
813.562	8073
813.703	7894
813.845	7814
813.986	7483
814.127	7316
814.268	7316
814.41	7225
814.551	7213
814.692	7232
814.833	7114
814.974	7149
815.115	7149
815.256	7042
815.397	6947
815.539	6977
815.68	6867
815.821	6734
815.962	6924
816.103	6856
816.244	6802
816.385	6677
816.526	6669
816.666	6494
816.807	6357
816.948	6467
817.089	6467
817.23	6471
817.371	6414
817.512	6448
817.653	6399
817.793	6429
817.934	6452
818.075	6464
818.216	6456
818.356	6471
818.497	6315
818.638	6140
818.778	6209
818.919	6171
819.06	6095
819.2	6361
819.341	6403
819.481	6422
819.622	6582
819.762	6802
819.903	6726
820.043	6597
820.184	6669
820.324	6635
820.465	6776
820.605	6757
820.746	6703
820.886	6513
821.026	6703
821.167	6749
821.307	6802
821.447	6837
821.588	6681
821.728	6547
821.868	6547
822.008	6376
822.149	6391
822.289	6399
822.429	6258
822.569	6140
822.709	6159
822.849	5942
822.99	5927
823.13	5958
823.27	5939
823.41	5817
823.55	5855
823.69	5828
823.83	5821
823.97	5672
824.11	5630
824.25	5539
824.389	5581
824.529	5646
824.669	5551
824.809	5733
824.949	5707
825.089	5661
825.228	5615
825.368	5379
825.508	5379
825.648	5383
825.787	5429
825.927	5410
826.067	5322
826.206	5330
826.346	5398
826.485	5455
826.625	5410
826.765	5581
826.904	5505
827.044	5292
827.183	5231
827.323	5155
827.462	5341
827.601	5239
827.741	5292
827.88	5204
828.02	5155
828.159	5277
828.298	5322
828.437	5410
828.577	5379
828.716	5532
828.855	5372
828.994	5174
829.134	5227
829.273	5250
829.412	5151
829.551	5235
829.69	5231
829.829	5315
829.968	5436
830.107	5349
830.246	5303
830.385	5231
830.524	5189
830.663	5117
830.802	5018
830.941	4927
831.08	4919
831.219	5010
831.357	5003
831.496	5197
831.635	4968
831.774	4923
831.913	4915
832.051	4793
832.19	4809
832.329	4892
832.467	4755
832.606	4672
832.744	4744
832.883	4782
833.022	4740
833.16	4831
833.299	4919
833.437	4873
833.576	4862
833.714	4889
833.852	4953
833.991	4896
834.129	4987
834.267	4987
834.406	4957
834.544	5018
834.682	5064
834.821	5010
834.959	5204
835.097	5071
835.235	5155
835.373	5147
835.511	5166
835.65	5064
835.788	5067
835.926	4930
836.064	4953
836.202	4923
836.34	5227
836.478	5292
836.615	5212
836.753	5258
836.891	5311
837.029	5299
837.167	5193
837.305	5185
837.443	5201
837.58	5105
837.718	5299
837.856	5193
837.993	5208
838.131	5254
838.269	5277
838.406	5204
838.544	5204
838.681	5067
838.819	5048
838.956	4908
839.094	4965
839.231	5064
839.369	5102
839.506	5474
839.643	5330
839.781	5143
839.918	5037
840.055	5140
840.193	5121
840.33	5166
840.467	5212
840.604	5239
840.742	5448
840.879	5098
841.016	5109
841.153	5185
841.29	5402
841.427	5421
841.564	5372
841.701	5364
841.838	5318
841.975	5212
842.112	5307
842.249	5231
842.385	5162
842.522	5398
842.659	5181
842.796	5231
842.933	5223
843.069	5159
843.206	5227
843.343	5353
843.479	5280
843.616	5284
843.752	5022
843.889	5029
844.025	5296
844.162	5064
844.298	5258
844.435	5094
844.571	5067
844.708	5231
844.844	5417
844.98	5372
845.117	5277
845.253	5201
845.389	5140
845.525	5197
845.661	5193
845.798	5105
845.934	5212
846.07	5098
846.206	5231
846.342	5383
846.478	5242
846.614	5048
846.75	5029
846.886	4968
847.022	5178
847.158	5006
847.294	5060
847.429	5136
847.565	5113
847.701	5372
847.837	4934
847.972	4885
848.108	5006
848.244	4972
848.379	4828
848.515	4797
848.65	4717
848.786	4759
848.921	4793
849.057	4915
849.192	4965
849.328	4820
849.463	4877
849.598	4812
849.734	4801
849.869	4710
850.004	4649
850.14	4668
850.275	4653
850.41	4558
850.545	4603
850.68	4618
850.815	4645
850.95	4679
851.085	4889
851.22	4748
851.355	4694
851.49	4649
851.625	4698
851.76	4649
851.895	4618
852.03	4569
852.165	4721
852.299	4748
852.434	4843
852.569	4778
852.703	4801
852.838	4843
852.973	4965
853.107	4991
853.242	4771
853.376	4668
853.511	4618
853.645	4664
853.78	4854
853.914	4729
854.048	4744
854.183	4683
854.317	4752
854.451	4904
854.585	4740
854.72	4649
854.854	4805
854.988	4653
855.122	4672
855.256	4580
855.39	4725
855.524	4793
855.658	4805
855.792	4721
855.926	4782
856.06	4778
856.194	4831
856.327	4752
856.461	4653
856.595	4634
856.729	4683
856.862	4858
856.996	4721
857.13	4759
857.263	4828
857.397	4816
857.53	4721
857.664	4767
857.797	4786
857.931	4816
858.064	4755
858.197	4786
858.331	4679
858.464	4626
858.597	4577
858.731	4668
858.864	4679
858.997	4656
859.13	4748
859.263	4683
859.396	4710
859.529	4634
859.662	4637
859.795	4565
859.928	4641
860.061	4759
860.194	4797
860.327	4664
860.46	4592
860.592	4706
860.725	4763
860.858	4721
860.99	4645
861.123	4573
861.256	4554
861.388	4660
861.521	5448
861.653	4508
861.786	4466
861.918	4497
862.05	4599
862.183	4584
862.315	4645
862.447	4710
862.58	4577
862.712	4413
862.844	4383
862.976	4531
863.108	4523
863.24	4927
863.372	4367
863.504	4493
863.636	4440
863.768	4523
863.9	4489
864.032	4470
864.164	4390
864.296	4538
864.428	4565
864.559	4596
864.691	4550
864.823	4565
864.954	4523
865.086	4527
865.217	4508
865.349	4478
865.48	4493
865.612	4550
865.743	4664
865.875	4474
866.006	4447
866.137	4474
866.269	4489
866.4	4485
866.531	4440
866.662	4489
866.793	4455
866.924	4424
867.055	4527
867.186	4481
867.317	4436
867.448	4413
867.579	4451
867.71	4424
867.841	4428
867.972	4481
868.103	4519
868.233	4489
868.364	4489
868.495	4554
868.625	4653
868.756	4801
868.886	4596
869.017	4694
869.147	4809
869.278	4782
869.408	4702
869.539	4630
869.669	4801
869.799	4687
869.929	4793
870.06	4736
870.19	4984
870.32	4995
870.45	4915
870.58	5048
870.71	5121
870.84	5189
870.97	5018
871.1	4915
871.23	5212
871.36	5159
871.489	5090
871.619	5086
871.749	5086
871.879	5170
872.008	5220
872.138	5060
872.267	4972
872.397	4896
872.526	4862
872.656	4744
872.785	4866
872.915	5033
873.044	5029
873.173	5003
873.303	5014
873.432	4972
873.561	5045
873.69	4934
873.819	4862
873.948	4942
874.077	4877
874.206	4812
874.335	4850
874.464	5006
874.593	5140
874.722	4972
874.851	5193
874.979	5162
875.108	5079
875.237	4953
875.365	4946
875.494	4911
875.623	5018
875.751	4847
875.88	4938
876.008	5067
876.136	5086
876.265	5265
876.393	5459
876.521	5337
876.65	5277
876.778	5269
876.906	5132
877.034	5132
877.162	5132
877.29	5071
877.418	5140
877.546	5159
877.674	5159
877.802	5117
877.93	5113
878.058	5010
878.185	4957
878.313	5014
878.441	5014
878.568	4881
878.696	4976
878.824	5067
878.951	5064
879.079	5189
879.206	5429
879.333	5204
879.461	5086
879.588	5105
879.715	5170
879.842	5345
879.97	5079
880.097	4904
880.224	4847
880.351	4904
880.478	4927
880.605	4843
880.732	4843
880.859	5227
880.986	5052
881.112	5025
881.239	4873
881.366	4748
881.493	4706
881.619	4698
881.746	4755
881.872	4744
881.999	4736
882.125	4755
882.252	4862
882.378	4904
882.505	5041
882.631	4946
882.757	4778
882.883	4805
883.01	4847
883.136	4752
883.262	4706
883.388	4744
883.514	4850
883.64	4991
883.766	4850
883.892	4714
884.018	4782
884.143	4999
884.269	5098
884.395	4725
884.52	4660
884.646	4714
884.772	4656
884.897	4687
885.023	4763
885.148	4866
885.274	4949
885.399	4862
885.524	4778
885.65	4778
885.775	4801
885.9	4847
886.025	4965
886.15	4820
886.275	4835
886.4	4752
886.525	4835
886.65	4755
886.775	4778
886.9	4946
887.025	5132
887.149	4904
887.274	4702
887.399	4637
887.523	4694
887.648	4683
887.773	4694
887.897	4824
888.021	4870
888.146	4748
888.27	4908
888.395	4972
888.519	4915
888.643	4877
888.767	4919
888.891	4740
889.015	4656
889.139	4702
889.263	4691
889.387	4816
889.511	4961
889.635	4862
889.759	4740
889.883	4721
890.006	4847
890.13	4885
890.254	4698
890.377	4805
890.501	4618
890.624	4546
890.748	4683
890.871	4588
890.995	4481
891.118	4508
891.241	4626
891.364	4653
891.488	4767
891.611	4611
891.734	4596
891.857	4672
891.98	4599
892.103	4725
892.226	4630
892.349	4603
892.471	4523
892.594	4611
892.717	4637
892.839	4653
892.962	4691
893.085	4714
893.207	4630
893.33	4516
893.452	4599
893.575	4733
893.697	4694
893.819	4877
893.941	4877
894.064	4911
894.186	4645
894.308	4694
894.43	4820
894.552	4911
894.674	4847
894.796	4641
894.918	4672
895.04	4664
895.161	4778
895.283	4767
895.405	4668
895.526	4694
895.648	4725
895.769	4786
895.891	4759
896.012	4797
896.134	4824
896.255	4759
896.376	4687
896.498	4706
896.619	4744
896.74	4702
896.861	4698
896.982	5045
897.103	5140
897.224	4911
897.345	4831
897.466	4767
897.587	4824
897.708	4942
897.828	4911
897.949	4786
898.07	4679
898.19	4714
898.311	4927
898.431	4759
898.552	4786
898.672	4927
898.792	4923
898.913	4820
899.033	4736
899.153	4573
899.273	4447
899.393	4573
899.513	4573
899.633	4618
899.753	4584
899.873	4607
899.993	4634
900.113	4645
900.232	4664
900.352	4615
900.472	4569
900.591	4459
900.711	4558
900.83	4573
900.95	4653
901.069	4752
901.189	4672
901.308	4386
901.427	4383
901.546	4504
901.665	4516
901.784	4573
901.904	4470
902.023	4363
902.141	4249
902.26	4223
902.379	4348
902.498	4325
902.617	4303
902.735	4455
902.854	4489
902.973	4402
903.091	4306
903.21	4303
903.328	4390
903.446	4333
903.565	4337
903.683	4409
903.801	4318
903.919	4489
904.038	4519
904.156	4405
904.274	4531
904.392	4500
904.51	4508
904.627	4538
904.745	4649
904.863	4702
904.981	4489
905.098	4341
905.216	4405
905.334	4500
905.451	4474
905.569	4500
905.686	4558
905.803	4664
905.921	4428
906.038	4618
906.155	4569
906.272	4474
906.389	4497
906.506	4424
906.623	4500
906.74	4470
906.857	4421
906.974	4402
907.091	4637
907.208	4740
907.324	4675
907.441	4622
907.557	4383
907.674	4424
907.79	4394
907.907	4451
908.023	4603
908.139	4531
908.256	4527
908.372	4546
908.488	4466
908.604	4417
908.72	4379
908.836	4405
908.952	4432
909.068	4538
909.184	4630
909.3	4538
909.415	4679
909.531	4603
909.647	4436
909.762	4466
909.878	4413
909.993	4516
910.108	4481
910.224	4512
910.339	4577
910.454	4493
910.57	4386
910.685	4402
910.8	4752
910.915	4702
911.03	4596
911.145	4367
911.259	4348
911.374	4451
911.489	4344
911.604	4352
911.718	4234
911.833	4291
911.947	4131
912.062	4105
912.176	4196
912.291	4356
912.405	4333
912.519	4561
912.633	4558
912.748	4443
912.862	4383
912.976	4291
913.09	4112
913.204	4280
913.318	4268
913.431	4466
913.545	4413
913.659	4478
913.772	4432
913.886	4314
914	4257
914.113	4466
914.226	4500
914.34	4398
914.453	4276
914.566	4493
914.68	4394
914.793	4386
914.906	4242
915.019	4169
915.132	4173
915.245	4234
915.358	4287
915.47	4310
915.583	4337
915.696	4299
915.809	4440
915.921	4489
916.034	4360
916.146	4325
916.259	4333
916.371	4462
916.483	4470
916.595	4325
916.708	4417
916.82	4363
916.932	4394
917.044	4383
917.156	4352
917.268	4287
917.38	4333
917.491	4348
917.603	4371
917.715	4527
917.826	4470
917.938	4394
918.049	4295
918.161	4485
918.272	4626
918.384	4554
918.495	4531
918.606	4386
918.717	4322
918.828	4417
918.939	4402
919.05	4363
919.161	4443
919.272	4192
919.383	4348
919.494	4531
919.604	4710
919.715	4493
919.826	4417
919.936	4443
920.047	4584
920.157	4580
920.267	4767
920.378	4611
920.488	4588
920.598	4809
920.708	4984
920.818	4824
920.928	4828
921.038	5025
921.148	4995
921.258	4736
921.368	4691
921.477	4599
921.587	4519
921.697	4432
921.806	4603
921.916	4519
922.025	4363
922.134	4371
922.244	4310
922.353	4402
922.462	4215
922.571	4200
922.68	4101
922.789	4029
922.898	4120
923.007	4040
923.116	4204
923.224	4135
923.333	4143
923.442	4036
923.55	4051
923.659	4029
923.767	4192
923.876	4090
923.984	4185
924.092	4048
924.201	4112
924.309	4154
924.417	4200
924.525	4120
924.633	4150
924.741	5052
924.849	3983
924.956	4192
925.064	4013
925.172	3941
925.279	3998
925.387	4105
925.494	4109
925.602	4268
925.709	4276
925.816	4078
925.924	4230
926.031	4295
926.138	4211
926.245	4257
926.352	4169
926.459	4299
926.566	4394
926.673	4207
926.779	4131
926.886	4158
926.993	4032
927.099	3998
927.206	3994
927.312	3979
927.419	4158
927.525	4093
927.631	4200
927.737	4032
927.843	3983
927.95	3949
928.056	4013
928.162	4063
928.267	4090
928.373	4759
928.479	4147
928.585	3964
928.69	4063
928.796	4147
928.901	4082
929.007	3873
929.112	4048
929.218	4067
929.323	3987
929.428	3975
929.533	4177
929.638	3937
929.743	4032
929.848	4101
929.953	4082
930.058	4032
930.163	3808
930.267	3930
930.372	4048
930.477	3903
930.581	4112
930.685	4010
930.79	3876
930.894	3937
930.998	3918
931.103	4131
931.207	3797
931.311	3736
931.415	3724
931.519	3557
931.623	3633
