Data from test_V78500241_224.txt Node
Date: Fri Mar 25 16:50:33 CST 2022
User: usil
Spectrometer: V785-0024
Trigger mode: 0
Integration Time (sec): 4.000000E-1
Scans to average: 1
Nonlinearity correction enabled: false
Boxcar width: 0
Storing dark spectrum: false
XAxis mode: Wavelengths
Number of Pixels in Spectrum: 1024
>>>>>Begin Spectral Data<<<<<
801.071	8077
801.214	7986
801.356	7830
801.499	7864
801.641	7841
801.783	7852
801.926	7909
802.068	7925
802.211	7989
802.353	7997
802.496	7803
802.638	7887
802.78	7890
802.923	7902
803.065	7849
803.208	7841
803.35	7993
803.492	8077
803.635	8210
803.777	8012
803.919	8050
804.061	8461
804.204	8100
804.346	7997
804.488	8001
804.63	8062
804.773	8001
804.915	8001
805.057	8248
805.199	8157
805.341	8149
805.483	8233
805.626	8142
805.768	8077
805.91	8126
806.052	8210
806.194	8031
806.336	8298
806.478	8088
806.62	8020
806.762	8088
806.904	8271
807.046	8358
807.188	8320
807.33	8309
807.472	8271
807.614	8103
807.756	8157
807.898	7963
808.04	7833
808.182	7921
808.324	7894
808.465	7890
808.607	8035
808.749	8123
808.891	8271
809.033	8298
809.174	8214
809.316	8073
809.458	8046
809.6	8012
809.741	7989
809.883	7986
810.025	8054
810.166	8046
810.308	8012
810.45	8043
810.591	7970
810.733	7693
810.875	7639
811.016	7506
811.158	7457
811.299	7544
811.441	7700
811.582	7696
811.724	7518
811.865	7552
812.007	7616
812.148	7689
812.29	7666
812.431	7788
812.573	7868
812.714	7986
812.855	8168
812.997	8256
813.138	8305
813.279	8180
813.421	8024
813.562	8027
813.703	7890
813.845	7761
813.986	7449
814.127	7225
814.268	7270
814.41	7240
814.551	7187
814.692	7202
814.833	7065
814.974	7145
815.115	7034
815.256	6977
815.397	6966
815.539	6958
815.68	6856
815.821	6779
815.962	6833
816.103	6772
816.244	6738
816.385	6623
816.526	6627
816.666	6566
816.807	6319
816.948	6384
817.089	6448
817.23	6445
817.371	6369
817.512	6418
817.653	6361
817.793	6304
817.934	6388
818.075	6445
818.216	6414
818.356	6365
818.497	6216
818.638	6064
818.778	6190
818.919	6152
819.06	6125
819.2	6292
819.341	6277
819.481	6342
819.622	6536
819.762	6719
819.903	6646
820.043	6631
820.184	6540
820.324	6536
820.465	6688
820.605	6601
820.746	6623
820.886	6445
821.026	6635
821.167	6703
821.307	6738
821.447	6684
821.588	6642
821.728	6563
821.868	6570
822.008	6266
822.149	6361
822.289	6346
822.429	6148
822.569	6060
822.709	6098
822.849	5969
822.99	5908
823.13	5916
823.27	5878
823.41	5805
823.55	5779
823.69	5775
823.83	5760
823.97	5661
824.11	5566
824.25	5562
824.389	5554
824.529	5570
824.669	5478
824.809	5589
824.949	5623
825.089	5581
825.228	5543
825.368	5425
825.508	5322
825.648	5315
825.787	5334
825.927	5349
826.067	5284
826.206	5296
826.346	5315
826.485	5372
826.625	5357
826.765	5501
826.904	5509
827.044	5250
827.183	5223
827.323	5075
827.462	5254
827.601	5151
827.741	5227
827.88	5254
828.02	5155
828.159	5193
828.298	5299
828.437	5337
828.577	5265
828.716	5425
828.855	5307
828.994	5166
829.134	5159
829.273	5162
829.412	5136
829.551	5143
829.69	5166
829.829	5204
829.968	5402
830.107	5292
830.246	5269
830.385	5162
830.524	5185
830.663	5064
830.802	4972
830.941	4877
831.08	4919
831.219	5033
831.357	4995
831.496	5201
831.635	4965
831.774	4915
831.913	4847
832.051	4774
832.19	4778
832.329	4850
832.467	4698
832.606	4687
832.744	4721
832.883	4786
833.022	4752
833.16	4790
833.299	4801
833.437	4843
833.576	4809
833.714	4889
833.852	4831
833.991	4919
834.129	4961
834.267	5029
834.406	5006
834.544	4995
834.682	5010
834.821	4987
834.959	5159
835.097	5052
835.235	5181
835.373	5109
835.511	5140
835.65	5071
835.788	5025
835.926	4946
836.064	4938
836.202	4923
836.34	5212
836.478	5220
836.615	5189
836.753	5235
836.891	5318
837.029	5280
837.167	5193
837.305	5193
837.443	5212
837.58	5117
837.718	5311
837.856	5242
837.993	5227
838.131	5265
838.269	5273
838.406	5250
838.544	5254
838.681	5109
838.819	5083
838.956	4946
839.094	4984
839.231	5060
839.369	5162
839.506	5467
839.643	5360
839.781	5113
839.918	5041
840.055	5098
840.193	5159
840.33	5147
840.467	5189
840.604	5220
840.742	5471
840.879	5132
841.016	5162
841.153	5223
841.29	5482
841.427	5406
841.564	5349
841.701	5402
841.838	5322
841.975	5307
842.112	5315
842.249	5189
842.385	5109
842.522	5391
842.659	5181
842.796	5181
842.933	5166
843.069	5239
843.206	5231
843.343	5383
843.479	5261
843.616	5330
843.752	5071
843.889	5048
844.025	5239
844.162	5064
844.298	5258
844.435	5143
844.571	5117
844.708	5220
844.844	5299
844.98	5398
845.117	5292
845.253	5143
845.389	5117
845.525	5220
845.661	5174
845.798	5064
845.934	5208
846.07	5105
846.206	5239
846.342	5280
846.478	5216
846.614	5060
846.75	5048
846.886	4957
847.022	5143
847.158	5064
847.294	5090
847.429	5090
847.565	5090
847.701	5360
847.837	4862
847.972	4866
848.108	5022
848.244	4927
848.379	4782
848.515	4706
848.65	4763
848.786	4744
848.921	4816
849.057	4900
849.192	4953
849.328	4850
849.463	4862
849.598	4793
849.734	4809
849.869	4778
850.004	4656
850.14	4721
850.275	4691
850.41	4565
850.545	4626
850.68	4618
850.815	4694
850.95	4694
851.085	4896
851.22	4755
851.355	4710
851.49	4702
851.625	4698
851.76	4694
851.895	4611
852.03	4558
852.165	4653
852.299	4752
852.434	4790
852.569	4790
852.703	4816
852.838	4877
852.973	4980
853.107	4904
853.242	4786
853.376	4687
853.511	4577
853.645	4630
853.78	4839
853.914	4752
854.048	4714
854.183	4752
854.317	4759
854.451	4881
854.585	4748
854.72	4664
854.854	4828
854.988	4603
855.122	4649
855.256	4592
855.39	4725
855.524	4858
855.658	4740
855.792	4755
855.926	4786
856.06	4816
856.194	4850
856.327	4733
856.461	4675
856.595	4656
856.729	4679
856.862	4820
856.996	4763
857.13	4755
857.263	4790
857.397	4892
857.53	4714
857.664	4759
857.797	4816
857.931	4786
858.064	4744
858.197	4752
858.331	4645
858.464	4645
858.597	4569
858.731	4679
858.864	4714
858.997	4599
859.13	4710
859.263	4687
859.396	4759
859.529	4634
859.662	4584
859.795	4596
859.928	4641
860.061	4805
860.194	4835
860.327	4683
860.46	4615
860.592	4733
860.725	4736
860.858	4755
860.99	4634
861.123	4573
861.256	4508
861.388	4645
861.521	5391
861.653	4504
861.786	4462
861.918	4538
862.05	4531
862.183	4588
862.315	4710
862.447	4683
862.58	4592
862.712	4493
862.844	4375
862.976	4531
863.108	4504
863.24	4881
863.372	4348
863.504	4409
863.636	4451
863.768	4523
863.9	4440
864.032	4451
864.164	4428
864.296	4489
864.428	4538
864.559	4565
864.691	4538
864.823	4569
864.954	4542
865.086	4561
865.217	4459
865.349	4516
865.48	4489
865.612	4538
865.743	4645
865.875	4508
866.006	4443
866.137	4470
866.269	4478
866.4	4527
866.531	4470
866.662	4405
866.793	4485
866.924	4470
867.055	4504
867.186	4466
867.317	4443
867.448	4440
867.579	4421
867.71	4398
867.841	4402
867.972	4546
868.103	4500
868.233	4508
868.364	4512
868.495	4489
868.625	4714
868.756	4778
868.886	4554
869.017	4679
869.147	4778
869.278	4870
869.408	4679
869.539	4634
869.669	4778
869.799	4694
869.929	4752
870.06	4740
870.19	4999
870.32	4949
870.45	4968
870.58	5067
870.71	5140
870.84	5113
870.97	4961
871.1	4961
871.23	5166
871.36	5151
871.489	5037
871.619	5159
871.749	5113
871.879	5098
872.008	5204
872.138	5140
872.267	4995
872.397	4904
872.526	4850
872.656	4793
872.785	4820
872.915	4991
873.044	5037
873.173	4987
873.303	4949
873.432	4972
873.561	4968
873.69	4919
873.819	4900
873.948	4961
874.077	4885
874.206	4790
874.335	4862
874.464	4942
874.593	5079
874.722	4987
874.851	5128
874.979	5083
875.108	5094
875.237	4972
875.365	4862
875.494	4965
875.623	5006
875.751	4858
875.88	4904
876.008	4972
876.136	5022
876.265	5212
876.393	5383
876.521	5296
876.65	5284
876.778	5181
876.906	5052
877.034	5079
877.162	5067
877.29	5010
877.418	5018
877.546	5075
877.674	5045
877.802	5075
877.93	5067
878.058	4972
878.185	4889
878.313	5018
878.441	4987
878.568	4835
878.696	4927
878.824	4980
878.951	5014
879.079	5193
879.206	5292
879.333	5162
879.461	5010
879.588	5086
879.715	5162
879.842	5246
879.97	5018
880.097	4828
880.224	4767
880.351	4782
880.478	4828
880.605	4843
880.732	4755
880.859	5064
880.986	4885
881.112	4911
881.239	4850
881.366	4698
881.493	4653
881.619	4637
881.746	4698
881.872	4702
881.999	4702
882.125	4725
882.252	4839
882.378	4873
882.505	4976
882.631	4771
882.757	4641
882.883	4736
883.01	4755
883.136	4641
883.262	4596
883.388	4660
883.514	4820
883.64	4919
883.766	4831
883.892	4710
884.018	4752
884.143	4949
884.269	5010
884.395	4714
884.52	4664
884.646	4656
884.772	4618
884.897	4580
885.023	4710
885.148	4801
885.274	4896
885.399	4835
885.524	4763
885.65	4748
885.775	4778
885.9	4733
886.025	4866
886.15	4854
886.275	4793
886.4	4675
886.525	4771
886.65	4706
886.775	4679
886.9	4927
887.025	5037
887.149	4854
887.274	4683
887.399	4611
887.523	4584
887.648	4622
887.773	4645
887.897	4839
888.021	4858
888.146	4717
888.27	4809
888.395	4927
888.519	4870
888.643	4831
888.767	4862
888.891	4725
889.015	4641
889.139	4672
889.263	4641
889.387	4729
889.511	4892
889.635	4816
889.759	4637
889.883	4698
890.006	4812
890.13	4873
890.254	4660
890.377	4729
890.501	4550
890.624	4558
890.748	4622
890.871	4569
890.995	4455
891.118	4394
891.241	4554
891.364	4573
891.488	4706
891.611	4546
891.734	4584
891.857	4596
891.98	4607
892.103	4656
892.226	4588
892.349	4561
892.471	4455
892.594	4523
892.717	4603
892.839	4573
892.962	4656
893.085	4679
893.207	4615
893.33	4500
893.452	4523
893.575	4702
893.697	4618
893.819	4839
893.941	4839
894.064	4816
894.186	4603
894.308	4577
894.43	4820
894.552	4877
894.674	4736
894.796	4584
894.918	4618
895.04	4607
895.161	4755
895.283	4683
895.405	4592
895.526	4679
895.648	4664
895.769	4721
895.891	4721
896.012	4755
896.134	4733
896.255	4729
896.376	4660
896.498	4694
896.619	4710
896.74	4622
896.861	4675
896.982	4957
897.103	5102
897.224	4793
897.345	4763
897.466	4698
897.587	4763
897.708	4847
897.828	4797
897.949	4717
898.07	4626
898.19	4641
898.311	4862
898.431	4653
898.552	4721
898.672	4824
898.792	4824
898.913	4744
899.033	4596
899.153	4523
899.273	4474
899.393	4508
899.513	4546
899.633	4523
899.753	4569
899.873	4508
899.993	4565
900.113	4516
900.232	4637
900.352	4565
900.472	4485
900.591	4424
900.711	4550
900.83	4478
900.95	4611
901.069	4691
901.189	4516
901.308	4417
901.427	4325
901.546	4428
901.665	4497
901.784	4550
901.904	4417
902.023	4348
902.141	4223
902.26	4219
902.379	4348
902.498	4257
902.617	4253
902.735	4383
902.854	4413
902.973	4322
903.091	4223
903.21	4204
903.328	4367
903.446	4325
903.565	4310
903.683	4367
903.801	4284
903.919	4432
904.038	4466
904.156	4333
904.274	4466
904.392	4428
904.51	4489
904.627	4535
904.745	4554
904.863	4656
904.981	4432
905.098	4341
905.216	4363
905.334	4455
905.451	4474
905.569	4432
905.686	4546
905.803	4630
905.921	4421
906.038	4626
906.155	4538
906.272	4462
906.389	4500
906.506	4413
906.623	4413
906.74	4432
906.857	4367
906.974	4424
907.091	4592
907.208	4729
907.324	4622
907.441	4535
907.557	4352
907.674	4409
907.79	4356
907.907	4424
908.023	4523
908.139	4573
908.256	4462
908.372	4512
908.488	4500
908.604	4409
908.72	4371
908.836	4405
908.952	4398
909.068	4500
909.184	4660
909.3	4538
909.415	4649
909.531	4584
909.647	4417
909.762	4390
909.878	4402
909.993	4535
910.108	4500
910.224	4527
910.339	4580
910.454	4455
910.57	4424
910.685	4413
910.8	4702
910.915	4637
911.03	4523
911.145	4360
911.259	4402
911.374	4424
911.489	4360
911.604	4363
911.718	4223
911.833	4265
911.947	4166
912.062	4128
912.176	4272
912.291	4314
912.405	4314
912.519	4493
912.633	4577
912.748	4402
912.862	4352
912.976	4246
913.09	4139
913.204	4211
913.318	4291
913.431	4409
913.545	4398
913.659	4500
913.772	4394
913.886	4344
914	4287
914.113	4432
914.226	4489
914.34	4459
914.453	4333
914.566	4508
914.68	4295
914.793	4417
914.906	4242
915.019	4162
915.132	4139
915.245	4246
915.358	4276
915.47	4276
915.583	4303
915.696	4318
915.809	4443
915.921	4462
916.034	4299
916.146	4318
916.259	4261
916.371	4462
916.483	4409
916.595	4299
916.708	4398
916.82	4360
916.932	4360
917.044	4375
917.156	4413
917.268	4276
917.38	4341
917.491	4276
917.603	4417
917.715	4462
917.826	4489
917.938	4402
918.049	4299
918.161	4485
918.272	4603
918.384	4592
918.495	4478
918.606	4352
918.717	4272
918.828	4356
918.939	4421
919.05	4287
919.161	4344
919.272	4181
919.383	4261
919.494	4481
919.604	4714
919.715	4481
919.826	4363
919.936	4455
920.047	4573
920.157	4546
920.267	4710
920.378	4573
920.488	4565
920.598	4801
920.708	4930
920.818	4809
920.928	4809
921.038	4972
921.148	4980
921.258	4679
921.368	4630
921.477	4508
921.587	4497
921.697	4432
921.806	4573
921.916	4470
922.025	4356
922.134	4325
922.244	4265
922.353	4360
922.462	4234
922.571	4192
922.68	4036
922.789	4025
922.898	4036
923.007	4059
923.116	4135
923.224	4116
923.333	4162
923.442	4105
923.55	4021
923.659	4109
923.767	4185
923.876	4059
923.984	4196
924.092	4021
924.201	4135
924.309	4158
924.417	4169
924.525	4109
924.633	4162
924.741	5086
924.849	3964
924.956	4139
925.064	3930
925.172	3941
925.279	4025
925.387	4105
925.494	4120
925.602	4223
925.709	4223
925.816	4055
925.924	4185
926.031	4284
926.138	4124
926.245	4265
926.352	4154
926.459	4287
926.566	4341
926.673	4177
926.779	4150
926.886	4128
926.993	4055
927.099	4013
927.206	3998
927.312	3998
927.419	4112
927.525	4051
927.631	4150
927.737	3956
927.843	3994
927.95	3907
928.056	3983
928.162	4036
928.267	4109
928.373	4611
928.479	4196
928.585	3876
928.69	4086
928.796	4097
928.901	4021
929.007	3876
929.112	4059
929.218	4044
929.323	4025
929.428	3979
929.533	4162
929.638	3937
929.743	4025
929.848	4044
929.953	4055
930.058	3972
930.163	3819
930.267	3865
930.372	4040
930.477	3842
930.581	4120
930.685	3998
930.79	3846
930.894	3926
930.998	3918
931.103	4078
931.207	3728
931.311	3743
931.415	3717
931.519	3530
931.623	3599
