Data from test_V78500241_548.txt Node
Date: Fri Mar 25 16:52:48 CST 2022
User: usil
Spectrometer: V785-0024
Trigger mode: 0
Integration Time (sec): 4.000000E-1
Scans to average: 1
Nonlinearity correction enabled: false
Boxcar width: 0
Storing dark spectrum: false
XAxis mode: Wavelengths
Number of Pixels in Spectrum: 1024
>>>>>Begin Spectral Data<<<<<
801.071	8043
801.214	8050
801.356	7845
801.499	7795
801.641	7750
801.783	7814
801.926	8035
802.068	7940
802.211	8008
802.353	8027
802.496	7890
802.638	7913
802.78	7879
802.923	7887
803.065	7868
803.208	7845
803.35	7921
803.492	8084
803.635	8161
803.777	7955
803.919	8084
804.061	8488
804.204	8024
804.346	7997
804.488	7913
804.63	8084
804.773	7986
804.915	8103
805.057	8301
805.199	8157
805.341	8202
805.483	8271
805.626	8145
805.768	8088
805.91	8157
806.052	8153
806.194	8039
806.336	8282
806.478	8130
806.62	8035
806.762	8149
806.904	8199
807.046	8431
807.188	8351
807.33	8290
807.472	8317
807.614	8221
807.756	8069
807.898	7978
808.04	7852
808.182	7909
808.324	7917
808.465	7875
808.607	7936
808.749	8050
808.891	8199
809.033	8305
809.174	8153
809.316	7989
809.458	8050
809.6	7944
809.741	8001
809.883	8024
810.025	8065
810.166	8024
810.308	8031
810.45	7959
810.591	7894
810.733	7746
810.875	7632
811.016	7491
811.158	7575
811.299	7628
811.441	7780
811.582	7666
811.724	7605
811.865	7487
812.007	7597
812.148	7556
812.29	7647
812.431	7765
812.573	7830
812.714	8039
812.855	8119
812.997	8138
813.138	8332
813.279	8218
813.421	8111
813.562	8035
813.703	7887
813.845	7811
813.986	7483
814.127	7384
814.268	7362
814.41	7263
814.551	7160
814.692	7107
814.833	7110
814.974	7118
815.115	7145
815.256	6970
815.397	6958
815.539	6943
815.68	6810
815.821	6840
815.962	6924
816.103	6875
816.244	6707
816.385	6608
816.526	6566
816.666	6551
816.807	6281
816.948	6388
817.089	6483
817.23	6388
817.371	6342
817.512	6372
817.653	6388
817.793	6395
817.934	6418
818.075	6418
818.216	6395
818.356	6445
818.497	6266
818.638	6095
818.778	6201
818.919	6155
819.06	6186
819.2	6308
819.341	6247
819.481	6365
819.622	6525
819.762	6787
819.903	6639
820.043	6574
820.184	6528
820.324	6566
820.465	6696
820.605	6536
820.746	6570
820.886	6445
821.026	6616
821.167	6673
821.307	6779
821.447	6738
821.588	6616
821.728	6566
821.868	6429
822.008	6281
822.149	6388
822.289	6391
822.429	6159
822.569	6053
822.709	6125
822.849	5904
822.99	5904
823.13	5904
823.27	5908
823.41	5786
823.55	5748
823.69	5737
823.83	5767
823.97	5676
824.11	5562
824.25	5471
824.389	5539
824.529	5589
824.669	5543
824.809	5604
824.949	5649
825.089	5573
825.228	5528
825.368	5357
825.508	5322
825.648	5360
825.787	5368
825.927	5379
826.067	5277
826.206	5334
826.346	5391
826.485	5387
826.625	5414
826.765	5493
826.904	5455
827.044	5303
827.183	5185
827.323	5105
827.462	5258
827.601	5132
827.741	5166
827.88	5216
828.02	5064
828.159	5231
828.298	5307
828.437	5357
828.577	5299
828.716	5467
828.855	5322
828.994	5162
829.134	5204
829.273	5189
829.412	5102
829.551	5113
829.69	5201
829.829	5220
829.968	5379
830.107	5242
830.246	5261
830.385	5143
830.524	5147
830.663	5075
830.802	4984
830.941	4854
831.08	4835
831.219	4934
831.357	4927
831.496	5132
831.635	4915
831.774	4824
831.913	4835
832.051	4755
832.19	4763
832.329	4873
832.467	4672
832.606	4596
832.744	4706
832.883	4714
833.022	4752
833.16	4793
833.299	4824
833.437	4831
833.576	4816
833.714	4873
833.852	4873
833.991	4915
834.129	4938
834.267	4934
834.406	4919
834.544	4927
834.682	4984
834.821	4923
834.959	5151
835.097	4957
835.235	5132
835.373	5037
835.511	5113
835.65	5010
835.788	5060
835.926	4889
836.064	4843
836.202	4961
836.34	5128
836.478	5159
836.615	5147
836.753	5174
836.891	5261
837.029	5258
837.167	5143
837.305	5162
837.443	5102
837.58	5071
837.718	5277
837.856	5170
837.993	5189
838.131	5250
838.269	5193
838.406	5212
838.544	5166
838.681	5037
838.819	5010
838.956	4877
839.094	4850
839.231	4984
839.369	5102
839.506	5353
839.643	5212
839.781	5079
839.918	4991
840.055	5109
840.193	5064
840.33	5109
840.467	5143
840.604	5162
840.742	5383
840.879	5056
841.016	5128
841.153	5124
841.29	5417
841.427	5326
841.564	5330
841.701	5307
841.838	5261
841.975	5227
842.112	5246
842.249	5159
842.385	5090
842.522	5318
842.659	5128
842.796	5109
842.933	5159
843.069	5140
843.206	5132
843.343	5246
843.479	5212
843.616	5269
843.752	5056
843.889	5025
844.025	5201
844.162	5014
844.298	5208
844.435	5079
844.571	5014
844.708	5193
844.844	5288
844.98	5318
845.117	5299
845.253	5121
845.389	5075
845.525	5132
845.661	5140
845.798	5010
845.934	5075
846.07	4961
846.206	5181
846.342	5280
846.478	5166
846.614	4984
846.75	4957
846.886	4892
847.022	5128
847.158	5022
847.294	5033
847.429	5094
847.565	5090
847.701	5322
847.837	4862
847.972	4816
848.108	4953
848.244	4927
848.379	4793
848.515	4710
848.65	4714
848.786	4736
848.921	4797
849.057	4873
849.192	4904
849.328	4816
849.463	4870
849.598	4820
849.734	4790
849.869	4694
850.004	4603
850.14	4694
850.275	4580
850.41	4508
850.545	4573
850.68	4599
850.815	4599
850.95	4660
851.085	4797
851.22	4702
851.355	4698
851.49	4637
851.625	4698
851.76	4656
851.895	4588
852.03	4508
852.165	4637
852.299	4675
852.434	4752
852.569	4721
852.703	4767
852.838	4828
852.973	4889
853.107	4946
853.242	4736
853.376	4645
853.511	4546
853.645	4649
853.78	4793
853.914	4664
854.048	4645
854.183	4603
854.317	4698
854.451	4862
854.585	4679
854.72	4580
854.854	4717
854.988	4558
855.122	4599
855.256	4504
855.39	4664
855.524	4805
855.658	4740
855.792	4634
855.926	4729
856.06	4771
856.194	4790
856.327	4683
856.461	4626
856.595	4649
856.729	4615
856.862	4774
856.996	4694
857.13	4710
857.263	4774
857.397	4778
857.53	4615
857.664	4763
857.797	4771
857.931	4812
858.064	4733
858.197	4771
858.331	4592
858.464	4630
858.597	4523
858.731	4626
858.864	4622
858.997	4580
859.13	4683
859.263	4664
859.396	4645
859.529	4588
859.662	4531
859.795	4500
859.928	4622
860.061	4706
860.194	4774
860.327	4622
860.46	4584
860.592	4767
860.725	4706
860.858	4706
860.99	4535
861.123	4516
861.256	4527
861.388	4607
861.521	5440
861.653	4443
861.786	4421
861.918	4493
862.05	4516
862.183	4523
862.315	4592
862.447	4656
862.58	4542
862.712	4440
862.844	4337
862.976	4504
863.108	4402
863.24	4847
863.372	4325
863.504	4356
863.636	4424
863.768	4474
863.9	4432
864.032	4329
864.164	4462
864.296	4497
864.428	4584
864.559	4584
864.691	4500
864.823	4523
864.954	4462
865.086	4478
865.217	4466
865.349	4455
865.48	4436
865.612	4447
865.743	4630
865.875	4497
866.006	4413
866.137	4485
866.269	4470
866.4	4409
866.531	4432
866.662	4402
866.793	4440
866.924	4436
867.055	4527
867.186	4459
867.317	4424
867.448	4341
867.579	4398
867.71	4398
867.841	4341
867.972	4428
868.103	4474
868.233	4417
868.364	4409
868.495	4474
868.625	4702
868.756	4744
868.886	4618
869.017	4607
869.147	4755
869.278	4759
869.408	4691
869.539	4573
869.669	4740
869.799	4634
869.929	4763
870.06	4691
870.19	4991
870.32	4927
870.45	4938
870.58	5018
870.71	5064
870.84	5098
870.97	4991
871.1	4930
871.23	5098
871.36	5117
871.489	5025
871.619	5041
871.749	5052
871.879	5079
872.008	5185
872.138	5071
872.267	4984
872.397	4858
872.526	4793
872.656	4752
872.785	4778
872.915	4972
873.044	5033
873.173	4862
873.303	4961
873.432	4968
873.561	4961
873.69	4847
873.819	4850
873.948	4854
874.077	4805
874.206	4725
874.335	4820
874.464	4919
874.593	5052
874.722	4942
874.851	5098
874.979	5048
875.108	5041
875.237	4862
875.365	4847
875.494	4870
875.623	4999
875.751	4828
875.88	4866
876.008	5029
876.136	5075
876.265	5170
876.393	5357
876.521	5204
876.65	5242
876.778	5143
876.906	5048
877.034	4968
877.162	5006
877.29	4976
877.418	4991
877.546	5022
877.674	5022
877.802	5029
877.93	4987
878.058	4927
878.185	4862
878.313	4908
878.441	4915
878.568	4797
878.696	4824
878.824	5006
878.951	4949
879.079	5113
879.206	5277
879.333	5102
879.461	5003
879.588	5003
879.715	5136
879.842	5208
879.97	5018
880.097	4771
880.224	4763
880.351	4812
880.478	4835
880.605	4778
880.732	4786
880.859	5090
880.986	4835
881.112	4934
881.239	4740
881.366	4683
881.493	4546
881.619	4573
881.746	4588
881.872	4618
881.999	4649
882.125	4691
882.252	4767
882.378	4850
882.505	4904
882.631	4797
882.757	4691
882.883	4740
883.01	4725
883.136	4698
883.262	4592
883.388	4615
883.514	4786
883.64	4824
883.766	4786
883.892	4694
884.018	4706
884.143	4862
884.269	5029
884.395	4675
884.52	4649
884.646	4660
884.772	4588
884.897	4565
885.023	4660
885.148	4763
885.274	4850
885.399	4801
885.524	4714
885.65	4702
885.775	4744
885.9	4694
886.025	4870
886.15	4828
886.275	4725
886.4	4664
886.525	4691
886.65	4660
886.775	4702
886.9	4949
887.025	5102
887.149	4809
887.274	4664
887.399	4626
887.523	4611
887.648	4550
887.773	4599
887.897	4790
888.021	4771
888.146	4694
888.27	4828
888.395	4946
888.519	4831
888.643	4900
888.767	4854
888.891	4733
889.015	4641
889.139	4649
889.263	4584
889.387	4771
889.511	4900
889.635	4812
889.759	4653
889.883	4653
890.006	4782
890.13	4820
890.254	4656
890.377	4698
890.501	4558
890.624	4607
890.748	4653
890.871	4531
890.995	4447
891.118	4402
891.241	4569
891.364	4584
891.488	4675
891.611	4538
891.734	4596
891.857	4687
891.98	4588
892.103	4717
892.226	4634
892.349	4538
892.471	4440
892.594	4622
892.717	4634
892.839	4596
892.962	4626
893.085	4717
893.207	4626
893.33	4500
893.452	4569
893.575	4694
893.697	4630
893.819	4847
893.941	4858
894.064	4831
894.186	4637
894.308	4599
894.43	4820
894.552	4881
894.674	4816
894.796	4584
894.918	4656
895.04	4569
895.161	4774
895.283	4698
895.405	4611
895.526	4698
895.648	4733
895.769	4733
895.891	4725
896.012	4820
896.134	4774
896.255	4668
896.376	4679
896.498	4691
896.619	4752
896.74	4679
896.861	4675
896.982	4980
897.103	5128
897.224	4866
897.345	4835
897.466	4729
897.587	4782
897.708	4900
897.828	4812
897.949	4694
898.07	4603
898.19	4675
898.311	4870
898.431	4672
898.552	4725
898.672	4847
898.792	4824
898.913	4782
899.033	4694
899.153	4596
899.273	4500
899.393	4512
899.513	4550
899.633	4542
899.753	4618
899.873	4546
899.993	4580
900.113	4569
900.232	4603
900.352	4538
900.472	4611
900.591	4436
900.711	4500
900.83	4436
900.95	4618
901.069	4759
901.189	4588
901.308	4402
901.427	4329
901.546	4386
901.665	4470
901.784	4561
901.904	4447
902.023	4375
902.141	4223
902.26	4219
902.379	4363
902.498	4284
902.617	4249
902.735	4394
902.854	4428
902.973	4383
903.091	4291
903.21	4211
903.328	4318
903.446	4284
903.565	4306
903.683	4394
903.801	4379
903.919	4428
904.038	4512
904.156	4363
904.274	4504
904.392	4466
904.51	4504
904.627	4512
904.745	4596
904.863	4656
904.981	4405
905.098	4329
905.216	4409
905.334	4440
905.451	4470
905.569	4493
905.686	4554
905.803	4596
905.921	4443
906.038	4577
906.155	4500
906.272	4394
906.389	4470
906.506	4394
906.623	4459
906.74	4455
906.857	4344
906.974	4451
907.091	4565
907.208	4717
907.324	4630
907.441	4504
907.557	4337
907.674	4379
907.79	4333
907.907	4413
908.023	4527
908.139	4535
908.256	4489
908.372	4535
908.488	4489
908.604	4360
908.72	4394
908.836	4428
908.952	4417
909.068	4508
909.184	4615
909.3	4512
909.415	4577
909.531	4630
909.647	4402
909.762	4432
909.878	4371
909.993	4466
910.108	4451
910.224	4478
910.339	4493
910.454	4493
910.57	4413
910.685	4348
910.8	4721
910.915	4645
911.03	4504
911.145	4371
911.259	4360
911.374	4394
911.489	4333
911.604	4303
911.718	4181
911.833	4242
911.947	4105
912.062	4040
912.176	4230
912.291	4249
912.405	4268
912.519	4459
912.633	4558
912.748	4390
912.862	4303
912.976	4246
913.09	4105
913.204	4181
913.318	4299
913.431	4398
913.545	4379
913.659	4500
913.772	4383
913.886	4299
914	4257
914.113	4424
914.226	4485
914.34	4417
914.453	4314
914.566	4481
914.68	4352
914.793	4394
914.906	4238
915.019	4192
915.132	4124
915.245	4246
915.358	4268
915.47	4268
915.583	4287
915.696	4341
915.809	4424
915.921	4516
916.034	4230
916.146	4310
916.259	4299
916.371	4363
916.483	4413
916.595	4322
916.708	4375
916.82	4333
916.932	4341
917.044	4375
917.156	4352
917.268	4280
917.38	4299
917.491	4314
917.603	4341
917.715	4455
917.826	4451
917.938	4383
918.049	4284
918.161	4383
918.272	4577
918.384	4573
918.495	4481
918.606	4299
918.717	4306
918.828	4367
918.939	4436
919.05	4295
919.161	4337
919.272	4131
919.383	4306
919.494	4493
919.604	4649
919.715	4447
919.826	4409
919.936	4485
920.047	4535
920.157	4565
920.267	4752
920.378	4615
920.488	4561
920.598	4786
920.708	4904
920.818	4790
920.928	4805
921.038	4987
921.148	4953
921.258	4672
921.368	4599
921.477	4489
921.587	4485
921.697	4447
921.806	4558
921.916	4466
922.025	4344
922.134	4325
922.244	4265
922.353	4329
922.462	4211
922.571	4173
922.68	4036
922.789	3987
922.898	4036
923.007	3998
923.116	4124
923.224	4090
923.333	4120
923.442	4013
923.55	3998
923.659	4051
923.767	4116
923.876	4010
923.984	4169
924.092	3987
924.201	4097
924.309	4105
924.417	4147
924.525	4105
924.633	4158
924.741	5105
924.849	3964
924.956	4158
925.064	3960
925.172	3945
925.279	4006
925.387	4051
925.494	4116
925.602	4242
925.709	4249
925.816	4029
925.924	4192
926.031	4230
926.138	4177
926.245	4242
926.352	4086
926.459	4265
926.566	4341
926.673	4154
926.779	4112
926.886	4150
926.993	4002
927.099	4029
927.206	3960
927.312	3926
927.419	4105
927.525	4002
927.631	4131
927.737	3972
927.843	3979
927.95	3884
928.056	3987
928.162	4017
928.267	4097
928.373	4733
928.479	4116
928.585	3907
928.69	4025
928.796	4063
928.901	4017
929.007	3896
929.112	4002
929.218	4002
929.323	3960
929.428	3930
929.533	4124
929.638	3953
929.743	3983
929.848	4017
929.953	4010
930.058	3915
930.163	3823
930.267	3861
930.372	3968
930.477	3838
930.581	4135
930.685	3983
930.79	3903
930.894	3918
930.998	3934
931.103	4071
931.207	3720
931.311	3686
931.415	3713
931.519	3504
931.623	3591
