Data from test_V78500241_744.txt Node
Date: Fri Mar 25 16:54:10 CST 2022
User: usil
Spectrometer: V785-0024
Trigger mode: 0
Integration Time (sec): 4.000000E-1
Scans to average: 1
Nonlinearity correction enabled: false
Boxcar width: 0
Storing dark spectrum: false
XAxis mode: Wavelengths
Number of Pixels in Spectrum: 1024
>>>>>Begin Spectral Data<<<<<
801.071	7993
801.214	7989
801.356	7814
801.499	7852
801.641	7761
801.783	7841
801.926	7944
802.068	7940
802.211	7963
802.353	7936
802.496	7868
802.638	7883
802.78	7921
802.923	7909
803.065	7864
803.208	7833
803.35	8001
803.492	8073
803.635	8149
803.777	8005
803.919	8088
804.061	8431
804.204	8115
804.346	8077
804.488	7974
804.63	8058
804.773	8054
804.915	8092
805.057	8240
805.199	8176
805.341	8176
805.483	8294
805.626	8221
805.768	8149
805.91	8187
806.052	8210
806.194	8111
806.336	8328
806.478	8077
806.62	8062
806.762	8176
806.904	8298
807.046	8541
807.188	8427
807.33	8374
807.472	8374
807.614	8161
807.756	8043
807.898	7970
808.04	7833
808.182	7845
808.324	7898
808.465	7913
808.607	8039
808.749	8058
808.891	8199
809.033	8336
809.174	8294
809.316	8084
809.458	8062
809.6	8005
809.741	8035
809.883	8107
810.025	8115
810.166	8081
810.308	8084
810.45	8088
810.591	7947
810.733	7807
810.875	7704
811.016	7514
811.158	7590
811.299	7655
811.441	7700
811.582	7666
811.724	7636
811.865	7514
812.007	7567
812.148	7605
812.29	7613
812.431	7704
812.573	7978
812.714	8084
812.855	8161
812.997	8233
813.138	8298
813.279	8195
813.421	8164
813.562	7978
813.703	7906
813.845	7780
813.986	7476
814.127	7324
814.268	7236
814.41	7244
814.551	7114
814.692	7198
814.833	7050
814.974	7076
815.115	7084
815.256	6954
815.397	6981
815.539	7053
815.68	6833
815.821	6779
815.962	6859
816.103	6856
816.244	6722
816.385	6646
816.526	6612
816.666	6452
816.807	6273
816.948	6467
817.089	6456
817.23	6494
817.371	6384
817.512	6418
817.653	6369
817.793	6380
817.934	6426
818.075	6460
818.216	6426
818.356	6407
818.497	6201
818.638	6178
818.778	6125
818.919	6159
819.06	6213
819.2	6315
819.341	6300
819.481	6426
819.622	6502
819.762	6730
819.903	6749
820.043	6616
820.184	6551
820.324	6563
820.465	6707
820.605	6681
820.746	6612
820.886	6483
821.026	6692
821.167	6715
821.307	6844
821.447	6825
821.588	6707
821.728	6578
821.868	6525
822.008	6342
822.149	6384
822.289	6342
822.429	6194
822.569	6057
822.709	6140
822.849	5942
822.99	5912
823.13	5855
823.27	5954
823.41	5790
823.55	5836
823.69	5832
823.83	5821
823.97	5718
824.11	5543
824.25	5535
824.389	5611
824.529	5551
824.669	5516
824.809	5649
824.949	5699
825.089	5710
825.228	5592
825.368	5387
825.508	5368
825.648	5334
825.787	5406
825.927	5318
826.067	5303
826.206	5299
826.346	5429
826.485	5417
826.625	5414
826.765	5539
826.904	5497
827.044	5261
827.183	5212
827.323	5136
827.462	5307
827.601	5151
827.741	5159
827.88	5174
828.02	5124
828.159	5216
828.298	5311
828.437	5379
828.577	5326
828.716	5455
828.855	5330
828.994	5128
829.134	5121
829.273	5162
829.412	5178
829.551	5140
829.69	5075
829.829	5143
829.968	5357
830.107	5254
830.246	5353
830.385	5208
830.524	5128
830.663	5102
830.802	5010
830.941	4934
831.08	4953
831.219	4995
831.357	4976
831.496	5166
831.635	4934
831.774	4908
831.913	4892
832.051	4797
832.19	4778
832.329	4858
832.467	4710
832.606	4675
832.744	4702
832.883	4786
833.022	4710
833.16	4805
833.299	4839
833.437	4866
833.576	4862
833.714	4881
833.852	4896
833.991	4870
834.129	5018
834.267	4942
834.406	4904
834.544	4953
834.682	5014
834.821	4968
834.959	5181
835.097	4972
835.235	5197
835.373	5086
835.511	5132
835.65	5018
835.788	5079
835.926	4957
836.064	4900
836.202	4946
836.34	5147
836.478	5185
836.615	5121
836.753	5216
836.891	5330
837.029	5250
837.167	5166
837.305	5159
837.443	5113
837.58	5094
837.718	5261
837.856	5261
837.993	5151
838.131	5227
838.269	5208
838.406	5227
838.544	5220
838.681	5086
838.819	5041
838.956	4930
839.094	4953
839.231	5060
839.369	5136
839.506	5433
839.643	5299
839.781	5064
839.918	5041
840.055	5151
840.193	5136
840.33	5151
840.467	5201
840.604	5193
840.742	5448
840.879	5075
841.016	5045
841.153	5151
841.29	5398
841.427	5341
841.564	5341
841.701	5349
841.838	5296
841.975	5231
842.112	5280
842.249	5201
842.385	5102
842.522	5303
842.659	5185
842.796	5246
842.933	5220
843.069	5174
843.206	5155
843.343	5387
843.479	5250
843.616	5307
843.752	4999
843.889	5010
844.025	5231
844.162	5041
844.298	5197
844.435	5060
844.571	5045
844.708	5235
844.844	5311
844.98	5372
845.117	5303
845.253	5136
845.389	5140
845.525	5174
845.661	5166
845.798	5079
845.934	5113
846.07	5048
846.206	5193
846.342	5277
846.478	5197
846.614	5075
846.75	5010
846.886	4942
847.022	5185
847.158	5003
847.294	5086
847.429	5128
847.565	5098
847.701	5360
847.837	4873
847.972	4839
848.108	4965
848.244	4930
848.379	4763
848.515	4706
848.65	4691
848.786	4752
848.921	4748
849.057	4908
849.192	4873
849.328	4809
849.463	4850
849.598	4759
849.734	4778
849.869	4675
850.004	4664
850.14	4672
850.275	4603
850.41	4561
850.545	4634
850.68	4668
850.815	4656
850.95	4664
851.085	4877
851.22	4763
851.355	4717
851.49	4641
851.625	4626
851.76	4615
851.895	4577
852.03	4550
852.165	4630
852.299	4778
852.434	4748
852.569	4736
852.703	4759
852.838	4835
852.973	4949
853.107	4892
853.242	4763
853.376	4694
853.511	4519
853.645	4618
853.78	4793
853.914	4717
854.048	4687
854.183	4664
854.317	4706
854.451	4866
854.585	4691
854.72	4664
854.854	4774
854.988	4588
855.122	4637
855.256	4489
855.39	4653
855.524	4805
855.658	4759
855.792	4694
855.926	4755
856.06	4759
856.194	4790
856.327	4694
856.461	4599
856.595	4672
856.729	4653
856.862	4755
856.996	4702
857.13	4710
857.263	4778
857.397	4835
857.53	4664
857.664	4778
857.797	4816
857.931	4816
858.064	4683
858.197	4763
858.331	4698
858.464	4588
858.597	4519
858.731	4672
858.864	4653
858.997	4588
859.13	4656
859.263	4653
859.396	4744
859.529	4637
859.662	4599
859.795	4531
859.928	4637
860.061	4778
860.194	4824
860.327	4584
860.46	4512
860.592	4725
860.725	4660
860.858	4729
860.99	4603
861.123	4535
861.256	4565
861.388	4630
861.521	5417
861.653	4500
861.786	4470
861.918	4455
862.05	4558
862.183	4577
862.315	4634
862.447	4679
862.58	4611
862.712	4421
862.844	4352
862.976	4466
863.108	4402
863.24	4866
863.372	4325
863.504	4474
863.636	4413
863.768	4519
863.9	4424
864.032	4383
864.164	4451
864.296	4493
864.428	4497
864.559	4569
864.691	4577
864.823	4542
864.954	4527
865.086	4512
865.217	4447
865.349	4421
865.48	4451
865.612	4500
865.743	4637
865.875	4432
866.006	4436
866.137	4455
866.269	4440
866.4	4432
866.531	4428
866.662	4363
866.793	4386
866.924	4421
867.055	4470
867.186	4432
867.317	4447
867.448	4405
867.579	4436
867.71	4390
867.841	4363
867.972	4443
868.103	4508
868.233	4504
868.364	4466
868.495	4500
868.625	4683
868.756	4790
868.886	4588
869.017	4694
869.147	4805
869.278	4782
869.408	4664
869.539	4637
869.669	4660
869.799	4679
869.929	4828
870.06	4793
870.19	5048
870.32	4885
870.45	4968
870.58	4995
870.71	5102
870.84	5193
870.97	4942
871.1	4972
871.23	5143
871.36	5174
871.489	5052
871.619	5143
871.749	5098
871.879	5147
872.008	5170
872.138	5052
872.267	4946
872.397	4824
872.526	4824
872.656	4725
872.785	4801
872.915	4930
873.044	4987
873.173	4961
873.303	4961
873.432	4976
873.561	4953
873.69	4892
873.819	4877
873.948	4908
874.077	4782
874.206	4786
874.335	4797
874.464	4938
874.593	5048
874.722	4927
874.851	5117
874.979	5071
875.108	5033
875.237	4896
875.365	4877
875.494	4877
875.623	4972
875.751	4812
875.88	4885
876.008	4987
876.136	5098
876.265	5147
876.393	5318
876.521	5261
876.65	5208
876.778	5128
876.906	5056
877.034	4999
877.162	5075
877.29	4965
877.418	5041
877.546	5067
877.674	5033
877.802	5029
877.93	5014
878.058	4965
878.185	4870
878.313	5003
878.441	4919
878.568	4797
878.696	4904
878.824	4976
878.951	5071
879.079	5109
879.206	5250
879.333	5102
879.461	4976
879.588	5006
879.715	5086
879.842	5250
879.97	5056
880.097	4835
880.224	4778
880.351	4812
880.478	4831
880.605	4809
880.732	4797
880.859	5162
880.986	4949
881.112	4919
881.239	4843
881.366	4729
881.493	4645
881.619	4645
881.746	4653
881.872	4710
881.999	4687
882.125	4755
882.252	4793
882.378	4835
882.505	4968
882.631	4847
882.757	4698
882.883	4714
883.01	4759
883.136	4660
883.262	4656
883.388	4660
883.514	4889
883.64	4930
883.766	4847
883.892	4710
884.018	4759
884.143	4919
884.269	5037
884.395	4782
884.52	4660
884.646	4656
884.772	4580
884.897	4611
885.023	4717
885.148	4824
885.274	4908
885.399	4824
885.524	4774
885.65	4725
885.775	4843
885.9	4763
886.025	4881
886.15	4828
886.275	4778
886.4	4687
886.525	4744
886.65	4698
886.775	4752
886.9	4961
887.025	5060
887.149	4854
887.274	4660
887.399	4611
887.523	4637
887.648	4558
887.773	4649
887.897	4805
888.021	4774
888.146	4683
888.27	4896
888.395	4938
888.519	4862
888.643	4870
888.767	4843
888.891	4736
889.015	4653
889.139	4668
889.263	4668
889.387	4774
889.511	4896
889.635	4850
889.759	4679
889.883	4675
890.006	4816
890.13	4881
890.254	4679
890.377	4687
890.501	4565
890.624	4584
890.748	4649
890.871	4519
890.995	4474
891.118	4421
891.241	4531
891.364	4573
891.488	4660
891.611	4554
891.734	4573
891.857	4592
891.98	4599
892.103	4698
892.226	4622
892.349	4542
892.471	4455
892.594	4577
892.717	4611
892.839	4603
892.962	4649
893.085	4698
893.207	4634
893.33	4493
893.452	4592
893.575	4687
893.697	4573
893.819	4862
893.941	4839
894.064	4801
894.186	4615
894.308	4615
894.43	4790
894.552	4854
894.674	4771
894.796	4569
894.918	4599
895.04	4615
895.161	4759
895.283	4672
895.405	4637
895.526	4683
895.648	4767
895.769	4683
895.891	4740
896.012	4793
896.134	4736
896.255	4675
896.376	4664
896.498	4675
896.619	4740
896.74	4649
896.861	4694
896.982	4946
897.103	5033
897.224	4862
897.345	4759
897.466	4744
897.587	4755
897.708	4915
897.828	4835
897.949	4721
898.07	4618
898.19	4653
898.311	4854
898.431	4706
898.552	4831
898.672	4839
898.792	4820
898.913	4771
899.033	4637
899.153	4584
899.273	4478
899.393	4558
899.513	4558
899.633	4588
899.753	4546
899.873	4573
899.993	4622
900.113	4531
900.232	4596
900.352	4550
900.472	4516
900.591	4424
900.711	4550
900.83	4421
900.95	4630
901.069	4706
901.189	4588
901.308	4428
901.427	4383
901.546	4443
901.665	4455
901.784	4580
901.904	4417
902.023	4371
902.141	4219
902.26	4196
902.379	4337
902.498	4284
902.617	4257
902.735	4363
902.854	4440
902.973	4348
903.091	4227
903.21	4227
903.328	4318
903.446	4280
903.565	4249
903.683	4402
903.801	4329
903.919	4413
904.038	4466
904.156	4360
904.274	4451
904.392	4436
904.51	4474
904.627	4481
904.745	4580
904.863	4634
904.981	4436
905.098	4337
905.216	4375
905.334	4455
905.451	4474
905.569	4455
905.686	4565
905.803	4592
905.921	4402
906.038	4558
906.155	4519
906.272	4424
906.389	4531
906.506	4421
906.623	4398
906.74	4394
906.857	4348
906.974	4413
907.091	4649
907.208	4694
907.324	4660
907.441	4519
907.557	4402
907.674	4390
907.79	4356
907.907	4394
908.023	4519
908.139	4535
908.256	4459
908.372	4466
908.488	4462
908.604	4333
908.72	4306
908.836	4409
908.952	4421
909.068	4481
909.184	4611
909.3	4512
909.415	4577
909.531	4618
909.647	4375
909.762	4409
909.878	4341
909.993	4440
910.108	4440
910.224	4455
910.339	4512
910.454	4455
910.57	4371
910.685	4318
910.8	4691
910.915	4622
911.03	4550
911.145	4322
911.259	4352
911.374	4413
911.489	4341
911.604	4287
911.718	4219
911.833	4261
911.947	4150
912.062	4029
912.176	4215
912.291	4246
912.405	4303
912.519	4546
912.633	4512
912.748	4379
912.862	4360
912.976	4265
913.09	4090
913.204	4238
913.318	4287
913.431	4363
913.545	4390
913.659	4478
913.772	4379
913.886	4303
914	4242
914.113	4398
914.226	4428
914.34	4424
914.453	4215
914.566	4481
914.68	4314
914.793	4356
914.906	4207
915.019	4078
915.132	4074
915.245	4219
915.358	4261
915.47	4200
915.583	4306
915.696	4352
915.809	4440
915.921	4455
916.034	4344
916.146	4280
916.259	4246
916.371	4417
916.483	4367
916.595	4272
916.708	4325
916.82	4303
916.932	4356
917.044	4371
917.156	4337
917.268	4249
917.38	4303
917.491	4268
917.603	4367
917.715	4409
917.826	4436
917.938	4348
918.049	4280
918.161	4424
918.272	4584
918.384	4573
918.495	4447
918.606	4329
918.717	4219
918.828	4371
918.939	4409
919.05	4284
919.161	4344
919.272	4166
919.383	4272
919.494	4440
919.604	4664
919.715	4443
919.826	4363
919.936	4451
920.047	4523
920.157	4538
920.267	4767
920.378	4558
920.488	4489
920.598	4748
920.708	4911
920.818	4774
920.928	4755
921.038	4930
921.148	4915
921.258	4653
921.368	4615
921.477	4519
921.587	4481
921.697	4421
921.806	4500
921.916	4493
922.025	4287
922.134	4287
922.244	4230
922.353	4344
922.462	4253
922.571	4135
922.68	4036
922.789	3994
922.898	4082
923.007	4025
923.116	4086
923.224	4059
923.333	4078
923.442	4013
923.55	3994
923.659	4040
923.767	4116
923.876	3983
923.984	4154
924.092	4051
924.201	4105
924.309	4143
924.417	4158
924.525	4086
924.633	4090
924.741	4961
924.849	3934
924.956	4150
925.064	3972
925.172	3922
925.279	3964
925.387	4063
925.494	4105
925.602	4215
925.709	4219
925.816	4067
925.924	4128
926.031	4211
926.138	4166
926.245	4211
926.352	4150
926.459	4284
926.566	4322
926.673	4158
926.779	4063
926.886	4116
926.993	4040
927.099	3983
927.206	3918
927.312	3987
927.419	4071
927.525	4067
927.631	4097
927.737	3991
927.843	3964
927.95	3835
928.056	3934
928.162	3991
928.267	4090
928.373	4698
928.479	4116
928.585	3873
928.69	4025
928.796	4082
928.901	4010
929.007	3850
929.112	4013
929.218	4044
929.323	3930
929.428	3964
929.533	4093
929.638	3903
929.743	3991
929.848	4051
929.953	3998
930.058	3968
930.163	3816
930.267	3800
930.372	3994
930.477	3797
930.581	4112
930.685	3956
930.79	3808
930.894	3903
930.998	3846
931.103	4044
931.207	3717
931.311	3701
931.415	3732
931.519	3534
931.623	3545
