Data from test_V78500241_546.txt Node
Date: Fri Mar 25 16:52:47 CST 2022
User: usil
Spectrometer: V785-0024
Trigger mode: 0
Integration Time (sec): 4.000000E-1
Scans to average: 1
Nonlinearity correction enabled: false
Boxcar width: 0
Storing dark spectrum: false
XAxis mode: Wavelengths
Number of Pixels in Spectrum: 1024
>>>>>Begin Spectral Data<<<<<
801.071	8020
801.214	7986
801.356	7871
801.499	7818
801.641	7822
801.783	7833
801.926	7970
802.068	7967
802.211	8020
802.353	8088
802.496	7833
802.638	7944
802.78	7997
802.923	7974
803.065	7856
803.208	7814
803.35	7909
803.492	8138
803.635	8191
803.777	8039
803.919	8092
804.061	8446
804.204	8210
804.346	8035
804.488	7997
804.63	8107
804.773	8050
804.915	8065
805.057	8313
805.199	8229
805.341	8225
805.483	8267
805.626	8221
805.768	8130
805.91	8164
806.052	8172
806.194	8092
806.336	8301
806.478	8130
806.62	8054
806.762	8123
806.904	8271
807.046	8442
807.188	8336
807.33	8263
807.472	8244
807.614	8199
807.756	8161
807.898	7955
808.04	7860
808.182	7974
808.324	7944
808.465	7864
808.607	8069
808.749	8149
808.891	8225
809.033	8328
809.174	8157
809.316	8046
809.458	8069
809.6	8046
809.741	8020
809.883	8012
810.025	8088
810.166	8096
810.308	8027
810.45	7993
810.591	7871
810.733	7734
810.875	7693
811.016	7514
811.158	7548
811.299	7658
811.441	7757
811.582	7685
811.724	7567
811.865	7552
812.007	7616
812.148	7571
812.29	7651
812.431	7856
812.573	7944
812.714	7970
812.855	8100
812.997	8256
813.138	8328
813.279	8259
813.421	8183
813.562	8103
813.703	7898
813.845	7814
813.986	7533
814.127	7331
814.268	7354
814.41	7228
814.551	7225
814.692	7175
814.833	7053
814.974	7080
815.115	7099
815.256	7023
815.397	7050
815.539	6966
815.68	6791
815.821	6779
815.962	6951
816.103	6814
816.244	6837
816.385	6646
816.526	6665
816.666	6547
816.807	6346
816.948	6528
817.089	6566
817.23	6475
817.371	6399
817.512	6407
817.653	6407
817.793	6365
817.934	6429
818.075	6460
818.216	6376
818.356	6414
818.497	6228
818.638	6155
818.778	6136
818.919	6155
819.06	6186
819.2	6311
819.341	6342
819.481	6342
819.622	6608
819.762	6760
819.903	6711
820.043	6578
820.184	6578
820.324	6585
820.465	6669
820.605	6700
820.746	6620
820.886	6464
821.026	6646
821.167	6715
821.307	6821
821.447	6779
821.588	6578
821.728	6555
821.868	6486
822.008	6338
822.149	6422
822.289	6342
822.429	6114
822.569	6106
822.709	6117
822.849	5954
822.99	5931
823.13	5961
823.27	5931
823.41	5828
823.55	5756
823.69	5798
823.83	5764
823.97	5703
824.11	5558
824.25	5524
824.389	5596
824.529	5585
824.669	5535
824.809	5668
824.949	5676
825.089	5619
825.228	5570
825.368	5345
825.508	5357
825.648	5353
825.787	5398
825.927	5368
826.067	5330
826.206	5326
826.346	5402
826.485	5398
826.625	5429
826.765	5581
826.904	5520
827.044	5231
827.183	5166
827.323	5174
827.462	5223
827.601	5208
827.741	5162
827.88	5235
828.02	5124
828.159	5277
828.298	5360
828.437	5337
828.577	5292
828.716	5471
828.855	5364
828.994	5136
829.134	5174
829.273	5220
829.412	5162
829.551	5174
829.69	5159
829.829	5250
829.968	5357
830.107	5273
830.246	5258
830.385	5189
830.524	5136
830.663	5064
830.802	5010
830.941	4866
831.08	4870
831.219	5018
831.357	4987
831.496	5197
831.635	4927
831.774	4839
831.913	4847
832.051	4725
832.19	4748
832.329	4824
832.467	4733
832.606	4664
832.744	4767
832.883	4736
833.022	4763
833.16	4790
833.299	4812
833.437	4828
833.576	4835
833.714	4858
833.852	4911
833.991	4911
834.129	4972
834.267	4999
834.406	4942
834.544	5052
834.682	4942
834.821	4946
834.959	5155
835.097	4961
835.235	5220
835.373	5105
835.511	5117
835.65	5010
835.788	5014
835.926	4881
836.064	4919
836.202	4953
836.34	5140
836.478	5235
836.615	5094
836.753	5178
836.891	5322
837.029	5288
837.167	5216
837.305	5189
837.443	5143
837.58	5090
837.718	5261
837.856	5223
837.993	5155
838.131	5235
838.269	5258
838.406	5170
838.544	5185
838.681	5022
838.819	5022
838.956	4866
839.094	4911
839.231	5022
839.369	5048
839.506	5433
839.643	5280
839.781	5109
839.918	5022
840.055	5212
840.193	5075
840.33	5132
840.467	5159
840.604	5242
840.742	5410
840.879	5143
841.016	5094
841.153	5113
841.29	5379
841.427	5334
841.564	5273
841.701	5318
841.838	5227
841.975	5239
842.112	5318
842.249	5083
842.385	5140
842.522	5322
842.659	5140
842.796	5143
842.933	5201
843.069	5189
843.206	5147
843.343	5303
843.479	5303
843.616	5231
843.752	4999
843.889	5060
844.025	5227
844.162	5018
844.298	5178
844.435	5102
844.571	5067
844.708	5258
844.844	5357
844.98	5349
845.117	5334
845.253	5136
845.389	5105
845.525	5136
845.661	5170
845.798	5060
845.934	5132
846.07	5022
846.206	5193
846.342	5242
846.478	5231
846.614	5060
846.75	4976
846.886	4987
847.022	5128
847.158	5041
847.294	5056
847.429	5128
847.565	5037
847.701	5307
847.837	4862
847.972	4831
848.108	4980
848.244	4984
848.379	4812
848.515	4740
848.65	4687
848.786	4812
848.921	4778
849.057	4870
849.192	4900
849.328	4797
849.463	4862
849.598	4809
849.734	4767
849.869	4698
850.004	4622
850.14	4717
850.275	4630
850.41	4538
850.545	4592
850.68	4577
850.815	4618
850.95	4630
851.085	4877
851.22	4744
851.355	4691
851.49	4622
851.625	4664
851.76	4622
851.895	4554
852.03	4554
852.165	4645
852.299	4691
852.434	4831
852.569	4736
852.703	4767
852.838	4854
852.973	4866
853.107	4881
853.242	4755
853.376	4698
853.511	4580
853.645	4626
853.78	4778
853.914	4706
854.048	4702
854.183	4668
854.317	4664
854.451	4828
854.585	4691
854.72	4645
854.854	4717
854.988	4622
855.122	4637
855.256	4550
855.39	4694
855.524	4771
855.658	4752
855.792	4710
855.926	4656
856.06	4755
856.194	4847
856.327	4767
856.461	4611
856.595	4626
856.729	4641
856.862	4752
856.996	4668
857.13	4694
857.263	4774
857.397	4831
857.53	4679
857.664	4679
857.797	4774
857.931	4763
858.064	4675
858.197	4706
858.331	4645
858.464	4599
858.597	4538
858.731	4626
858.864	4660
858.997	4603
859.13	4736
859.263	4702
859.396	4721
859.529	4580
859.662	4561
859.795	4550
859.928	4634
860.061	4706
860.194	4793
860.327	4637
860.46	4561
860.592	4702
860.725	4725
860.858	4740
860.99	4569
861.123	4519
861.256	4546
861.388	4637
861.521	5440
861.653	4481
861.786	4424
861.918	4428
862.05	4535
862.183	4561
862.315	4611
862.447	4626
862.58	4493
862.712	4375
862.844	4325
862.976	4500
863.108	4481
863.24	4847
863.372	4333
863.504	4436
863.636	4386
863.768	4485
863.9	4424
864.032	4390
864.164	4417
864.296	4474
864.428	4569
864.559	4573
864.691	4550
864.823	4565
864.954	4542
865.086	4554
865.217	4470
865.349	4462
865.48	4470
865.612	4500
865.743	4596
865.875	4474
866.006	4428
866.137	4436
866.269	4379
866.4	4440
866.531	4402
866.662	4386
866.793	4455
866.924	4402
867.055	4466
867.186	4459
867.317	4443
867.448	4398
867.579	4398
867.71	4417
867.841	4363
867.972	4447
868.103	4500
868.233	4451
868.364	4508
868.495	4474
868.625	4717
868.756	4812
868.886	4615
869.017	4634
869.147	4797
869.278	4763
869.408	4660
869.539	4615
869.669	4698
869.799	4653
869.929	4725
870.06	4729
870.19	5033
870.32	4946
870.45	4938
870.58	5003
870.71	5083
870.84	5105
870.97	4927
871.1	4911
871.23	5178
871.36	5109
871.489	4991
871.619	5090
871.749	5124
871.879	5140
872.008	5132
872.138	5033
872.267	4938
872.397	4774
872.526	4793
872.656	4752
872.785	4786
872.915	4984
873.044	5025
873.173	4915
873.303	4946
873.432	4980
873.561	4930
873.69	4896
873.819	4828
873.948	4885
874.077	4839
874.206	4748
874.335	4771
874.464	4946
874.593	5151
874.722	4949
874.851	5109
874.979	5083
875.108	5014
875.237	4923
875.365	4828
875.494	4877
875.623	4908
875.751	4824
875.88	4835
876.008	4949
876.136	5033
876.265	5136
876.393	5345
876.521	5223
876.65	5223
876.778	5128
876.906	5067
877.034	4972
877.162	5090
877.29	4949
877.418	5052
877.546	5094
877.674	5048
877.802	5003
877.93	5022
878.058	4949
878.185	4858
878.313	4953
878.441	4972
878.568	4820
878.696	4885
878.824	4911
878.951	4995
879.079	5121
879.206	5307
879.333	5124
879.461	5006
879.588	4995
879.715	5117
879.842	5193
879.97	5037
880.097	4767
880.224	4771
880.351	4790
880.478	4870
880.605	4790
880.732	4740
880.859	5079
880.986	4873
881.112	4904
881.239	4797
881.366	4691
881.493	4603
881.619	4611
881.746	4641
881.872	4668
881.999	4653
882.125	4725
882.252	4820
882.378	4835
882.505	4965
882.631	4793
882.757	4691
882.883	4755
883.01	4714
883.136	4675
883.262	4592
883.388	4649
883.514	4847
883.64	4873
883.766	4786
883.892	4656
884.018	4721
884.143	4919
884.269	4995
884.395	4691
884.52	4634
884.646	4607
884.772	4554
884.897	4580
885.023	4668
885.148	4790
885.274	4843
885.399	4809
885.524	4698
885.65	4698
885.775	4778
885.9	4767
886.025	4866
886.15	4828
886.275	4725
886.4	4660
886.525	4714
886.65	4767
886.775	4717
886.9	4927
887.025	5060
887.149	4820
887.274	4672
887.399	4558
887.523	4653
887.648	4603
887.773	4599
887.897	4767
888.021	4744
888.146	4672
888.27	4778
888.395	4900
888.519	4778
888.643	4824
888.767	4877
888.891	4698
889.015	4580
889.139	4656
889.263	4599
889.387	4736
889.511	4938
889.635	4771
889.759	4672
889.883	4668
890.006	4717
890.13	4854
890.254	4599
890.377	4706
890.501	4516
890.624	4550
890.748	4592
890.871	4504
890.995	4424
891.118	4402
891.241	4512
891.364	4554
891.488	4641
891.611	4531
891.734	4554
891.857	4618
891.98	4565
892.103	4656
892.226	4603
892.349	4569
892.471	4421
892.594	4523
892.717	4565
892.839	4577
892.962	4573
893.085	4637
893.207	4618
893.33	4466
893.452	4478
893.575	4634
893.697	4565
893.819	4831
893.941	4835
894.064	4763
894.186	4618
894.308	4561
894.43	4744
894.552	4790
894.674	4782
894.796	4558
894.918	4565
895.04	4573
895.161	4706
895.283	4691
895.405	4542
895.526	4626
895.648	4672
895.769	4626
895.891	4729
896.012	4744
896.134	4725
896.255	4752
896.376	4599
896.498	4626
896.619	4687
896.74	4607
896.861	4645
896.982	4911
897.103	5109
897.224	4835
897.345	4778
897.466	4714
897.587	4702
897.708	4877
897.828	4767
897.949	4698
898.07	4584
898.19	4603
898.311	4858
898.431	4656
898.552	4721
898.672	4801
898.792	4831
898.913	4740
899.033	4573
899.153	4497
899.273	4436
899.393	4516
899.513	4542
899.633	4535
899.753	4497
899.873	4527
899.993	4596
900.113	4546
900.232	4611
900.352	4599
900.472	4485
900.591	4402
900.711	4485
900.83	4402
900.95	4584
901.069	4664
901.189	4546
901.308	4375
901.427	4318
901.546	4371
901.665	4497
901.784	4516
901.904	4367
902.023	4314
902.141	4223
902.26	4192
902.379	4318
902.498	4284
902.617	4257
902.735	4394
902.854	4394
902.973	4409
903.091	4162
903.21	4211
903.328	4310
903.446	4295
903.565	4272
903.683	4363
903.801	4276
903.919	4367
904.038	4394
904.156	4276
904.274	4474
904.392	4383
904.51	4409
904.627	4508
904.745	4599
904.863	4668
904.981	4352
905.098	4337
905.216	4341
905.334	4405
905.451	4428
905.569	4451
905.686	4542
905.803	4603
905.921	4440
906.038	4538
906.155	4424
906.272	4428
906.389	4466
906.506	4356
906.623	4367
906.74	4379
906.857	4295
906.974	4394
907.091	4565
907.208	4721
907.324	4622
907.441	4527
907.557	4310
907.674	4386
907.79	4325
907.907	4409
908.023	4485
908.139	4542
908.256	4394
908.372	4481
908.488	4402
908.604	4341
908.72	4322
908.836	4383
908.952	4432
909.068	4485
909.184	4577
909.3	4493
909.415	4565
909.531	4569
909.647	4352
909.762	4363
909.878	4299
909.993	4440
910.108	4394
910.224	4375
910.339	4500
910.454	4436
910.57	4356
910.685	4329
910.8	4653
910.915	4565
911.03	4538
911.145	4322
911.259	4303
911.374	4367
911.489	4310
911.604	4280
911.718	4158
911.833	4223
911.947	4097
912.062	3987
912.176	4196
912.291	4234
912.405	4253
912.519	4462
912.633	4500
912.748	4344
912.862	4276
912.976	4177
913.09	4063
913.204	4204
913.318	4253
913.431	4432
913.545	4310
913.659	4436
913.772	4337
913.886	4215
914	4204
914.113	4402
914.226	4390
914.34	4386
914.453	4265
914.566	4409
914.68	4268
914.793	4276
914.906	4147
915.019	4128
915.132	4021
915.245	4158
915.358	4188
915.47	4230
915.583	4261
915.696	4318
915.809	4421
915.921	4424
916.034	4257
916.146	4223
916.259	4207
916.371	4390
916.483	4386
916.595	4272
916.708	4287
916.82	4352
916.932	4356
917.044	4318
917.156	4325
917.268	4230
917.38	4284
917.491	4272
917.603	4360
917.715	4363
917.826	4447
917.938	4371
918.049	4200
918.161	4371
918.272	4542
918.384	4489
918.495	4462
918.606	4261
918.717	4173
918.828	4367
918.939	4344
919.05	4238
919.161	4299
919.272	4109
919.383	4200
919.494	4432
919.604	4615
919.715	4413
919.826	4314
919.936	4360
920.047	4500
920.157	4462
920.267	4702
920.378	4580
920.488	4519
920.598	4721
920.708	4904
920.818	4725
920.928	4759
921.038	4953
921.148	4900
921.258	4634
921.368	4592
921.477	4489
921.587	4462
921.697	4394
921.806	4535
921.916	4432
922.025	4284
922.134	4291
922.244	4242
922.353	4341
922.462	4181
922.571	4139
922.68	4017
922.789	4029
922.898	4025
923.007	3949
923.116	4097
923.224	4071
923.333	4090
923.442	3994
923.55	3968
923.659	4006
923.767	4101
923.876	4048
923.984	4109
924.092	4006
924.201	4086
924.309	4093
924.417	4139
924.525	4082
924.633	4147
924.741	5033
924.849	3915
924.956	4143
925.064	3953
925.172	3911
925.279	3979
925.387	4036
925.494	4021
925.602	4196
925.709	4177
925.816	4017
925.924	4128
926.031	4227
926.138	4169
926.245	4181
926.352	4067
926.459	4223
926.566	4318
926.673	4147
926.779	4082
926.886	4021
926.993	3991
927.099	3926
927.206	3983
927.312	3903
927.419	4021
927.525	4032
927.631	4128
927.737	3937
927.843	3922
927.95	3831
928.056	3941
928.162	3987
928.267	4067
928.373	4694
928.479	4093
928.585	3884
928.69	4029
928.796	4063
928.901	4002
929.007	3808
929.112	3968
929.218	3975
929.323	3949
929.428	3892
929.533	4128
929.638	3918
929.743	3949
929.848	4090
929.953	3964
930.058	3926
930.163	3800
930.267	3800
930.372	3968
930.477	3857
930.581	4071
930.685	3934
930.79	3778
930.894	3903
930.998	3857
931.103	4040
931.207	3743
931.311	3652
931.415	3713
931.519	3545
931.623	3561
