Data from test_V78500241_5.txt Node
Date: Fri Mar 25 16:49:02 CST 2022
User: usil
Spectrometer: V785-0024
Trigger mode: 0
Integration Time (sec): 4.000000E-1
Scans to average: 1
Nonlinearity correction enabled: false
Boxcar width: 0
Storing dark spectrum: false
XAxis mode: Wavelengths
Number of Pixels in Spectrum: 1024
>>>>>Begin Spectral Data<<<<<
801.071	8084
801.214	8115
801.356	8058
801.499	7963
801.641	7814
801.783	7940
801.926	8020
802.068	7921
802.211	8020
802.353	8069
802.496	7947
802.638	7967
802.78	8027
802.923	7978
803.065	7925
803.208	7940
803.35	8039
803.492	8157
803.635	8210
803.777	8001
803.919	8180
804.061	8560
804.204	8183
804.346	8126
804.488	8001
804.63	8111
804.773	8081
804.915	8111
805.057	8210
805.199	8145
805.341	8229
805.483	8358
805.626	8233
805.768	8119
805.91	8244
806.052	8225
806.194	8164
806.336	8286
806.478	8145
806.62	8176
806.762	8153
806.904	8286
807.046	8514
807.188	8374
807.33	8313
807.472	8301
807.614	8164
807.756	8191
807.898	7997
808.04	7955
808.182	7982
808.324	7951
808.465	8001
808.607	8149
808.749	8126
808.891	8233
809.033	8351
809.174	8191
809.316	8126
809.458	8126
809.6	8039
809.741	8024
809.883	8043
810.025	8176
810.166	8096
810.308	8031
810.45	8012
810.591	7909
810.733	7814
810.875	7704
811.016	7624
811.158	7548
811.299	7719
811.441	7841
811.582	7822
811.724	7590
811.865	7567
812.007	7609
812.148	7666
812.29	7727
812.431	7753
812.573	7928
812.714	8084
812.855	8157
812.997	8263
813.138	8347
813.279	8195
813.421	8157
813.562	8084
813.703	7936
813.845	7788
813.986	7483
814.127	7396
814.268	7289
814.41	7274
814.551	7179
814.692	7206
814.833	7126
814.974	7103
815.115	7088
815.256	6996
815.397	6996
815.539	6913
815.68	6837
815.821	6833
815.962	6920
816.103	6939
816.244	6814
816.385	6719
816.526	6665
816.666	6574
816.807	6384
816.948	6502
817.089	6445
817.23	6460
817.371	6445
817.512	6391
817.653	6384
817.793	6414
817.934	6429
818.075	6467
818.216	6532
818.356	6483
818.497	6311
818.638	6171
818.778	6194
818.919	6163
819.06	6201
819.2	6315
819.341	6277
819.481	6471
819.622	6532
819.762	6696
819.903	6768
820.043	6703
820.184	6700
820.324	6650
820.465	6753
820.605	6764
820.746	6719
820.886	6612
821.026	6745
821.167	6833
821.307	6913
821.447	6795
821.588	6745
821.728	6639
821.868	6525
822.008	6395
822.149	6467
822.289	6388
822.429	6277
822.569	6163
822.709	6155
822.849	5992
822.99	5992
823.13	6007
823.27	5977
823.41	5855
823.55	5863
823.69	5878
823.83	5916
823.97	5756
824.11	5623
824.25	5638
824.389	5611
824.529	5672
824.669	5596
824.809	5688
824.949	5813
825.089	5737
825.228	5611
825.368	5516
825.508	5455
825.648	5486
825.787	5497
825.927	5452
826.067	5444
826.206	5406
826.346	5490
826.485	5497
826.625	5505
826.765	5611
826.904	5581
827.044	5318
827.183	5258
827.323	5235
827.462	5303
827.601	5277
827.741	5368
827.88	5296
828.02	5204
828.159	5284
828.298	5402
828.437	5436
828.577	5315
828.716	5646
828.855	5410
828.994	5318
829.134	5201
829.273	5292
829.412	5246
829.551	5254
829.69	5220
829.829	5322
829.968	5421
830.107	5341
830.246	5337
830.385	5315
830.524	5242
830.663	5189
830.802	5113
830.941	4938
831.08	5003
831.219	5075
831.357	5079
831.496	5261
831.635	4987
831.774	4911
831.913	4972
832.051	4782
832.19	4820
832.329	4919
832.467	4801
832.606	4752
832.744	4805
832.883	4809
833.022	4778
833.16	4896
833.299	4911
833.437	4828
833.576	4946
833.714	4949
833.852	4946
833.991	4999
834.129	4972
834.267	4999
834.406	4972
834.544	5086
834.682	5048
834.821	5018
834.959	5258
835.097	5064
835.235	5231
835.373	5178
835.511	5166
835.65	5060
835.788	5105
835.926	5018
836.064	4980
836.202	5029
836.34	5250
836.478	5330
836.615	5227
836.753	5345
836.891	5414
837.029	5341
837.167	5330
837.305	5242
837.443	5185
837.58	5197
837.718	5360
837.856	5250
837.993	5273
838.131	5318
838.269	5307
838.406	5326
838.544	5254
838.681	5140
838.819	5132
838.956	4957
839.094	5045
839.231	5045
839.369	5220
839.506	5497
839.643	5395
839.781	5128
839.918	5064
840.055	5170
840.193	5155
840.33	5178
840.467	5185
840.604	5239
840.742	5535
840.879	5170
841.016	5162
841.153	5227
841.29	5433
841.427	5417
841.564	5406
841.701	5471
841.838	5357
841.975	5315
842.112	5330
842.249	5239
842.385	5159
842.522	5402
842.659	5277
842.796	5242
842.933	5273
843.069	5220
843.206	5208
843.343	5383
843.479	5296
843.616	5360
843.752	5227
843.889	5075
844.025	5303
844.162	5113
844.298	5296
844.435	5204
844.571	5128
844.708	5307
844.844	5417
844.98	5471
845.117	5402
845.253	5288
845.389	5166
845.525	5227
845.661	5220
845.798	5136
845.934	5220
846.07	5147
846.206	5227
846.342	5326
846.478	5254
846.614	5162
846.75	5075
846.886	5041
847.022	5254
847.158	5162
847.294	5128
847.429	5178
847.565	5147
847.701	5387
847.837	4976
847.972	4870
848.108	5014
848.244	5014
848.379	4858
848.515	4820
848.65	4843
848.786	4839
848.921	4858
849.057	4938
849.192	4991
849.328	4919
849.463	4927
849.598	4831
849.734	4843
849.869	4820
850.004	4714
850.14	4744
850.275	4645
850.41	4611
850.545	4641
850.68	4698
850.815	4721
850.95	4698
851.085	4930
851.22	4831
851.355	4717
851.49	4694
851.625	4683
851.76	4744
851.895	4645
852.03	4626
852.165	4717
852.299	4820
852.434	4908
852.569	4809
852.703	4805
852.838	4938
852.973	5010
853.107	4961
853.242	4786
853.376	4733
853.511	4641
853.645	4668
853.78	4873
853.914	4793
854.048	4733
854.183	4691
854.317	4744
854.451	4915
854.585	4759
854.72	4725
854.854	4824
854.988	4656
855.122	4710
855.256	4618
855.39	4740
855.524	4858
855.658	4828
855.792	4774
855.926	4835
856.06	4866
856.194	4881
856.327	4793
856.461	4714
856.595	4714
856.729	4698
856.862	4866
856.996	4790
857.13	4786
857.263	4801
857.397	4911
857.53	4679
857.664	4877
857.797	4835
857.931	4835
858.064	4767
858.197	4854
858.331	4744
858.464	4672
858.597	4596
858.731	4702
858.864	4675
858.997	4679
859.13	4710
859.263	4767
859.396	4812
859.529	4641
859.662	4618
859.795	4634
859.928	4725
860.061	4839
860.194	4793
860.327	4694
860.46	4641
860.592	4748
860.725	4729
860.858	4847
860.99	4698
861.123	4645
861.256	4615
861.388	4702
861.521	5497
861.653	4516
861.786	4535
861.918	4577
862.05	4588
862.183	4599
862.315	4687
862.447	4748
862.58	4641
862.712	4474
862.844	4394
862.976	4596
863.108	4531
863.24	4908
863.372	4386
863.504	4493
863.636	4459
863.768	4527
863.9	4466
864.032	4459
864.164	4436
864.296	4523
864.428	4588
864.559	4653
864.691	4588
864.823	4603
864.954	4561
865.086	4569
865.217	4508
865.349	4512
865.48	4512
865.612	4550
865.743	4710
865.875	4542
866.006	4497
866.137	4527
866.269	4508
866.4	4493
866.531	4474
866.662	4493
866.793	4478
866.924	4504
867.055	4584
867.186	4523
867.317	4500
867.448	4489
867.579	4466
867.71	4497
867.841	4443
867.972	4512
868.103	4558
868.233	4516
868.364	4500
868.495	4550
868.625	4748
868.756	4801
868.886	4622
869.017	4710
869.147	4858
869.278	4809
869.408	4725
869.539	4721
869.669	4786
869.799	4721
869.929	4904
870.06	4831
870.19	5037
870.32	4995
870.45	5003
870.58	5105
870.71	5147
870.84	5132
870.97	5045
871.1	4946
871.23	5201
871.36	5227
871.489	5109
871.619	5159
871.749	5147
871.879	5246
872.008	5258
872.138	5102
872.267	5045
872.397	4934
872.526	4904
872.656	4854
872.785	4889
872.915	5056
873.044	5102
873.173	4972
873.303	5045
873.432	5018
873.561	5056
873.69	4976
873.819	4942
873.948	4984
874.077	4892
874.206	4873
874.335	4877
874.464	4953
874.593	5212
874.722	5041
874.851	5185
874.979	5128
875.108	5128
875.237	4972
875.365	4957
875.494	4938
875.623	5060
875.751	4915
875.88	4923
876.008	5045
876.136	5094
876.265	5307
876.393	5414
876.521	5326
876.65	5303
876.778	5261
876.906	5151
877.034	5113
877.162	5071
877.29	5041
877.418	5121
877.546	5098
877.674	5086
877.802	5124
877.93	5143
878.058	5022
878.185	4934
878.313	5045
878.441	5033
878.568	4892
878.696	4987
878.824	4999
878.951	5151
879.079	5170
879.206	5387
879.333	5185
879.461	5052
879.588	5048
879.715	5220
879.842	5288
879.97	5045
880.097	4793
880.224	4816
880.351	4847
880.478	4919
880.605	4850
880.732	4873
880.859	5117
880.986	4961
881.112	4968
881.239	4866
881.366	4694
881.493	4683
881.619	4683
881.746	4698
881.872	4771
881.999	4721
882.125	4771
882.252	4862
882.378	4927
882.505	4995
882.631	4881
882.757	4744
882.883	4767
883.01	4824
883.136	4752
883.262	4664
883.388	4622
883.514	4835
883.64	4908
883.766	4831
883.892	4733
884.018	4801
884.143	4976
884.269	5098
884.395	4675
884.52	4729
884.646	4698
884.772	4645
884.897	4634
885.023	4698
885.148	4797
885.274	4961
885.399	4870
885.524	4767
885.65	4759
885.775	4793
885.9	4763
886.025	4930
886.15	4843
886.275	4816
886.4	4763
886.525	4786
886.65	4767
886.775	4759
886.9	4991
887.025	5102
887.149	4858
887.274	4744
887.399	4637
887.523	4714
887.648	4649
887.773	4637
887.897	4877
888.021	4805
888.146	4759
888.27	4923
888.395	5003
888.519	4847
888.643	4873
888.767	4919
888.891	4752
889.015	4675
889.139	4721
889.263	4706
889.387	4805
889.511	4965
889.635	4809
889.759	4710
889.883	4729
890.006	4790
890.13	4942
890.254	4698
890.377	4782
890.501	4641
890.624	4611
890.748	4710
890.871	4558
890.995	4462
891.118	4436
891.241	4554
891.364	4588
891.488	4714
891.611	4569
891.734	4596
891.857	4687
891.98	4641
892.103	4729
892.226	4683
892.349	4569
892.471	4508
892.594	4592
892.717	4649
892.839	4580
892.962	4622
893.085	4755
893.207	4717
893.33	4504
893.452	4622
893.575	4729
893.697	4660
893.819	4843
893.941	4934
894.064	4847
894.186	4664
894.308	4637
894.43	4812
894.552	4908
894.674	4843
894.796	4607
894.918	4664
895.04	4573
895.161	4790
895.283	4714
895.405	4687
895.526	4736
895.648	4767
895.769	4790
895.891	4816
896.012	4828
896.134	4759
896.255	4759
896.376	4736
896.498	4698
896.619	4752
896.74	4710
896.861	4656
896.982	5010
897.103	5162
897.224	4934
897.345	4820
897.466	4740
897.587	4763
897.708	4919
897.828	4885
897.949	4740
898.07	4637
898.19	4733
898.311	4873
898.431	4736
898.552	4805
898.672	4889
898.792	4858
898.913	4767
899.033	4649
899.153	4573
899.273	4481
899.393	4519
899.513	4561
899.633	4569
899.753	4592
899.873	4573
899.993	4641
900.113	4603
900.232	4664
900.352	4641
900.472	4538
900.591	4474
900.711	4527
900.83	4500
900.95	4664
901.069	4774
901.189	4607
901.308	4424
901.427	4402
901.546	4447
901.665	4535
901.784	4561
901.904	4459
902.023	4333
902.141	4272
902.26	4215
902.379	4360
902.498	4291
902.617	4318
902.735	4470
902.854	4405
902.973	4352
903.091	4230
903.21	4291
903.328	4348
903.446	4303
903.565	4360
903.683	4390
903.801	4337
903.919	4451
904.038	4493
904.156	4363
904.274	4466
904.392	4481
904.51	4493
904.627	4538
904.745	4649
904.863	4679
904.981	4440
905.098	4402
905.216	4409
905.334	4485
905.451	4462
905.569	4493
905.686	4603
905.803	4645
905.921	4489
906.038	4607
906.155	4512
906.272	4462
906.389	4580
906.506	4402
906.623	4409
906.74	4474
906.857	4348
906.974	4417
907.091	4645
907.208	4797
907.324	4672
907.441	4573
907.557	4390
907.674	4421
907.79	4394
907.907	4440
908.023	4542
908.139	4516
908.256	4485
908.372	4561
908.488	4447
908.604	4466
908.72	4360
908.836	4421
908.952	4440
909.068	4493
909.184	4653
909.3	4558
909.415	4668
909.531	4645
909.647	4451
909.762	4432
909.878	4375
909.993	4497
910.108	4451
910.224	4470
910.339	4588
910.454	4462
910.57	4424
910.685	4352
910.8	4721
910.915	4615
911.03	4554
911.145	4379
911.259	4455
911.374	4421
911.489	4398
911.604	4295
911.718	4238
911.833	4227
911.947	4158
912.062	4093
912.176	4291
912.291	4322
912.405	4306
912.519	4512
912.633	4577
912.748	4443
912.862	4352
912.976	4219
913.09	4120
913.204	4230
913.318	4322
913.431	4417
913.545	4402
913.659	4474
913.772	4440
913.886	4325
914	4291
914.113	4455
914.226	4508
914.34	4428
914.453	4261
914.566	4497
914.68	4375
914.793	4325
914.906	4211
915.019	4196
915.132	4139
915.245	4227
915.358	4246
915.47	4276
915.583	4344
915.696	4360
915.809	4470
915.921	4481
916.034	4306
916.146	4322
916.259	4325
916.371	4455
916.483	4443
916.595	4284
916.708	4348
916.82	4379
916.932	4375
917.044	4398
917.156	4402
917.268	4268
917.38	4310
917.491	4337
917.603	4360
917.715	4508
917.826	4497
917.938	4428
918.049	4314
918.161	4451
918.272	4611
918.384	4630
918.495	4504
918.606	4363
918.717	4284
918.828	4398
918.939	4447
919.05	4280
919.161	4379
919.272	4192
919.383	4318
919.494	4489
919.604	4656
919.715	4485
919.826	4390
919.936	4485
920.047	4596
920.157	4577
920.267	4790
920.378	4588
920.488	4626
920.598	4790
920.708	4972
920.818	4801
920.928	4824
921.038	4991
921.148	4976
921.258	4675
921.368	4561
921.477	4542
921.587	4527
921.697	4398
921.806	4637
921.916	4535
922.025	4383
922.134	4310
922.244	4295
922.353	4367
922.462	4249
922.571	4192
922.68	4036
922.789	4040
922.898	4048
923.007	4032
923.116	4147
923.224	4120
923.333	4135
923.442	4029
923.55	4036
923.659	4059
923.767	4139
923.876	4055
923.984	4173
924.092	4055
924.201	4116
924.309	4143
924.417	4143
924.525	4131
924.633	4154
924.741	5105
924.849	3994
924.956	4169
925.064	4017
925.172	3941
925.279	3994
925.387	4128
925.494	4090
925.602	4276
925.709	4219
925.816	4051
925.924	4169
926.031	4322
926.138	4238
926.245	4204
926.352	4196
926.459	4287
926.566	4344
926.673	4181
926.779	4185
926.886	4158
926.993	4048
927.099	3964
927.206	4006
927.312	3972
927.419	4097
927.525	4074
927.631	4166
927.737	4006
927.843	4036
927.95	3911
928.056	4040
928.162	4040
928.267	4139
928.373	4748
928.479	4158
928.585	3896
928.69	4063
928.796	4181
928.901	4044
929.007	3861
929.112	4036
929.218	4048
929.323	3991
929.428	4025
929.533	4147
929.638	3968
929.743	4021
929.848	4116
929.953	4051
930.058	3991
930.163	3808
930.267	3896
930.372	4010
930.477	3907
930.581	4124
930.685	4010
930.79	3869
930.894	3918
930.998	3926
931.103	4071
931.207	3728
931.311	3755
931.415	3686
931.519	3606
931.623	3618
