Data from test_V78500241_2118.txt Node
Date: Fri Mar 25 17:03:43 CST 2022
User: usil
Spectrometer: V785-0024
Trigger mode: 0
Integration Time (sec): 4.000000E-1
Scans to average: 1
Nonlinearity correction enabled: false
Boxcar width: 0
Storing dark spectrum: false
XAxis mode: Wavelengths
Number of Pixels in Spectrum: 1024
>>>>>Begin Spectral Data<<<<<
801.071	7974
801.214	7951
801.356	7849
801.499	7780
801.641	7860
801.783	7772
801.926	7894
802.068	7947
802.211	7917
802.353	7951
802.496	7883
802.638	7833
802.78	7845
802.923	7913
803.065	7852
803.208	7818
803.35	7955
803.492	8077
803.635	8149
803.777	7993
803.919	8164
804.061	8549
804.204	8191
804.346	8031
804.488	7913
804.63	8077
804.773	8001
804.915	8157
805.057	8305
805.199	8138
805.341	8218
805.483	8229
805.626	8210
805.768	8157
805.91	8195
806.052	8183
806.194	8092
806.336	8263
806.478	8111
806.62	8084
806.762	8210
806.904	8240
807.046	8434
807.188	8423
807.33	8317
807.472	8286
807.614	8065
807.756	8126
807.898	7970
808.04	7902
808.182	7894
808.324	7868
808.465	7955
808.607	8069
808.749	8031
808.891	8168
809.033	8336
809.174	8225
809.316	8062
809.458	8062
809.6	7959
809.741	8005
809.883	7974
810.025	8092
810.166	8065
810.308	7974
810.45	7955
810.591	7913
810.733	7689
810.875	7685
811.016	7518
811.158	7521
811.299	7525
811.441	7658
811.582	7658
811.724	7601
811.865	7552
812.007	7586
812.148	7556
812.29	7670
812.431	7734
812.573	7860
812.714	7944
812.855	8149
812.997	8180
813.138	8225
813.279	8164
813.421	8073
813.562	7944
813.703	7784
813.845	7708
813.986	7434
814.127	7202
814.268	7263
814.41	7240
814.551	7244
814.692	7202
814.833	7012
814.974	7099
815.115	7129
815.256	6962
815.397	6935
815.539	6916
815.68	6802
815.821	6791
815.962	6844
816.103	6825
816.244	6745
816.385	6563
816.526	6604
816.666	6490
816.807	6270
816.948	6429
817.089	6441
817.23	6418
817.371	6338
817.512	6361
817.653	6357
817.793	6315
817.934	6395
818.075	6479
818.216	6399
818.356	6391
818.497	6266
818.638	6171
818.778	6190
818.919	6114
819.06	6140
819.2	6311
819.341	6285
819.481	6357
819.622	6506
819.762	6692
819.903	6726
820.043	6559
820.184	6582
820.324	6555
820.465	6802
820.605	6669
820.746	6700
820.886	6536
821.026	6642
821.167	6745
821.307	6814
821.447	6764
821.588	6650
821.728	6585
821.868	6475
822.008	6262
822.149	6308
822.289	6315
822.429	6220
822.569	6095
822.709	6167
822.849	5882
822.99	5908
823.13	5958
823.27	5950
823.41	5779
823.55	5764
823.69	5783
823.83	5752
823.97	5668
824.11	5535
824.25	5452
824.389	5535
824.529	5589
824.669	5478
824.809	5592
824.949	5604
825.089	5646
825.228	5509
825.368	5379
825.508	5322
825.648	5372
825.787	5417
825.927	5353
826.067	5299
826.206	5273
826.346	5387
826.485	5425
826.625	5353
826.765	5543
826.904	5471
827.044	5261
827.183	5204
827.323	5155
827.462	5223
827.601	5193
827.741	5185
827.88	5204
828.02	5143
828.159	5254
828.298	5299
828.437	5368
828.577	5299
828.716	5459
828.855	5349
828.994	5166
829.134	5193
829.273	5189
829.412	5105
829.551	5143
829.69	5174
829.829	5227
829.968	5353
830.107	5265
830.246	5216
830.385	5166
830.524	5216
830.663	5037
830.802	5010
830.941	4904
831.08	4927
831.219	4980
831.357	4965
831.496	5147
831.635	4987
831.774	4858
831.913	4866
832.051	4733
832.19	4752
832.329	4816
832.467	4698
832.606	4672
832.744	4702
832.883	4714
833.022	4740
833.16	4771
833.299	4816
833.437	4835
833.576	4805
833.714	4839
833.852	4835
833.991	4877
834.129	4961
834.267	4946
834.406	4854
834.544	4965
834.682	4972
834.821	5006
834.959	5159
835.097	4957
835.235	5124
835.373	5060
835.511	5113
835.65	5022
835.788	5052
835.926	4892
836.064	4889
836.202	4904
836.34	5147
836.478	5216
836.615	5151
836.753	5151
836.891	5258
837.029	5216
837.167	5204
837.305	5143
837.443	5113
837.58	5048
837.718	5246
837.856	5185
837.993	5159
838.131	5261
838.269	5250
838.406	5174
838.544	5162
838.681	5003
838.819	5014
838.956	4934
839.094	4892
839.231	4919
839.369	5109
839.506	5406
839.643	5250
839.781	5006
839.918	5029
840.055	5086
840.193	5086
840.33	5098
840.467	5143
840.604	5174
840.742	5402
840.879	5117
841.016	5045
841.153	5204
841.29	5372
841.427	5326
841.564	5345
841.701	5326
841.838	5341
841.975	5231
842.112	5258
842.249	5117
842.385	5102
842.522	5368
842.659	5162
842.796	5136
842.933	5166
843.069	5128
843.206	5132
843.343	5318
843.479	5181
843.616	5258
843.752	4999
843.889	4987
844.025	5231
844.162	5014
844.298	5235
844.435	5094
844.571	5079
844.708	5212
844.844	5311
844.98	5345
845.117	5303
845.253	5124
845.389	5071
845.525	5162
845.661	5117
845.798	5010
845.934	5117
846.07	5022
846.206	5227
846.342	5292
846.478	5132
846.614	4991
846.75	4968
846.886	4953
847.022	5124
847.158	5010
847.294	5056
847.429	5094
847.565	5022
847.701	5296
847.837	4828
847.972	4752
848.108	4938
848.244	4953
848.379	4797
848.515	4710
848.65	4755
848.786	4717
848.921	4778
849.057	4831
849.192	4839
849.328	4778
849.463	4873
849.598	4786
849.734	4767
849.869	4687
850.004	4626
850.14	4588
850.275	4615
850.41	4546
850.545	4558
850.68	4668
850.815	4596
850.95	4660
851.085	4820
851.22	4748
851.355	4656
851.49	4664
851.625	4649
851.76	4668
851.895	4573
852.03	4500
852.165	4664
852.299	4706
852.434	4748
852.569	4714
852.703	4782
852.838	4831
852.973	4953
853.107	4885
853.242	4740
853.376	4675
853.511	4561
853.645	4596
853.78	4862
853.914	4698
854.048	4660
854.183	4694
854.317	4672
854.451	4850
854.585	4679
854.72	4611
854.854	4710
854.988	4607
855.122	4618
855.256	4535
855.39	4634
855.524	4786
855.658	4729
855.792	4725
855.926	4725
856.06	4755
856.194	4782
856.327	4634
856.461	4607
856.595	4611
856.729	4626
856.862	4740
856.996	4649
857.13	4733
857.263	4721
857.397	4786
857.53	4630
857.664	4744
857.797	4752
857.931	4721
858.064	4702
858.197	4755
858.331	4729
858.464	4554
858.597	4516
858.731	4611
858.864	4626
858.997	4577
859.13	4668
859.263	4660
859.396	4694
859.529	4538
859.662	4580
859.795	4531
859.928	4580
860.061	4771
860.194	4748
860.327	4618
860.46	4561
860.592	4733
860.725	4687
860.858	4740
860.99	4569
861.123	4497
861.256	4508
861.388	4592
861.521	5417
861.653	4478
861.786	4363
861.918	4470
862.05	4519
862.183	4561
862.315	4588
862.447	4668
862.58	4542
862.712	4405
862.844	4310
862.976	4481
863.108	4428
863.24	4767
863.372	4325
863.504	4398
863.636	4409
863.768	4512
863.9	4421
864.032	4375
864.164	4394
864.296	4440
864.428	4573
864.559	4538
864.691	4546
864.823	4516
864.954	4481
865.086	4512
865.217	4451
865.349	4451
865.48	4485
865.612	4462
865.743	4580
865.875	4451
866.006	4436
866.137	4504
866.269	4424
866.4	4413
866.531	4417
866.662	4390
866.793	4424
866.924	4436
867.055	4504
867.186	4413
867.317	4402
867.448	4379
867.579	4424
867.71	4398
867.841	4306
867.972	4447
868.103	4428
868.233	4474
868.364	4443
868.495	4424
868.625	4721
868.756	4710
868.886	4550
869.017	4592
869.147	4748
869.278	4763
869.408	4637
869.539	4596
869.669	4717
869.799	4698
869.929	4778
870.06	4706
870.19	4980
870.32	4942
870.45	4961
870.58	4930
870.71	5083
870.84	5052
870.97	4919
871.1	4930
871.23	5155
871.36	5140
871.489	5052
871.619	5071
871.749	5025
871.879	5143
872.008	5174
872.138	5048
872.267	4984
872.397	4854
872.526	4801
872.656	4736
872.785	4793
872.915	4942
873.044	5018
873.173	4957
873.303	4942
873.432	4965
873.561	4946
873.69	4889
873.819	4885
873.948	4915
874.077	4843
874.206	4774
874.335	4809
874.464	4908
874.593	5060
874.722	4980
874.851	5075
874.979	5056
875.108	5041
875.237	4946
875.365	4881
875.494	4812
875.623	4904
875.751	4801
875.88	4919
876.008	4953
876.136	4991
876.265	5204
876.393	5273
876.521	5269
876.65	5277
876.778	5189
876.906	5079
877.034	4987
877.162	5086
877.29	4995
877.418	5075
877.546	5041
877.674	4999
877.802	5037
877.93	5045
878.058	4934
878.185	4873
878.313	4953
878.441	4938
878.568	4786
878.696	4858
878.824	4946
878.951	5052
879.079	5174
879.206	5227
879.333	5052
879.461	4961
879.588	5014
879.715	5086
879.842	5185
879.97	5010
880.097	4809
880.224	4733
880.351	4816
880.478	4812
880.605	4812
880.732	4767
880.859	5052
880.986	4930
881.112	4942
881.239	4786
881.366	4683
881.493	4599
881.619	4615
881.746	4615
881.872	4691
881.999	4683
882.125	4683
882.252	4698
882.378	4786
882.505	4968
882.631	4793
882.757	4641
882.883	4767
883.01	4752
883.136	4702
883.262	4569
883.388	4653
883.514	4824
883.64	4862
883.766	4786
883.892	4668
884.018	4736
884.143	4908
884.269	5029
884.395	4649
884.52	4645
884.646	4675
884.772	4607
884.897	4546
885.023	4653
885.148	4824
885.274	4896
885.399	4824
885.524	4729
885.65	4694
885.775	4656
885.9	4702
886.025	4881
886.15	4755
886.275	4755
886.4	4675
886.525	4729
886.65	4714
886.775	4691
886.9	4862
887.025	5045
887.149	4831
887.274	4645
887.399	4603
887.523	4558
887.648	4592
887.773	4596
887.897	4767
888.021	4774
888.146	4649
888.27	4748
888.395	4873
888.519	4797
888.643	4812
888.767	4873
888.891	4653
889.015	4569
889.139	4656
889.263	4535
889.387	4767
889.511	4862
889.635	4793
889.759	4645
889.883	4664
890.006	4725
890.13	4809
890.254	4596
890.377	4618
890.501	4569
890.624	4569
890.748	4637
890.871	4508
890.995	4459
891.118	4344
891.241	4493
891.364	4527
891.488	4634
891.611	4478
891.734	4592
891.857	4580
891.98	4569
892.103	4626
892.226	4596
892.349	4527
892.471	4440
892.594	4535
892.717	4622
892.839	4588
892.962	4561
893.085	4645
893.207	4558
893.33	4447
893.452	4485
893.575	4660
893.697	4592
893.819	4801
893.941	4831
894.064	4759
894.186	4554
894.308	4554
894.43	4752
894.552	4790
894.674	4733
894.796	4550
894.918	4580
895.04	4554
895.161	4691
895.283	4672
895.405	4558
895.526	4656
895.648	4630
895.769	4698
895.891	4706
896.012	4744
896.134	4752
896.255	4736
896.376	4653
896.498	4618
896.619	4656
896.74	4618
896.861	4660
896.982	4877
897.103	5079
897.224	4816
897.345	4733
897.466	4668
897.587	4702
897.708	4870
897.828	4744
897.949	4664
898.07	4580
898.19	4637
898.311	4843
898.431	4645
898.552	4717
898.672	4820
898.792	4786
898.913	4809
899.033	4596
899.153	4508
899.273	4409
899.393	4500
899.513	4523
899.633	4512
899.753	4542
899.873	4493
899.993	4538
900.113	4573
900.232	4584
900.352	4558
900.472	4489
900.591	4375
900.711	4493
900.83	4485
900.95	4615
901.069	4672
901.189	4558
901.308	4344
901.427	4306
901.546	4375
901.665	4424
901.784	4531
901.904	4413
902.023	4337
902.141	4219
902.26	4131
902.379	4287
902.498	4234
902.617	4230
902.735	4337
902.854	4367
902.973	4352
903.091	4200
903.21	4276
903.328	4306
903.446	4280
903.565	4257
903.683	4318
903.801	4253
903.919	4379
904.038	4424
904.156	4295
904.274	4455
904.392	4386
904.51	4413
904.627	4485
904.745	4577
904.863	4584
904.981	4424
905.098	4329
905.216	4405
905.334	4413
905.451	4428
905.569	4409
905.686	4561
905.803	4611
905.921	4398
906.038	4527
906.155	4481
906.272	4348
906.389	4440
906.506	4363
906.623	4398
906.74	4348
906.857	4291
906.974	4367
907.091	4497
907.208	4679
907.324	4561
907.441	4481
907.557	4310
907.674	4402
907.79	4318
907.907	4333
908.023	4478
908.139	4451
908.256	4383
908.372	4497
908.488	4417
908.604	4303
908.72	4268
908.836	4367
908.952	4405
909.068	4409
909.184	4538
909.3	4459
909.415	4527
909.531	4535
909.647	4375
909.762	4402
909.878	4310
909.993	4462
910.108	4405
910.224	4409
910.339	4432
910.454	4398
910.57	4329
910.685	4360
910.8	4641
910.915	4615
911.03	4500
911.145	4303
911.259	4306
911.374	4333
911.489	4310
911.604	4272
911.718	4147
911.833	4215
911.947	4082
912.062	4021
912.176	4185
912.291	4242
912.405	4253
912.519	4481
912.633	4519
912.748	4341
912.862	4322
912.976	4215
913.09	4078
913.204	4204
913.318	4280
913.431	4363
913.545	4341
913.659	4432
913.772	4375
913.886	4204
914	4242
914.113	4398
914.226	4375
914.34	4356
914.453	4261
914.566	4379
914.68	4280
914.793	4341
914.906	4124
915.019	4120
915.132	4067
915.245	4158
915.358	4185
915.47	4253
915.583	4272
915.696	4303
915.809	4398
915.921	4398
916.034	4227
916.146	4234
916.259	4249
916.371	4356
916.483	4394
916.595	4272
916.708	4295
916.82	4333
916.932	4310
917.044	4322
917.156	4287
917.268	4227
917.38	4295
917.491	4276
917.603	4356
917.715	4409
917.826	4417
917.938	4367
918.049	4265
918.161	4402
918.272	4535
918.384	4550
918.495	4409
918.606	4284
918.717	4249
918.828	4287
918.939	4325
919.05	4261
919.161	4325
919.272	4143
919.383	4230
919.494	4424
919.604	4626
919.715	4436
919.826	4333
919.936	4413
920.047	4519
920.157	4512
920.267	4683
920.378	4500
920.488	4497
920.598	4733
920.708	4870
920.818	4717
920.928	4714
921.038	4991
921.148	4892
921.258	4618
921.368	4584
921.477	4531
921.587	4440
921.697	4344
921.806	4531
921.916	4493
922.025	4272
922.134	4253
922.244	4280
922.353	4333
922.462	4204
922.571	4135
922.68	4002
922.789	3979
922.898	4048
923.007	3972
923.116	4109
923.224	4044
923.333	4082
923.442	3930
923.55	3941
923.659	4010
923.767	4101
923.876	3983
923.984	4120
924.092	3975
924.201	4078
924.309	4078
924.417	4147
924.525	4040
924.633	4071
924.741	5067
924.849	3915
924.956	4143
925.064	3994
925.172	3869
925.279	3937
925.387	4074
925.494	4071
925.602	4177
925.709	4185
925.816	4021
925.924	4112
926.031	4177
926.138	4147
926.245	4154
926.352	4128
926.459	4291
926.566	4303
926.673	4147
926.779	4051
926.886	4067
926.993	4036
927.099	3968
927.206	3949
927.312	3911
927.419	4010
927.525	3994
927.631	4074
927.737	3968
927.843	3926
927.95	3804
928.056	3987
928.162	3968
928.267	4029
928.373	4596
928.479	4101
928.585	3854
928.69	4017
928.796	4055
928.901	3991
929.007	3808
929.112	3991
929.218	3964
929.323	3964
929.428	3934
929.533	4067
929.638	3888
929.743	3972
929.848	4025
929.953	3994
930.058	3972
930.163	3770
930.267	3835
930.372	3987
930.477	3808
930.581	4135
930.685	3949
930.79	3819
930.894	3899
930.998	3838
931.103	4048
931.207	3701
931.311	3701
931.415	3656
931.519	3515
931.623	3576
