Data from test_V78500241_410.txt Node
Date: Fri Mar 25 16:51:51 CST 2022
User: usil
Spectrometer: V785-0024
Trigger mode: 0
Integration Time (sec): 4.000000E-1
Scans to average: 1
Nonlinearity correction enabled: false
Boxcar width: 0
Storing dark spectrum: false
XAxis mode: Wavelengths
Number of Pixels in Spectrum: 1024
>>>>>Begin Spectral Data<<<<<
801.071	7970
801.214	8077
801.356	7955
801.499	7909
801.641	7830
801.783	7868
801.926	7940
802.068	7974
802.211	7997
802.353	8043
802.496	7841
802.638	7917
802.78	7982
802.923	8001
803.065	7879
803.208	7909
803.35	7978
803.492	8065
803.635	8126
803.777	7986
803.919	8164
804.061	8438
804.204	8134
804.346	8046
804.488	7947
804.63	8077
804.773	7993
804.915	8058
805.057	8313
805.199	8176
805.341	8259
805.483	8282
805.626	8149
805.768	8039
805.91	8172
806.052	8206
806.194	8126
806.336	8301
806.478	8180
806.62	8058
806.762	8157
806.904	8240
807.046	8362
807.188	8408
807.33	8298
807.472	8301
807.614	8180
807.756	8134
807.898	8024
808.04	7951
808.182	8016
808.324	7978
808.465	7967
808.607	8062
808.749	8168
808.891	8290
809.033	8267
809.174	8172
809.316	8119
809.458	8016
809.6	7989
809.741	8050
809.883	8035
810.025	8077
810.166	8149
810.308	8062
810.45	7963
810.591	7852
810.733	7818
810.875	7719
811.016	7521
811.158	7453
811.299	7643
811.441	7833
811.582	7769
811.724	7609
811.865	7552
812.007	7700
812.148	7616
812.29	7548
812.431	7811
812.573	7928
812.714	8024
812.855	8134
812.997	8256
813.138	8351
813.279	8252
813.421	8164
813.562	8100
813.703	7894
813.845	7849
813.986	7419
814.127	7362
814.268	7282
814.41	7221
814.551	7255
814.692	7244
814.833	7065
814.974	7099
815.115	7061
815.256	6920
815.397	6935
815.539	6954
815.68	6829
815.821	6810
815.962	6939
816.103	6932
816.244	6783
816.385	6681
816.526	6658
816.666	6498
816.807	6270
816.948	6448
817.089	6445
817.23	6422
817.371	6414
817.512	6403
817.653	6433
817.793	6338
817.934	6395
818.075	6460
818.216	6464
818.356	6448
818.497	6254
818.638	6091
818.778	6209
818.919	6178
819.06	6155
819.2	6281
819.341	6319
819.481	6422
819.622	6559
819.762	6707
819.903	6768
820.043	6620
820.184	6585
820.324	6589
820.465	6681
820.605	6719
820.746	6631
820.886	6532
821.026	6677
821.167	6753
821.307	6856
821.447	6749
821.588	6681
821.728	6589
821.868	6448
822.008	6395
822.149	6391
822.289	6342
822.429	6171
822.569	6140
822.709	6117
822.849	5954
822.99	5912
823.13	5939
823.27	5897
823.41	5775
823.55	5813
823.69	5764
823.83	5821
823.97	5703
824.11	5592
824.25	5512
824.389	5589
824.529	5623
824.669	5585
824.809	5665
824.949	5737
825.089	5623
825.228	5528
825.368	5395
825.508	5379
825.648	5364
825.787	5379
825.927	5425
826.067	5318
826.206	5318
826.346	5429
826.485	5448
826.625	5398
826.765	5562
826.904	5520
827.044	5242
827.183	5208
827.323	5159
827.462	5265
827.601	5197
827.741	5208
827.88	5204
828.02	5098
828.159	5231
828.298	5277
828.437	5326
828.577	5296
828.716	5436
828.855	5345
828.994	5212
829.134	5159
829.273	5258
829.412	5151
829.551	5140
829.69	5246
829.829	5269
829.968	5402
830.107	5292
830.246	5284
830.385	5170
830.524	5185
830.663	5109
830.802	5014
830.941	4938
831.08	4839
831.219	4995
831.357	4965
831.496	5147
831.635	4870
831.774	4831
831.913	4908
832.051	4736
832.19	4782
832.329	4850
832.467	4755
832.606	4622
832.744	4702
832.883	4717
833.022	4706
833.16	4763
833.299	4839
833.437	4839
833.576	4816
833.714	4850
833.852	4881
833.991	4904
834.129	4949
834.267	4949
834.406	4877
834.544	4995
834.682	4995
834.821	5029
834.959	5128
835.097	4984
835.235	5124
835.373	5105
835.511	5109
835.65	5018
835.788	5037
835.926	4900
836.064	4877
836.202	4904
836.34	5216
836.478	5250
836.615	5143
836.753	5147
836.891	5261
837.029	5254
837.167	5189
837.305	5147
837.443	5128
837.58	5109
837.718	5242
837.856	5212
837.993	5162
838.131	5242
838.269	5239
838.406	5223
838.544	5242
838.681	5056
838.819	5033
838.956	4911
839.094	4889
839.231	4999
839.369	5086
839.506	5398
839.643	5265
839.781	5105
839.918	5060
840.055	5098
840.193	5143
840.33	5124
840.467	5124
840.604	5170
840.742	5429
840.879	5067
841.016	5113
841.153	5181
841.29	5391
841.427	5292
841.564	5379
841.701	5334
841.838	5273
841.975	5284
842.112	5273
842.249	5223
842.385	5075
842.522	5292
842.659	5201
842.796	5189
842.933	5124
843.069	5181
843.206	5075
843.343	5307
843.479	5265
843.616	5307
843.752	5041
843.889	5037
844.025	5246
844.162	5041
844.298	5261
844.435	5094
844.571	5064
844.708	5216
844.844	5337
844.98	5307
845.117	5246
845.253	5143
845.389	5105
845.525	5170
845.661	5121
845.798	5056
845.934	5121
846.07	5083
846.206	5193
846.342	5277
846.478	5189
846.614	5048
846.75	4957
846.886	4946
847.022	5166
847.158	5041
847.294	5006
847.429	5166
847.565	5064
847.701	5288
847.837	4896
847.972	4793
848.108	4892
848.244	4953
848.379	4839
848.515	4736
848.65	4752
848.786	4729
848.921	4797
849.057	4831
849.192	4915
849.328	4831
849.463	4850
849.598	4797
849.734	4782
849.869	4664
850.004	4626
850.14	4664
850.275	4592
850.41	4558
850.545	4577
850.68	4580
850.815	4622
850.95	4618
851.085	4824
851.22	4733
851.355	4679
851.49	4656
851.625	4656
851.76	4622
851.895	4565
852.03	4542
852.165	4645
852.299	4752
852.434	4809
852.569	4725
852.703	4752
852.838	4828
852.973	4949
853.107	4854
853.242	4717
853.376	4702
853.511	4538
853.645	4577
853.78	4793
853.914	4717
854.048	4653
854.183	4660
854.317	4691
854.451	4831
854.585	4664
854.72	4679
854.854	4767
854.988	4641
855.122	4672
855.256	4519
855.39	4660
855.524	4774
855.658	4740
855.792	4710
855.926	4702
856.06	4774
856.194	4797
856.327	4755
856.461	4618
856.595	4641
856.729	4683
856.862	4706
856.996	4683
857.13	4759
857.263	4763
857.397	4812
857.53	4668
857.664	4755
857.797	4774
857.931	4778
858.064	4771
858.197	4790
858.331	4641
858.464	4649
858.597	4535
858.731	4607
858.864	4675
858.997	4626
859.13	4653
859.263	4668
859.396	4691
859.529	4611
859.662	4596
859.795	4535
859.928	4637
860.061	4782
860.194	4782
860.327	4577
860.46	4546
860.592	4710
860.725	4729
860.858	4710
860.99	4588
861.123	4546
861.256	4516
861.388	4675
861.521	5425
861.653	4519
861.786	4428
861.918	4447
862.05	4523
862.183	4599
862.315	4649
862.447	4626
862.58	4565
862.712	4405
862.844	4360
862.976	4497
863.108	4504
863.24	4736
863.372	4344
863.504	4428
863.636	4375
863.768	4512
863.9	4462
864.032	4375
864.164	4409
864.296	4485
864.428	4588
864.559	4538
864.691	4546
864.823	4550
864.954	4470
865.086	4481
865.217	4489
865.349	4436
865.48	4500
865.612	4538
865.743	4634
865.875	4451
866.006	4421
866.137	4451
866.269	4417
866.4	4436
866.531	4462
866.662	4367
866.793	4440
866.924	4443
867.055	4508
867.186	4500
867.317	4451
867.448	4421
867.579	4394
867.71	4424
867.841	4394
867.972	4424
868.103	4478
868.233	4424
868.364	4451
868.495	4462
868.625	4653
868.756	4771
868.886	4577
869.017	4603
869.147	4748
869.278	4767
869.408	4675
869.539	4668
869.669	4736
869.799	4660
869.929	4790
870.06	4744
870.19	5010
870.32	4904
870.45	4957
870.58	4987
870.71	5143
870.84	5067
870.97	4972
871.1	4953
871.23	5155
871.36	5170
871.489	5041
871.619	5113
871.749	5109
871.879	5113
872.008	5227
872.138	5064
872.267	4957
872.397	4824
872.526	4831
872.656	4748
872.785	4843
872.915	4938
873.044	5052
873.173	4957
873.303	4938
873.432	4984
873.561	4961
873.69	4900
873.819	4873
873.948	4915
874.077	4835
874.206	4790
874.335	4801
874.464	4942
874.593	5064
874.722	4957
874.851	5140
874.979	5105
875.108	5037
875.237	4904
875.365	4892
875.494	4900
875.623	4980
875.751	4850
875.88	4923
876.008	4972
876.136	5037
876.265	5204
876.393	5311
876.521	5231
876.65	5227
876.778	5193
876.906	5060
877.034	5025
877.162	5014
877.29	4999
877.418	5067
877.546	5014
877.674	5048
877.802	5067
877.93	5014
878.058	4911
878.185	4885
878.313	4961
878.441	4930
878.568	4809
878.696	4892
878.824	4938
878.951	4965
879.079	5109
879.206	5284
879.333	5140
879.461	4942
879.588	5041
879.715	5117
879.842	5185
879.97	4991
880.097	4782
880.224	4767
880.351	4778
880.478	4843
880.605	4793
880.732	4812
880.859	5102
880.986	4942
881.112	4900
881.239	4778
881.366	4698
881.493	4599
881.619	4607
881.746	4626
881.872	4664
881.999	4691
882.125	4721
882.252	4782
882.378	4824
882.505	4942
882.631	4763
882.757	4714
882.883	4759
883.01	4774
883.136	4675
883.262	4630
883.388	4630
883.514	4805
883.64	4896
883.766	4778
883.892	4702
884.018	4733
884.143	4889
884.269	5010
884.395	4672
884.52	4596
884.646	4668
884.772	4554
884.897	4569
885.023	4615
885.148	4805
885.274	4873
885.399	4790
885.524	4748
885.65	4694
885.775	4793
885.9	4744
886.025	4908
886.15	4812
886.275	4710
886.4	4691
886.525	4698
886.65	4679
886.775	4717
886.9	4938
887.025	5124
887.149	4793
887.274	4656
887.399	4573
887.523	4592
887.648	4637
887.773	4550
887.897	4687
888.021	4778
888.146	4675
888.27	4820
888.395	4900
888.519	4801
888.643	4828
888.767	4835
888.891	4702
889.015	4588
889.139	4710
889.263	4626
889.387	4755
889.511	4831
889.635	4759
889.759	4668
889.883	4653
890.006	4691
890.13	4850
890.254	4584
890.377	4702
890.501	4531
890.624	4508
890.748	4641
890.871	4542
890.995	4466
891.118	4386
891.241	4573
891.364	4565
891.488	4580
891.611	4542
891.734	4523
891.857	4630
891.98	4565
892.103	4641
892.226	4615
892.349	4554
892.471	4367
892.594	4550
892.717	4637
892.839	4569
892.962	4599
893.085	4660
893.207	4630
893.33	4478
893.452	4554
893.575	4694
893.697	4584
893.819	4797
893.941	4835
894.064	4752
894.186	4615
894.308	4615
894.43	4767
894.552	4847
894.674	4748
894.796	4527
894.918	4649
895.04	4603
895.161	4710
895.283	4717
895.405	4634
895.526	4592
895.648	4664
895.769	4717
895.891	4668
896.012	4729
896.134	4698
896.255	4729
896.376	4637
896.498	4637
896.619	4672
896.74	4675
896.861	4637
896.982	4953
897.103	5067
897.224	4824
897.345	4733
897.466	4706
897.587	4694
897.708	4866
897.828	4767
897.949	4714
898.07	4584
898.19	4664
898.311	4809
898.431	4672
898.552	4752
898.672	4850
898.792	4858
898.913	4793
899.033	4626
899.153	4485
899.273	4447
899.393	4527
899.513	4508
899.633	4554
899.753	4588
899.873	4527
899.993	4561
900.113	4538
900.232	4573
900.352	4554
900.472	4481
900.591	4428
900.711	4497
900.83	4421
900.95	4626
901.069	4668
901.189	4546
901.308	4367
901.427	4306
901.546	4405
901.665	4474
901.784	4542
901.904	4394
902.023	4310
902.141	4192
902.26	4124
902.379	4318
902.498	4246
902.617	4261
902.735	4363
902.854	4352
902.973	4348
903.091	4230
903.21	4246
903.328	4329
903.446	4303
903.565	4207
903.683	4386
903.801	4291
903.919	4421
904.038	4424
904.156	4325
904.274	4440
904.392	4424
904.51	4436
904.627	4512
904.745	4531
904.863	4634
904.981	4428
905.098	4280
905.216	4405
905.334	4443
905.451	4405
905.569	4447
905.686	4535
905.803	4588
905.921	4417
906.038	4588
906.155	4470
906.272	4383
906.389	4455
906.506	4314
906.623	4363
906.74	4432
906.857	4287
906.974	4409
907.091	4580
907.208	4717
907.324	4611
907.441	4466
907.557	4352
907.674	4367
907.79	4344
907.907	4371
908.023	4470
908.139	4497
908.256	4447
908.372	4432
908.488	4409
908.604	4413
908.72	4356
908.836	4352
908.952	4379
909.068	4443
909.184	4554
909.3	4504
909.415	4588
909.531	4558
909.647	4375
909.762	4421
909.878	4337
909.993	4386
910.108	4413
910.224	4375
910.339	4462
910.454	4421
910.57	4409
910.685	4299
910.8	4649
910.915	4618
911.03	4493
911.145	4367
911.259	4367
911.374	4375
911.489	4325
911.604	4280
911.718	4204
911.833	4192
911.947	4139
912.062	4006
912.176	4219
912.291	4238
912.405	4238
912.519	4459
912.633	4485
912.748	4386
912.862	4337
912.976	4211
913.09	4128
913.204	4166
913.318	4227
913.431	4375
913.545	4367
913.659	4466
913.772	4333
913.886	4219
914	4204
914.113	4394
914.226	4447
914.34	4405
914.453	4249
914.566	4478
914.68	4287
914.793	4337
914.906	4177
915.019	4128
915.132	4078
915.245	4173
915.358	4215
915.47	4207
915.583	4234
915.696	4344
915.809	4352
915.921	4451
916.034	4257
916.146	4253
916.259	4287
916.371	4390
916.483	4360
916.595	4249
916.708	4310
916.82	4295
916.932	4322
917.044	4352
917.156	4348
917.268	4268
917.38	4276
917.491	4253
917.603	4322
917.715	4413
917.826	4436
917.938	4360
918.049	4268
918.161	4371
918.272	4535
918.384	4531
918.495	4451
918.606	4253
918.717	4249
918.828	4352
918.939	4375
919.05	4265
919.161	4310
919.272	4154
919.383	4238
919.494	4413
919.604	4634
919.715	4428
919.826	4322
919.936	4379
920.047	4538
920.157	4519
920.267	4714
920.378	4569
920.488	4485
920.598	4649
920.708	4919
920.818	4729
920.928	4809
921.038	4957
921.148	4946
921.258	4660
921.368	4538
921.477	4527
921.587	4451
921.697	4379
921.806	4573
921.916	4459
922.025	4287
922.134	4310
922.244	4223
922.353	4314
922.462	4185
922.571	4177
922.68	4036
922.789	3968
922.898	4017
923.007	3960
923.116	4090
923.224	4090
923.333	4059
923.442	3979
923.55	3983
923.659	4101
923.767	4086
923.876	4017
923.984	4109
924.092	3994
924.201	4051
924.309	4032
924.417	4131
924.525	4082
924.633	4097
924.741	4968
924.849	3903
924.956	4147
925.064	3956
925.172	3915
925.279	3964
925.387	3994
925.494	4063
925.602	4200
925.709	4204
925.816	4002
925.924	4147
926.031	4185
926.138	4204
926.245	4268
926.352	4074
926.459	4280
926.566	4383
926.673	4139
926.779	4120
926.886	4067
926.993	3934
927.099	3934
927.206	3937
927.312	3949
927.419	4025
927.525	4017
927.631	4090
927.737	3998
927.843	3918
927.95	3857
928.056	3937
928.162	4002
928.267	4059
928.373	4725
928.479	4139
928.585	3888
928.69	3975
928.796	4059
928.901	3979
929.007	3842
929.112	4029
929.218	3998
929.323	3926
929.428	3918
929.533	4139
929.638	3911
929.743	3979
929.848	4055
929.953	3979
930.058	3915
930.163	3751
930.267	3800
930.372	3956
930.477	3812
930.581	4112
930.685	3915
930.79	3793
930.894	3892
930.998	3865
931.103	4051
931.207	3766
931.311	3713
931.415	3663
931.519	3534
931.623	3568
