Data from test_V78500241_2749.txt Node
Date: Fri Mar 25 17:08:07 CST 2022
User: usil
Spectrometer: V785-0024
Trigger mode: 0
Integration Time (sec): 4.000000E-1
Scans to average: 1
Nonlinearity correction enabled: false
Boxcar width: 0
Storing dark spectrum: false
XAxis mode: Wavelengths
Number of Pixels in Spectrum: 1024
>>>>>Begin Spectral Data<<<<<
801.071	7986
801.214	7997
801.356	7974
801.499	7913
801.641	7875
801.783	7841
801.926	8031
802.068	7951
802.211	8012
802.353	8005
802.496	7856
802.638	7875
802.78	7921
802.923	7921
803.065	7909
803.208	7830
803.35	7951
803.492	8088
803.635	8202
803.777	8065
803.919	8123
804.061	8427
804.204	8145
804.346	8096
804.488	8005
804.63	8069
804.773	8062
804.915	8126
805.057	8290
805.199	8134
805.341	8126
805.483	8294
805.626	8187
805.768	8096
805.91	8229
806.052	8218
806.194	8145
806.336	8256
806.478	8153
806.62	8088
806.762	8084
806.904	8221
807.046	8457
807.188	8358
807.33	8343
807.472	8286
807.614	8161
807.756	8183
807.898	8005
808.04	7879
808.182	7879
808.324	7959
808.465	7955
808.607	8115
808.749	8199
808.891	8298
809.033	8358
809.174	8229
809.316	8084
809.458	8050
809.6	7989
809.741	8058
809.883	8024
810.025	8115
810.166	8081
810.308	7989
810.45	7970
810.591	7898
810.733	7769
810.875	7693
811.016	7548
811.158	7521
811.299	7575
811.441	7780
811.582	7746
811.724	7643
811.865	7514
812.007	7594
812.148	7567
812.29	7616
812.431	7750
812.573	7875
812.714	8054
812.855	8134
812.997	8271
813.138	8244
813.279	8229
813.421	8084
813.562	8069
813.703	7936
813.845	7803
813.986	7518
814.127	7289
814.268	7198
814.41	7247
814.551	7149
814.692	7168
814.833	7027
814.974	7110
815.115	7114
815.256	6977
815.397	6951
815.539	6970
815.68	6814
815.821	6802
815.962	6833
816.103	6894
816.244	6757
816.385	6585
816.526	6578
816.666	6555
816.807	6372
816.948	6479
817.089	6494
817.23	6422
817.371	6350
817.512	6380
817.653	6426
817.793	6372
817.934	6429
818.075	6452
818.216	6422
818.356	6357
818.497	6251
818.638	6133
818.778	6190
818.919	6201
819.06	6136
819.2	6376
819.341	6300
819.481	6410
819.622	6498
819.762	6623
819.903	6722
820.043	6597
820.184	6627
820.324	6616
820.465	6623
820.605	6673
820.746	6662
820.886	6559
821.026	6658
821.167	6692
821.307	6772
821.447	6776
821.588	6623
821.728	6536
821.868	6498
822.008	6281
822.149	6418
822.289	6327
822.429	6110
822.569	6110
822.709	6114
822.849	5912
822.99	5855
823.13	5961
823.27	5969
823.41	5802
823.55	5805
823.69	5813
823.83	5794
823.97	5623
824.11	5589
824.25	5524
824.389	5577
824.529	5577
824.669	5551
824.809	5604
824.949	5657
825.089	5642
825.228	5532
825.368	5406
825.508	5391
825.648	5387
825.787	5357
825.927	5360
826.067	5345
826.206	5269
826.346	5395
826.485	5376
826.625	5440
826.765	5562
826.904	5512
827.044	5299
827.183	5235
827.323	5151
827.462	5322
827.601	5155
827.741	5178
827.88	5170
828.02	5193
828.159	5246
828.298	5330
828.437	5364
828.577	5315
828.716	5543
828.855	5349
828.994	5201
829.134	5201
829.273	5242
829.412	5242
829.551	5140
829.69	5231
829.829	5273
829.968	5421
830.107	5303
830.246	5322
830.385	5189
830.524	5193
830.663	5124
830.802	4999
830.941	4911
831.08	4889
831.219	5064
831.357	5060
831.496	5220
831.635	4946
831.774	4870
831.913	4889
832.051	4805
832.19	4809
832.329	4892
832.467	4771
832.606	4691
832.744	4759
832.883	4771
833.022	4752
833.16	4805
833.299	4831
833.437	4866
833.576	4858
833.714	4892
833.852	4896
833.991	4908
834.129	4972
834.267	4976
834.406	4961
834.544	5022
834.682	5033
834.821	4968
834.959	5201
835.097	5025
835.235	5166
835.373	5105
835.511	5109
835.65	5128
835.788	5079
835.926	4946
836.064	4900
836.202	4923
836.34	5147
836.478	5288
836.615	5185
836.753	5269
836.891	5341
837.029	5299
837.167	5246
837.305	5170
837.443	5151
837.58	5098
837.718	5284
837.856	5296
837.993	5132
838.131	5269
838.269	5288
838.406	5277
838.544	5189
838.681	5083
838.819	5022
838.956	4934
839.094	4919
839.231	5010
839.369	5128
839.506	5474
839.643	5318
839.781	5159
839.918	5064
840.055	5121
840.193	5155
840.33	5147
840.467	5220
840.604	5181
840.742	5459
840.879	5128
841.016	5159
841.153	5201
841.29	5391
841.427	5341
841.564	5349
841.701	5402
841.838	5296
841.975	5280
842.112	5311
842.249	5185
842.385	5151
842.522	5357
842.659	5185
842.796	5201
842.933	5231
843.069	5227
843.206	5197
843.343	5318
843.479	5303
843.616	5322
843.752	5037
843.889	4984
844.025	5201
844.162	5037
844.298	5246
844.435	5121
844.571	5109
844.708	5269
844.844	5303
844.98	5406
845.117	5421
845.253	5212
845.389	5105
845.525	5178
845.661	5201
845.798	5025
845.934	5178
846.07	5071
846.206	5204
846.342	5322
846.478	5216
846.614	5075
846.75	4991
846.886	5014
847.022	5185
847.158	5056
847.294	5105
847.429	5151
847.565	5094
847.701	5334
847.837	4850
847.972	4850
848.108	5003
848.244	4949
848.379	4805
848.515	4774
848.65	4790
848.786	4824
848.921	4839
849.057	4889
849.192	4946
849.328	4824
849.463	4877
849.598	4828
849.734	4759
849.869	4740
850.004	4664
850.14	4714
850.275	4687
850.41	4580
850.545	4611
850.68	4630
850.815	4637
850.95	4694
851.085	4816
851.22	4774
851.355	4721
851.49	4668
851.625	4660
851.76	4607
851.895	4558
852.03	4588
852.165	4687
852.299	4729
852.434	4812
852.569	4763
852.703	4809
852.838	4858
852.973	4972
853.107	4908
853.242	4755
853.376	4717
853.511	4588
853.645	4641
853.78	4847
853.914	4725
854.048	4694
854.183	4660
854.317	4706
854.451	4854
854.585	4660
854.72	4672
854.854	4797
854.988	4634
855.122	4645
855.256	4542
855.39	4706
855.524	4774
855.658	4767
855.792	4714
855.926	4740
856.06	4809
856.194	4824
856.327	4714
856.461	4622
856.595	4630
856.729	4622
856.862	4793
856.996	4694
857.13	4763
857.263	4767
857.397	4824
857.53	4687
857.664	4774
857.797	4778
857.931	4862
858.064	4710
858.197	4774
858.331	4687
858.464	4634
858.597	4516
858.731	4645
858.864	4626
858.997	4679
859.13	4702
859.263	4660
859.396	4714
859.529	4611
859.662	4577
859.795	4561
859.928	4660
860.061	4824
860.194	4763
860.327	4653
860.46	4607
860.592	4736
860.725	4736
860.858	4797
860.99	4573
861.123	4558
861.256	4542
861.388	4626
861.521	5341
861.653	4470
861.786	4474
861.918	4550
862.05	4531
862.183	4550
862.315	4626
862.447	4679
862.58	4615
862.712	4440
862.844	4367
862.976	4485
863.108	4489
863.24	4771
863.372	4344
863.504	4481
863.636	4436
863.768	4531
863.9	4474
864.032	4375
864.164	4451
864.296	4516
864.428	4565
864.559	4592
864.691	4546
864.823	4542
864.954	4538
865.086	4523
865.217	4447
865.349	4512
865.48	4485
865.612	4527
865.743	4615
865.875	4478
866.006	4478
866.137	4523
866.269	4466
866.4	4481
866.531	4489
866.662	4443
866.793	4478
866.924	4394
867.055	4519
867.186	4459
867.317	4443
867.448	4409
867.579	4417
867.71	4424
867.841	4417
867.972	4470
868.103	4462
868.233	4516
868.364	4451
868.495	4523
868.625	4683
868.756	4820
868.886	4573
869.017	4592
869.147	4809
869.278	4801
869.408	4664
869.539	4618
869.669	4740
869.799	4710
869.929	4805
870.06	4755
870.19	4953
870.32	4923
870.45	4980
870.58	5029
870.71	5045
870.84	5113
870.97	4976
871.1	4946
871.23	5155
871.36	5170
871.489	5083
871.619	5098
871.749	5113
871.879	5147
872.008	5208
872.138	5102
872.267	4995
872.397	4866
872.526	4839
872.656	4706
872.785	4763
872.915	4984
873.044	5071
873.173	4965
873.303	5010
873.432	4968
873.561	4980
873.69	4892
873.819	4934
873.948	4957
874.077	4839
874.206	4786
874.335	4820
874.464	4965
874.593	5102
874.722	4980
874.851	5113
874.979	5086
875.108	5025
875.237	4930
875.365	4915
875.494	4896
875.623	4968
875.751	4881
875.88	4911
876.008	5022
876.136	5056
876.265	5178
876.393	5383
876.521	5239
876.65	5212
876.778	5128
876.906	5090
877.034	5079
877.162	5060
877.29	5037
877.418	5079
877.546	5033
877.674	5071
877.802	5109
877.93	5075
878.058	4938
878.185	4885
878.313	4972
878.441	4987
878.568	4877
878.696	4820
878.824	4984
878.951	5006
879.079	5181
879.206	5337
879.333	5128
879.461	4999
879.588	5010
879.715	5174
879.842	5212
879.97	5079
880.097	4782
880.224	4736
880.351	4854
880.478	4824
880.605	4816
880.732	4786
880.859	5075
880.986	4885
881.112	4934
881.239	4778
881.366	4675
881.493	4618
881.619	4573
881.746	4645
881.872	4656
881.999	4691
882.125	4710
882.252	4782
882.378	4835
882.505	4999
882.631	4809
882.757	4679
882.883	4717
883.01	4706
883.136	4687
883.262	4637
883.388	4596
883.514	4786
883.64	4904
883.766	4828
883.892	4725
884.018	4748
884.143	4915
884.269	5033
884.395	4683
884.52	4618
884.646	4691
884.772	4656
884.897	4607
885.023	4694
885.148	4820
885.274	4896
885.399	4843
885.524	4782
885.65	4687
885.775	4771
885.9	4771
886.025	4896
886.15	4816
886.275	4706
886.4	4694
886.525	4733
886.65	4675
886.775	4710
886.9	4934
887.025	5045
887.149	4873
887.274	4637
887.399	4649
887.523	4611
887.648	4573
887.773	4615
887.897	4782
888.021	4797
888.146	4672
888.27	4793
888.395	4911
888.519	4835
888.643	4835
888.767	4866
888.891	4668
889.015	4611
889.139	4694
889.263	4630
889.387	4790
889.511	4934
889.635	4809
889.759	4649
889.883	4698
890.006	4733
890.13	4843
890.254	4641
890.377	4691
890.501	4573
890.624	4523
890.748	4626
890.871	4546
890.995	4375
891.118	4424
891.241	4550
891.364	4554
891.488	4645
891.611	4523
891.734	4592
891.857	4618
891.98	4584
892.103	4649
892.226	4634
892.349	4519
892.471	4424
892.594	4554
892.717	4618
892.839	4569
892.962	4622
893.085	4668
893.207	4641
893.33	4508
893.452	4523
893.575	4626
893.697	4649
893.819	4828
893.941	4820
894.064	4805
894.186	4588
894.308	4577
894.43	4752
894.552	4847
894.674	4729
894.796	4577
894.918	4554
895.04	4584
895.161	4721
895.283	4694
895.405	4577
895.526	4668
895.648	4698
895.769	4637
895.891	4675
896.012	4744
896.134	4714
896.255	4683
896.376	4672
896.498	4618
896.619	4740
896.74	4603
896.861	4634
896.982	4961
897.103	5094
897.224	4870
897.345	4797
897.466	4653
897.587	4744
897.708	4866
897.828	4767
897.949	4683
898.07	4596
898.19	4645
898.311	4847
898.431	4694
898.552	4752
898.672	4797
898.792	4805
898.913	4721
899.033	4626
899.153	4478
899.273	4451
899.393	4481
899.513	4554
899.633	4588
899.753	4527
899.873	4474
899.993	4599
900.113	4500
900.232	4622
900.352	4523
900.472	4489
900.591	4432
900.711	4493
900.83	4516
900.95	4603
901.069	4710
901.189	4558
901.308	4363
901.427	4314
901.546	4383
901.665	4489
901.784	4538
901.904	4394
902.023	4333
902.141	4230
902.26	4223
902.379	4329
902.498	4249
902.617	4230
902.735	4436
902.854	4413
902.973	4394
903.091	4246
903.21	4207
903.328	4352
903.446	4280
903.565	4261
903.683	4356
903.801	4280
903.919	4417
904.038	4402
904.156	4329
904.274	4447
904.392	4356
904.51	4413
904.627	4485
904.745	4588
904.863	4637
904.981	4421
905.098	4314
905.216	4379
905.334	4432
905.451	4474
905.569	4440
905.686	4565
905.803	4599
905.921	4428
906.038	4558
906.155	4535
906.272	4383
906.389	4504
906.506	4379
906.623	4386
906.74	4398
906.857	4325
906.974	4409
907.091	4550
907.208	4710
907.324	4546
907.441	4546
907.557	4329
907.674	4356
907.79	4363
907.907	4371
908.023	4478
908.139	4504
908.256	4432
908.372	4455
908.488	4424
908.604	4379
908.72	4295
908.836	4417
908.952	4352
909.068	4417
909.184	4592
909.3	4500
909.415	4607
909.531	4580
909.647	4341
909.762	4390
909.878	4386
909.993	4424
910.108	4386
910.224	4379
910.339	4432
910.454	4413
910.57	4379
910.685	4295
910.8	4710
910.915	4573
911.03	4512
911.145	4344
911.259	4325
911.374	4390
911.489	4352
911.604	4280
911.718	4166
911.833	4181
911.947	4097
912.062	4029
912.176	4223
912.291	4246
912.405	4272
912.519	4485
912.633	4512
912.748	4379
912.862	4341
912.976	4230
913.09	4105
913.204	4219
913.318	4265
913.431	4394
913.545	4344
913.659	4428
913.772	4371
913.886	4276
914	4234
914.113	4417
914.226	4421
914.34	4379
914.453	4230
914.566	4417
914.68	4272
914.793	4356
914.906	4177
915.019	4139
915.132	4086
915.245	4200
915.358	4238
915.47	4200
915.583	4246
915.696	4310
915.809	4421
915.921	4436
916.034	4211
916.146	4242
916.259	4188
916.371	4383
916.483	4386
916.595	4276
916.708	4318
916.82	4337
916.932	4325
917.044	4325
917.156	4337
917.268	4238
917.38	4291
917.491	4287
917.603	4348
917.715	4367
917.826	4485
917.938	4333
918.049	4265
918.161	4424
918.272	4569
918.384	4531
918.495	4493
918.606	4329
918.717	4238
918.828	4329
918.939	4443
919.05	4253
919.161	4344
919.272	4154
919.383	4215
919.494	4474
919.604	4634
919.715	4428
919.826	4341
919.936	4398
920.047	4535
920.157	4474
920.267	4721
920.378	4569
920.488	4516
920.598	4717
920.708	4919
920.818	4763
920.928	4793
921.038	4976
921.148	4911
921.258	4618
921.368	4584
921.477	4504
921.587	4474
921.697	4402
921.806	4565
921.916	4447
922.025	4291
922.134	4219
922.244	4230
922.353	4329
922.462	4207
922.571	4150
922.68	4021
922.789	4002
922.898	4029
923.007	4090
923.116	4074
923.224	4051
923.333	4086
923.442	4044
923.55	3979
923.659	3994
923.767	4086
923.876	4021
923.984	4112
924.092	3994
924.201	4055
924.309	4044
924.417	4124
924.525	4078
924.633	4097
924.741	4873
924.849	3945
924.956	4109
925.064	3915
925.172	3911
925.279	3998
925.387	4017
925.494	4025
925.602	4230
925.709	4196
925.816	4063
925.924	4112
926.031	4215
926.138	4139
926.245	4230
926.352	4101
926.459	4265
926.566	4310
926.673	4166
926.779	4097
926.886	4086
926.993	3991
927.099	3945
927.206	3960
927.312	3956
927.419	4097
927.525	4036
927.631	4059
927.737	3934
927.843	3979
927.95	3835
928.056	4006
928.162	3953
928.267	4067
928.373	4694
928.479	4120
928.585	3911
928.69	3991
928.796	4055
928.901	3975
929.007	3846
929.112	4006
929.218	3972
929.323	3972
929.428	3953
929.533	4169
929.638	3945
929.743	3987
929.848	4036
929.953	4002
930.058	4002
930.163	3835
930.267	3800
930.372	3991
930.477	3816
930.581	4074
930.685	3964
930.79	3831
930.894	3873
930.998	3899
931.103	3983
931.207	3724
931.311	3720
931.415	3648
931.519	3523
931.623	3549
