Data from test_V78500241_815.txt Node
Date: Fri Mar 25 16:54:40 CST 2022
User: usil
Spectrometer: V785-0024
Trigger mode: 0
Integration Time (sec): 4.000000E-1
Scans to average: 1
Nonlinearity correction enabled: false
Boxcar width: 0
Storing dark spectrum: false
XAxis mode: Wavelengths
Number of Pixels in Spectrum: 1024
>>>>>Begin Spectral Data<<<<<
801.071	8012
801.214	8024
801.356	7909
801.499	7879
801.641	7738
801.783	7841
801.926	7993
802.068	7879
802.211	7997
802.353	7986
802.496	7921
802.638	7932
802.78	7879
802.923	7913
803.065	7830
803.208	7917
803.35	7986
803.492	8088
803.635	8229
803.777	8005
803.919	8088
804.061	8461
804.204	8065
804.346	8058
804.488	7944
804.63	8134
804.773	7974
804.915	8062
805.057	8286
805.199	8138
805.341	8206
805.483	8240
805.626	8229
805.768	8123
805.91	8210
806.052	8263
806.194	8046
806.336	8271
806.478	8046
806.62	8031
806.762	8100
806.904	8183
807.046	8457
807.188	8370
807.33	8313
807.472	8336
807.614	8168
807.756	8073
807.898	7951
808.04	7852
808.182	7830
808.324	7974
808.465	7879
808.607	8005
808.749	8126
808.891	8180
809.033	8305
809.174	8240
809.316	8058
809.458	8073
809.6	7986
809.741	7974
809.883	8100
810.025	8115
810.166	8103
810.308	8039
810.45	8020
810.591	7826
810.733	7772
810.875	7651
811.016	7514
811.158	7430
811.299	7567
811.441	7731
811.582	7674
811.724	7514
811.865	7540
812.007	7628
812.148	7605
812.29	7567
812.431	7655
812.573	7792
812.714	7947
812.855	8062
812.997	8153
813.138	8233
813.279	8161
813.421	8107
813.562	7978
813.703	7772
813.845	7788
813.986	7514
814.127	7266
814.268	7266
814.41	7198
814.551	7129
814.692	7107
814.833	7023
814.974	7088
815.115	7088
815.256	6951
815.397	6916
815.539	6977
815.68	6829
815.821	6833
815.962	6818
816.103	6764
816.244	6741
816.385	6563
816.526	6585
816.666	6464
816.807	6277
816.948	6445
817.089	6471
817.23	6429
817.371	6342
817.512	6410
817.653	6376
817.793	6391
817.934	6403
818.075	6429
818.216	6388
818.356	6422
818.497	6182
818.638	6121
818.778	6121
818.919	6129
819.06	6114
819.2	6292
819.341	6311
819.481	6346
819.622	6528
819.762	6745
819.903	6696
820.043	6551
820.184	6589
820.324	6578
820.465	6658
820.605	6669
820.746	6589
820.886	6521
821.026	6700
821.167	6662
821.307	6764
821.447	6757
821.588	6601
821.728	6544
821.868	6471
822.008	6327
822.149	6292
822.289	6372
822.429	6125
822.569	6030
822.709	6083
822.849	5935
822.99	5897
823.13	5908
823.27	5927
823.41	5760
823.55	5764
823.69	5748
823.83	5752
823.97	5630
824.11	5505
824.25	5512
824.389	5524
824.529	5558
824.669	5448
824.809	5611
824.949	5703
825.089	5558
825.228	5562
825.368	5368
825.508	5311
825.648	5315
825.787	5387
825.927	5330
826.067	5303
826.206	5311
826.346	5395
826.485	5383
826.625	5433
826.765	5566
826.904	5448
827.044	5269
827.183	5185
827.323	5136
827.462	5261
827.601	5140
827.741	5204
827.88	5231
828.02	5136
828.159	5201
828.298	5269
828.437	5417
828.577	5288
828.716	5482
828.855	5296
828.994	5170
829.134	5189
829.273	5261
829.412	5109
829.551	5166
829.69	5181
829.829	5185
829.968	5372
830.107	5292
830.246	5250
830.385	5117
830.524	5201
830.663	5045
830.802	4923
830.941	4911
831.08	4900
831.219	4957
831.357	4923
831.496	5121
831.635	4934
831.774	4862
831.913	4839
832.051	4645
832.19	4774
832.329	4812
832.467	4694
832.606	4615
832.744	4729
832.883	4714
833.022	4710
833.16	4748
833.299	4828
833.437	4782
833.576	4805
833.714	4892
833.852	4877
833.991	4858
834.129	4972
834.267	4976
834.406	4889
834.544	4976
834.682	4957
834.821	4915
834.959	5155
835.097	4987
835.235	5185
835.373	5117
835.511	5041
835.65	5025
835.788	5052
835.926	4854
836.064	4866
836.202	4843
836.34	5147
836.478	5197
836.615	5109
836.753	5223
836.891	5284
837.029	5227
837.167	5216
837.305	5159
837.443	5143
837.58	5117
837.718	5227
837.856	5178
837.993	5140
838.131	5178
838.269	5239
838.406	5201
838.544	5185
838.681	5041
838.819	5010
838.956	4873
839.094	4930
839.231	4987
839.369	5102
839.506	5410
839.643	5288
839.781	5079
839.918	4972
840.055	5143
840.193	5124
840.33	5094
840.467	5140
840.604	5223
840.742	5395
840.879	5098
841.016	5041
841.153	5159
841.29	5345
841.427	5364
841.564	5349
841.701	5372
841.838	5284
841.975	5269
842.112	5277
842.249	5155
842.385	5090
842.522	5299
842.659	5178
842.796	5159
842.933	5189
843.069	5197
843.206	5162
843.343	5315
843.479	5231
843.616	5220
843.752	5029
843.889	4984
844.025	5151
844.162	5010
844.298	5208
844.435	5060
844.571	5060
844.708	5181
844.844	5273
844.98	5337
845.117	5227
845.253	5143
845.389	5056
845.525	5121
845.661	5155
845.798	5052
845.934	5098
846.07	5048
846.206	5204
846.342	5227
846.478	5170
846.614	5041
846.75	4927
846.886	4919
847.022	5136
847.158	5006
847.294	5064
847.429	5067
847.565	5094
847.701	5322
847.837	4812
847.972	4828
848.108	4923
848.244	4923
848.379	4782
848.515	4748
848.65	4736
848.786	4733
848.921	4733
849.057	4885
849.192	4900
849.328	4812
849.463	4862
849.598	4736
849.734	4702
849.869	4706
850.004	4592
850.14	4649
850.275	4611
850.41	4596
850.545	4577
850.68	4637
850.815	4634
850.95	4630
851.085	4824
851.22	4698
851.355	4641
851.49	4615
851.625	4626
851.76	4565
851.895	4538
852.03	4523
852.165	4637
852.299	4683
852.434	4755
852.569	4721
852.703	4763
852.838	4835
852.973	4923
853.107	4908
853.242	4729
853.376	4675
853.511	4554
853.645	4637
853.78	4793
853.914	4660
854.048	4660
854.183	4668
854.317	4710
854.451	4801
854.585	4698
854.72	4550
854.854	4744
854.988	4546
855.122	4618
855.256	4569
855.39	4660
855.524	4767
855.658	4729
855.792	4691
855.926	4717
856.06	4733
856.194	4767
856.327	4717
856.461	4603
856.595	4611
856.729	4622
856.862	4729
856.996	4653
857.13	4714
857.263	4774
857.397	4755
857.53	4630
857.664	4687
857.797	4793
857.931	4729
858.064	4714
858.197	4710
858.331	4637
858.464	4592
858.597	4542
858.731	4649
858.864	4607
858.997	4554
859.13	4630
859.263	4645
859.396	4691
859.529	4580
859.662	4542
859.795	4485
859.928	4649
860.061	4714
860.194	4725
860.327	4630
860.46	4527
860.592	4687
860.725	4694
860.858	4774
860.99	4592
861.123	4493
861.256	4527
861.388	4611
861.521	5246
861.653	4440
861.786	4402
861.918	4493
862.05	4523
862.183	4565
862.315	4554
862.447	4641
862.58	4546
862.712	4363
862.844	4314
862.976	4447
863.108	4459
863.24	4881
863.372	4318
863.504	4413
863.636	4417
863.768	4459
863.9	4451
864.032	4352
864.164	4352
864.296	4432
864.428	4550
864.559	4554
864.691	4481
864.823	4489
864.954	4508
865.086	4512
865.217	4413
865.349	4405
865.48	4455
865.612	4459
865.743	4611
865.875	4455
866.006	4409
866.137	4443
866.269	4519
866.4	4417
866.531	4405
866.662	4363
866.793	4360
866.924	4386
867.055	4485
867.186	4405
867.317	4405
867.448	4394
867.579	4383
867.71	4421
867.841	4325
867.972	4455
868.103	4428
868.233	4466
868.364	4428
868.495	4447
868.625	4653
868.756	4710
868.886	4508
869.017	4607
869.147	4721
869.278	4736
869.408	4653
869.539	4626
869.669	4675
869.799	4675
869.929	4752
870.06	4771
870.19	4900
870.32	4930
870.45	4870
870.58	4972
870.71	5086
870.84	5090
870.97	4961
871.1	4911
871.23	5128
871.36	5048
871.489	5041
871.619	5079
871.749	5075
871.879	5140
872.008	5185
872.138	5041
872.267	4984
872.397	4843
872.526	4778
872.656	4733
872.785	4816
872.915	4995
873.044	5037
873.173	4889
873.303	4908
873.432	4942
873.561	4862
873.69	4892
873.819	4866
873.948	4900
874.077	4809
874.206	4790
874.335	4809
874.464	4892
874.593	5041
874.722	4930
874.851	5075
874.979	4984
875.108	5025
875.237	4915
875.365	4892
875.494	4820
875.623	4930
875.751	4824
875.88	4862
876.008	4934
876.136	4995
876.265	5178
876.393	5307
876.521	5265
876.65	5299
876.778	5197
876.906	5102
877.034	4972
877.162	5064
877.29	5014
877.418	4995
877.546	5029
877.674	5022
877.802	5006
877.93	5010
878.058	4972
878.185	4847
878.313	4923
878.441	5010
878.568	4793
878.696	4862
878.824	4953
878.951	4957
879.079	5105
879.206	5208
879.333	5045
879.461	4980
879.588	5025
879.715	5071
879.842	5212
879.97	4965
880.097	4755
880.224	4740
880.351	4767
880.478	4816
880.605	4786
880.732	4755
880.859	5086
880.986	4843
881.112	4881
881.239	4759
881.366	4664
881.493	4561
881.619	4573
881.746	4603
881.872	4664
881.999	4603
882.125	4714
882.252	4744
882.378	4786
882.505	4942
882.631	4786
882.757	4656
882.883	4698
883.01	4740
883.136	4664
883.262	4603
883.388	4565
883.514	4824
883.64	4866
883.766	4733
883.892	4694
884.018	4759
884.143	4850
884.269	4984
884.395	4694
884.52	4611
884.646	4618
884.772	4554
884.897	4519
885.023	4607
885.148	4805
885.274	4850
885.399	4767
885.524	4675
885.65	4698
885.775	4759
885.9	4702
886.025	4843
886.15	4797
886.275	4717
886.4	4683
886.525	4725
886.65	4622
886.775	4721
886.9	4949
887.025	5041
887.149	4797
887.274	4664
887.399	4596
887.523	4626
887.648	4622
887.773	4592
887.897	4767
888.021	4782
888.146	4664
888.27	4809
888.395	4850
888.519	4824
888.643	4782
888.767	4812
888.891	4656
889.015	4618
889.139	4626
889.263	4573
889.387	4740
889.511	4831
889.635	4793
889.759	4580
889.883	4683
890.006	4740
890.13	4843
890.254	4599
890.377	4653
890.501	4497
890.624	4478
890.748	4683
890.871	4500
890.995	4470
891.118	4363
891.241	4485
891.364	4565
891.488	4596
891.611	4489
891.734	4497
891.857	4592
891.98	4535
892.103	4626
892.226	4561
892.349	4584
892.471	4417
892.594	4542
892.717	4607
892.839	4546
892.962	4558
893.085	4622
893.207	4603
893.33	4462
893.452	4497
893.575	4679
893.697	4561
893.819	4812
893.941	4782
894.064	4733
894.186	4577
894.308	4527
894.43	4687
894.552	4828
894.674	4740
894.796	4542
894.918	4561
895.04	4561
895.161	4694
895.283	4668
895.405	4558
895.526	4596
895.648	4668
895.769	4641
895.891	4694
896.012	4706
896.134	4725
896.255	4691
896.376	4664
896.498	4592
896.619	4653
896.74	4592
896.861	4660
896.982	4896
897.103	5064
897.224	4828
897.345	4771
897.466	4637
897.587	4729
897.708	4850
897.828	4771
897.949	4672
898.07	4565
898.19	4615
898.311	4793
898.431	4691
898.552	4698
898.672	4835
898.792	4786
898.913	4725
899.033	4634
899.153	4512
899.273	4443
899.393	4527
899.513	4573
899.633	4508
899.753	4504
899.873	4508
899.993	4531
900.113	4497
900.232	4580
900.352	4478
900.472	4504
900.591	4383
900.711	4527
900.83	4409
900.95	4561
901.069	4687
901.189	4565
901.308	4352
901.427	4284
901.546	4348
901.665	4504
901.784	4516
901.904	4375
902.023	4299
902.141	4207
902.26	4200
902.379	4299
902.498	4265
902.617	4188
902.735	4386
902.854	4356
902.973	4413
903.091	4177
903.21	4253
903.328	4227
903.446	4284
903.565	4211
903.683	4360
903.801	4261
903.919	4417
904.038	4405
904.156	4318
904.274	4440
904.392	4371
904.51	4424
904.627	4451
904.745	4516
904.863	4618
904.981	4375
905.098	4318
905.216	4379
905.334	4405
905.451	4383
905.569	4398
905.686	4527
905.803	4531
905.921	4413
906.038	4554
906.155	4447
906.272	4394
906.389	4455
906.506	4360
906.623	4314
906.74	4390
906.857	4299
906.974	4341
907.091	4569
907.208	4691
907.324	4584
907.441	4466
907.557	4379
907.674	4333
907.79	4348
907.907	4405
908.023	4459
908.139	4478
908.256	4402
908.372	4481
908.488	4443
908.604	4367
908.72	4344
908.836	4371
908.952	4363
909.068	4405
909.184	4531
909.3	4516
909.415	4573
909.531	4573
909.647	4356
909.762	4379
909.878	4341
909.993	4466
910.108	4409
910.224	4386
910.339	4493
910.454	4394
910.57	4333
910.685	4306
910.8	4664
910.915	4603
911.03	4493
911.145	4280
911.259	4295
911.374	4363
911.489	4344
911.604	4310
911.718	4135
911.833	4207
911.947	4059
912.062	4029
912.176	4253
912.291	4200
912.405	4211
912.519	4470
912.633	4527
912.748	4352
912.862	4375
912.976	4223
913.09	4105
913.204	4200
913.318	4219
913.431	4363
913.545	4398
913.659	4436
913.772	4322
913.886	4257
914	4265
914.113	4363
914.226	4436
914.34	4344
914.453	4215
914.566	4405
914.68	4325
914.793	4310
914.906	4185
915.019	4128
915.132	4082
915.245	4230
915.358	4207
915.47	4227
915.583	4322
915.696	4272
915.809	4436
915.921	4440
916.034	4238
916.146	4261
916.259	4200
916.371	4383
916.483	4360
916.595	4257
916.708	4325
916.82	4318
916.932	4356
917.044	4363
917.156	4322
917.268	4207
917.38	4303
917.491	4249
917.603	4356
917.715	4428
917.826	4424
917.938	4371
918.049	4223
918.161	4413
918.272	4512
918.384	4558
918.495	4462
918.606	4287
918.717	4227
918.828	4341
918.939	4375
919.05	4234
919.161	4276
919.272	4147
919.383	4253
919.494	4447
919.604	4618
919.715	4436
919.826	4314
919.936	4356
920.047	4519
920.157	4447
920.267	4691
920.378	4535
920.488	4538
920.598	4675
920.708	4889
920.818	4702
920.928	4752
921.038	4889
921.148	4896
921.258	4599
921.368	4565
921.477	4497
921.587	4447
921.697	4363
921.806	4542
921.916	4405
922.025	4280
922.134	4242
922.244	4276
922.353	4310
922.462	4154
922.571	4128
922.68	4048
922.789	3987
922.898	3998
923.007	4025
923.116	4112
923.224	4086
923.333	4071
923.442	4032
923.55	3937
923.659	4036
923.767	4090
923.876	4010
923.984	4101
924.092	3956
924.201	4048
924.309	4090
924.417	4105
924.525	4055
924.633	4101
924.741	4839
924.849	3926
924.956	4086
925.064	3918
925.172	3945
925.279	3960
925.387	4017
925.494	4055
925.602	4162
925.709	4204
925.816	4021
925.924	4101
926.031	4238
926.138	4158
926.245	4185
926.352	4124
926.459	4219
926.566	4234
926.673	4139
926.779	4173
926.886	4105
926.993	4006
927.099	3911
927.206	3941
927.312	3922
927.419	4029
927.525	4029
927.631	4124
927.737	3998
927.843	3956
927.95	3850
928.056	3956
928.162	3972
928.267	4010
928.373	4679
928.479	4112
928.585	3903
928.69	4025
928.796	4120
928.901	3953
929.007	3842
929.112	3991
929.218	4017
929.323	3941
929.428	3941
929.533	4143
929.638	3880
929.743	3953
929.848	3987
929.953	3991
930.058	3915
930.163	3770
930.267	3823
930.372	3972
930.477	3800
930.581	4063
930.685	3949
930.79	3804
930.894	3835
930.998	3838
931.103	4017
931.207	3789
931.311	3694
931.415	3671
931.519	3515
931.623	3545
