Data from test_V78500241_1707.txt Node
Date: Fri Mar 25 17:00:52 CST 2022
User: usil
Spectrometer: V785-0024
Trigger mode: 0
Integration Time (sec): 4.000000E-1
Scans to average: 1
Nonlinearity correction enabled: false
Boxcar width: 0
Storing dark spectrum: false
XAxis mode: Wavelengths
Number of Pixels in Spectrum: 1024
>>>>>Begin Spectral Data<<<<<
801.071	7890
801.214	7890
801.356	7818
801.499	7883
801.641	7833
801.783	7856
801.926	7947
802.068	7959
802.211	7898
802.353	7936
802.496	7856
802.638	7925
802.78	7921
802.923	7944
803.065	7852
803.208	7845
803.35	8005
803.492	8069
803.635	8176
803.777	8016
803.919	8065
804.061	8404
804.204	8180
804.346	8043
804.488	7955
804.63	8062
804.773	7993
804.915	8183
805.057	8282
805.199	8100
805.341	8221
805.483	8221
805.626	8164
805.768	8069
805.91	8199
806.052	8248
806.194	8119
806.336	8271
806.478	8096
806.62	8062
806.762	8092
806.904	8286
807.046	8495
807.188	8389
807.33	8298
807.472	8282
807.614	8214
807.756	8180
807.898	8046
808.04	7909
808.182	7864
808.324	7932
808.465	7917
808.607	8039
808.749	8103
808.891	8145
809.033	8320
809.174	8073
809.316	8043
809.458	8073
809.6	7955
809.741	8069
809.883	8020
810.025	8081
810.166	8046
810.308	7997
810.45	8016
810.591	7784
810.733	7693
810.875	7636
811.016	7453
811.158	7453
811.299	7559
811.441	7677
811.582	7670
811.724	7586
811.865	7590
812.007	7544
812.148	7537
812.29	7601
812.431	7788
812.573	7856
812.714	7993
812.855	8077
812.997	8157
813.138	8351
813.279	8180
813.421	8145
813.562	7986
813.703	7830
813.845	7704
813.986	7453
814.127	7225
814.268	7213
814.41	7217
814.551	7221
814.692	7198
814.833	7076
814.974	7076
815.115	7122
815.256	6951
815.397	6954
815.539	6966
815.68	6856
815.821	6810
815.962	6840
816.103	6825
816.244	6665
816.385	6604
816.526	6627
816.666	6521
816.807	6342
816.948	6418
817.089	6498
817.23	6429
817.371	6327
817.512	6342
817.653	6388
817.793	6380
817.934	6448
818.075	6410
818.216	6422
818.356	6433
818.497	6270
818.638	6095
818.778	6136
818.919	6095
819.06	6125
819.2	6331
819.341	6388
819.481	6369
819.622	6483
819.762	6703
819.903	6738
820.043	6620
820.184	6551
820.324	6582
820.465	6722
820.605	6692
820.746	6631
820.886	6509
821.026	6612
821.167	6688
821.307	6795
821.447	6745
821.588	6662
821.728	6566
821.868	6437
822.008	6308
822.149	6384
822.289	6372
822.429	6136
822.569	6072
822.709	6110
822.849	5908
822.99	5916
823.13	5893
823.27	5885
823.41	5756
823.55	5714
823.69	5794
823.83	5794
823.97	5653
824.11	5478
824.25	5478
824.389	5528
824.529	5585
824.669	5486
824.809	5661
824.949	5668
825.089	5661
825.228	5505
825.368	5383
825.508	5303
825.648	5376
825.787	5322
825.927	5398
826.067	5292
826.206	5239
826.346	5357
826.485	5368
826.625	5406
826.765	5539
826.904	5482
827.044	5254
827.183	5204
827.323	5075
827.462	5227
827.601	5140
827.741	5178
827.88	5212
828.02	5117
828.159	5223
828.298	5277
828.437	5353
828.577	5239
828.716	5490
828.855	5349
828.994	5162
829.134	5136
829.273	5140
829.412	5151
829.551	5121
829.69	5147
829.829	5189
829.968	5360
830.107	5242
830.246	5322
830.385	5143
830.524	5166
830.663	5128
830.802	4987
830.941	4896
831.08	4904
831.219	4980
831.357	4953
831.496	5143
831.635	4858
831.774	4820
831.913	4824
832.051	4725
832.19	4736
832.329	4805
832.467	4656
832.606	4668
832.744	4729
832.883	4691
833.022	4679
833.16	4755
833.299	4820
833.437	4786
833.576	4866
833.714	4843
833.852	4801
833.991	4892
834.129	4942
834.267	4938
834.406	4919
834.544	4965
834.682	4968
834.821	4946
834.959	5140
835.097	4995
835.235	5090
835.373	5079
835.511	5033
835.65	5029
835.788	5033
835.926	4892
836.064	4870
836.202	4904
836.34	5181
836.478	5201
836.615	5102
836.753	5181
836.891	5269
837.029	5258
837.167	5113
837.305	5086
837.443	5143
837.58	5105
837.718	5220
837.856	5208
837.993	5105
838.131	5201
838.269	5162
838.406	5155
838.544	5212
838.681	5067
838.819	4991
838.956	4866
839.094	4885
839.231	4938
839.369	5056
839.506	5353
839.643	5220
839.781	5056
839.918	4968
840.055	5067
840.193	5060
840.33	5086
840.467	5170
840.604	5162
840.742	5459
840.879	5075
841.016	5052
841.153	5159
841.29	5372
841.427	5326
841.564	5258
841.701	5353
841.838	5231
841.975	5231
842.112	5265
842.249	5105
842.385	5102
842.522	5296
842.659	5181
842.796	5136
842.933	5159
843.069	5147
843.206	5155
843.343	5231
843.479	5250
843.616	5227
843.752	5018
843.889	4999
844.025	5220
844.162	5022
844.298	5197
844.435	5064
844.571	5006
844.708	5201
844.844	5239
844.98	5334
845.117	5284
845.253	5132
845.389	5041
845.525	5121
845.661	5136
845.798	5045
845.934	5117
846.07	5037
846.206	5155
846.342	5269
846.478	5083
846.614	4991
846.75	4976
846.886	4915
847.022	5151
847.158	4972
847.294	5045
847.429	5094
847.565	5048
847.701	5288
847.837	4862
847.972	4805
848.108	4987
848.244	4995
848.379	4782
848.515	4752
848.65	4706
848.786	4767
848.921	4767
849.057	4843
849.192	4877
849.328	4831
849.463	4809
849.598	4774
849.734	4759
849.869	4660
850.004	4649
850.14	4721
850.275	4607
850.41	4542
850.545	4558
850.68	4611
850.815	4672
850.95	4603
851.085	4839
851.22	4763
851.355	4615
851.49	4596
851.625	4637
851.76	4596
851.895	4565
852.03	4485
852.165	4637
852.299	4683
852.434	4820
852.569	4691
852.703	4744
852.838	4850
852.973	4915
853.107	4915
853.242	4736
853.376	4675
853.511	4535
853.645	4618
853.78	4782
853.914	4733
854.048	4675
854.183	4679
854.317	4706
854.451	4873
854.585	4656
854.72	4615
854.854	4694
854.988	4630
855.122	4561
855.256	4500
855.39	4717
855.524	4759
855.658	4691
855.792	4660
855.926	4778
856.06	4706
856.194	4778
856.327	4721
856.461	4634
856.595	4577
856.729	4641
856.862	4736
856.996	4672
857.13	4649
857.263	4786
857.397	4782
857.53	4645
857.664	4694
857.797	4736
857.931	4763
858.064	4714
858.197	4790
858.331	4630
858.464	4637
858.597	4561
858.731	4634
858.864	4664
858.997	4580
859.13	4649
859.263	4634
859.396	4714
859.529	4599
859.662	4538
859.795	4485
859.928	4668
860.061	4774
860.194	4763
860.327	4538
860.46	4554
860.592	4702
860.725	4675
860.858	4748
860.99	4538
861.123	4542
861.256	4527
861.388	4622
861.521	5178
861.653	4459
861.786	4440
861.918	4459
862.05	4550
862.183	4554
862.315	4592
862.447	4611
862.58	4546
862.712	4398
862.844	4276
862.976	4474
863.108	4451
863.24	4885
863.372	4268
863.504	4394
863.636	4417
863.768	4519
863.9	4451
864.032	4413
864.164	4386
864.296	4519
864.428	4500
864.559	4531
864.691	4542
864.823	4558
864.954	4455
865.086	4481
865.217	4459
865.349	4455
865.48	4440
865.612	4489
865.743	4592
865.875	4440
866.006	4451
866.137	4421
866.269	4447
866.4	4405
866.531	4417
866.662	4394
866.793	4402
866.924	4402
867.055	4478
867.186	4421
867.317	4443
867.448	4402
867.579	4348
867.71	4417
867.841	4398
867.972	4447
868.103	4440
868.233	4443
868.364	4421
868.495	4474
868.625	4630
868.756	4710
868.886	4546
869.017	4592
869.147	4820
869.278	4748
869.408	4634
869.539	4645
869.669	4706
869.799	4637
869.929	4729
870.06	4733
870.19	4953
870.32	4904
870.45	4870
870.58	5037
870.71	5071
870.84	5113
870.97	4965
871.1	4911
871.23	5113
871.36	5079
871.489	5060
871.619	5067
871.749	5079
871.879	5094
872.008	5117
872.138	5086
872.267	4946
872.397	4850
872.526	4790
872.656	4736
872.785	4759
872.915	4987
873.044	5010
873.173	4957
873.303	4953
873.432	4934
873.561	4991
873.69	4885
873.819	4835
873.948	4908
874.077	4771
874.206	4774
874.335	4801
874.464	4892
874.593	5056
874.722	4942
874.851	5071
874.979	5052
875.108	5048
875.237	4892
875.365	4850
875.494	4873
875.623	4995
875.751	4854
875.88	4892
876.008	4968
876.136	4984
876.265	5132
876.393	5360
876.521	5242
876.65	5254
876.778	5136
876.906	5022
877.034	5010
877.162	5025
877.29	5022
877.418	5022
877.546	4984
877.674	5041
877.802	5052
877.93	5064
878.058	4949
878.185	4885
878.313	4991
878.441	4915
878.568	4831
878.696	4877
878.824	4892
878.951	5037
879.079	5151
879.206	5284
879.333	5128
879.461	4949
879.588	5003
879.715	5071
879.842	5212
879.97	4999
880.097	4843
880.224	4744
880.351	4782
880.478	4824
880.605	4767
880.732	4759
880.859	5090
880.986	4946
881.112	4881
881.239	4778
881.366	4675
881.493	4584
881.619	4577
881.746	4630
881.872	4691
881.999	4672
882.125	4622
882.252	4793
882.378	4885
882.505	4957
882.631	4786
882.757	4714
882.883	4710
883.01	4717
883.136	4660
883.262	4679
883.388	4615
883.514	4812
883.64	4866
883.766	4820
883.892	4672
884.018	4721
884.143	4927
884.269	4984
884.395	4672
884.52	4607
884.646	4653
884.772	4634
884.897	4542
885.023	4637
885.148	4778
885.274	4828
885.399	4790
885.524	4744
885.65	4687
885.775	4778
885.9	4687
886.025	4774
886.15	4744
886.275	4702
886.4	4672
886.525	4725
886.65	4698
886.775	4717
886.9	4873
887.025	4987
887.149	4820
887.274	4649
887.399	4588
887.523	4584
887.648	4565
887.773	4577
887.897	4763
888.021	4759
888.146	4656
888.27	4790
888.395	4854
888.519	4805
888.643	4801
888.767	4835
888.891	4645
889.015	4596
889.139	4649
889.263	4577
889.387	4744
889.511	4877
889.635	4759
889.759	4622
889.883	4622
890.006	4683
890.13	4778
890.254	4573
890.377	4664
890.501	4577
890.624	4512
890.748	4641
890.871	4531
890.995	4398
891.118	4352
891.241	4523
891.364	4535
891.488	4584
891.611	4508
891.734	4554
891.857	4580
891.98	4577
892.103	4607
892.226	4561
892.349	4519
892.471	4383
892.594	4516
892.717	4634
892.839	4584
892.962	4596
893.085	4664
893.207	4538
893.33	4493
893.452	4516
893.575	4672
893.697	4569
893.819	4771
893.941	4805
894.064	4748
894.186	4634
894.308	4535
894.43	4698
894.552	4805
894.674	4752
894.796	4561
894.918	4584
895.04	4611
895.161	4714
895.283	4588
895.405	4584
895.526	4626
895.648	4660
895.769	4675
895.891	4710
896.012	4694
896.134	4698
896.255	4702
896.376	4603
896.498	4634
896.619	4645
896.74	4611
896.861	4653
896.982	4919
897.103	5022
897.224	4805
897.345	4767
897.466	4694
897.587	4710
897.708	4877
897.828	4748
897.949	4660
898.07	4565
898.19	4634
898.311	4801
898.431	4679
898.552	4691
898.672	4767
898.792	4759
898.913	4714
899.033	4611
899.153	4512
899.273	4417
899.393	4500
899.513	4497
899.633	4516
899.753	4527
899.873	4535
899.993	4596
900.113	4451
900.232	4558
900.352	4546
900.472	4470
900.591	4398
900.711	4523
900.83	4428
900.95	4618
901.069	4683
901.189	4516
901.308	4356
901.427	4344
901.546	4371
901.665	4474
901.784	4500
901.904	4367
902.023	4344
902.141	4211
902.26	4154
902.379	4310
902.498	4238
902.617	4230
902.735	4363
902.854	4402
902.973	4348
903.091	4181
903.21	4276
903.328	4272
903.446	4257
903.565	4253
903.683	4341
903.801	4249
903.919	4375
904.038	4470
904.156	4322
904.274	4405
904.392	4398
904.51	4417
904.627	4512
904.745	4561
904.863	4637
904.981	4421
905.098	4318
905.216	4367
905.334	4466
905.451	4481
905.569	4409
905.686	4558
905.803	4535
905.921	4371
906.038	4538
906.155	4508
906.272	4428
906.389	4462
906.506	4356
906.623	4417
906.74	4371
906.857	4310
906.974	4371
907.091	4577
907.208	4653
907.324	4546
907.441	4485
907.557	4299
907.674	4367
907.79	4268
907.907	4360
908.023	4443
908.139	4424
908.256	4447
908.372	4413
908.488	4443
908.604	4303
908.72	4284
908.836	4314
908.952	4360
909.068	4428
909.184	4584
909.3	4489
909.415	4516
909.531	4561
909.647	4356
909.762	4363
909.878	4325
909.993	4447
910.108	4371
910.224	4375
910.339	4451
910.454	4405
910.57	4318
910.685	4306
910.8	4653
910.915	4615
911.03	4470
911.145	4318
911.259	4310
911.374	4356
911.489	4299
911.604	4295
911.718	4139
911.833	4192
911.947	4086
912.062	4048
912.176	4215
912.291	4257
912.405	4253
912.519	4390
912.633	4470
912.748	4383
912.862	4306
912.976	4215
913.09	4074
913.204	4173
913.318	4261
913.431	4363
913.545	4348
913.659	4451
913.772	4352
913.886	4268
914	4230
914.113	4394
914.226	4462
914.34	4386
914.453	4207
914.566	4451
914.68	4314
914.793	4322
914.906	4101
915.019	4150
915.132	4082
915.245	4128
915.358	4211
915.47	4223
915.583	4276
915.696	4310
915.809	4424
915.921	4440
916.034	4230
916.146	4280
916.259	4204
916.371	4360
916.483	4341
916.595	4261
916.708	4318
916.82	4333
916.932	4295
917.044	4268
917.156	4337
917.268	4234
917.38	4276
917.491	4238
917.603	4348
917.715	4417
917.826	4413
917.938	4314
918.049	4238
918.161	4371
918.272	4580
918.384	4531
918.495	4417
918.606	4284
918.717	4238
918.828	4356
918.939	4363
919.05	4246
919.161	4310
919.272	4135
919.383	4242
919.494	4447
919.604	4607
919.715	4455
919.826	4337
919.936	4402
920.047	4508
920.157	4474
920.267	4683
920.378	4554
920.488	4466
920.598	4683
920.708	4820
920.818	4721
920.928	4725
921.038	4915
921.148	4904
921.258	4634
921.368	4573
921.477	4466
921.587	4440
921.697	4333
921.806	4538
921.916	4432
922.025	4276
922.134	4230
922.244	4227
922.353	4272
922.462	4158
922.571	4093
922.68	3998
922.789	3937
922.898	4036
923.007	3956
923.116	4090
923.224	4051
923.333	4036
923.442	4036
923.55	3941
923.659	3975
923.767	4078
923.876	3972
923.984	4101
924.092	3953
924.201	4097
924.309	4090
924.417	4135
924.525	4006
924.633	4082
924.741	4812
924.849	3911
924.956	4078
925.064	3975
925.172	3896
925.279	3949
925.387	4025
925.494	4051
925.602	4246
925.709	4158
925.816	4063
925.924	4105
926.031	4215
926.138	4154
926.245	4169
926.352	4071
926.459	4268
926.566	4291
926.673	4131
926.779	4055
926.886	4071
926.993	4017
927.099	3907
927.206	3915
927.312	3968
927.419	4055
927.525	4067
927.631	4116
927.737	3937
927.843	3975
927.95	3827
928.056	3953
928.162	3934
928.267	4055
928.373	4675
928.479	4105
928.585	3915
928.69	4013
928.796	4067
928.901	3983
929.007	3896
929.112	4055
929.218	3979
929.323	3956
929.428	3972
929.533	4143
929.638	3918
929.743	3964
929.848	4059
929.953	4067
930.058	3956
930.163	3800
930.267	3880
930.372	4002
930.477	3804
930.581	4147
930.685	3964
930.79	3873
930.894	3918
930.998	3873
931.103	4040
931.207	3740
931.311	3698
931.415	3724
931.519	3561
931.623	3580
