Data from test_V78500241_2.txt Node
Date: Fri Mar 25 16:49:01 CST 2022
User: usil
Spectrometer: V785-0024
Trigger mode: 0
Integration Time (sec): 4.000000E-1
Scans to average: 1
Nonlinearity correction enabled: false
Boxcar width: 0
Storing dark spectrum: false
XAxis mode: Wavelengths
Number of Pixels in Spectrum: 1024
>>>>>Begin Spectral Data<<<<<
801.071	8123
801.214	8115
801.356	8016
801.499	7917
801.641	7845
801.783	7898
801.926	8008
802.068	7997
802.211	8088
802.353	8054
802.496	7932
802.638	8046
802.78	7928
802.923	7978
803.065	7978
803.208	7887
803.35	8031
803.492	8123
803.635	8214
803.777	8031
803.919	8138
804.061	8511
804.204	8172
804.346	8081
804.488	8031
804.63	8142
804.773	8008
804.915	8062
805.057	8263
805.199	8202
805.341	8183
805.483	8282
805.626	8187
805.768	8149
805.91	8210
806.052	8263
806.194	8153
806.336	8332
806.478	8149
806.62	8138
806.762	8123
806.904	8290
807.046	8511
807.188	8393
807.33	8374
807.472	8389
807.614	8210
807.756	8149
807.898	8024
808.04	7944
808.182	7894
808.324	8012
808.465	7955
808.607	8191
808.749	8107
808.891	8259
809.033	8221
809.174	8142
809.316	8100
809.458	8157
809.6	7951
809.741	8016
809.883	8054
810.025	8092
810.166	8065
810.308	8050
810.45	8096
810.591	7913
810.733	7772
810.875	7765
811.016	7632
811.158	7563
811.299	7666
811.441	7894
811.582	7723
811.724	7594
811.865	7620
812.007	7651
812.148	7643
812.29	7613
812.431	7792
812.573	7875
812.714	8088
812.855	8119
812.997	8286
813.138	8377
813.279	8210
813.421	8176
813.562	8115
813.703	7974
813.845	7792
813.986	7571
814.127	7350
814.268	7255
814.41	7232
814.551	7240
814.692	7297
814.833	7187
814.974	7225
815.115	7088
815.256	6962
815.397	6947
815.539	6909
815.68	6878
815.821	6806
815.962	6935
816.103	6894
816.244	6837
816.385	6681
816.526	6673
816.666	6547
816.807	6380
816.948	6502
817.089	6506
817.23	6422
817.371	6403
817.512	6388
817.653	6437
817.793	6391
817.934	6410
818.075	6445
818.216	6479
818.356	6426
818.497	6334
818.638	6171
818.778	6148
818.919	6190
819.06	6239
819.2	6391
819.341	6410
819.481	6422
819.622	6597
819.762	6798
819.903	6730
820.043	6616
820.184	6635
820.324	6639
820.465	6738
820.605	6760
820.746	6692
820.886	6620
821.026	6741
821.167	6776
821.307	6852
821.447	6806
821.588	6703
821.728	6627
821.868	6536
822.008	6388
822.149	6395
822.289	6384
822.429	6197
822.569	6152
822.709	6110
822.849	5935
822.99	5893
823.13	5942
823.27	5969
823.41	5824
823.55	5863
823.69	5790
823.83	5844
823.97	5691
824.11	5592
824.25	5608
824.389	5623
824.529	5672
824.669	5570
824.809	5688
824.949	5661
825.089	5688
825.228	5611
825.368	5429
825.508	5406
825.648	5398
825.787	5440
825.927	5417
826.067	5402
826.206	5402
826.346	5395
826.485	5551
826.625	5436
826.765	5623
826.904	5516
827.044	5296
827.183	5227
827.323	5197
827.462	5326
827.601	5212
827.741	5254
827.88	5261
828.02	5143
828.159	5288
828.298	5330
828.437	5429
828.577	5360
828.716	5512
828.855	5341
828.994	5220
829.134	5208
829.273	5273
829.412	5212
829.551	5174
829.69	5212
829.829	5334
829.968	5425
830.107	5315
830.246	5322
830.385	5204
830.524	5143
830.663	5151
830.802	4991
830.941	4904
831.08	4942
831.219	4984
831.357	5075
831.496	5193
831.635	4965
831.774	4896
831.913	4900
832.051	4725
832.19	4725
832.329	4919
832.467	4729
832.606	4664
832.744	4767
832.883	4812
833.022	4740
833.16	4809
833.299	4930
833.437	4843
833.576	4873
833.714	4923
833.852	4930
833.991	4900
834.129	5037
834.267	5025
834.406	4965
834.544	5025
834.682	5018
834.821	4995
834.959	5265
835.097	5037
835.235	5227
835.373	5094
835.511	5136
835.65	5029
835.788	5025
835.926	4904
836.064	4873
836.202	4961
836.34	5185
836.478	5311
836.615	5166
836.753	5162
836.891	5303
837.029	5292
837.167	5242
837.305	5235
837.443	5216
837.58	5083
837.718	5288
837.856	5269
837.993	5181
838.131	5239
838.269	5220
838.406	5273
838.544	5239
838.681	5128
838.819	5064
838.956	4923
839.094	4972
839.231	5003
839.369	5185
839.506	5478
839.643	5303
839.781	5159
839.918	5064
840.055	5143
840.193	5121
840.33	5155
840.467	5159
840.604	5254
840.742	5448
840.879	5079
841.016	5178
841.153	5185
841.29	5455
841.427	5360
841.564	5353
841.701	5383
841.838	5357
841.975	5322
842.112	5311
842.249	5212
842.385	5159
842.522	5391
842.659	5208
842.796	5208
842.933	5239
843.069	5178
843.206	5185
843.343	5318
843.479	5322
843.616	5330
843.752	5079
843.889	5075
844.025	5280
844.162	5083
844.298	5235
844.435	5181
844.571	5113
844.708	5216
844.844	5334
844.98	5406
845.117	5326
845.253	5166
845.389	5143
845.525	5204
845.661	5220
845.798	5113
845.934	5231
846.07	5090
846.206	5265
846.342	5326
846.478	5246
846.614	5094
846.75	5033
846.886	4991
847.022	5193
847.158	5048
847.294	5147
847.429	5162
847.565	5140
847.701	5398
847.837	4896
847.972	4870
848.108	5014
848.244	5006
848.379	4873
848.515	4755
848.65	4767
848.786	4828
848.921	4843
849.057	4873
849.192	4919
849.328	4850
849.463	4877
849.598	4870
849.734	4831
849.869	4755
850.004	4706
850.14	4721
850.275	4691
850.41	4569
850.545	4660
850.68	4668
850.815	4641
850.95	4637
851.085	4896
851.22	4797
851.355	4759
851.49	4687
851.625	4656
851.76	4702
851.895	4615
852.03	4577
852.165	4675
852.299	4710
852.434	4801
852.569	4809
852.703	4820
852.838	4881
852.973	5022
853.107	4968
853.242	4790
853.376	4774
853.511	4607
853.645	4656
853.78	4839
853.914	4691
854.048	4710
854.183	4714
854.317	4733
854.451	4885
854.585	4710
854.72	4706
854.854	4767
854.988	4645
855.122	4672
855.256	4497
855.39	4714
855.524	4839
855.658	4767
855.792	4755
855.926	4786
856.06	4801
856.194	4850
856.327	4740
856.461	4706
856.595	4714
856.729	4698
856.862	4774
856.996	4763
857.13	4778
857.263	4820
857.397	4831
857.53	4687
857.664	4771
857.797	4847
857.931	4843
858.064	4744
858.197	4774
858.331	4702
858.464	4656
858.597	4554
858.731	4645
858.864	4744
858.997	4660
859.13	4725
859.263	4725
859.396	4771
859.529	4649
859.662	4645
859.795	4596
859.928	4641
860.061	4793
860.194	4820
860.327	4668
860.46	4645
860.592	4816
860.725	4744
860.858	4759
860.99	4653
861.123	4592
861.256	4607
861.388	4668
861.521	5459
861.653	4512
861.786	4489
861.918	4481
862.05	4615
862.183	4580
862.315	4603
862.447	4683
862.58	4554
862.712	4474
862.844	4344
862.976	4535
863.108	4523
863.24	4930
863.372	4386
863.504	4478
863.636	4436
863.768	4542
863.9	4481
864.032	4386
864.164	4409
864.296	4554
864.428	4588
864.559	4554
864.691	4603
864.823	4569
864.954	4569
865.086	4519
865.217	4561
865.349	4459
865.48	4527
865.612	4516
865.743	4668
865.875	4519
866.006	4474
866.137	4481
866.269	4485
866.4	4504
866.531	4470
866.662	4451
866.793	4474
866.924	4447
867.055	4546
867.186	4512
867.317	4462
867.448	4379
867.579	4455
867.71	4417
867.841	4390
867.972	4538
868.103	4459
868.233	4493
868.364	4478
868.495	4546
868.625	4733
868.756	4755
868.886	4618
869.017	4729
869.147	4809
869.278	4877
869.408	4672
869.539	4691
869.669	4812
869.799	4679
869.929	4809
870.06	4774
870.19	4987
870.32	4961
870.45	4953
870.58	5067
870.71	5117
870.84	5151
870.97	5014
871.1	4976
871.23	5143
871.36	5204
871.489	5037
871.619	5162
871.749	5147
871.879	5208
872.008	5197
872.138	5090
872.267	5025
872.397	4927
872.526	4854
872.656	4736
872.785	4854
872.915	5014
873.044	5037
873.173	4949
873.303	5048
873.432	4995
873.561	5006
873.69	4908
873.819	4900
873.948	5006
874.077	4885
874.206	4778
874.335	4892
874.464	5003
874.593	5086
874.722	4984
874.851	5117
874.979	5094
875.108	5113
875.237	4980
875.365	4968
875.494	4957
875.623	5056
875.751	4870
875.88	4908
876.008	4980
876.136	5094
876.265	5258
876.393	5379
876.521	5330
876.65	5284
876.778	5242
876.906	5121
877.034	5094
877.162	5056
877.29	5075
877.418	5117
877.546	5071
877.674	5083
877.802	5048
877.93	5045
878.058	4942
878.185	4870
878.313	4991
878.441	4976
878.568	4831
878.696	4904
878.824	4999
878.951	5052
879.079	5132
879.206	5273
879.333	5151
879.461	5060
879.588	5037
879.715	5189
879.842	5299
879.97	5067
880.097	4831
880.224	4782
880.351	4824
880.478	4831
880.605	4881
880.732	4824
880.859	5162
880.986	4953
881.112	4957
881.239	4820
881.366	4763
881.493	4653
881.619	4630
881.746	4687
881.872	4672
881.999	4656
882.125	4725
882.252	4896
882.378	4839
882.505	5067
882.631	4835
882.757	4740
882.883	4752
883.01	4782
883.136	4725
883.262	4668
883.388	4660
883.514	4889
883.64	4904
883.766	4831
883.892	4736
884.018	4767
884.143	4927
884.269	5025
884.395	4736
884.52	4664
884.646	4664
884.772	4653
884.897	4596
885.023	4733
885.148	4828
885.274	4904
885.399	4881
885.524	4771
885.65	4782
885.775	4759
885.9	4744
886.025	4908
886.15	4870
886.275	4786
886.4	4679
886.525	4710
886.65	4767
886.775	4721
886.9	4919
887.025	5113
887.149	4828
887.274	4710
887.399	4607
887.523	4656
887.648	4599
887.773	4668
887.897	4809
888.021	4824
888.146	4733
888.27	4923
888.395	4927
888.519	4824
888.643	4885
888.767	4889
888.891	4755
889.015	4691
889.139	4698
889.263	4653
889.387	4793
889.511	4915
889.635	4885
889.759	4721
889.883	4706
890.006	4771
890.13	4915
890.254	4694
890.377	4725
890.501	4561
890.624	4584
890.748	4748
890.871	4523
890.995	4409
891.118	4386
891.241	4554
891.364	4592
891.488	4622
891.611	4535
891.734	4580
891.857	4664
891.98	4603
892.103	4668
892.226	4668
892.349	4580
892.471	4417
892.594	4538
892.717	4645
892.839	4653
892.962	4641
893.085	4759
893.207	4649
893.33	4497
893.452	4558
893.575	4702
893.697	4626
893.819	4839
893.941	4885
894.064	4816
894.186	4664
894.308	4599
894.43	4763
894.552	4904
894.674	4805
894.796	4599
894.918	4637
895.04	4626
895.161	4763
895.283	4675
895.405	4554
895.526	4691
895.648	4694
895.769	4717
895.891	4702
896.012	4790
896.134	4771
896.255	4694
896.376	4660
896.498	4649
896.619	4672
896.74	4691
896.861	4755
896.982	4995
897.103	5140
897.224	4873
897.345	4828
897.466	4702
897.587	4793
897.708	4896
897.828	4805
897.949	4694
898.07	4554
898.19	4683
898.311	4889
898.431	4733
898.552	4778
898.672	4870
898.792	4850
898.913	4763
899.033	4691
899.153	4527
899.273	4447
899.393	4531
899.513	4561
899.633	4535
899.753	4618
899.873	4584
899.993	4645
900.113	4565
900.232	4664
900.352	4622
900.472	4592
900.591	4466
900.711	4554
900.83	4485
900.95	4668
901.069	4755
901.189	4607
901.308	4455
901.427	4402
901.546	4455
901.665	4542
901.784	4603
901.904	4474
902.023	4383
902.141	4246
902.26	4238
902.379	4375
902.498	4287
902.617	4280
902.735	4466
902.854	4500
902.973	4428
903.091	4306
903.21	4287
903.328	4383
903.446	4329
903.565	4341
903.683	4455
903.801	4341
903.919	4440
904.038	4497
904.156	4409
904.274	4546
904.392	4462
904.51	4523
904.627	4531
904.745	4664
904.863	4702
904.981	4535
905.098	4402
905.216	4500
905.334	4497
905.451	4573
905.569	4535
905.686	4622
905.803	4611
905.921	4493
906.038	4675
906.155	4573
906.272	4504
906.389	4569
906.506	4421
906.623	4493
906.74	4504
906.857	4451
906.974	4428
907.091	4660
907.208	4767
907.324	4698
907.441	4634
907.557	4436
907.674	4436
907.79	4402
907.907	4451
908.023	4588
908.139	4580
908.256	4512
908.372	4592
908.488	4573
908.604	4451
908.72	4424
908.836	4466
908.952	4500
909.068	4527
909.184	4653
909.3	4546
909.415	4687
909.531	4660
909.647	4436
909.762	4428
909.878	4413
909.993	4569
910.108	4535
910.224	4531
910.339	4523
910.454	4466
910.57	4447
910.685	4436
910.8	4782
910.915	4687
911.03	4588
911.145	4421
911.259	4405
911.374	4470
911.489	4329
911.604	4424
911.718	4242
911.833	4272
911.947	4188
912.062	4124
912.176	4325
912.291	4329
912.405	4341
912.519	4554
912.633	4596
912.748	4478
912.862	4462
912.976	4329
913.09	4173
913.204	4219
913.318	4367
913.431	4535
913.545	4462
913.659	4516
913.772	4443
913.886	4367
914	4344
914.113	4485
914.226	4546
914.34	4436
914.453	4337
914.566	4527
914.68	4405
914.793	4375
914.906	4287
915.019	4246
915.132	4120
915.245	4249
915.358	4306
915.47	4314
915.583	4318
915.696	4360
915.809	4443
915.921	4523
916.034	4379
916.146	4352
916.259	4341
916.371	4489
916.483	4459
916.595	4329
916.708	4470
916.82	4432
916.932	4466
917.044	4379
917.156	4375
917.268	4356
917.38	4379
917.491	4375
917.603	4443
917.715	4497
917.826	4558
917.938	4436
918.049	4333
918.161	4478
918.272	4622
918.384	4618
918.495	4542
918.606	4390
918.717	4322
918.828	4424
918.939	4390
919.05	4333
919.161	4367
919.272	4280
919.383	4306
919.494	4538
919.604	4706
919.715	4531
919.826	4421
919.936	4497
920.047	4615
920.157	4561
920.267	4767
920.378	4660
920.488	4577
920.598	4805
920.708	4999
920.818	4885
920.928	4854
921.038	5052
921.148	5010
921.258	4725
921.368	4660
921.477	4584
921.587	4573
921.697	4440
921.806	4626
921.916	4542
922.025	4333
922.134	4424
922.244	4329
922.353	4413
922.462	4276
922.571	4211
922.68	4128
922.789	4021
922.898	4120
923.007	4051
923.116	4211
923.224	4139
923.333	4188
923.442	4093
923.55	4071
923.659	4112
923.767	4215
923.876	4086
923.984	4158
924.092	4071
924.201	4162
924.309	4196
924.417	4207
924.525	4139
924.633	4158
924.741	5105
924.849	3987
924.956	4230
925.064	4032
925.172	3953
925.279	4048
925.387	4150
925.494	4162
925.602	4280
925.709	4291
925.816	4124
925.924	4219
926.031	4322
926.138	4242
926.245	4284
926.352	4169
926.459	4360
926.566	4386
926.673	4207
926.779	4173
926.886	4284
926.993	4044
927.099	4029
927.206	4013
927.312	4059
927.419	4143
927.525	4067
927.631	4173
927.737	4067
927.843	4010
927.95	3896
928.056	4063
928.162	4078
928.267	4150
928.373	4714
928.479	4204
928.585	4036
928.69	4071
928.796	4143
928.901	3979
929.007	3964
929.112	4078
929.218	4059
929.323	4040
929.428	4032
929.533	4162
929.638	4010
929.743	4071
929.848	4124
929.953	4063
930.058	4013
930.163	3876
930.267	3884
930.372	4059
930.477	3876
930.581	4162
930.685	4013
930.79	3865
930.894	3979
930.998	3915
931.103	4162
931.207	3800
931.311	3762
931.415	3724
931.519	3557
931.623	3614
