Data from test_V78500241_1497.txt Node
Date: Fri Mar 25 16:59:24 CST 2022
User: usil
Spectrometer: V785-0024
Trigger mode: 0
Integration Time (sec): 4.000000E-1
Scans to average: 1
Nonlinearity correction enabled: false
Boxcar width: 0
Storing dark spectrum: false
XAxis mode: Wavelengths
Number of Pixels in Spectrum: 1024
>>>>>Begin Spectral Data<<<<<
801.071	8103
801.214	8005
801.356	7917
801.499	7875
801.641	7772
801.783	7814
801.926	8016
802.068	7940
802.211	7989
802.353	7986
802.496	7856
802.638	7860
802.78	7887
802.923	7909
803.065	7925
803.208	7890
803.35	8027
803.492	8138
803.635	8183
803.777	8065
803.919	8145
804.061	8415
804.204	8176
804.346	8077
804.488	7963
804.63	8130
804.773	8035
804.915	8130
805.057	8301
805.199	8229
805.341	8187
805.483	8275
805.626	8191
805.768	8077
805.91	8218
806.052	8210
806.194	8111
806.336	8301
806.478	8130
806.62	8031
806.762	8111
806.904	8286
807.046	8454
807.188	8374
807.33	8317
807.472	8332
807.614	8126
807.756	8176
807.898	7989
808.04	7906
808.182	7856
808.324	7913
808.465	8005
808.607	8107
808.749	8103
808.891	8191
809.033	8244
809.174	8221
809.316	8062
809.458	8084
809.6	7917
809.741	8092
809.883	8100
810.025	8161
810.166	8088
810.308	8039
810.45	8024
810.591	7833
810.733	7742
810.875	7700
811.016	7559
811.158	7495
811.299	7632
811.441	7704
811.582	7715
811.724	7552
811.865	7487
812.007	7552
812.148	7548
812.29	7658
812.431	7757
812.573	7921
812.714	8031
812.855	8176
812.997	8176
813.138	8275
813.279	8183
813.421	8111
813.562	7955
813.703	7875
813.845	7696
813.986	7476
814.127	7278
814.268	7278
814.41	7202
814.551	7183
814.692	7228
814.833	7069
814.974	7065
815.115	7095
815.256	6981
815.397	6913
815.539	6928
815.68	6825
815.821	6798
815.962	6897
816.103	6882
816.244	6715
816.385	6585
816.526	6662
816.666	6536
816.807	6289
816.948	6460
817.089	6486
817.23	6441
817.371	6365
817.512	6407
817.653	6410
817.793	6369
817.934	6441
818.075	6445
818.216	6391
818.356	6407
818.497	6258
818.638	6140
818.778	6186
818.919	6175
819.06	6235
819.2	6369
819.341	6338
819.481	6418
819.622	6555
819.762	6681
819.903	6715
820.043	6608
820.184	6570
820.324	6563
820.465	6711
820.605	6662
820.746	6658
820.886	6486
821.026	6650
821.167	6726
821.307	6787
821.447	6768
821.588	6692
821.728	6559
821.868	6540
822.008	6350
822.149	6403
822.289	6346
822.429	6182
822.569	6060
822.709	6083
822.849	5935
822.99	5897
823.13	5935
823.27	5923
823.41	5771
823.55	5859
823.69	5741
823.83	5828
823.97	5676
824.11	5570
824.25	5505
824.389	5551
824.529	5619
824.669	5585
824.809	5649
824.949	5672
825.089	5611
825.228	5596
825.368	5364
825.508	5372
825.648	5330
825.787	5337
825.927	5379
826.067	5280
826.206	5239
826.346	5326
826.485	5410
826.625	5391
826.765	5532
826.904	5497
827.044	5250
827.183	5170
827.323	5159
827.462	5269
827.601	5201
827.741	5143
827.88	5216
828.02	5075
828.159	5261
828.298	5307
828.437	5406
828.577	5349
828.716	5516
828.855	5315
828.994	5231
829.134	5128
829.273	5208
829.412	5155
829.551	5193
829.69	5155
829.829	5261
829.968	5337
830.107	5261
830.246	5315
830.385	5197
830.524	5185
830.663	5041
830.802	4984
830.941	4892
831.08	4858
831.219	4961
831.357	4976
831.496	5185
831.635	4885
831.774	4892
831.913	4843
832.051	4774
832.19	4744
832.329	4843
832.467	4698
832.606	4672
832.744	4683
832.883	4736
833.022	4717
833.16	4778
833.299	4809
833.437	4824
833.576	4862
833.714	4881
833.852	4908
833.991	4847
834.129	4927
834.267	4934
834.406	4919
834.544	4987
834.682	4930
834.821	4980
834.959	5147
835.097	4999
835.235	5178
835.373	5086
835.511	5086
835.65	5052
835.788	5075
835.926	4915
836.064	4877
836.202	4919
836.34	5151
836.478	5216
836.615	5166
836.753	5113
836.891	5322
837.029	5258
837.167	5235
837.305	5174
837.443	5140
837.58	5079
837.718	5254
837.856	5174
837.993	5113
838.131	5208
838.269	5216
838.406	5208
838.544	5189
838.681	5003
838.819	5029
838.956	4915
839.094	4877
839.231	5010
839.369	5048
839.506	5440
839.643	5292
839.781	5056
839.918	5067
840.055	5090
840.193	5124
840.33	5086
840.467	5140
840.604	5204
840.742	5421
840.879	5090
841.016	5102
841.153	5143
841.29	5349
841.427	5288
841.564	5307
841.701	5387
841.838	5239
841.975	5250
842.112	5277
842.249	5216
842.385	5094
842.522	5372
842.659	5189
842.796	5181
842.933	5208
843.069	5128
843.206	5159
843.343	5318
843.479	5216
843.616	5273
843.752	5086
843.889	5010
844.025	5242
844.162	5025
844.298	5143
844.435	5109
844.571	5086
844.708	5155
844.844	5269
844.98	5337
845.117	5299
845.253	5121
845.389	5067
845.525	5128
845.661	5147
845.798	5060
845.934	5124
846.07	5022
846.206	5189
846.342	5269
846.478	5143
846.614	5003
846.75	5018
846.886	4904
847.022	5159
847.158	5071
847.294	5045
847.429	5090
847.565	5075
847.701	5322
847.837	4870
847.972	4786
848.108	4968
848.244	4957
848.379	4771
848.515	4767
848.65	4721
848.786	4744
848.921	4820
849.057	4862
849.192	4862
849.328	4812
849.463	4854
849.598	4820
849.734	4733
849.869	4664
850.004	4634
850.14	4637
850.275	4607
850.41	4512
850.545	4508
850.68	4599
850.815	4618
850.95	4607
851.085	4839
851.22	4774
851.355	4622
851.49	4569
851.625	4637
851.76	4618
851.895	4558
852.03	4519
852.165	4622
852.299	4656
852.434	4797
852.569	4748
852.703	4801
852.838	4790
852.973	4980
853.107	4919
853.242	4752
853.376	4668
853.511	4516
853.645	4622
853.78	4786
853.914	4649
854.048	4683
854.183	4611
854.317	4755
854.451	4831
854.585	4691
854.72	4645
854.854	4801
854.988	4569
855.122	4630
855.256	4573
855.39	4656
855.524	4847
855.658	4736
855.792	4687
855.926	4736
856.06	4679
856.194	4809
856.327	4649
856.461	4626
856.595	4615
856.729	4630
856.862	4706
856.996	4717
857.13	4664
857.263	4748
857.397	4812
857.53	4660
857.664	4721
857.797	4767
857.931	4797
858.064	4668
858.197	4744
858.331	4653
858.464	4634
858.597	4580
858.731	4656
858.864	4584
858.997	4615
859.13	4626
859.263	4698
859.396	4714
859.529	4577
859.662	4500
859.795	4519
859.928	4653
860.061	4717
860.194	4752
860.327	4618
860.46	4565
860.592	4694
860.725	4725
860.858	4725
860.99	4538
861.123	4500
861.256	4577
861.388	4626
861.521	5315
861.653	4489
861.786	4489
861.918	4440
862.05	4504
862.183	4550
862.315	4596
862.447	4668
862.58	4565
862.712	4436
862.844	4318
862.976	4459
863.108	4489
863.24	4771
863.372	4344
863.504	4466
863.636	4478
863.768	4531
863.9	4421
864.032	4356
864.164	4421
864.296	4459
864.428	4592
864.559	4592
864.691	4531
864.823	4538
864.954	4474
865.086	4527
865.217	4462
865.349	4409
865.48	4455
865.612	4500
865.743	4630
865.875	4455
866.006	4443
866.137	4481
866.269	4466
866.4	4459
866.531	4409
866.662	4383
866.793	4352
866.924	4440
867.055	4527
867.186	4428
867.317	4451
867.448	4383
867.579	4375
867.71	4360
867.841	4402
867.972	4493
868.103	4443
868.233	4436
868.364	4470
868.495	4481
868.625	4607
868.756	4771
868.886	4588
869.017	4622
869.147	4793
869.278	4736
869.408	4675
869.539	4649
869.669	4725
869.799	4645
869.929	4740
870.06	4725
870.19	4953
870.32	4930
870.45	4930
870.58	5010
870.71	5014
870.84	5086
870.97	4934
871.1	4915
871.23	5117
871.36	5086
871.489	5014
871.619	5056
871.749	5098
871.879	5090
872.008	5151
872.138	5060
872.267	4976
872.397	4816
872.526	4771
872.656	4710
872.785	4790
872.915	4889
873.044	5022
873.173	4965
873.303	4942
873.432	4911
873.561	4938
873.69	4915
873.819	4835
873.948	4949
874.077	4824
874.206	4755
874.335	4801
874.464	4892
874.593	5052
874.722	4968
874.851	5086
874.979	5029
875.108	5029
875.237	4877
875.365	4908
875.494	4885
875.623	4976
875.751	4774
875.88	4881
876.008	5010
876.136	5025
876.265	5231
876.393	5315
876.521	5273
876.65	5220
876.778	5159
876.906	5079
877.034	5079
877.162	5022
877.29	5010
877.418	5003
877.546	5052
877.674	5025
877.802	5003
877.93	5052
878.058	4889
878.185	4885
878.313	4923
878.441	4938
878.568	4816
878.696	4862
878.824	4980
878.951	4987
879.079	5155
879.206	5273
879.333	5083
879.461	4949
879.588	4946
879.715	5098
879.842	5227
879.97	4976
880.097	4698
880.224	4744
880.351	4782
880.478	4774
880.605	4755
880.732	4786
880.859	5102
880.986	4908
881.112	4934
881.239	4801
881.366	4656
881.493	4607
881.619	4565
881.746	4687
881.872	4634
881.999	4618
882.125	4660
882.252	4790
882.378	4824
882.505	4961
882.631	4778
882.757	4656
882.883	4679
883.01	4729
883.136	4675
883.262	4569
883.388	4592
883.514	4797
883.64	4900
883.766	4771
883.892	4645
884.018	4744
884.143	4904
884.269	4991
884.395	4687
884.52	4615
884.646	4622
884.772	4584
884.897	4550
885.023	4645
885.148	4801
885.274	4881
885.399	4771
885.524	4710
885.65	4649
885.775	4733
885.9	4706
886.025	4835
886.15	4797
886.275	4729
886.4	4634
886.525	4729
886.65	4656
886.775	4694
886.9	4866
887.025	5086
887.149	4793
887.274	4664
887.399	4622
887.523	4618
887.648	4584
887.773	4596
887.897	4759
888.021	4748
888.146	4721
888.27	4828
888.395	4908
888.519	4759
888.643	4797
888.767	4850
888.891	4675
889.015	4558
889.139	4653
889.263	4531
889.387	4736
889.511	4820
889.635	4801
889.759	4656
889.883	4664
890.006	4736
890.13	4816
890.254	4596
890.377	4653
890.501	4538
890.624	4523
890.748	4599
890.871	4531
890.995	4462
891.118	4402
891.241	4504
891.364	4497
891.488	4596
891.611	4481
891.734	4519
891.857	4599
891.98	4596
892.103	4649
892.226	4588
892.349	4504
892.471	4402
892.594	4504
892.717	4573
892.839	4561
892.962	4577
893.085	4653
893.207	4596
893.33	4440
893.452	4519
893.575	4664
893.697	4580
893.819	4778
893.941	4873
894.064	4702
894.186	4569
894.308	4577
894.43	4744
894.552	4835
894.674	4748
894.796	4565
894.918	4588
895.04	4550
895.161	4660
895.283	4626
895.405	4554
895.526	4622
895.648	4664
895.769	4649
895.891	4653
896.012	4710
896.134	4752
896.255	4668
896.376	4607
896.498	4592
896.619	4698
896.74	4615
896.861	4641
896.982	4919
897.103	5033
897.224	4805
897.345	4744
897.466	4664
897.587	4717
897.708	4877
897.828	4778
897.949	4664
898.07	4561
898.19	4618
898.311	4816
898.431	4656
898.552	4763
898.672	4790
898.792	4831
898.913	4698
899.033	4626
899.153	4497
899.273	4413
899.393	4497
899.513	4500
899.633	4451
899.753	4550
899.873	4500
899.993	4588
900.113	4577
900.232	4546
900.352	4580
900.472	4443
900.591	4371
900.711	4489
900.83	4436
900.95	4577
901.069	4691
901.189	4523
901.308	4375
901.427	4360
901.546	4383
901.665	4432
901.784	4516
901.904	4386
902.023	4291
902.141	4154
902.26	4173
902.379	4306
902.498	4261
902.617	4253
902.735	4405
902.854	4367
902.973	4341
903.091	4204
903.21	4211
903.328	4299
903.446	4268
903.565	4230
903.683	4371
903.801	4265
903.919	4344
904.038	4409
904.156	4329
904.274	4436
904.392	4409
904.51	4405
904.627	4455
904.745	4527
904.863	4668
904.981	4371
905.098	4318
905.216	4329
905.334	4440
905.451	4459
905.569	4455
905.686	4538
905.803	4546
905.921	4383
906.038	4596
906.155	4478
906.272	4367
906.389	4462
906.506	4329
906.623	4375
906.74	4440
906.857	4306
906.974	4291
907.091	4584
907.208	4664
907.324	4565
907.441	4474
907.557	4337
907.674	4268
907.79	4272
907.907	4363
908.023	4462
908.139	4424
908.256	4459
908.372	4413
908.488	4440
908.604	4375
908.72	4318
908.836	4371
908.952	4375
909.068	4421
909.184	4584
909.3	4462
909.415	4512
909.531	4542
909.647	4367
909.762	4348
909.878	4325
909.993	4421
910.108	4398
910.224	4440
910.339	4466
910.454	4360
910.57	4356
910.685	4314
910.8	4615
910.915	4531
911.03	4500
911.145	4333
911.259	4310
911.374	4383
911.489	4295
911.604	4246
911.718	4162
911.833	4196
911.947	4097
912.062	3991
912.176	4173
912.291	4253
912.405	4246
912.519	4421
912.633	4481
912.748	4329
912.862	4314
912.976	4207
913.09	4093
913.204	4173
913.318	4268
913.431	4383
913.545	4344
913.659	4405
913.772	4341
913.886	4280
914	4200
914.113	4363
914.226	4443
914.34	4413
914.453	4227
914.566	4409
914.68	4257
914.793	4303
914.906	4154
915.019	4135
915.132	4067
915.245	4188
915.358	4227
915.47	4230
915.583	4242
915.696	4303
915.809	4371
915.921	4451
916.034	4261
916.146	4257
916.259	4234
916.371	4371
916.483	4352
916.595	4284
916.708	4276
916.82	4329
916.932	4329
917.044	4360
917.156	4322
917.268	4223
917.38	4284
917.491	4295
917.603	4314
917.715	4428
917.826	4409
917.938	4333
918.049	4227
918.161	4356
918.272	4527
918.384	4573
918.495	4466
918.606	4310
918.717	4257
918.828	4310
918.939	4402
919.05	4242
919.161	4314
919.272	4128
919.383	4200
919.494	4451
919.604	4596
919.715	4413
919.826	4299
919.936	4383
920.047	4550
920.157	4474
920.267	4702
920.378	4542
920.488	4478
920.598	4714
920.708	4870
920.818	4767
920.928	4790
921.038	4946
921.148	4946
921.258	4577
921.368	4531
921.477	4462
921.587	4424
921.697	4409
921.806	4550
921.916	4466
922.025	4246
922.134	4280
922.244	4234
922.353	4329
922.462	4162
922.571	4143
922.68	4013
922.789	3937
922.898	4021
923.007	4013
923.116	4090
923.224	4048
923.333	4059
923.442	4006
923.55	3998
923.659	4040
923.767	4078
923.876	3991
923.984	4120
924.092	3975
924.201	4063
924.309	4135
924.417	4086
924.525	4067
924.633	4086
924.741	4873
924.849	3907
924.956	4139
925.064	3964
925.172	3903
925.279	3953
925.387	4063
925.494	4063
925.602	4177
925.709	4177
925.816	4048
925.924	4154
926.031	4200
926.138	4181
926.245	4223
926.352	4063
926.459	4204
926.566	4322
926.673	4150
926.779	4116
926.886	4082
926.993	3968
927.099	3983
927.206	3941
927.312	3915
927.419	4063
927.525	4032
927.631	4090
927.737	3934
927.843	3930
927.95	3888
928.056	3934
928.162	3998
928.267	4036
928.373	4577
928.479	4055
928.585	3873
928.69	4013
928.796	4063
928.901	3975
929.007	3831
929.112	3975
929.218	3964
929.323	3930
929.428	3956
929.533	4105
929.638	3896
929.743	3953
929.848	4044
929.953	3991
930.058	3922
930.163	3785
930.267	3755
930.372	4010
930.477	3812
930.581	4105
930.685	3949
930.79	3861
930.894	3869
930.998	3835
931.103	4006
931.207	3724
931.311	3682
931.415	3686
931.519	3462
931.623	3561
