Data from test_V78500241_603.txt Node
Date: Fri Mar 25 16:53:11 CST 2022
User: usil
Spectrometer: V785-0024
Trigger mode: 0
Integration Time (sec): 4.000000E-1
Scans to average: 1
Nonlinearity correction enabled: false
Boxcar width: 0
Storing dark spectrum: false
XAxis mode: Wavelengths
Number of Pixels in Spectrum: 1024
>>>>>Begin Spectral Data<<<<<
801.071	8008
801.214	8046
801.356	7780
801.499	7814
801.641	7799
801.783	7887
801.926	8027
802.068	8016
802.211	8001
802.353	7997
802.496	7932
802.638	7902
802.78	7940
802.923	7925
803.065	7822
803.208	7822
803.35	7963
803.492	8081
803.635	8202
803.777	8020
803.919	8081
804.061	8377
804.204	8084
804.346	8027
804.488	7932
804.63	8046
804.773	7940
804.915	8115
805.057	8290
805.199	8210
805.341	8298
805.483	8244
805.626	8244
805.768	8119
805.91	8267
806.052	8187
806.194	8058
806.336	8320
806.478	8096
806.62	8180
806.762	8103
806.904	8298
807.046	8454
807.188	8305
807.33	8317
807.472	8339
807.614	8176
807.756	8138
807.898	7955
808.04	7868
808.182	7906
808.324	7890
808.465	7932
808.607	8031
808.749	8020
808.891	8218
809.033	8221
809.174	8195
809.316	7989
809.458	7982
809.6	8001
809.741	8043
809.883	7986
810.025	8100
810.166	8043
810.308	8020
810.45	7993
810.591	7845
810.733	7734
810.875	7685
811.016	7487
811.158	7540
811.299	7609
811.441	7742
811.582	7613
811.724	7556
811.865	7567
812.007	7537
812.148	7620
812.29	7639
812.431	7712
812.573	7799
812.714	8008
812.855	8138
812.997	8244
813.138	8328
813.279	8229
813.421	8191
813.562	8088
813.703	7837
813.845	7822
813.986	7525
814.127	7316
814.268	7289
814.41	7141
814.551	7183
814.692	7133
814.833	7008
814.974	7099
815.115	7145
815.256	6985
815.397	6894
815.539	6977
815.68	6776
815.821	6802
815.962	6886
816.103	6833
816.244	6703
816.385	6593
816.526	6631
816.666	6422
816.807	6323
816.948	6407
817.089	6528
817.23	6391
817.371	6357
817.512	6429
817.653	6380
817.793	6369
817.934	6437
818.075	6441
818.216	6395
818.356	6407
818.497	6224
818.638	6114
818.778	6163
818.919	6095
819.06	6155
819.2	6311
819.341	6209
819.481	6361
819.622	6525
819.762	6730
819.903	6627
820.043	6585
820.184	6631
820.324	6536
820.465	6722
820.605	6601
820.746	6563
820.886	6467
821.026	6604
821.167	6738
821.307	6741
821.447	6711
821.588	6616
821.728	6555
821.868	6464
822.008	6361
822.149	6384
822.289	6353
822.429	6178
822.569	6098
822.709	6087
822.849	5904
822.99	5904
823.13	5923
823.27	5878
823.41	5741
823.55	5752
823.69	5775
823.83	5805
823.97	5661
824.11	5535
824.25	5505
824.389	5524
824.529	5634
824.669	5509
824.809	5592
824.949	5661
825.089	5600
825.228	5528
825.368	5379
825.508	5349
825.648	5345
825.787	5402
825.927	5372
826.067	5269
826.206	5311
826.346	5414
826.485	5433
826.625	5372
826.765	5554
826.904	5425
827.044	5235
827.183	5212
827.323	5090
827.462	5208
827.601	5170
827.741	5212
827.88	5208
828.02	5166
828.159	5220
828.298	5258
828.437	5357
828.577	5254
828.716	5433
828.855	5330
828.994	5170
829.134	5090
829.273	5231
829.412	5086
829.551	5193
829.69	5170
829.829	5189
829.968	5391
830.107	5288
830.246	5269
830.385	5231
830.524	5071
830.663	5014
830.802	4953
830.941	4900
831.08	4820
831.219	5018
831.357	4999
831.496	5143
831.635	4938
831.774	4843
831.913	4828
832.051	4740
832.19	4744
832.329	4835
832.467	4672
832.606	4641
832.744	4725
832.883	4748
833.022	4687
833.16	4698
833.299	4835
833.437	4820
833.576	4828
833.714	4835
833.852	4866
833.991	4915
834.129	4938
834.267	4949
834.406	4900
834.544	4949
834.682	4987
834.821	4972
834.959	5185
835.097	4976
835.235	5140
835.373	5067
835.511	5121
835.65	5056
835.788	4968
835.926	4908
836.064	4843
836.202	4900
836.34	5197
836.478	5204
836.615	5178
836.753	5201
836.891	5280
837.029	5254
837.167	5136
837.305	5204
837.443	5113
837.58	5067
837.718	5261
837.856	5174
837.993	5121
838.131	5197
838.269	5250
838.406	5193
838.544	5197
838.681	5060
838.819	4980
838.956	4881
839.094	4889
839.231	4949
839.369	5067
839.506	5425
839.643	5265
839.781	5029
839.918	5006
840.055	5098
840.193	5128
840.33	5075
840.467	5113
840.604	5178
840.742	5414
840.879	5048
841.016	5102
841.153	5166
841.29	5395
841.427	5372
841.564	5280
841.701	5341
841.838	5216
841.975	5208
842.112	5318
842.249	5132
842.385	5094
842.522	5326
842.659	5166
842.796	5155
842.933	5197
843.069	5105
843.206	5166
843.343	5288
843.479	5258
843.616	5280
843.752	5029
843.889	5079
844.025	5220
844.162	5014
844.298	5193
844.435	5052
844.571	5018
844.708	5220
844.844	5311
844.98	5288
845.117	5261
845.253	5102
845.389	5033
845.525	5178
845.661	5117
845.798	5014
845.934	5140
846.07	5014
846.206	5208
846.342	5269
846.478	5189
846.614	4938
846.75	4965
846.886	4953
847.022	5128
847.158	4995
847.294	5041
847.429	5162
847.565	5029
847.701	5307
847.837	4850
847.972	4778
848.108	4915
848.244	4896
848.379	4744
848.515	4725
848.65	4729
848.786	4763
848.921	4786
849.057	4835
849.192	4877
849.328	4812
849.463	4831
849.598	4778
849.734	4691
849.869	4698
850.004	4630
850.14	4672
850.275	4584
850.41	4497
850.545	4577
850.68	4599
850.815	4611
850.95	4645
851.085	4843
851.22	4698
851.355	4672
851.49	4573
851.625	4580
851.76	4634
851.895	4565
852.03	4500
852.165	4649
852.299	4733
852.434	4778
852.569	4744
852.703	4736
852.838	4793
852.973	4927
853.107	4900
853.242	4694
853.376	4702
853.511	4550
853.645	4596
853.78	4797
853.914	4698
854.048	4679
854.183	4607
854.317	4702
854.451	4828
854.585	4653
854.72	4630
854.854	4733
854.988	4592
855.122	4577
855.256	4508
855.39	4607
855.524	4782
855.658	4717
855.792	4702
855.926	4725
856.06	4763
856.194	4809
856.327	4691
856.461	4599
856.595	4592
856.729	4584
856.862	4736
856.996	4683
857.13	4706
857.263	4740
857.397	4763
857.53	4649
857.664	4736
857.797	4748
857.931	4729
858.064	4687
858.197	4740
858.331	4630
858.464	4599
858.597	4531
858.731	4554
858.864	4634
858.997	4592
859.13	4660
859.263	4626
859.396	4691
859.529	4554
859.662	4523
859.795	4535
859.928	4622
860.061	4752
860.194	4767
860.327	4615
860.46	4569
860.592	4653
860.725	4729
860.858	4736
860.99	4554
861.123	4504
861.256	4535
861.388	4622
861.521	5459
861.653	4470
861.786	4432
861.918	4440
862.05	4500
862.183	4558
862.315	4611
862.447	4637
862.58	4542
862.712	4428
862.844	4337
862.976	4462
863.108	4451
863.24	4892
863.372	4356
863.504	4443
863.636	4405
863.768	4516
863.9	4424
864.032	4348
864.164	4371
864.296	4466
864.428	4588
864.559	4573
864.691	4550
864.823	4535
864.954	4489
865.086	4500
865.217	4417
865.349	4390
865.48	4470
865.612	4497
865.743	4618
865.875	4485
866.006	4447
866.137	4428
866.269	4440
866.4	4455
866.531	4398
866.662	4405
866.793	4417
866.924	4432
867.055	4493
867.186	4466
867.317	4398
867.448	4329
867.579	4413
867.71	4440
867.841	4352
867.972	4455
868.103	4489
868.233	4451
868.364	4474
868.495	4443
868.625	4691
868.756	4774
868.886	4569
869.017	4615
869.147	4786
869.278	4763
869.408	4611
869.539	4649
869.669	4736
869.799	4664
869.929	4717
870.06	4752
870.19	4961
870.32	4900
870.45	4915
870.58	5056
870.71	5037
870.84	5086
870.97	4953
871.1	4900
871.23	5124
871.36	5086
871.489	5025
871.619	5064
871.749	5090
871.879	5117
872.008	5159
872.138	5090
872.267	4968
872.397	4870
872.526	4763
872.656	4771
872.785	4782
872.915	4938
873.044	5075
873.173	4957
873.303	4961
873.432	4938
873.561	4976
873.69	4847
873.819	4843
873.948	4949
874.077	4790
874.206	4778
874.335	4801
874.464	4938
874.593	5060
874.722	4968
874.851	5090
874.979	5056
875.108	5037
875.237	4877
875.365	4915
875.494	4881
875.623	4980
875.751	4790
875.88	4885
876.008	4976
876.136	5033
876.265	5162
876.393	5337
876.521	5258
876.65	5231
876.778	5178
876.906	5067
877.034	5075
877.162	5121
877.29	4961
877.418	5045
877.546	5037
877.674	5003
877.802	5014
877.93	4976
878.058	4927
878.185	4873
878.313	4987
878.441	4984
878.568	4797
878.696	4877
878.824	4961
878.951	5060
879.079	5124
879.206	5334
879.333	5060
879.461	5010
879.588	5014
879.715	5086
879.842	5239
879.97	5045
880.097	4771
880.224	4763
880.351	4847
880.478	4812
880.605	4771
880.732	4786
880.859	5079
880.986	4889
881.112	4908
881.239	4736
881.366	4653
881.493	4577
881.619	4554
881.746	4615
881.872	4664
881.999	4637
882.125	4683
882.252	4820
882.378	4816
882.505	4942
882.631	4820
882.757	4679
882.883	4816
883.01	4759
883.136	4668
883.262	4630
883.388	4584
883.514	4793
883.64	4839
883.766	4805
883.892	4694
884.018	4721
884.143	4930
884.269	5037
884.395	4687
884.52	4656
884.646	4691
884.772	4592
884.897	4546
885.023	4630
885.148	4805
885.274	4835
885.399	4820
885.524	4744
885.65	4691
885.775	4786
885.9	4675
886.025	4824
886.15	4801
886.275	4740
886.4	4653
886.525	4694
886.65	4714
886.775	4721
886.9	4930
887.025	5037
887.149	4847
887.274	4679
887.399	4580
887.523	4634
887.648	4599
887.773	4611
887.897	4733
888.021	4850
888.146	4615
888.27	4778
888.395	4866
888.519	4759
888.643	4850
888.767	4862
888.891	4698
889.015	4596
889.139	4698
889.263	4550
889.387	4755
889.511	4843
889.635	4767
889.759	4603
889.883	4641
890.006	4694
890.13	4843
890.254	4626
890.377	4691
890.501	4577
890.624	4527
890.748	4649
890.871	4512
890.995	4447
891.118	4405
891.241	4512
891.364	4523
891.488	4596
891.611	4504
891.734	4519
891.857	4618
891.98	4565
892.103	4691
892.226	4603
892.349	4512
892.471	4443
892.594	4538
892.717	4577
892.839	4588
892.962	4554
893.085	4668
893.207	4577
893.33	4462
893.452	4489
893.575	4637
893.697	4573
893.819	4824
893.941	4721
894.064	4778
894.186	4580
894.308	4519
894.43	4778
894.552	4801
894.674	4744
894.796	4519
894.918	4580
895.04	4538
895.161	4725
895.283	4622
895.405	4554
895.526	4611
895.648	4702
895.769	4622
895.891	4774
896.012	4729
896.134	4763
896.255	4588
896.376	4634
896.498	4584
896.619	4706
896.74	4630
896.861	4687
896.982	4927
897.103	5075
897.224	4858
897.345	4759
897.466	4668
897.587	4733
897.708	4850
897.828	4733
897.949	4672
898.07	4577
898.19	4653
898.311	4812
898.431	4660
898.552	4721
898.672	4805
898.792	4805
898.913	4752
899.033	4645
899.153	4497
899.273	4394
899.393	4519
899.513	4550
899.633	4546
899.753	4519
899.873	4542
899.993	4611
900.113	4561
900.232	4634
900.352	4535
900.472	4493
900.591	4409
900.711	4493
900.83	4428
900.95	4634
901.069	4710
901.189	4485
901.308	4333
901.427	4306
901.546	4417
901.665	4485
901.784	4474
901.904	4367
902.023	4363
902.141	4173
902.26	4200
902.379	4318
902.498	4253
902.617	4238
902.735	4356
902.854	4379
902.973	4383
903.091	4204
903.21	4200
903.328	4291
903.446	4310
903.565	4280
903.683	4344
903.801	4249
903.919	4386
904.038	4455
904.156	4314
904.274	4424
904.392	4383
904.51	4447
904.627	4489
904.745	4588
904.863	4615
904.981	4383
905.098	4295
905.216	4360
905.334	4459
905.451	4462
905.569	4493
905.686	4588
905.803	4622
905.921	4443
906.038	4512
906.155	4497
906.272	4417
906.389	4405
906.506	4337
906.623	4348
906.74	4394
906.857	4284
906.974	4352
907.091	4523
907.208	4694
907.324	4561
907.441	4462
907.557	4360
907.674	4352
907.79	4287
907.907	4383
908.023	4489
908.139	4451
908.256	4440
908.372	4443
908.488	4474
908.604	4356
908.72	4310
908.836	4379
908.952	4356
909.068	4424
909.184	4584
909.3	4466
909.415	4611
909.531	4519
909.647	4371
909.762	4379
909.878	4371
909.993	4428
910.108	4337
910.224	4417
910.339	4474
910.454	4394
910.57	4337
910.685	4352
910.8	4653
910.915	4618
911.03	4500
911.145	4261
911.259	4337
911.374	4348
911.489	4303
911.604	4249
911.718	4181
911.833	4192
911.947	4105
912.062	3975
912.176	4227
912.291	4238
912.405	4227
912.519	4470
912.633	4519
912.748	4352
912.862	4329
912.976	4188
913.09	4093
913.204	4207
913.318	4246
913.431	4367
913.545	4390
913.659	4466
913.772	4341
913.886	4268
914	4211
914.113	4398
914.226	4424
914.34	4379
914.453	4230
914.566	4413
914.68	4261
914.793	4314
914.906	4143
915.019	4090
915.132	4097
915.245	4185
915.358	4219
915.47	4223
915.583	4246
915.696	4322
915.809	4394
915.921	4489
916.034	4249
916.146	4314
916.259	4192
916.371	4390
916.483	4352
916.595	4253
916.708	4318
916.82	4322
916.932	4314
917.044	4272
917.156	4352
917.268	4242
917.38	4295
917.491	4249
917.603	4344
917.715	4379
917.826	4470
917.938	4367
918.049	4272
918.161	4386
918.272	4588
918.384	4519
918.495	4455
918.606	4303
918.717	4272
918.828	4352
918.939	4367
919.05	4272
919.161	4306
919.272	4109
919.383	4242
919.494	4440
919.604	4668
919.715	4474
919.826	4360
919.936	4398
920.047	4508
920.157	4481
920.267	4706
920.378	4504
920.488	4538
920.598	4729
920.708	4873
920.818	4763
920.928	4767
921.038	4946
921.148	4908
921.258	4637
921.368	4607
921.477	4550
921.587	4424
921.697	4360
921.806	4546
921.916	4459
922.025	4272
922.134	4295
922.244	4173
922.353	4325
922.462	4223
922.571	4131
922.68	4036
922.789	3979
922.898	4040
923.007	3994
923.116	4074
923.224	4071
923.333	4074
923.442	4002
923.55	3972
923.659	4051
923.767	4086
923.876	4010
923.984	4112
924.092	3987
924.201	4090
924.309	4105
924.417	4158
924.525	4071
924.633	4082
924.741	5079
924.849	3960
924.956	4112
925.064	3960
925.172	3880
925.279	3945
925.387	4090
925.494	4040
925.602	4223
925.709	4177
925.816	4093
925.924	4101
926.031	4261
926.138	4204
926.245	4188
926.352	4109
926.459	4246
926.566	4333
926.673	4154
926.779	4086
926.886	4078
926.993	4002
927.099	3968
927.206	3918
927.312	3960
927.419	4067
927.525	4002
927.631	4090
927.737	3964
927.843	3941
927.95	3876
928.056	3983
928.162	3979
928.267	4051
928.373	4668
928.479	4139
928.585	3876
928.69	4006
928.796	4067
928.901	3983
929.007	3835
929.112	3987
929.218	3937
929.323	3972
929.428	3964
929.533	4101
929.638	3899
929.743	3975
929.848	4051
929.953	4032
930.058	3953
930.163	3774
930.267	3846
930.372	3964
930.477	3846
930.581	4112
930.685	3937
930.79	3854
930.894	3896
930.998	3876
931.103	4048
931.207	3701
931.311	3660
931.415	3679
931.519	3515
931.623	3553
