Data from test_V78500241_120.txt Node
Date: Fri Mar 25 16:49:50 CST 2022
User: usil
Spectrometer: V785-0024
Trigger mode: 0
Integration Time (sec): 4.000000E-1
Scans to average: 1
Nonlinearity correction enabled: false
Boxcar width: 0
Storing dark spectrum: false
XAxis mode: Wavelengths
Number of Pixels in Spectrum: 1024
>>>>>Begin Spectral Data<<<<<
801.071	7997
801.214	8050
801.356	7974
801.499	7902
801.641	7826
801.783	7814
801.926	8039
802.068	7921
802.211	7993
802.353	8046
802.496	7894
802.638	7932
802.78	7936
802.923	7936
803.065	7909
803.208	7822
803.35	7989
803.492	8012
803.635	8138
803.777	8043
803.919	8168
804.061	8415
804.204	8039
804.346	7963
804.488	7909
804.63	7993
804.773	8035
804.915	8043
805.057	8256
805.199	8107
805.341	8202
805.483	8282
805.626	8229
805.768	8096
805.91	8225
806.052	8252
806.194	8123
806.336	8305
806.478	8103
806.62	8157
806.762	8161
806.904	8168
807.046	8431
807.188	8355
807.33	8267
807.472	8393
807.614	8138
807.756	8164
807.898	8020
808.04	7890
808.182	7868
808.324	7871
808.465	7955
808.607	7986
808.749	8088
808.891	8214
809.033	8332
809.174	8187
809.316	8027
809.458	8084
809.6	8027
809.741	8062
809.883	8073
810.025	8115
810.166	8058
810.308	8065
810.45	8001
810.591	7898
810.733	7852
810.875	7636
811.016	7556
811.158	7544
811.299	7693
811.441	7727
811.582	7689
811.724	7658
811.865	7624
812.007	7674
812.148	7632
812.29	7704
812.431	7723
812.573	7917
812.714	8043
812.855	8275
812.997	8343
813.138	8400
813.279	8248
813.421	8237
813.562	8081
813.703	7963
813.845	7807
813.986	7491
814.127	7331
814.268	7240
814.41	7244
814.551	7179
814.692	7232
814.833	7179
814.974	7152
815.115	7187
815.256	6981
815.397	7000
815.539	6977
815.68	6791
815.821	6825
815.962	6909
816.103	6859
816.244	6764
816.385	6658
816.526	6642
816.666	6559
816.807	6311
816.948	6456
817.089	6460
817.23	6475
817.371	6437
817.512	6384
817.653	6410
817.793	6467
817.934	6426
818.075	6540
818.216	6441
818.356	6498
818.497	6251
818.638	6159
818.778	6133
818.919	6167
819.06	6171
819.2	6334
819.341	6304
819.481	6372
819.622	6578
819.762	6772
819.903	6665
820.043	6642
820.184	6616
820.324	6604
820.465	6711
820.605	6654
820.746	6692
820.886	6593
821.026	6677
821.167	6768
821.307	6764
821.447	6772
821.588	6715
821.728	6631
821.868	6525
822.008	6376
822.149	6433
822.289	6437
822.429	6155
822.569	6087
822.709	6136
822.849	5958
822.99	5908
823.13	5965
823.27	5961
823.41	5802
823.55	5836
823.69	5771
823.83	5779
823.97	5718
824.11	5577
824.25	5611
824.389	5566
824.529	5653
824.669	5558
824.809	5710
824.949	5672
825.089	5684
825.228	5554
825.368	5444
825.508	5349
825.648	5337
825.787	5410
825.927	5357
826.067	5280
826.206	5345
826.346	5398
826.485	5429
826.625	5436
826.765	5570
826.904	5543
827.044	5250
827.183	5220
827.323	5105
827.462	5292
827.601	5170
827.741	5189
827.88	5235
828.02	5162
828.159	5265
828.298	5387
828.437	5353
828.577	5334
828.716	5512
828.855	5334
828.994	5166
829.134	5174
829.273	5204
829.412	5102
829.551	5178
829.69	5204
829.829	5296
829.968	5402
830.107	5269
830.246	5280
830.385	5181
830.524	5159
830.663	5109
830.802	5014
830.941	4919
831.08	4896
831.219	5010
831.357	4957
831.496	5189
831.635	5018
831.774	4881
831.913	4900
832.051	4763
832.19	4786
832.329	4873
832.467	4706
832.606	4634
832.744	4714
832.883	4706
833.022	4740
833.16	4774
833.299	4816
833.437	4835
833.576	4824
833.714	4881
833.852	4908
833.991	4896
834.129	4961
834.267	4942
834.406	4927
834.544	5014
834.682	4961
834.821	5025
834.959	5208
835.097	5014
835.235	5155
835.373	5105
835.511	5132
835.65	5018
835.788	4999
835.926	4930
836.064	4904
836.202	4972
836.34	5174
836.478	5197
836.615	5193
836.753	5231
836.891	5318
837.029	5284
837.167	5212
837.305	5162
837.443	5193
837.58	5109
837.718	5303
837.856	5239
837.993	5178
838.131	5250
838.269	5223
838.406	5220
838.544	5212
838.681	5071
838.819	5014
838.956	4900
839.094	4961
839.231	5022
839.369	5064
839.506	5391
839.643	5246
839.781	5048
839.918	5033
840.055	5136
840.193	5117
840.33	5166
840.467	5155
840.604	5227
840.742	5417
840.879	5094
841.016	5090
841.153	5109
841.29	5364
841.427	5360
841.564	5345
841.701	5368
841.838	5307
841.975	5181
842.112	5292
842.249	5132
842.385	5136
842.522	5307
842.659	5239
842.796	5162
842.933	5227
843.069	5143
843.206	5212
843.343	5315
843.479	5227
843.616	5322
843.752	5090
843.889	4961
844.025	5227
844.162	5006
844.298	5250
844.435	5064
844.571	5109
844.708	5193
844.844	5337
844.98	5303
845.117	5341
845.253	5147
845.389	5121
845.525	5193
845.661	5151
845.798	4999
845.934	5067
846.07	5075
846.206	5242
846.342	5311
846.478	5162
846.614	5003
846.75	4953
846.886	4984
847.022	5159
847.158	5003
847.294	5090
847.429	5113
847.565	5109
847.701	5395
847.837	4889
847.972	4831
848.108	5048
848.244	4991
848.379	4824
848.515	4771
848.65	4763
848.786	4740
848.921	4790
849.057	4881
849.192	4949
849.328	4797
849.463	4858
849.598	4828
849.734	4782
849.869	4672
850.004	4626
850.14	4653
850.275	4634
850.41	4497
850.545	4599
850.68	4592
850.815	4596
850.95	4683
851.085	4805
851.22	4725
851.355	4683
851.49	4618
851.625	4599
851.76	4611
851.895	4603
852.03	4546
852.165	4691
852.299	4710
852.434	4763
852.569	4771
852.703	4835
852.838	4900
852.973	4904
853.107	4957
853.242	4778
853.376	4683
853.511	4542
853.645	4596
853.78	4809
853.914	4672
854.048	4668
854.183	4611
854.317	4736
854.451	4843
854.585	4687
854.72	4672
854.854	4717
854.988	4588
855.122	4698
855.256	4527
855.39	4668
855.524	4870
855.658	4714
855.792	4694
855.926	4717
856.06	4782
856.194	4839
856.327	4656
856.461	4592
856.595	4637
856.729	4660
856.862	4744
856.996	4736
857.13	4752
857.263	4771
857.397	4816
857.53	4710
857.664	4744
857.797	4736
857.931	4797
858.064	4698
858.197	4744
858.331	4626
858.464	4645
858.597	4565
858.731	4596
858.864	4660
858.997	4653
859.13	4675
859.263	4634
859.396	4706
859.529	4580
859.662	4565
859.795	4512
859.928	4637
860.061	4786
860.194	4755
860.327	4607
860.46	4584
860.592	4786
860.725	4717
860.858	4733
860.99	4630
861.123	4519
861.256	4538
861.388	4561
861.521	5360
861.653	4519
861.786	4421
861.918	4535
862.05	4565
862.183	4558
862.315	4641
862.447	4660
862.58	4580
862.712	4447
862.844	4363
862.976	4478
863.108	4489
863.24	4885
863.372	4310
863.504	4447
863.636	4428
863.768	4470
863.9	4474
864.032	4394
864.164	4386
864.296	4497
864.428	4542
864.559	4584
864.691	4535
864.823	4546
864.954	4538
865.086	4588
865.217	4481
865.349	4466
865.48	4470
865.612	4462
865.743	4596
865.875	4527
866.006	4421
866.137	4481
866.269	4459
866.4	4466
866.531	4409
866.662	4413
866.793	4428
866.924	4478
867.055	4489
867.186	4436
867.317	4440
867.448	4383
867.579	4390
867.71	4402
867.841	4375
867.972	4523
868.103	4428
868.233	4421
868.364	4466
868.495	4500
868.625	4618
868.756	4782
868.886	4592
869.017	4615
869.147	4790
869.278	4801
869.408	4771
869.539	4683
869.669	4736
869.799	4634
869.929	4740
870.06	4771
870.19	4953
870.32	4995
870.45	4919
870.58	4984
870.71	5113
870.84	5166
870.97	5041
871.1	4904
871.23	5113
871.36	5128
871.489	5048
871.619	5128
871.749	5083
871.879	5159
872.008	5181
872.138	5124
872.267	4995
872.397	4835
872.526	4805
872.656	4679
872.785	4820
872.915	4961
873.044	5029
873.173	4957
873.303	4946
873.432	4987
873.561	4987
873.69	4900
873.819	4843
873.948	4911
874.077	4828
874.206	4778
874.335	4816
874.464	4889
874.593	5064
874.722	4915
874.851	5136
874.979	5064
875.108	5075
875.237	4911
875.365	4824
875.494	4854
875.623	5022
875.751	4873
875.88	4889
876.008	5010
876.136	5025
876.265	5212
876.393	5360
876.521	5242
876.65	5250
876.778	5162
876.906	5071
877.034	5060
877.162	5052
877.29	5006
877.418	5045
877.546	5033
877.674	5064
877.802	5075
877.93	5014
878.058	4900
878.185	4896
878.313	4908
878.441	4965
878.568	4824
878.696	4847
878.824	4972
878.951	4976
879.079	5136
879.206	5299
879.333	5086
879.461	5003
879.588	4953
879.715	5117
879.842	5280
879.97	4984
880.097	4801
880.224	4733
880.351	4862
880.478	4870
880.605	4797
880.732	4847
880.859	5136
880.986	4877
881.112	4965
881.239	4801
881.366	4721
881.493	4599
881.619	4615
881.746	4634
881.872	4660
881.999	4645
882.125	4698
882.252	4790
882.378	4847
882.505	4972
882.631	4793
882.757	4683
882.883	4748
883.01	4771
883.136	4679
883.262	4656
883.388	4599
883.514	4835
883.64	4892
883.766	4801
883.892	4675
884.018	4748
884.143	4919
884.269	5025
884.395	4691
884.52	4664
884.646	4668
884.772	4599
884.897	4527
885.023	4691
885.148	4793
885.274	4870
885.399	4805
885.524	4729
885.65	4675
885.775	4771
885.9	4759
886.025	4870
886.15	4835
886.275	4683
886.4	4679
886.525	4778
886.65	4675
886.775	4683
886.9	4942
887.025	5056
887.149	4771
887.274	4656
887.399	4599
887.523	4577
887.648	4611
887.773	4615
887.897	4729
888.021	4812
888.146	4725
888.27	4816
888.395	4911
888.519	4816
888.643	4862
888.767	4843
888.891	4729
889.015	4649
889.139	4634
889.263	4660
889.387	4820
889.511	4915
889.635	4801
889.759	4656
889.883	4668
890.006	4725
890.13	4843
890.254	4603
890.377	4668
890.501	4538
890.624	4512
890.748	4637
890.871	4519
890.995	4417
891.118	4421
891.241	4535
891.364	4531
891.488	4653
891.611	4504
891.734	4592
891.857	4569
891.98	4512
892.103	4645
892.226	4649
892.349	4550
892.471	4428
892.594	4554
892.717	4561
892.839	4588
892.962	4630
893.085	4679
893.207	4561
893.33	4459
893.452	4519
893.575	4645
893.697	4603
893.819	4816
893.941	4843
894.064	4816
894.186	4535
894.308	4554
894.43	4755
894.552	4820
894.674	4771
894.796	4596
894.918	4611
895.04	4580
895.161	4763
895.283	4634
895.405	4599
895.526	4599
895.648	4683
895.769	4683
895.891	4698
896.012	4774
896.134	4725
896.255	4698
896.376	4637
896.498	4588
896.619	4744
896.74	4592
896.861	4668
896.982	4930
897.103	5170
897.224	4828
897.345	4778
897.466	4694
897.587	4752
897.708	4896
897.828	4797
897.949	4733
898.07	4615
898.19	4653
898.311	4908
898.431	4733
898.552	4801
898.672	4835
898.792	4866
898.913	4847
899.033	4687
899.153	4577
899.273	4478
899.393	4546
899.513	4580
899.633	4565
899.753	4577
899.873	4599
899.993	4615
900.113	4565
900.232	4630
900.352	4607
900.472	4588
900.591	4424
900.711	4531
900.83	4474
900.95	4664
901.069	4744
901.189	4607
901.308	4421
901.427	4386
901.546	4440
901.665	4550
901.784	4599
901.904	4455
902.023	4421
902.141	4230
902.26	4253
902.379	4394
902.498	4299
902.617	4295
902.735	4485
902.854	4455
902.973	4436
903.091	4268
903.21	4276
903.328	4318
903.446	4363
903.565	4333
903.683	4402
903.801	4344
903.919	4459
904.038	4516
904.156	4386
904.274	4424
904.392	4481
904.51	4508
904.627	4497
904.745	4649
904.863	4675
904.981	4459
905.098	4352
905.216	4398
905.334	4474
905.451	4447
905.569	4519
905.686	4592
905.803	4630
905.921	4485
906.038	4634
906.155	4573
906.272	4504
906.389	4485
906.506	4394
906.623	4432
906.74	4436
906.857	4348
906.974	4428
907.091	4599
907.208	4729
907.324	4668
907.441	4550
907.557	4371
907.674	4413
907.79	4360
907.907	4424
908.023	4527
908.139	4569
908.256	4470
908.372	4519
908.488	4531
908.604	4413
908.72	4367
908.836	4394
908.952	4409
909.068	4470
909.184	4637
909.3	4538
909.415	4645
909.531	4603
909.647	4360
909.762	4417
909.878	4386
909.993	4466
910.108	4508
910.224	4504
910.339	4596
910.454	4474
910.57	4363
910.685	4363
910.8	4687
910.915	4660
911.03	4584
911.145	4398
911.259	4371
911.374	4462
911.489	4352
911.604	4367
911.718	4219
911.833	4227
911.947	4116
912.062	4090
912.176	4268
912.291	4253
912.405	4276
912.519	4527
912.633	4550
912.748	4436
912.862	4386
912.976	4253
913.09	4177
913.204	4249
913.318	4291
913.431	4436
913.545	4409
913.659	4489
913.772	4363
913.886	4337
914	4318
914.113	4424
914.226	4470
914.34	4421
914.453	4314
914.566	4504
914.68	4386
914.793	4383
914.906	4196
915.019	4143
915.132	4143
915.245	4246
915.358	4265
915.47	4253
915.583	4303
915.696	4325
915.809	4424
915.921	4428
916.034	4303
916.146	4341
916.259	4284
916.371	4462
916.483	4428
916.595	4310
916.708	4409
916.82	4363
916.932	4394
917.044	4424
917.156	4375
917.268	4280
917.38	4337
917.491	4318
917.603	4390
917.715	4508
917.826	4497
917.938	4402
918.049	4306
918.161	4481
918.272	4592
918.384	4561
918.495	4493
918.606	4337
918.717	4261
918.828	4402
918.939	4405
919.05	4322
919.161	4386
919.272	4219
919.383	4280
919.494	4466
919.604	4668
919.715	4531
919.826	4428
919.936	4459
920.047	4580
920.157	4580
920.267	4786
920.378	4599
920.488	4569
920.598	4824
920.708	4911
920.818	4778
920.928	4843
921.038	5003
921.148	4976
921.258	4698
921.368	4626
921.477	4535
921.587	4508
921.697	4428
921.806	4630
921.916	4470
922.025	4329
922.134	4318
922.244	4276
922.353	4417
922.462	4196
922.571	4223
922.68	4044
922.789	4017
922.898	4120
923.007	4059
923.116	4192
923.224	4101
923.333	4185
923.442	4006
923.55	4021
923.659	4059
923.767	4181
923.876	4051
923.984	4166
924.092	4021
924.201	4105
924.309	4158
924.417	4219
924.525	4090
924.633	4124
924.741	4938
924.849	3968
924.956	4169
925.064	3998
925.172	3945
925.279	4006
925.387	4078
925.494	4112
925.602	4242
925.709	4207
925.816	4093
925.924	4150
926.031	4318
926.138	4219
926.245	4268
926.352	4169
926.459	4322
926.566	4337
926.673	4207
926.779	4158
926.886	4154
926.993	4044
927.099	4006
927.206	4013
927.312	4032
927.419	4071
927.525	4074
927.631	4143
927.737	4017
927.843	4021
927.95	3888
928.056	4017
928.162	4051
928.267	4120
928.373	4622
928.479	4204
928.585	3937
928.69	4055
928.796	4074
928.901	4071
929.007	3880
929.112	4051
929.218	3972
929.323	3945
929.428	3975
929.533	4169
929.638	3960
929.743	4010
929.848	4040
929.953	4013
930.058	4002
930.163	3812
930.267	3915
930.372	4010
930.477	3876
930.581	4124
930.685	4048
930.79	3880
930.894	3941
930.998	3903
931.103	4116
931.207	3766
931.311	3759
931.415	3751
931.519	3580
931.623	3545
