Data from test_V78500241_1306.txt Node
Date: Fri Mar 25 16:58:04 CST 2022
User: usil
Spectrometer: V785-0024
Trigger mode: 0
Integration Time (sec): 4.000000E-1
Scans to average: 1
Nonlinearity correction enabled: false
Boxcar width: 0
Storing dark spectrum: false
XAxis mode: Wavelengths
Number of Pixels in Spectrum: 1024
>>>>>Begin Spectral Data<<<<<
801.071	8031
801.214	8005
801.356	7875
801.499	7833
801.641	7723
801.783	7795
801.926	7902
802.068	7917
802.211	7932
802.353	7913
802.496	7841
802.638	7856
802.78	7875
802.923	7970
803.065	7868
803.208	7913
803.35	8001
803.492	8016
803.635	8183
803.777	8065
803.919	8069
804.061	8393
804.204	8172
804.346	8126
804.488	7955
804.63	8134
804.773	8077
804.915	8153
805.057	8301
805.199	8164
805.341	8180
805.483	8210
805.626	8218
805.768	8069
805.91	8202
806.052	8229
806.194	8126
806.336	8279
806.478	8153
806.62	8065
806.762	8183
806.904	8259
807.046	8419
807.188	8320
807.33	8191
807.472	8362
807.614	8142
807.756	8176
807.898	7936
808.04	7909
808.182	7871
808.324	7883
808.465	7845
808.607	8046
808.749	8069
808.891	8145
809.033	8332
809.174	8161
809.316	8054
809.458	8031
809.6	8054
809.741	8020
809.883	8020
810.025	8031
810.166	8012
810.308	8062
810.45	7993
810.591	7833
810.733	7731
810.875	7651
811.016	7578
811.158	7533
811.299	7582
811.441	7753
811.582	7651
811.724	7571
811.865	7529
812.007	7567
812.148	7601
812.29	7677
812.431	7772
812.573	7902
812.714	7982
812.855	8153
812.997	8244
813.138	8301
813.279	8240
813.421	8100
813.562	7974
813.703	7852
813.845	7704
813.986	7430
814.127	7263
814.268	7209
814.41	7175
814.551	7156
814.692	7168
814.833	7065
814.974	7152
815.115	7118
815.256	6958
815.397	6848
815.539	6989
815.68	6856
815.821	6768
815.962	6852
816.103	6829
816.244	6711
816.385	6578
816.526	6642
816.666	6433
816.807	6300
816.948	6418
817.089	6502
817.23	6399
817.371	6441
817.512	6418
817.653	6388
817.793	6334
817.934	6407
818.075	6464
818.216	6357
818.356	6353
818.497	6239
818.638	6129
818.778	6125
818.919	6098
819.06	6129
819.2	6315
819.341	6334
819.481	6380
819.622	6502
819.762	6802
819.903	6665
820.043	6597
820.184	6532
820.324	6566
820.465	6719
820.605	6700
820.746	6639
820.886	6502
821.026	6631
821.167	6650
821.307	6814
821.447	6783
821.588	6688
821.728	6566
821.868	6467
822.008	6346
822.149	6376
822.289	6388
822.429	6178
822.569	6064
822.709	6114
822.849	5939
822.99	5950
823.13	5942
823.27	5927
823.41	5771
823.55	5779
823.69	5729
823.83	5783
823.97	5672
824.11	5524
824.25	5459
824.389	5585
824.529	5573
824.669	5543
824.809	5649
824.949	5611
825.089	5585
825.228	5497
825.368	5334
825.508	5303
825.648	5326
825.787	5410
825.927	5360
826.067	5322
826.206	5284
826.346	5410
826.485	5334
826.625	5376
826.765	5524
826.904	5463
827.044	5265
827.183	5231
827.323	5102
827.462	5246
827.601	5102
827.741	5121
827.88	5136
828.02	5094
828.159	5185
828.298	5273
828.437	5357
828.577	5258
828.716	5455
828.855	5280
828.994	5128
829.134	5140
829.273	5113
829.412	5151
829.551	5090
829.69	5128
829.829	5197
829.968	5334
830.107	5280
830.246	5269
830.385	5170
830.524	5121
830.663	5064
830.802	4995
830.941	4911
831.08	4866
831.219	4957
831.357	5010
831.496	5124
831.635	4919
831.774	4797
831.913	4854
832.051	4717
832.19	4702
832.329	4824
832.467	4710
832.606	4622
832.744	4755
832.883	4698
833.022	4706
833.16	4767
833.299	4809
833.437	4839
833.576	4805
833.714	4843
833.852	4866
833.991	4889
834.129	4930
834.267	4908
834.406	4850
834.544	4972
834.682	4957
834.821	4930
834.959	5140
835.097	4946
835.235	5143
835.373	5052
835.511	5098
835.65	5029
835.788	5071
835.926	4953
836.064	4915
836.202	4873
836.34	5079
836.478	5227
836.615	5071
836.753	5193
836.891	5269
837.029	5269
837.167	5201
837.305	5162
837.443	5102
837.58	5098
837.718	5250
837.856	5170
837.993	5124
838.131	5208
838.269	5162
838.406	5197
838.544	5216
838.681	4987
838.819	4976
838.956	4877
839.094	4870
839.231	4976
839.369	5029
839.506	5391
839.643	5220
839.781	5006
839.918	4999
840.055	5075
840.193	5124
840.33	5117
840.467	5113
840.604	5223
840.742	5410
840.879	5079
841.016	5064
841.153	5109
841.29	5337
841.427	5303
841.564	5277
841.701	5410
841.838	5277
841.975	5174
842.112	5235
842.249	5113
842.385	5155
842.522	5341
842.659	5128
842.796	5105
842.933	5143
843.069	5113
843.206	5181
843.343	5292
843.479	5170
843.616	5254
843.752	5041
843.889	5025
844.025	5185
844.162	4980
844.298	5174
844.435	5098
844.571	5025
844.708	5174
844.844	5280
844.98	5353
845.117	5261
845.253	5136
845.389	5037
845.525	5113
845.661	5086
845.798	4999
845.934	5098
846.07	5037
846.206	5227
846.342	5216
846.478	5185
846.614	5010
846.75	4957
846.886	4911
847.022	5079
847.158	5022
847.294	5075
847.429	5060
847.565	5033
847.701	5318
847.837	4877
847.972	4824
848.108	4938
848.244	4911
848.379	4816
848.515	4710
848.65	4733
848.786	4694
848.921	4710
849.057	4816
849.192	4854
849.328	4793
849.463	4843
849.598	4790
849.734	4752
849.869	4668
850.004	4618
850.14	4687
850.275	4603
850.41	4481
850.545	4542
850.68	4607
850.815	4611
850.95	4622
851.085	4828
851.22	4755
851.355	4607
851.49	4611
851.625	4607
851.76	4580
851.895	4542
852.03	4523
852.165	4630
852.299	4694
852.434	4782
852.569	4748
852.703	4744
852.838	4816
852.973	4911
853.107	4854
853.242	4691
853.376	4656
853.511	4527
853.645	4561
853.78	4782
853.914	4683
854.048	4634
854.183	4634
854.317	4645
854.451	4809
854.585	4637
854.72	4626
854.854	4683
854.988	4561
855.122	4573
855.256	4489
855.39	4618
855.524	4763
855.658	4717
855.792	4634
855.926	4679
856.06	4698
856.194	4771
856.327	4679
856.461	4618
856.595	4599
856.729	4626
856.862	4698
856.996	4717
857.13	4687
857.263	4729
857.397	4767
857.53	4653
857.664	4691
857.797	4771
857.931	4736
858.064	4656
858.197	4675
858.331	4618
858.464	4618
858.597	4489
858.731	4577
858.864	4592
858.997	4561
859.13	4653
859.263	4698
859.396	4721
859.529	4546
859.662	4565
859.795	4523
859.928	4603
860.061	4774
860.194	4725
860.327	4637
860.46	4558
860.592	4710
860.725	4767
860.858	4660
860.99	4577
861.123	4531
861.256	4508
861.388	4565
861.521	5151
861.653	4500
861.786	4421
861.918	4455
862.05	4592
862.183	4626
862.315	4626
862.447	4645
862.58	4546
862.712	4436
862.844	4394
862.976	4500
863.108	4459
863.24	4877
863.372	4390
863.504	4462
863.636	4394
863.768	4485
863.9	4462
864.032	4398
864.164	4386
864.296	4516
864.428	4577
864.559	4592
864.691	4584
864.823	4500
864.954	4516
865.086	4561
865.217	4516
865.349	4481
865.48	4459
865.612	4508
865.743	4607
865.875	4516
866.006	4447
866.137	4493
866.269	4447
866.4	4451
866.531	4413
866.662	4424
866.793	4402
866.924	4485
867.055	4508
867.186	4504
867.317	4493
867.448	4428
867.579	4489
867.71	4432
867.841	4413
867.972	4497
868.103	4500
868.233	4523
868.364	4451
868.495	4455
868.625	4649
868.756	4759
868.886	4599
869.017	4683
869.147	4805
869.278	4744
869.408	4710
869.539	4668
869.669	4755
869.799	4721
869.929	4790
870.06	4797
870.19	4999
870.32	4980
870.45	4968
870.58	5033
870.71	5086
870.84	5098
870.97	4938
871.1	4881
871.23	5143
871.36	5079
871.489	5022
871.619	5056
871.749	5124
871.879	5136
872.008	5197
872.138	5075
872.267	5022
872.397	4900
872.526	4824
872.656	4725
872.785	4828
872.915	4953
873.044	5041
873.173	4949
873.303	5041
873.432	4949
873.561	4980
873.69	4927
873.819	4858
873.948	4946
874.077	4854
874.206	4816
874.335	4816
874.464	4946
874.593	5060
874.722	5006
874.851	5155
874.979	5117
875.108	5010
875.237	4957
875.365	4908
875.494	4908
875.623	4984
875.751	4850
875.88	4877
876.008	4995
876.136	5056
876.265	5197
876.393	5334
876.521	5292
876.65	5227
876.778	5166
876.906	5060
877.034	5014
877.162	5075
877.29	5010
877.418	5102
877.546	5041
877.674	5071
877.802	5067
877.93	5022
878.058	4915
878.185	4911
878.313	4957
878.441	4999
878.568	4790
878.696	4953
878.824	4972
878.951	5033
879.079	5174
879.206	5280
879.333	5094
879.461	4972
879.588	5033
879.715	5109
879.842	5242
879.97	5045
880.097	4812
880.224	4771
880.351	4824
880.478	4782
880.605	4828
880.732	4786
880.859	5159
880.986	4923
881.112	4938
881.239	4801
881.366	4714
881.493	4660
881.619	4645
881.746	4687
881.872	4668
881.999	4698
882.125	4725
882.252	4797
882.378	4850
882.505	5014
882.631	4839
882.757	4679
882.883	4755
883.01	4744
883.136	4698
883.262	4615
883.388	4618
883.514	4870
883.64	4908
883.766	4854
883.892	4729
884.018	4733
884.143	4896
884.269	5014
884.395	4641
884.52	4668
884.646	4672
884.772	4687
884.897	4580
885.023	4706
885.148	4839
885.274	4908
885.399	4816
885.524	4725
885.65	4721
885.775	4809
885.9	4744
886.025	4862
886.15	4767
886.275	4744
886.4	4668
886.525	4729
886.65	4717
886.775	4725
886.9	4892
887.025	5029
887.149	4862
887.274	4653
887.399	4561
887.523	4596
887.648	4565
887.773	4599
887.897	4790
888.021	4771
888.146	4702
888.27	4809
888.395	4873
888.519	4847
888.643	4908
888.767	4862
888.891	4664
889.015	4668
889.139	4630
889.263	4645
889.387	4805
889.511	4843
889.635	4790
889.759	4634
889.883	4698
890.006	4744
890.13	4866
890.254	4641
890.377	4725
890.501	4497
890.624	4561
890.748	4660
890.871	4512
890.995	4459
891.118	4417
891.241	4500
891.364	4580
891.488	4687
891.611	4558
891.734	4554
891.857	4618
891.98	4550
892.103	4691
892.226	4618
892.349	4550
892.471	4489
892.594	4611
892.717	4596
892.839	4615
892.962	4622
893.085	4641
893.207	4592
893.33	4527
893.452	4516
893.575	4698
893.697	4603
893.819	4850
893.941	4793
894.064	4748
894.186	4607
894.308	4611
894.43	4729
894.552	4793
894.674	4759
894.796	4603
894.918	4603
895.04	4603
895.161	4691
895.283	4675
895.405	4588
895.526	4626
895.648	4691
895.769	4736
895.891	4698
896.012	4725
896.134	4717
896.255	4653
896.376	4626
896.498	4668
896.619	4725
896.74	4611
896.861	4641
896.982	4854
897.103	5128
897.224	4839
897.345	4793
897.466	4675
897.587	4805
897.708	4938
897.828	4820
897.949	4717
898.07	4584
898.19	4668
898.311	4828
898.431	4656
898.552	4740
898.672	4816
898.792	4854
898.913	4763
899.033	4618
899.153	4508
899.273	4504
899.393	4527
899.513	4516
899.633	4573
899.753	4550
899.873	4519
899.993	4565
900.113	4546
900.232	4641
900.352	4508
900.472	4481
900.591	4436
900.711	4527
900.83	4428
900.95	4626
901.069	4679
901.189	4592
901.308	4413
901.427	4329
901.546	4394
901.665	4489
901.784	4523
901.904	4409
902.023	4363
902.141	4204
902.26	4135
902.379	4329
902.498	4295
902.617	4257
902.735	4402
902.854	4447
902.973	4398
903.091	4223
903.21	4280
903.328	4318
903.446	4272
903.565	4325
903.683	4367
903.801	4306
903.919	4413
904.038	4443
904.156	4398
904.274	4466
904.392	4436
904.51	4470
904.627	4508
904.745	4565
904.863	4634
904.981	4383
905.098	4348
905.216	4386
905.334	4470
905.451	4516
905.569	4413
905.686	4599
905.803	4580
905.921	4440
906.038	4554
906.155	4512
906.272	4447
906.389	4459
906.506	4341
906.623	4428
906.74	4424
906.857	4329
906.974	4363
907.091	4538
907.208	4698
907.324	4565
907.441	4527
907.557	4314
907.674	4344
907.79	4337
907.907	4344
908.023	4569
908.139	4493
908.256	4436
908.372	4485
908.488	4417
908.604	4371
908.72	4268
908.836	4432
908.952	4398
909.068	4459
909.184	4580
909.3	4527
909.415	4577
909.531	4599
909.647	4356
909.762	4375
909.878	4318
909.993	4443
910.108	4424
910.224	4417
910.339	4485
910.454	4417
910.57	4405
910.685	4310
910.8	4664
910.915	4561
911.03	4516
911.145	4341
911.259	4337
911.374	4383
911.489	4310
911.604	4295
911.718	4234
911.833	4207
911.947	4078
912.062	3972
912.176	4200
912.291	4272
912.405	4242
912.519	4470
912.633	4538
912.748	4421
912.862	4306
912.976	4200
913.09	4093
913.204	4227
913.318	4238
913.431	4344
913.545	4371
913.659	4443
913.772	4333
913.886	4268
914	4280
914.113	4379
914.226	4421
914.34	4417
914.453	4253
914.566	4436
914.68	4314
914.793	4371
914.906	4192
915.019	4120
915.132	4097
915.245	4211
915.358	4192
915.47	4238
915.583	4333
915.696	4276
915.809	4379
915.921	4428
916.034	4257
916.146	4249
916.259	4215
916.371	4375
916.483	4356
916.595	4280
916.708	4379
916.82	4356
916.932	4303
917.044	4310
917.156	4337
917.268	4249
917.38	4299
917.491	4280
917.603	4322
917.715	4451
917.826	4462
917.938	4394
918.049	4268
918.161	4394
918.272	4527
918.384	4531
918.495	4470
918.606	4379
918.717	4265
918.828	4310
918.939	4363
919.05	4284
919.161	4341
919.272	4147
919.383	4265
919.494	4466
919.604	4603
919.715	4459
919.826	4367
919.936	4440
920.047	4516
920.157	4497
920.267	4706
920.378	4550
920.488	4527
920.598	4767
920.708	4862
920.818	4801
920.928	4763
921.038	4968
921.148	4938
921.258	4660
921.368	4542
921.477	4504
921.587	4497
921.697	4375
921.806	4535
921.916	4436
922.025	4242
922.134	4284
922.244	4207
922.353	4333
922.462	4173
922.571	4207
922.68	4059
922.789	3987
922.898	4029
923.007	4040
923.116	4082
923.224	4055
923.333	4093
923.442	4002
923.55	3979
923.659	4017
923.767	4120
923.876	3991
923.984	4101
924.092	4036
924.201	4105
924.309	4109
924.417	4105
924.525	4071
924.633	4105
924.741	5018
924.849	3915
924.956	4131
925.064	3960
925.172	3854
925.279	3975
925.387	4048
925.494	4059
925.602	4253
925.709	4147
925.816	4051
925.924	4139
926.031	4200
926.138	4177
926.245	4234
926.352	4078
926.459	4257
926.566	4310
926.673	4109
926.779	4086
926.886	4097
926.993	4029
927.099	3926
927.206	3972
927.312	3956
927.419	4086
927.525	4063
927.631	4112
927.737	3975
927.843	3937
927.95	3835
928.056	3972
928.162	4013
928.267	4048
928.373	4683
928.479	4078
928.585	3884
928.69	4036
928.796	4128
928.901	3975
929.007	3869
929.112	4036
929.218	3998
929.323	3972
929.428	3975
929.533	4131
929.638	3937
929.743	3972
929.848	4116
929.953	4032
930.058	3956
930.163	3766
930.267	3876
930.372	3972
930.477	3857
930.581	4154
930.685	4044
930.79	3880
930.894	3949
930.998	3949
931.103	4055
931.207	3751
931.311	3724
931.415	3701
931.519	3591
931.623	3618
