Data from test_V78500241_1855.txt Node
Date: Fri Mar 25 17:01:54 CST 2022
User: usil
Spectrometer: V785-0024
Trigger mode: 0
Integration Time (sec): 4.000000E-1
Scans to average: 1
Nonlinearity correction enabled: false
Boxcar width: 0
Storing dark spectrum: false
XAxis mode: Wavelengths
Number of Pixels in Spectrum: 1024
>>>>>Begin Spectral Data<<<<<
801.071	7959
801.214	8001
801.356	7883
801.499	7807
801.641	7807
801.783	7822
801.926	7883
802.068	7841
802.211	7963
802.353	7917
802.496	7875
802.638	7845
802.78	7917
802.923	7890
803.065	7845
803.208	7883
803.35	7913
803.492	8069
803.635	8149
803.777	8107
803.919	8103
804.061	8484
804.204	8103
804.346	8043
804.488	7947
804.63	8130
804.773	7978
804.915	8065
805.057	8176
805.199	8218
805.341	8183
805.483	8256
805.626	8183
805.768	8119
805.91	8191
806.052	8214
806.194	8084
806.336	8282
806.478	8123
806.62	8016
806.762	8187
806.904	8256
807.046	8465
807.188	8370
807.33	8328
807.472	8339
807.614	8126
807.756	8164
807.898	7909
808.04	7894
808.182	7894
808.324	7902
808.465	7894
808.607	8062
808.749	8111
808.891	8199
809.033	8362
809.174	8252
809.316	8088
809.458	8039
809.6	8027
809.741	8016
809.883	8046
810.025	8107
810.166	8069
810.308	8005
810.45	8016
810.591	7818
810.733	7723
810.875	7655
811.016	7582
811.158	7445
811.299	7559
811.441	7715
811.582	7677
811.724	7620
811.865	7567
812.007	7578
812.148	7651
812.29	7582
812.431	7799
812.573	7883
812.714	8020
812.855	8134
812.997	8244
813.138	8282
813.279	8191
813.421	8065
813.562	7928
813.703	7826
813.845	7704
813.986	7453
814.127	7228
814.268	7213
814.41	7129
814.551	7202
814.692	7274
814.833	7126
814.974	7091
815.115	7072
815.256	6890
815.397	6928
815.539	6947
815.68	6760
815.821	6768
815.962	6829
816.103	6844
816.244	6688
816.385	6578
816.526	6597
816.666	6528
816.807	6308
816.948	6418
817.089	6467
817.23	6433
817.371	6350
817.512	6323
817.653	6342
817.793	6296
817.934	6384
818.075	6403
818.216	6486
818.356	6414
818.497	6197
818.638	6114
818.778	6125
818.919	6133
819.06	6152
819.2	6338
819.341	6262
819.481	6361
819.622	6536
819.762	6719
819.903	6692
820.043	6612
820.184	6566
820.324	6601
820.465	6684
820.605	6696
820.746	6623
820.886	6532
821.026	6700
821.167	6646
821.307	6787
821.447	6696
821.588	6688
821.728	6582
821.868	6464
822.008	6334
822.149	6342
822.289	6331
822.429	6110
822.569	6091
822.709	6121
822.849	5916
822.99	5935
823.13	5950
823.27	5908
823.41	5775
823.55	5748
823.69	5726
823.83	5817
823.97	5676
824.11	5532
824.25	5512
824.389	5589
824.529	5558
824.669	5512
824.809	5570
824.949	5661
825.089	5623
825.228	5585
825.368	5387
825.508	5318
825.648	5345
825.787	5353
825.927	5353
826.067	5284
826.206	5315
826.346	5398
826.485	5372
826.625	5387
826.765	5516
826.904	5486
827.044	5265
827.183	5197
827.323	5083
827.462	5208
827.601	5159
827.741	5208
827.88	5143
828.02	5136
828.159	5250
828.298	5288
828.437	5330
828.577	5261
828.716	5478
828.855	5349
828.994	5136
829.134	5048
829.273	5220
829.412	5124
829.551	5132
829.69	5208
829.829	5220
829.968	5368
830.107	5269
830.246	5265
830.385	5170
830.524	5136
830.663	5075
830.802	4999
830.941	4904
831.08	4866
831.219	4949
831.357	4946
831.496	5147
831.635	4923
831.774	4896
831.913	4835
832.051	4748
832.19	4733
832.329	4793
832.467	4691
832.606	4664
832.744	4675
832.883	4717
833.022	4675
833.16	4748
833.299	4763
833.437	4812
833.576	4850
833.714	4862
833.852	4862
833.991	4900
834.129	5014
834.267	4934
834.406	4892
834.544	4923
834.682	4942
834.821	4987
834.959	5136
835.097	4980
835.235	5094
835.373	5041
835.511	5033
835.65	5022
835.788	4968
835.926	4809
836.064	4858
836.202	4953
836.34	5174
836.478	5185
836.615	5151
836.753	5235
836.891	5280
837.029	5208
837.167	5162
837.305	5155
837.443	5174
837.58	5105
837.718	5242
837.856	5166
837.993	5185
838.131	5239
838.269	5121
838.406	5227
838.544	5159
838.681	5056
838.819	5018
838.956	4870
839.094	4908
839.231	4911
839.369	5071
839.506	5368
839.643	5227
839.781	5018
839.918	5033
840.055	5105
840.193	5102
840.33	5121
840.467	5170
840.604	5178
840.742	5452
840.879	5124
841.016	5079
841.153	5155
841.29	5326
841.427	5322
841.564	5337
841.701	5337
841.838	5284
841.975	5185
842.112	5212
842.249	5124
842.385	5151
842.522	5307
842.659	5166
842.796	5140
842.933	5178
843.069	5181
843.206	5178
843.343	5326
843.479	5181
843.616	5265
843.752	4968
843.889	4980
844.025	5216
844.162	5014
844.298	5174
844.435	5033
844.571	5018
844.708	5178
844.844	5273
844.98	5326
845.117	5303
845.253	5166
845.389	5071
845.525	5140
845.661	5159
845.798	5037
845.934	5132
846.07	5037
846.206	5193
846.342	5261
846.478	5151
846.614	5025
846.75	4961
846.886	4946
847.022	5189
847.158	4968
847.294	5018
847.429	5105
847.565	5067
847.701	5341
847.837	4858
847.972	4774
848.108	4919
848.244	4896
848.379	4752
848.515	4702
848.65	4687
848.786	4714
848.921	4752
849.057	4858
849.192	4908
849.328	4801
849.463	4858
849.598	4767
849.734	4740
849.869	4744
850.004	4626
850.14	4630
850.275	4554
850.41	4561
850.545	4584
850.68	4573
850.815	4653
850.95	4634
851.085	4782
851.22	4725
851.355	4645
851.49	4611
851.625	4584
851.76	4664
851.895	4603
852.03	4531
852.165	4687
852.299	4714
852.434	4763
852.569	4725
852.703	4748
852.838	4797
852.973	4934
853.107	4870
853.242	4763
853.376	4656
853.511	4523
853.645	4649
853.78	4752
853.914	4683
854.048	4645
854.183	4615
854.317	4672
854.451	4812
854.585	4630
854.72	4588
854.854	4759
854.988	4584
855.122	4626
855.256	4519
855.39	4656
855.524	4782
855.658	4759
855.792	4714
855.926	4717
856.06	4729
856.194	4763
856.327	4714
856.461	4603
856.595	4584
856.729	4577
856.862	4759
856.996	4656
857.13	4714
857.263	4740
857.397	4805
857.53	4672
857.664	4721
857.797	4771
857.931	4797
858.064	4641
858.197	4748
858.331	4691
858.464	4618
858.597	4516
858.731	4599
858.864	4630
858.997	4577
859.13	4634
859.263	4679
859.396	4721
859.529	4535
859.662	4569
859.795	4531
859.928	4584
860.061	4725
860.194	4771
860.327	4618
860.46	4592
860.592	4675
860.725	4687
860.858	4706
860.99	4592
861.123	4500
861.256	4508
861.388	4584
861.521	5372
861.653	4485
861.786	4474
861.918	4462
862.05	4519
862.183	4512
862.315	4645
862.447	4664
862.58	4542
862.712	4379
862.844	4367
862.976	4474
863.108	4424
863.24	4881
863.372	4280
863.504	4440
863.636	4356
863.768	4478
863.9	4455
864.032	4379
864.164	4421
864.296	4466
864.428	4512
864.559	4554
864.691	4546
864.823	4504
864.954	4462
865.086	4489
865.217	4478
865.349	4409
865.48	4455
865.612	4497
865.743	4580
865.875	4478
866.006	4421
866.137	4481
866.269	4436
866.4	4424
866.531	4413
866.662	4367
866.793	4402
866.924	4398
867.055	4493
867.186	4462
867.317	4386
867.448	4363
867.579	4390
867.71	4398
867.841	4386
867.972	4432
868.103	4436
868.233	4424
868.364	4421
868.495	4470
868.625	4672
868.756	4675
868.886	4580
869.017	4645
869.147	4774
869.278	4748
869.408	4664
869.539	4607
869.669	4721
869.799	4641
869.929	4733
870.06	4736
870.19	4995
870.32	4904
870.45	4911
870.58	5018
870.71	5071
870.84	5121
870.97	4995
871.1	4911
871.23	5102
871.36	5136
871.489	4972
871.619	5056
871.749	5090
871.879	5155
872.008	5174
872.138	5071
872.267	4919
872.397	4835
872.526	4755
872.656	4710
872.785	4801
872.915	4953
873.044	5006
873.173	4900
873.303	4995
873.432	4896
873.561	4892
873.69	4900
873.819	4892
873.948	4942
874.077	4824
874.206	4782
874.335	4809
874.464	4889
874.593	5067
874.722	4980
874.851	5075
874.979	5041
875.108	5048
875.237	4923
875.365	4847
875.494	4858
875.623	4957
875.751	4858
875.88	4850
876.008	5022
876.136	5045
876.265	5242
876.393	5337
876.521	5265
876.65	5231
876.778	5159
876.906	5033
877.034	5037
877.162	5037
877.29	5018
877.418	4999
877.546	5025
877.674	5079
877.802	4999
877.93	4972
878.058	4938
878.185	4896
878.313	4927
878.441	4938
878.568	4790
878.696	4927
878.824	4957
878.951	5025
879.079	5140
879.206	5239
879.333	5086
879.461	4965
879.588	4965
879.715	5086
879.842	5227
879.97	5025
880.097	4824
880.224	4714
880.351	4843
880.478	4862
880.605	4786
880.732	4790
880.859	5052
880.986	4934
881.112	4942
881.239	4725
881.366	4668
881.493	4622
881.619	4611
881.746	4618
881.872	4668
881.999	4668
882.125	4664
882.252	4790
882.378	4786
882.505	4961
882.631	4744
882.757	4702
882.883	4748
883.01	4721
883.136	4660
883.262	4584
883.388	4584
883.514	4824
883.64	4831
883.766	4790
883.892	4691
884.018	4740
884.143	4839
884.269	4949
884.395	4634
884.52	4592
884.646	4645
884.772	4535
884.897	4565
885.023	4664
885.148	4778
885.274	4820
885.399	4835
885.524	4687
885.65	4714
885.775	4717
885.9	4672
886.025	4824
886.15	4831
886.275	4714
886.4	4645
886.525	4672
886.65	4668
886.775	4675
886.9	4957
887.025	5045
887.149	4782
887.274	4618
887.399	4599
887.523	4592
887.648	4550
887.773	4580
887.897	4691
888.021	4771
888.146	4653
888.27	4797
888.395	4877
888.519	4812
888.643	4839
888.767	4839
888.891	4641
889.015	4607
889.139	4615
889.263	4630
889.387	4763
889.511	4816
889.635	4828
889.759	4630
889.883	4634
890.006	4698
890.13	4801
890.254	4641
890.377	4664
890.501	4550
890.624	4497
890.748	4618
890.871	4512
890.995	4455
891.118	4394
891.241	4481
891.364	4531
891.488	4577
891.611	4542
891.734	4546
891.857	4584
891.98	4565
892.103	4641
892.226	4615
892.349	4519
892.471	4424
892.594	4519
892.717	4573
892.839	4584
892.962	4561
893.085	4630
893.207	4626
893.33	4409
893.452	4531
893.575	4653
893.697	4596
893.819	4801
893.941	4816
894.064	4759
894.186	4542
894.308	4531
894.43	4763
894.552	4812
894.674	4797
894.796	4535
894.918	4599
895.04	4596
895.161	4721
895.283	4615
895.405	4596
895.526	4653
895.648	4717
895.769	4664
895.891	4694
896.012	4733
896.134	4691
896.255	4675
896.376	4641
896.498	4603
896.619	4653
896.74	4618
896.861	4637
896.982	4961
897.103	5018
897.224	4839
897.345	4702
897.466	4702
897.587	4721
897.708	4854
897.828	4759
897.949	4706
898.07	4577
898.19	4618
898.311	4831
898.431	4717
898.552	4755
898.672	4774
898.792	4820
898.913	4698
899.033	4577
899.153	4481
899.273	4432
899.393	4493
899.513	4504
899.633	4523
899.753	4546
899.873	4466
899.993	4565
900.113	4493
900.232	4577
900.352	4531
900.472	4497
900.591	4383
900.711	4493
900.83	4390
900.95	4580
901.069	4691
901.189	4577
901.308	4375
901.427	4325
901.546	4363
901.665	4485
901.784	4516
901.904	4333
902.023	4329
902.141	4158
902.26	4169
902.379	4322
902.498	4223
902.617	4204
902.735	4344
902.854	4352
902.973	4360
903.091	4223
903.21	4268
903.328	4333
903.446	4253
903.565	4253
903.683	4314
903.801	4291
903.919	4421
904.038	4428
904.156	4344
904.274	4436
904.392	4386
904.51	4421
904.627	4443
904.745	4573
904.863	4607
904.981	4402
905.098	4280
905.216	4291
905.334	4405
905.451	4459
905.569	4451
905.686	4527
905.803	4565
905.921	4455
906.038	4546
906.155	4478
906.272	4409
906.389	4474
906.506	4367
906.623	4367
906.74	4383
906.857	4318
906.974	4409
907.091	4531
907.208	4653
907.324	4603
907.441	4470
907.557	4352
907.674	4341
907.79	4325
907.907	4390
908.023	4493
908.139	4519
908.256	4447
908.372	4440
908.488	4421
908.604	4348
908.72	4333
908.836	4383
908.952	4417
909.068	4402
909.184	4538
909.3	4493
909.415	4561
909.531	4550
909.647	4356
909.762	4390
909.878	4344
909.993	4432
910.108	4413
910.224	4402
910.339	4474
910.454	4409
910.57	4371
910.685	4291
910.8	4599
910.915	4580
911.03	4478
911.145	4352
911.259	4322
911.374	4356
911.489	4310
911.604	4261
911.718	4154
911.833	4207
911.947	4067
912.062	4040
912.176	4207
912.291	4207
912.405	4238
912.519	4459
912.633	4561
912.748	4314
912.862	4337
912.976	4219
913.09	4124
913.204	4169
913.318	4287
913.431	4341
913.545	4394
913.659	4424
913.772	4341
913.886	4242
914	4265
914.113	4356
914.226	4481
914.34	4405
914.453	4230
914.566	4424
914.68	4318
914.793	4341
914.906	4139
915.019	4147
915.132	4067
915.245	4200
915.358	4249
915.47	4230
915.583	4272
915.696	4314
915.809	4390
915.921	4360
916.034	4234
916.146	4276
916.259	4261
916.371	4386
916.483	4352
916.595	4238
916.708	4291
916.82	4360
916.932	4295
917.044	4268
917.156	4337
917.268	4238
917.38	4291
917.491	4261
917.603	4284
917.715	4424
917.826	4413
917.938	4306
918.049	4219
918.161	4413
918.272	4588
918.384	4569
918.495	4424
918.606	4276
918.717	4188
918.828	4310
918.939	4371
919.05	4261
919.161	4268
919.272	4120
919.383	4249
919.494	4440
919.604	4603
919.715	4424
919.826	4325
919.936	4409
920.047	4504
920.157	4500
920.267	4622
920.378	4535
920.488	4493
920.598	4675
920.708	4915
920.818	4759
920.928	4793
921.038	4946
921.148	4915
921.258	4596
921.368	4466
921.477	4474
921.587	4455
921.697	4341
921.806	4535
921.916	4466
922.025	4227
922.134	4253
922.244	4242
922.353	4314
922.462	4211
922.571	4074
922.68	3983
922.789	3953
922.898	4013
923.007	3960
923.116	4074
923.224	4048
923.333	4078
923.442	4017
923.55	3983
923.659	4021
923.767	4109
923.876	4032
923.984	4074
924.092	3983
924.201	4036
924.309	4074
924.417	4116
924.525	4055
924.633	4124
924.741	5048
924.849	3922
924.956	4154
925.064	3953
925.172	3903
925.279	3994
925.387	4040
925.494	4048
925.602	4234
925.709	4169
925.816	4051
925.924	4169
926.031	4211
926.138	4181
926.245	4223
926.352	4067
926.459	4211
926.566	4253
926.673	4166
926.779	4105
926.886	4105
926.993	3979
927.099	3960
927.206	3926
927.312	3964
927.419	4090
927.525	4036
927.631	4109
927.737	4002
927.843	3983
927.95	3861
928.056	3998
928.162	3934
928.267	4097
928.373	4584
928.479	4116
928.585	3865
928.69	4010
928.796	4048
928.901	3926
929.007	3861
929.112	4013
929.218	4017
929.323	3941
929.428	3930
929.533	4082
929.638	3869
929.743	3994
929.848	4025
929.953	3998
930.058	3922
930.163	3778
930.267	3827
930.372	3975
930.477	3800
930.581	4082
930.685	3934
930.79	3800
930.894	3915
930.998	3850
931.103	3991
931.207	3694
931.311	3671
931.415	3675
931.519	3538
931.623	3545
