Data from test_V78500241_952.txt Node
Date: Fri Mar 25 16:55:37 CST 2022
User: usil
Spectrometer: V785-0024
Trigger mode: 0
Integration Time (sec): 4.000000E-1
Scans to average: 1
Nonlinearity correction enabled: false
Boxcar width: 0
Storing dark spectrum: false
XAxis mode: Wavelengths
Number of Pixels in Spectrum: 1024
>>>>>Begin Spectral Data<<<<<
801.071	8081
801.214	8008
801.356	7864
801.499	7868
801.641	7818
801.783	7860
801.926	7974
802.068	7925
802.211	7917
802.353	7963
802.496	7811
802.638	7811
802.78	7921
802.923	7940
803.065	7879
803.208	7887
803.35	8008
803.492	8073
803.635	8100
803.777	8008
803.919	8081
804.061	8434
804.204	8153
804.346	7963
804.488	8001
804.63	8103
804.773	7989
804.915	8024
805.057	8237
805.199	8145
805.341	8164
805.483	8225
805.626	8195
805.768	8157
805.91	8157
806.052	8221
806.194	8126
806.336	8271
806.478	8092
806.62	8046
806.762	8176
806.904	8248
807.046	8431
807.188	8313
807.33	8358
807.472	8317
807.614	8164
807.756	8145
807.898	8081
808.04	7849
808.182	7921
808.324	7868
808.465	7940
808.607	8100
808.749	8039
808.891	8218
809.033	8290
809.174	8229
809.316	8126
809.458	8069
809.6	8058
809.741	8035
809.883	8016
810.025	8062
810.166	8073
810.308	8046
810.45	8062
810.591	7925
810.733	7689
810.875	7780
811.016	7582
811.158	7514
811.299	7586
811.441	7742
811.582	7666
811.724	7609
811.865	7518
812.007	7590
812.148	7647
812.29	7651
812.431	7811
812.573	7860
812.714	7997
812.855	8153
812.997	8214
813.138	8389
813.279	8180
813.421	8134
813.562	8016
813.703	7940
813.845	7849
813.986	7472
814.127	7297
814.268	7282
814.41	7225
814.551	7194
814.692	7171
814.833	7080
814.974	7095
815.115	7095
815.256	6977
815.397	6935
815.539	6973
815.68	6840
815.821	6859
815.962	6871
816.103	6905
816.244	6757
816.385	6741
816.526	6631
816.666	6555
816.807	6334
816.948	6498
817.089	6513
817.23	6452
817.371	6403
817.512	6448
817.653	6441
817.793	6391
817.934	6479
818.075	6467
818.216	6471
818.356	6384
818.497	6258
818.638	6121
818.778	6178
818.919	6144
819.06	6152
819.2	6342
819.341	6300
819.481	6334
819.622	6544
819.762	6779
819.903	6730
820.043	6601
820.184	6593
820.324	6597
820.465	6757
820.605	6711
820.746	6620
820.886	6547
821.026	6646
821.167	6757
821.307	6871
821.447	6810
821.588	6639
821.728	6540
821.868	6536
822.008	6350
822.149	6327
822.289	6357
822.429	6197
822.569	6129
822.709	6140
822.849	5942
822.99	5954
823.13	5927
823.27	5912
823.41	5870
823.55	5866
823.69	5756
823.83	5802
823.97	5718
824.11	5524
824.25	5543
824.389	5524
824.529	5524
824.669	5562
824.809	5627
824.949	5653
825.089	5634
825.228	5528
825.368	5452
825.508	5368
825.648	5349
825.787	5425
825.927	5425
826.067	5303
826.206	5334
826.346	5410
826.485	5395
826.625	5459
826.765	5524
826.904	5474
827.044	5261
827.183	5220
827.323	5181
827.462	5273
827.601	5170
827.741	5201
827.88	5223
828.02	5159
828.159	5269
828.298	5288
828.437	5353
828.577	5296
828.716	5524
828.855	5357
828.994	5174
829.134	5174
829.273	5212
829.412	5140
829.551	5121
829.69	5159
829.829	5265
829.968	5368
830.107	5307
830.246	5288
830.385	5185
830.524	5178
830.663	5109
830.802	4968
830.941	4930
831.08	4870
831.219	5029
831.357	5018
831.496	5189
831.635	4976
831.774	4911
831.913	4866
832.051	4755
832.19	4763
832.329	4809
832.467	4740
832.606	4641
832.744	4710
832.883	4725
833.022	4698
833.16	4805
833.299	4824
833.437	4797
833.576	4850
833.714	4892
833.852	4934
833.991	4862
834.129	4995
834.267	4980
834.406	4946
834.544	4976
834.682	4961
834.821	5014
834.959	5174
835.097	4984
835.235	5201
835.373	5105
835.511	5052
835.65	5045
835.788	5052
835.926	4877
836.064	4930
836.202	4919
836.34	5189
836.478	5227
836.615	5155
836.753	5227
836.891	5292
837.029	5269
837.167	5258
837.305	5166
837.443	5083
837.58	5064
837.718	5197
837.856	5113
837.993	5227
838.131	5269
838.269	5204
838.406	5181
838.544	5185
838.681	5052
838.819	5018
838.956	4870
839.094	4900
839.231	5010
839.369	5064
839.506	5406
839.643	5261
839.781	5022
839.918	4995
840.055	5159
840.193	5117
840.33	5121
840.467	5193
840.604	5189
840.742	5452
840.879	5109
841.016	5071
841.153	5143
841.29	5326
841.427	5357
841.564	5387
841.701	5402
841.838	5284
841.975	5235
842.112	5277
842.249	5162
842.385	5136
842.522	5280
842.659	5174
842.796	5143
842.933	5181
843.069	5140
843.206	5220
843.343	5360
843.479	5254
843.616	5296
843.752	5022
843.889	5071
844.025	5250
844.162	4987
844.298	5185
844.435	5094
844.571	5067
844.708	5216
844.844	5330
844.98	5372
845.117	5292
845.253	5124
845.389	5064
845.525	5147
845.661	5159
845.798	5067
845.934	5128
846.07	5052
846.206	5181
846.342	5269
846.478	5204
846.614	5075
846.75	4953
846.886	4957
847.022	5166
847.158	5029
847.294	5105
847.429	5124
847.565	5071
847.701	5337
847.837	4828
847.972	4816
848.108	4991
848.244	4949
848.379	4820
848.515	4752
848.65	4706
848.786	4706
848.921	4763
849.057	4908
849.192	4896
849.328	4790
849.463	4854
849.598	4850
849.734	4797
849.869	4752
850.004	4634
850.14	4702
850.275	4653
850.41	4546
850.545	4599
850.68	4664
850.815	4573
850.95	4634
851.085	4824
851.22	4778
851.355	4679
851.49	4630
851.625	4668
851.76	4611
851.895	4603
852.03	4554
852.165	4664
852.299	4740
852.434	4736
852.569	4736
852.703	4801
852.838	4843
852.973	4946
853.107	4938
853.242	4778
853.376	4645
853.511	4516
853.645	4653
853.78	4797
853.914	4698
854.048	4725
854.183	4618
854.317	4710
854.451	4847
854.585	4729
854.72	4653
854.854	4778
854.988	4584
855.122	4668
855.256	4546
855.39	4641
855.524	4801
855.658	4725
855.792	4656
855.926	4694
856.06	4767
856.194	4812
856.327	4675
856.461	4569
856.595	4645
856.729	4622
856.862	4755
856.996	4702
857.13	4702
857.263	4763
857.397	4812
857.53	4634
857.664	4736
857.797	4782
857.931	4805
858.064	4698
858.197	4733
858.331	4687
858.464	4641
858.597	4554
858.731	4637
858.864	4599
858.997	4641
859.13	4637
859.263	4634
859.396	4691
859.529	4603
859.662	4603
859.795	4546
859.928	4634
860.061	4702
860.194	4748
860.327	4630
860.46	4618
860.592	4748
860.725	4733
860.858	4721
860.99	4611
861.123	4516
861.256	4538
861.388	4584
861.521	5174
861.653	4474
861.786	4440
861.918	4455
862.05	4519
862.183	4577
862.315	4618
862.447	4694
862.58	4580
862.712	4443
862.844	4306
862.976	4474
863.108	4417
863.24	4774
863.372	4329
863.504	4398
863.636	4371
863.768	4470
863.9	4402
864.032	4341
864.164	4440
864.296	4459
864.428	4535
864.559	4535
864.691	4527
864.823	4512
864.954	4519
865.086	4531
865.217	4436
865.349	4413
865.48	4443
865.612	4481
865.743	4649
865.875	4481
866.006	4459
866.137	4474
866.269	4413
866.4	4443
866.531	4424
866.662	4383
866.793	4409
866.924	4455
867.055	4481
867.186	4443
867.317	4367
867.448	4394
867.579	4402
867.71	4421
867.841	4386
867.972	4508
868.103	4451
868.233	4443
868.364	4485
868.495	4481
868.625	4645
868.756	4698
868.886	4580
869.017	4573
869.147	4786
869.278	4782
869.408	4694
869.539	4645
869.669	4714
869.799	4634
869.929	4771
870.06	4763
870.19	4908
870.32	4934
870.45	4957
870.58	4999
870.71	5086
870.84	5083
870.97	4930
871.1	4889
871.23	5128
871.36	5128
871.489	5041
871.619	5105
871.749	5113
871.879	5090
872.008	5143
872.138	5079
872.267	4915
872.397	4786
872.526	4778
872.656	4721
872.785	4873
872.915	4961
873.044	5075
873.173	4923
873.303	4949
873.432	4972
873.561	4980
873.69	4923
873.819	4911
873.948	4889
874.077	4839
874.206	4755
874.335	4835
874.464	4900
874.593	5060
874.722	4965
874.851	5086
874.979	5022
875.108	5018
875.237	4866
875.365	4858
875.494	4839
875.623	4957
875.751	4835
875.88	4809
876.008	5014
876.136	4991
876.265	5223
876.393	5277
876.521	5235
876.65	5227
876.778	5208
876.906	5075
877.034	5018
877.162	5109
877.29	5003
877.418	5045
877.546	5086
877.674	5022
877.802	5056
877.93	5025
878.058	4961
878.185	4843
878.313	4980
878.441	4965
878.568	4790
878.696	4870
878.824	4976
878.951	4946
879.079	5143
879.206	5292
879.333	5124
879.461	4995
879.588	4980
879.715	5052
879.842	5204
879.97	4930
880.097	4809
880.224	4763
880.351	4752
880.478	4797
880.605	4786
880.732	4816
880.859	5113
880.986	4896
881.112	4915
881.239	4786
881.366	4660
881.493	4645
881.619	4618
881.746	4611
881.872	4675
881.999	4615
882.125	4634
882.252	4782
882.378	4839
882.505	4984
882.631	4820
882.757	4664
882.883	4717
883.01	4759
883.136	4679
883.262	4569
883.388	4599
883.514	4782
883.64	4866
883.766	4767
883.892	4706
884.018	4679
884.143	4873
884.269	5029
884.395	4694
884.52	4634
884.646	4637
884.772	4592
884.897	4535
885.023	4615
885.148	4744
885.274	4850
885.399	4816
885.524	4740
885.65	4675
885.775	4763
885.9	4656
886.025	4850
886.15	4778
886.275	4748
886.4	4653
886.525	4729
886.65	4668
886.775	4714
886.9	4866
887.025	5010
887.149	4801
887.274	4641
887.399	4550
887.523	4615
887.648	4607
887.773	4599
887.897	4740
888.021	4759
888.146	4675
888.27	4752
888.395	4839
888.519	4790
888.643	4793
888.767	4805
888.891	4702
889.015	4596
889.139	4630
889.263	4615
889.387	4736
889.511	4866
889.635	4790
889.759	4603
889.883	4683
890.006	4698
890.13	4850
890.254	4599
890.377	4683
890.501	4592
890.624	4508
890.748	4645
890.871	4531
890.995	4424
891.118	4413
891.241	4546
891.364	4516
891.488	4611
891.611	4497
891.734	4527
891.857	4596
891.98	4580
892.103	4641
892.226	4580
892.349	4512
892.471	4432
892.594	4519
892.717	4607
892.839	4538
892.962	4554
893.085	4603
893.207	4618
893.33	4462
893.452	4462
893.575	4656
893.697	4554
893.819	4801
893.941	4824
894.064	4752
894.186	4569
894.308	4558
894.43	4744
894.552	4782
894.674	4744
894.796	4558
894.918	4618
895.04	4554
895.161	4706
895.283	4641
895.405	4618
895.526	4653
895.648	4637
895.769	4687
895.891	4748
896.012	4714
896.134	4733
896.255	4649
896.376	4588
896.498	4599
896.619	4668
896.74	4577
896.861	4668
896.982	4885
897.103	5102
897.224	4805
897.345	4729
897.466	4641
897.587	4736
897.708	4801
897.828	4824
897.949	4679
898.07	4546
898.19	4664
898.311	4820
898.431	4710
898.552	4759
898.672	4847
898.792	4801
898.913	4687
899.033	4592
899.153	4485
899.273	4440
899.393	4519
899.513	4500
899.633	4527
899.753	4550
899.873	4500
899.993	4542
900.113	4538
900.232	4497
900.352	4580
900.472	4497
900.591	4356
900.711	4489
900.83	4436
900.95	4599
901.069	4691
901.189	4535
901.308	4337
901.427	4341
901.546	4375
901.665	4466
901.784	4538
901.904	4413
902.023	4325
902.141	4207
902.26	4147
902.379	4352
902.498	4242
902.617	4223
902.735	4356
902.854	4386
902.973	4383
903.091	4200
903.21	4261
903.328	4287
903.446	4299
903.565	4227
903.683	4352
903.801	4280
903.919	4383
904.038	4436
904.156	4333
904.274	4447
904.392	4360
904.51	4455
904.627	4470
904.745	4558
904.863	4599
904.981	4409
905.098	4291
905.216	4322
905.334	4402
905.451	4375
905.569	4413
905.686	4504
905.803	4550
905.921	4428
906.038	4554
906.155	4462
906.272	4394
906.389	4489
906.506	4367
906.623	4348
906.74	4390
906.857	4303
906.974	4409
907.091	4550
907.208	4675
907.324	4580
907.441	4451
907.557	4306
907.674	4341
907.79	4329
907.907	4344
908.023	4523
908.139	4455
908.256	4421
908.372	4462
908.488	4451
908.604	4375
908.72	4303
908.836	4360
908.952	4352
909.068	4409
909.184	4550
909.3	4474
909.415	4588
909.531	4493
909.647	4295
909.762	4417
909.878	4344
909.993	4402
910.108	4413
910.224	4367
910.339	4447
910.454	4375
910.57	4379
910.685	4284
910.8	4649
910.915	4615
911.03	4512
911.145	4333
911.259	4303
911.374	4333
911.489	4295
911.604	4310
911.718	4181
911.833	4215
911.947	4120
912.062	4006
912.176	4204
912.291	4242
912.405	4227
912.519	4474
912.633	4531
912.748	4329
912.862	4272
912.976	4196
913.09	4082
913.204	4196
913.318	4223
913.431	4360
913.545	4352
913.659	4424
913.772	4291
913.886	4280
914	4200
914.113	4417
914.226	4409
914.34	4341
914.453	4230
914.566	4451
914.68	4265
914.793	4325
914.906	4143
915.019	4147
915.132	4044
915.245	4150
915.358	4196
915.47	4215
915.583	4227
915.696	4268
915.809	4379
915.921	4394
916.034	4299
916.146	4276
916.259	4204
916.371	4421
916.483	4329
916.595	4242
916.708	4348
916.82	4276
916.932	4325
917.044	4325
917.156	4303
917.268	4219
917.38	4265
917.491	4211
917.603	4337
917.715	4417
917.826	4432
917.938	4303
918.049	4257
918.161	4348
918.272	4516
918.384	4527
918.495	4497
918.606	4325
918.717	4211
918.828	4322
918.939	4363
919.05	4272
919.161	4299
919.272	4150
919.383	4219
919.494	4440
919.604	4580
919.715	4459
919.826	4402
919.936	4375
920.047	4535
920.157	4424
920.267	4721
920.378	4546
920.488	4512
920.598	4744
920.708	4858
920.818	4706
920.928	4736
921.038	4946
921.148	4892
921.258	4607
921.368	4569
921.477	4508
921.587	4451
921.697	4371
921.806	4531
921.916	4436
922.025	4268
922.134	4242
922.244	4207
922.353	4299
922.462	4192
922.571	4143
922.68	4025
922.789	3968
922.898	4040
923.007	3949
923.116	4147
923.224	4051
923.333	4067
923.442	3964
923.55	3991
923.659	4036
923.767	4124
923.876	3987
923.984	4090
924.092	3983
924.201	4055
924.309	4063
924.417	4112
924.525	4048
924.633	4128
924.741	5064
924.849	3941
924.956	4135
925.064	3949
925.172	3903
925.279	3975
925.387	4074
925.494	4048
925.602	4150
925.709	4154
925.816	4002
925.924	4135
926.031	4177
926.138	4150
926.245	4185
926.352	4101
926.459	4234
926.566	4276
926.673	4173
926.779	4063
926.886	4067
926.993	3987
927.099	3949
927.206	3926
927.312	3903
927.419	4074
927.525	4044
927.631	4059
927.737	3949
927.843	3945
927.95	3835
928.056	3937
928.162	3975
928.267	4051
928.373	4702
928.479	4131
928.585	3926
928.69	3964
928.796	4040
928.901	3953
929.007	3854
929.112	3983
929.218	3979
929.323	3911
929.428	3956
929.533	4078
929.638	3842
929.743	3968
929.848	4021
929.953	4025
930.058	3991
930.163	3785
930.267	3838
930.372	3975
930.477	3827
930.581	4090
930.685	3953
930.79	3846
930.894	3903
930.998	3846
931.103	4017
931.207	3713
931.311	3675
931.415	3732
931.519	3519
931.623	3545
