Data from test_V78500241_1589.txt Node
Date: Fri Mar 25 17:00:03 CST 2022
User: usil
Spectrometer: V785-0024
Trigger mode: 0
Integration Time (sec): 4.000000E-1
Scans to average: 1
Nonlinearity correction enabled: false
Boxcar width: 0
Storing dark spectrum: false
XAxis mode: Wavelengths
Number of Pixels in Spectrum: 1024
>>>>>Begin Spectral Data<<<<<
801.071	7989
801.214	8012
801.356	7913
801.499	7902
801.641	7780
801.783	7792
801.926	7997
802.068	7913
802.211	7989
802.353	7970
802.496	7928
802.638	7875
802.78	7993
802.923	7902
803.065	7940
803.208	7902
803.35	7917
803.492	8081
803.635	8134
803.777	8081
803.919	8149
804.061	8438
804.204	8202
804.346	8046
804.488	7951
804.63	8119
804.773	8081
804.915	8115
805.057	8339
805.199	8195
805.341	8149
805.483	8244
805.626	8161
805.768	8183
805.91	8233
806.052	8218
806.194	8119
806.336	8309
806.478	8115
806.62	8103
806.762	8092
806.904	8240
807.046	8495
807.188	8355
807.33	8301
807.472	8298
807.614	8221
807.756	8191
807.898	7989
808.04	7894
808.182	7921
808.324	7913
808.465	7970
808.607	8092
808.749	8130
808.891	8157
809.033	8271
809.174	8252
809.316	8039
809.458	8084
809.6	7997
809.741	8054
809.883	8054
810.025	8035
810.166	8077
810.308	8020
810.45	7997
810.591	7856
810.733	7750
810.875	7597
811.016	7529
811.158	7502
811.299	7636
811.441	7685
811.582	7746
811.724	7590
811.865	7548
812.007	7582
812.148	7597
812.29	7655
812.431	7731
812.573	7890
812.714	7986
812.855	8088
812.997	8221
813.138	8298
813.279	8180
813.421	8050
813.562	7982
813.703	7868
813.845	7776
813.986	7388
814.127	7270
814.268	7228
814.41	7225
814.551	7164
814.692	7247
814.833	7084
814.974	7110
815.115	7149
815.256	7012
815.397	6966
815.539	6916
815.68	6772
815.821	6783
815.962	6890
816.103	6802
816.244	6757
816.385	6620
816.526	6570
816.666	6540
816.807	6300
816.948	6391
817.089	6445
817.23	6426
817.371	6350
817.512	6353
817.653	6418
817.793	6376
817.934	6395
818.075	6517
818.216	6369
818.356	6357
818.497	6262
818.638	6159
818.778	6136
818.919	6155
819.06	6129
819.2	6346
819.341	6296
819.481	6376
819.622	6551
819.762	6700
819.903	6692
820.043	6688
820.184	6582
820.324	6635
820.465	6658
820.605	6700
820.746	6681
820.886	6544
821.026	6662
821.167	6703
821.307	6791
821.447	6715
821.588	6654
821.728	6574
821.868	6555
822.008	6273
822.149	6399
822.289	6338
822.429	6144
822.569	6106
822.709	6159
822.849	5878
822.99	5840
823.13	5920
823.27	5958
823.41	5821
823.55	5767
823.69	5779
823.83	5741
823.97	5672
824.11	5554
824.25	5490
824.389	5471
824.529	5604
824.669	5573
824.809	5649
824.949	5684
825.089	5634
825.228	5547
825.368	5360
825.508	5364
825.648	5326
825.787	5311
825.927	5372
826.067	5296
826.206	5326
826.346	5383
826.485	5414
826.625	5406
826.765	5551
826.904	5452
827.044	5277
827.183	5189
827.323	5132
827.462	5250
827.601	5189
827.741	5159
827.88	5246
828.02	5170
828.159	5235
828.298	5265
828.437	5337
828.577	5265
828.716	5429
828.855	5303
828.994	5208
829.134	5117
829.273	5151
829.412	5075
829.551	5124
829.69	5223
829.829	5273
829.968	5322
830.107	5292
830.246	5204
830.385	5170
830.524	5132
830.663	5041
830.802	5010
830.941	4911
831.08	4908
831.219	5003
831.357	4968
831.496	5189
831.635	4900
831.774	4805
831.913	4805
832.051	4706
832.19	4733
832.329	4873
832.467	4710
832.606	4683
832.744	4698
832.883	4748
833.022	4763
833.16	4809
833.299	4797
833.437	4801
833.576	4824
833.714	4889
833.852	4850
833.991	4911
834.129	4938
834.267	4942
834.406	4915
834.544	4938
834.682	4999
834.821	4961
834.959	5117
835.097	4965
835.235	5151
835.373	5037
835.511	5105
835.65	5003
835.788	5014
835.926	4908
836.064	4908
836.202	4919
836.34	5181
836.478	5208
836.615	5140
836.753	5220
836.891	5311
837.029	5223
837.167	5193
837.305	5151
837.443	5098
837.58	5079
837.718	5197
837.856	5220
837.993	5208
838.131	5178
838.269	5231
838.406	5231
838.544	5174
838.681	5056
838.819	5037
838.956	4877
839.094	4908
839.231	4942
839.369	5071
839.506	5436
839.643	5242
839.781	5071
839.918	5033
840.055	5124
840.193	5094
840.33	5121
840.467	5155
840.604	5189
840.742	5417
840.879	5090
841.016	5075
841.153	5181
841.29	5368
841.427	5326
841.564	5299
841.701	5345
841.838	5269
841.975	5216
842.112	5265
842.249	5136
842.385	5090
842.522	5353
842.659	5136
842.796	5151
842.933	5201
843.069	5170
843.206	5159
843.343	5288
843.479	5231
843.616	5185
843.752	5014
843.889	4980
844.025	5178
844.162	5003
844.298	5193
844.435	5124
844.571	5060
844.708	5185
844.844	5311
844.98	5337
845.117	5273
845.253	5147
845.389	5064
845.525	5124
845.661	5105
845.798	4984
845.934	5143
846.07	5064
846.206	5143
846.342	5292
846.478	5162
846.614	5022
846.75	4953
846.886	4919
847.022	5083
847.158	5048
847.294	5041
847.429	5098
847.565	5029
847.701	5296
847.837	4858
847.972	4839
848.108	4946
848.244	4972
848.379	4774
848.515	4672
848.65	4706
848.786	4755
848.921	4725
849.057	4816
849.192	4824
849.328	4793
849.463	4847
849.598	4793
849.734	4729
849.869	4653
850.004	4637
850.14	4660
850.275	4599
850.41	4527
850.545	4607
850.68	4615
850.815	4645
850.95	4634
851.085	4831
851.22	4717
851.355	4694
851.49	4615
851.625	4596
851.76	4618
851.895	4542
852.03	4512
852.165	4645
852.299	4683
852.434	4778
852.569	4672
852.703	4763
852.838	4858
852.973	4927
853.107	4919
853.242	4698
853.376	4615
853.511	4554
853.645	4569
853.78	4771
853.914	4714
854.048	4714
854.183	4634
854.317	4675
854.451	4904
854.585	4679
854.72	4615
854.854	4763
854.988	4569
855.122	4660
855.256	4554
855.39	4660
855.524	4782
855.658	4759
855.792	4672
855.926	4755
856.06	4729
856.194	4793
856.327	4675
856.461	4653
856.595	4626
856.729	4634
856.862	4725
856.996	4706
857.13	4755
857.263	4763
857.397	4736
857.53	4672
857.664	4691
857.797	4717
857.931	4774
858.064	4691
858.197	4767
858.331	4679
858.464	4611
858.597	4519
858.731	4656
858.864	4675
858.997	4580
859.13	4634
859.263	4618
859.396	4668
859.529	4573
859.662	4569
859.795	4554
859.928	4618
860.061	4755
860.194	4714
860.327	4565
860.46	4554
860.592	4672
860.725	4729
860.858	4736
860.99	4565
861.123	4516
861.256	4535
861.388	4615
861.521	5239
861.653	4535
861.786	4481
861.918	4478
862.05	4504
862.183	4523
862.315	4584
862.447	4641
862.58	4519
862.712	4356
862.844	4344
862.976	4497
863.108	4447
863.24	4744
863.372	4318
863.504	4424
863.636	4394
863.768	4497
863.9	4459
864.032	4360
864.164	4379
864.296	4466
864.428	4512
864.559	4550
864.691	4512
864.823	4508
864.954	4481
865.086	4527
865.217	4474
865.349	4417
865.48	4447
865.612	4493
865.743	4584
865.875	4447
866.006	4413
866.137	4470
866.269	4443
866.4	4398
866.531	4424
866.662	4432
866.793	4363
866.924	4443
867.055	4478
867.186	4470
867.317	4390
867.448	4352
867.579	4398
867.71	4405
867.841	4405
867.972	4432
868.103	4424
868.233	4508
868.364	4466
868.495	4474
868.625	4637
868.756	4717
868.886	4569
869.017	4615
869.147	4725
869.278	4740
869.408	4675
869.539	4656
869.669	4706
869.799	4630
869.929	4694
870.06	4759
870.19	4889
870.32	4923
870.45	4968
870.58	5029
870.71	5071
870.84	5079
870.97	4911
871.1	4930
871.23	5140
871.36	5109
871.489	4930
871.619	5086
871.749	5147
871.879	5102
872.008	5185
872.138	4991
872.267	4919
872.397	4820
872.526	4778
872.656	4752
872.785	4847
872.915	4972
873.044	5033
873.173	4904
873.303	4938
873.432	4984
873.561	4934
873.69	4866
873.819	4866
873.948	4911
874.077	4805
874.206	4774
874.335	4790
874.464	4900
874.593	5045
874.722	4953
874.851	5041
874.979	5010
875.108	5018
875.237	4930
875.365	4896
875.494	4908
875.623	5029
875.751	4812
875.88	4927
876.008	4965
876.136	5022
876.265	5216
876.393	5280
876.521	5303
876.65	5204
876.778	5090
876.906	5079
877.034	5014
877.162	5018
877.29	4995
877.418	5010
877.546	5048
877.674	5060
877.802	4995
877.93	5025
878.058	4953
878.185	4858
878.313	4987
878.441	4889
878.568	4797
878.696	4858
878.824	5022
878.951	4976
879.079	5102
879.206	5318
879.333	5109
879.461	4995
879.588	4976
879.715	5098
879.842	5227
879.97	5022
880.097	4805
880.224	4744
880.351	4801
880.478	4812
880.605	4809
880.732	4736
880.859	5056
880.986	4911
881.112	4889
881.239	4767
881.366	4630
881.493	4558
881.619	4569
881.746	4618
881.872	4607
881.999	4675
882.125	4706
882.252	4786
882.378	4805
882.505	4892
882.631	4809
882.757	4653
882.883	4725
883.01	4679
883.136	4641
883.262	4558
883.388	4626
883.514	4797
883.64	4881
883.766	4816
883.892	4637
884.018	4687
884.143	4930
884.269	4961
884.395	4664
884.52	4637
884.646	4618
884.772	4565
884.897	4558
885.023	4679
885.148	4763
885.274	4866
885.399	4809
885.524	4755
885.65	4706
885.775	4744
885.9	4717
886.025	4858
886.15	4782
886.275	4717
886.4	4672
886.525	4714
886.65	4664
886.775	4702
886.9	4877
887.025	5022
887.149	4816
887.274	4691
887.399	4577
887.523	4615
887.648	4542
887.773	4535
887.897	4767
888.021	4740
888.146	4683
888.27	4816
888.395	4877
888.519	4801
888.643	4809
888.767	4873
888.891	4641
889.015	4573
889.139	4607
889.263	4599
889.387	4755
889.511	4835
889.635	4748
889.759	4672
889.883	4672
890.006	4763
890.13	4843
890.254	4622
890.377	4664
890.501	4546
890.624	4542
890.748	4660
890.871	4523
890.995	4447
891.118	4413
891.241	4527
891.364	4500
891.488	4596
891.611	4470
891.734	4531
891.857	4618
891.98	4580
892.103	4637
892.226	4596
892.349	4550
892.471	4409
892.594	4535
892.717	4554
892.839	4580
892.962	4569
893.085	4622
893.207	4603
893.33	4500
893.452	4542
893.575	4744
893.697	4577
893.819	4778
893.941	4744
894.064	4812
894.186	4546
894.308	4611
894.43	4740
894.552	4782
894.674	4755
894.796	4565
894.918	4550
895.04	4603
895.161	4694
895.283	4672
895.405	4573
895.526	4630
895.648	4679
895.769	4710
895.891	4729
896.012	4767
896.134	4725
896.255	4630
896.376	4607
896.498	4626
896.619	4653
896.74	4615
896.861	4622
896.982	4942
897.103	5075
897.224	4809
897.345	4767
897.466	4603
897.587	4744
897.708	4873
897.828	4725
897.949	4698
898.07	4584
898.19	4641
898.311	4831
898.431	4706
898.552	4767
898.672	4812
898.792	4782
898.913	4725
899.033	4561
899.153	4497
899.273	4440
899.393	4424
899.513	4542
899.633	4489
899.753	4554
899.873	4512
899.993	4542
900.113	4508
900.232	4599
900.352	4512
900.472	4436
900.591	4367
900.711	4470
900.83	4409
900.95	4653
901.069	4706
901.189	4542
901.308	4344
901.427	4272
901.546	4360
901.665	4447
901.784	4523
901.904	4386
902.023	4325
902.141	4162
902.26	4169
902.379	4318
902.498	4223
902.617	4249
902.735	4390
902.854	4363
902.973	4341
903.091	4200
903.21	4230
903.328	4284
903.446	4253
903.565	4257
903.683	4352
903.801	4284
903.919	4394
904.038	4398
904.156	4325
904.274	4428
904.392	4409
904.51	4455
904.627	4455
904.745	4546
904.863	4641
904.981	4405
905.098	4303
905.216	4356
905.334	4436
905.451	4478
905.569	4405
905.686	4542
905.803	4584
905.921	4394
906.038	4550
906.155	4466
906.272	4409
906.389	4478
906.506	4344
906.623	4344
906.74	4348
906.857	4272
906.974	4371
907.091	4546
907.208	4660
907.324	4596
907.441	4504
907.557	4344
907.674	4379
907.79	4299
907.907	4394
908.023	4508
908.139	4493
908.256	4466
908.372	4455
908.488	4474
908.604	4356
908.72	4284
908.836	4367
908.952	4363
909.068	4390
909.184	4546
909.3	4470
909.415	4607
909.531	4561
909.647	4303
909.762	4352
909.878	4360
909.993	4394
910.108	4417
910.224	4375
910.339	4470
910.454	4409
910.57	4386
910.685	4303
910.8	4672
910.915	4580
911.03	4455
911.145	4333
911.259	4344
911.374	4394
911.489	4280
911.604	4295
911.718	4143
911.833	4143
911.947	4139
912.062	4040
912.176	4204
912.291	4246
912.405	4272
912.519	4470
912.633	4478
912.748	4405
912.862	4284
912.976	4200
913.09	4109
913.204	4154
913.318	4234
913.431	4363
913.545	4363
913.659	4466
913.772	4371
913.886	4219
914	4200
914.113	4348
914.226	4443
914.34	4356
914.453	4246
914.566	4440
914.68	4329
914.793	4341
914.906	4150
915.019	4135
915.132	4090
915.245	4192
915.358	4242
915.47	4227
915.583	4276
915.696	4287
915.809	4379
915.921	4375
916.034	4284
916.146	4227
916.259	4204
916.371	4348
916.483	4333
916.595	4238
916.708	4276
916.82	4314
916.932	4322
917.044	4284
917.156	4295
917.268	4227
917.38	4257
917.491	4249
917.603	4299
917.715	4363
917.826	4421
917.938	4367
918.049	4242
918.161	4367
918.272	4538
918.384	4531
918.495	4436
918.606	4268
918.717	4249
918.828	4280
918.939	4402
919.05	4230
919.161	4337
919.272	4112
919.383	4192
919.494	4398
919.604	4630
919.715	4440
919.826	4318
919.936	4348
920.047	4489
920.157	4451
920.267	4656
920.378	4508
920.488	4489
920.598	4702
920.708	4862
920.818	4797
920.928	4771
921.038	4938
921.148	4892
921.258	4592
921.368	4508
921.477	4462
921.587	4417
921.697	4398
921.806	4531
921.916	4413
922.025	4261
922.134	4249
922.244	4207
922.353	4348
922.462	4185
922.571	4112
922.68	3975
922.789	3953
922.898	4029
923.007	4002
923.116	4128
923.224	4078
923.333	4093
923.442	3983
923.55	3934
923.659	3968
923.767	4063
923.876	3994
923.984	4116
924.092	3983
924.201	4067
924.309	4078
924.417	4112
924.525	4055
924.633	4139
924.741	4885
924.849	3930
924.956	4128
925.064	3983
925.172	3896
925.279	3911
925.387	4040
925.494	4032
925.602	4162
925.709	4223
925.816	4002
925.924	4116
926.031	4207
926.138	4150
926.245	4192
926.352	4036
926.459	4242
926.566	4295
926.673	4166
926.779	4055
926.886	4071
926.993	4006
927.099	3972
927.206	3934
927.312	3964
927.419	4048
927.525	4059
927.631	4093
927.737	3960
927.843	3975
927.95	3861
928.056	3953
928.162	4010
928.267	4086
928.373	4538
928.479	4109
928.585	3846
928.69	4025
928.796	4101
928.901	3960
929.007	3831
929.112	3998
929.218	3964
929.323	3922
929.428	3956
929.533	4101
929.638	3949
929.743	3937
929.848	4025
929.953	3991
930.058	3953
930.163	3774
930.267	3842
930.372	3960
930.477	3804
930.581	4097
930.685	3930
930.79	3857
930.894	3865
930.998	3831
931.103	4078
931.207	3682
931.311	3728
931.415	3686
931.519	3538
931.623	3523
