Data from test_V78500241_2063.txt Node
Date: Fri Mar 25 17:03:20 CST 2022
User: usil
Spectrometer: V785-0024
Trigger mode: 0
Integration Time (sec): 4.000000E-1
Scans to average: 1
Nonlinearity correction enabled: false
Boxcar width: 0
Storing dark spectrum: false
XAxis mode: Wavelengths
Number of Pixels in Spectrum: 1024
>>>>>Begin Spectral Data<<<<<
801.071	8016
801.214	7959
801.356	7845
801.499	7925
801.641	7757
801.783	7811
801.926	8001
802.068	7955
802.211	7967
802.353	8001
802.496	7830
802.638	7913
802.78	7928
802.923	7898
803.065	7860
803.208	7845
803.35	7974
803.492	8161
803.635	8176
803.777	7959
803.919	8134
804.061	8370
804.204	8134
804.346	8043
804.488	7951
804.63	8050
804.773	7989
804.915	8126
805.057	8252
805.199	8119
805.341	8199
805.483	8290
805.626	8191
805.768	8164
805.91	8187
806.052	8263
806.194	8130
806.336	8256
806.478	8081
806.62	8039
806.762	8161
806.904	8259
807.046	8545
807.188	8305
807.33	8305
807.472	8362
807.614	8187
807.756	8123
807.898	8020
808.04	7875
808.182	7894
808.324	7871
808.465	7906
808.607	8012
808.749	8043
808.891	8206
809.033	8317
809.174	8214
809.316	8107
809.458	8077
809.6	7944
809.741	8027
809.883	7967
810.025	8088
810.166	8073
810.308	7970
810.45	7974
810.591	7887
810.733	7719
810.875	7658
811.016	7457
811.158	7457
811.299	7571
811.441	7696
811.582	7632
811.724	7563
811.865	7506
812.007	7594
812.148	7510
812.29	7609
812.431	7693
812.573	7906
812.714	7947
812.855	8096
812.997	8233
813.138	8301
813.279	8153
813.421	8092
813.562	7955
813.703	7772
813.845	7715
813.986	7320
814.127	7206
814.268	7209
814.41	7137
814.551	7164
814.692	7244
814.833	7057
814.974	7114
815.115	7133
815.256	6973
815.397	6916
815.539	6970
815.68	6806
815.821	6734
815.962	6760
816.103	6810
816.244	6631
816.385	6578
816.526	6570
816.666	6426
816.807	6285
816.948	6388
817.089	6456
817.23	6403
817.371	6388
817.512	6361
817.653	6418
817.793	6331
817.934	6433
818.075	6433
818.216	6464
818.356	6361
818.497	6254
818.638	6117
818.778	6167
818.919	6121
819.06	6110
819.2	6353
819.341	6357
819.481	6296
819.622	6536
819.762	6711
819.903	6669
820.043	6540
820.184	6570
820.324	6532
820.465	6734
820.605	6719
820.746	6642
820.886	6521
821.026	6673
821.167	6703
821.307	6795
821.447	6719
821.588	6662
821.728	6555
821.868	6498
822.008	6289
822.149	6365
822.289	6346
822.429	6175
822.569	6079
822.709	6148
822.849	5901
822.99	5950
823.13	5965
823.27	5916
823.41	5771
823.55	5809
823.69	5745
823.83	5748
823.97	5684
824.11	5535
824.25	5493
824.389	5535
824.529	5543
824.669	5505
824.809	5592
824.949	5604
825.089	5608
825.228	5509
825.368	5421
825.508	5337
825.648	5345
825.787	5406
825.927	5326
826.067	5261
826.206	5296
826.346	5387
826.485	5406
826.625	5368
826.765	5524
826.904	5455
827.044	5242
827.183	5181
827.323	5094
827.462	5216
827.601	5174
827.741	5197
827.88	5223
828.02	5083
828.159	5216
828.298	5296
828.437	5368
828.577	5277
828.716	5490
828.855	5284
828.994	5170
829.134	5105
829.273	5166
829.412	5132
829.551	5098
829.69	5174
829.829	5242
829.968	5395
830.107	5208
830.246	5269
830.385	5166
830.524	5178
830.663	5109
830.802	4946
830.941	4919
831.08	4866
831.219	4980
831.357	4987
831.496	5113
831.635	4934
831.774	4881
831.913	4816
832.051	4763
832.19	4748
832.329	4850
832.467	4649
832.606	4626
832.744	4702
832.883	4702
833.022	4782
833.16	4793
833.299	4759
833.437	4835
833.576	4835
833.714	4854
833.852	4866
833.991	4915
834.129	4930
834.267	4976
834.406	4873
834.544	4942
834.682	4942
834.821	4965
834.959	5121
835.097	5003
835.235	5140
835.373	5010
835.511	5060
835.65	5048
835.788	5041
835.926	4873
836.064	4828
836.202	4972
836.34	5151
836.478	5178
836.615	5109
836.753	5227
836.891	5303
837.029	5208
837.167	5143
837.305	5094
837.443	5105
837.58	5037
837.718	5227
837.856	5178
837.993	5117
838.131	5201
838.269	5197
838.406	5102
838.544	5121
838.681	5025
838.819	5022
838.956	4831
839.094	4881
839.231	4968
839.369	5083
839.506	5376
839.643	5204
839.781	5083
839.918	5006
840.055	5098
840.193	5098
840.33	5132
840.467	5128
840.604	5201
840.742	5402
840.879	5025
841.016	5086
841.153	5121
841.29	5288
841.427	5307
841.564	5303
841.701	5398
841.838	5239
841.975	5201
842.112	5239
842.249	5143
842.385	5067
842.522	5334
842.659	5121
842.796	5166
842.933	5094
843.069	5094
843.206	5166
843.343	5242
843.479	5227
843.616	5235
843.752	5029
843.889	4976
844.025	5189
844.162	4961
844.298	5181
844.435	5025
844.571	5018
844.708	5197
844.844	5273
844.98	5383
845.117	5258
845.253	5155
845.389	5037
845.525	5162
845.661	5166
845.798	5029
845.934	5117
846.07	5056
846.206	5181
846.342	5284
846.478	5155
846.614	5029
846.75	4930
846.886	4934
847.022	5109
847.158	5025
847.294	5056
847.429	5098
847.565	5041
847.701	5288
847.837	4892
847.972	4809
848.108	4942
848.244	4930
848.379	4771
848.515	4736
848.65	4694
848.786	4782
848.921	4755
849.057	4835
849.192	4873
849.328	4793
849.463	4812
849.598	4805
849.734	4710
849.869	4679
850.004	4634
850.14	4683
850.275	4607
850.41	4500
850.545	4569
850.68	4637
850.815	4558
850.95	4569
851.085	4877
851.22	4721
851.355	4668
851.49	4649
851.625	4630
851.76	4649
851.895	4504
852.03	4500
852.165	4679
852.299	4679
852.434	4797
852.569	4736
852.703	4771
852.838	4801
852.973	4908
853.107	4900
853.242	4694
853.376	4672
853.511	4565
853.645	4656
853.78	4828
853.914	4675
854.048	4694
854.183	4599
854.317	4683
854.451	4854
854.585	4706
854.72	4637
854.854	4679
854.988	4573
855.122	4645
855.256	4485
855.39	4664
855.524	4782
855.658	4679
855.792	4668
855.926	4675
856.06	4755
856.194	4767
856.327	4668
856.461	4630
856.595	4611
856.729	4603
856.862	4748
856.996	4672
857.13	4740
857.263	4744
857.397	4809
857.53	4607
857.664	4721
857.797	4706
857.931	4767
858.064	4672
858.197	4733
858.331	4641
858.464	4592
858.597	4542
858.731	4580
858.864	4615
858.997	4592
859.13	4672
859.263	4645
859.396	4740
859.529	4573
859.662	4538
859.795	4573
859.928	4672
860.061	4767
860.194	4790
860.327	4634
860.46	4569
860.592	4710
860.725	4729
860.858	4717
860.99	4603
861.123	4519
861.256	4538
861.388	4615
861.521	5280
861.653	4554
861.786	4436
861.918	4489
862.05	4519
862.183	4565
862.315	4615
862.447	4706
862.58	4611
862.712	4413
862.844	4344
862.976	4535
863.108	4497
863.24	4824
863.372	4375
863.504	4470
863.636	4402
863.768	4485
863.9	4504
864.032	4398
864.164	4443
864.296	4504
864.428	4599
864.559	4565
864.691	4561
864.823	4554
864.954	4504
865.086	4607
865.217	4504
865.349	4470
865.48	4478
865.612	4550
865.743	4641
865.875	4535
866.006	4436
866.137	4512
866.269	4466
866.4	4531
866.531	4455
866.662	4443
866.793	4485
866.924	4413
867.055	4443
867.186	4527
867.317	4447
867.448	4405
867.579	4432
867.71	4436
867.841	4413
867.972	4508
868.103	4485
868.233	4443
868.364	4447
868.495	4527
868.625	4672
868.756	4725
868.886	4550
869.017	4637
869.147	4797
869.278	4797
869.408	4744
869.539	4653
869.669	4717
869.799	4702
869.929	4843
870.06	4786
870.19	4984
870.32	4949
870.45	4965
870.58	5060
870.71	5147
870.84	5132
870.97	5025
871.1	4995
871.23	5136
871.36	5197
871.489	5060
871.619	5124
871.749	5124
871.879	5170
872.008	5231
872.138	5105
872.267	4965
872.397	4870
872.526	4771
872.656	4782
872.785	4908
872.915	4995
873.044	5083
873.173	5014
873.303	4995
873.432	4968
873.561	5018
873.69	4949
873.819	4961
873.948	4927
874.077	4866
874.206	4786
874.335	4828
874.464	4919
874.593	5052
874.722	4991
874.851	5124
874.979	5109
875.108	5041
875.237	4965
875.365	4908
875.494	4881
875.623	4991
875.751	4866
875.88	4881
876.008	4961
876.136	5151
876.265	5216
876.393	5395
876.521	5269
876.65	5250
876.778	5201
876.906	5048
877.034	4991
877.162	5052
877.29	4995
877.418	5014
877.546	5102
877.674	5105
877.802	5121
877.93	5045
878.058	4980
878.185	4930
878.313	4984
878.441	4984
878.568	4820
878.696	4900
878.824	4968
878.951	4987
879.079	5143
879.206	5250
879.333	5075
879.461	4999
879.588	5003
879.715	5136
879.842	5258
879.97	4987
880.097	4873
880.224	4771
880.351	4839
880.478	4831
880.605	4850
880.732	4797
880.859	5136
880.986	4873
881.112	4927
881.239	4809
881.366	4710
881.493	4641
881.619	4687
881.746	4675
881.872	4664
881.999	4664
882.125	4721
882.252	4797
882.378	4870
882.505	4984
882.631	4816
882.757	4668
882.883	4763
883.01	4790
883.136	4706
883.262	4641
883.388	4641
883.514	4809
883.64	4850
883.766	4843
883.892	4774
884.018	4714
884.143	4942
884.269	4995
884.395	4748
884.52	4588
884.646	4626
884.772	4615
884.897	4580
885.023	4706
885.148	4786
885.274	4889
885.399	4820
885.524	4717
885.65	4744
885.775	4752
885.9	4748
886.025	4862
886.15	4824
886.275	4733
886.4	4664
886.525	4812
886.65	4725
886.775	4736
886.9	4885
887.025	5075
887.149	4820
887.274	4668
887.399	4649
887.523	4656
887.648	4618
887.773	4603
887.897	4793
888.021	4809
888.146	4729
888.27	4839
888.395	4927
888.519	4805
888.643	4820
888.767	4809
888.891	4755
889.015	4660
889.139	4687
889.263	4622
889.387	4786
889.511	4858
889.635	4828
889.759	4660
889.883	4702
890.006	4763
890.13	4850
890.254	4641
890.377	4694
890.501	4546
890.624	4573
890.748	4649
890.871	4512
890.995	4478
891.118	4386
891.241	4500
891.364	4577
891.488	4660
891.611	4535
891.734	4588
891.857	4618
891.98	4588
892.103	4656
892.226	4622
892.349	4558
892.471	4443
892.594	4607
892.717	4626
892.839	4584
892.962	4622
893.085	4660
893.207	4611
893.33	4443
893.452	4538
893.575	4729
893.697	4618
893.819	4828
893.941	4812
894.064	4759
894.186	4653
894.308	4603
894.43	4755
894.552	4812
894.674	4763
894.796	4561
894.918	4622
895.04	4615
895.161	4752
895.283	4653
895.405	4561
895.526	4683
895.648	4725
895.769	4691
895.891	4710
896.012	4706
896.134	4782
896.255	4683
896.376	4668
896.498	4649
896.619	4675
896.74	4626
896.861	4664
896.982	4927
897.103	5102
897.224	4831
897.345	4801
897.466	4675
897.587	4748
897.708	4854
897.828	4820
897.949	4694
898.07	4626
898.19	4653
898.311	4786
898.431	4675
898.552	4759
898.672	4858
898.792	4782
898.913	4793
899.033	4588
899.153	4474
899.273	4466
899.393	4546
899.513	4535
899.633	4538
899.753	4558
899.873	4485
899.993	4577
900.113	4550
900.232	4641
900.352	4634
900.472	4512
900.591	4402
900.711	4493
900.83	4440
900.95	4645
901.069	4675
901.189	4550
901.308	4367
901.427	4341
901.546	4417
901.665	4474
901.784	4573
901.904	4390
902.023	4341
902.141	4211
902.26	4230
902.379	4344
902.498	4261
902.617	4234
902.735	4375
902.854	4390
902.973	4341
903.091	4234
903.21	4272
903.328	4291
903.446	4295
903.565	4265
903.683	4341
903.801	4310
903.919	4436
904.038	4428
904.156	4348
904.274	4447
904.392	4360
904.51	4497
904.627	4470
904.745	4599
904.863	4656
904.981	4371
905.098	4310
905.216	4352
905.334	4455
905.451	4424
905.569	4443
905.686	4538
905.803	4565
905.921	4440
906.038	4584
906.155	4459
906.272	4405
906.389	4504
906.506	4325
906.623	4405
906.74	4421
906.857	4325
906.974	4367
907.091	4554
907.208	4649
907.324	4592
907.441	4500
907.557	4367
907.674	4402
907.79	4299
907.907	4356
908.023	4500
908.139	4512
908.256	4424
908.372	4516
908.488	4470
908.604	4341
908.72	4310
908.836	4417
908.952	4344
909.068	4455
909.184	4584
909.3	4508
909.415	4607
909.531	4580
909.647	4371
909.762	4379
909.878	4322
909.993	4451
910.108	4443
910.224	4428
910.339	4462
910.454	4447
910.57	4386
910.685	4291
910.8	4698
910.915	4615
911.03	4478
911.145	4367
911.259	4306
911.374	4386
911.489	4291
911.604	4295
911.718	4169
911.833	4192
911.947	4120
912.062	4059
912.176	4200
912.291	4253
912.405	4238
912.519	4470
912.633	4519
912.748	4409
912.862	4322
912.976	4219
913.09	4078
913.204	4204
913.318	4276
913.431	4394
913.545	4360
913.659	4466
913.772	4344
913.886	4261
914	4230
914.113	4402
914.226	4451
914.34	4390
914.453	4261
914.566	4455
914.68	4360
914.793	4333
914.906	4131
915.019	4120
915.132	4082
915.245	4188
915.358	4196
915.47	4268
915.583	4242
915.696	4291
915.809	4428
915.921	4462
916.034	4246
916.146	4295
916.259	4257
916.371	4402
916.483	4363
916.595	4238
916.708	4341
916.82	4344
916.932	4363
917.044	4383
917.156	4303
917.268	4257
917.38	4322
917.491	4272
917.603	4333
917.715	4405
917.826	4440
917.938	4352
918.049	4227
918.161	4409
918.272	4523
918.384	4527
918.495	4474
918.606	4314
918.717	4268
918.828	4390
918.939	4394
919.05	4238
919.161	4367
919.272	4177
919.383	4265
919.494	4405
919.604	4691
919.715	4413
919.826	4371
919.936	4432
920.047	4573
920.157	4538
920.267	4729
920.378	4459
920.488	4466
920.598	4755
920.708	4919
920.818	4778
920.928	4729
921.038	4934
921.148	4934
921.258	4626
921.368	4596
921.477	4481
921.587	4478
921.697	4398
921.806	4542
921.916	4451
922.025	4295
922.134	4230
922.244	4272
922.353	4379
922.462	4200
922.571	4139
922.68	4032
922.789	4010
922.898	3994
923.007	3983
923.116	4105
923.224	4036
923.333	4116
923.442	3975
923.55	3994
923.659	4051
923.767	4116
923.876	3994
923.984	4139
924.092	3964
924.201	4093
924.309	4131
924.417	4135
924.525	4101
924.633	4135
924.741	5037
924.849	3911
924.956	4105
925.064	3979
925.172	3915
925.279	4029
925.387	4090
925.494	4086
925.602	4230
925.709	4169
925.816	4051
925.924	4158
926.031	4211
926.138	4192
926.245	4181
926.352	4105
926.459	4246
926.566	4402
926.673	4185
926.779	4131
926.886	4097
926.993	3994
927.099	4017
927.206	3930
927.312	3975
927.419	4067
927.525	4067
927.631	4135
927.737	3972
927.843	3991
927.95	3865
928.056	3987
928.162	3994
928.267	4071
928.373	4573
928.479	4154
928.585	3873
928.69	4078
928.796	4101
928.901	3972
929.007	3861
929.112	4055
929.218	4025
929.323	3991
929.428	3991
929.533	4150
929.638	3968
929.743	3994
929.848	4112
929.953	4025
930.058	3964
930.163	3800
930.267	3880
930.372	3972
930.477	3876
930.581	4128
930.685	4021
930.79	3907
930.894	3941
930.998	3892
931.103	4105
931.207	3766
931.311	3732
931.415	3717
931.519	3545
931.623	3561
