Data from test_V78500241_85.txt Node
Date: Fri Mar 25 16:49:35 CST 2022
User: usil
Spectrometer: V785-0024
Trigger mode: 0
Integration Time (sec): 4.000000E-1
Scans to average: 1
Nonlinearity correction enabled: false
Boxcar width: 0
Storing dark spectrum: false
XAxis mode: Wavelengths
Number of Pixels in Spectrum: 1024
>>>>>Begin Spectral Data<<<<<
801.071	8092
801.214	8024
801.356	7906
801.499	7898
801.641	7841
801.783	7852
801.926	8069
802.068	7959
802.211	8005
802.353	7986
802.496	7894
802.638	7936
802.78	8054
802.923	7986
803.065	7898
803.208	7879
803.35	7955
803.492	8058
803.635	8195
803.777	7955
803.919	8054
804.061	8419
804.204	8130
804.346	8031
804.488	7989
804.63	8058
804.773	8020
804.915	8016
805.057	8298
805.199	8100
805.341	8206
805.483	8282
805.626	8263
805.768	8119
805.91	8191
806.052	8206
806.194	8123
806.336	8336
806.478	8142
806.62	8130
806.762	8275
806.904	8301
807.046	8457
807.188	8305
807.33	8301
807.472	8404
807.614	8195
807.756	8161
807.898	8035
808.04	7932
808.182	7868
808.324	7856
808.465	7887
808.607	8012
808.749	8123
808.891	8240
809.033	8256
809.174	8202
809.316	8008
809.458	8031
809.6	8020
809.741	8001
809.883	8035
810.025	8168
810.166	8043
810.308	8081
810.45	7989
810.591	7955
810.733	7753
810.875	7670
811.016	7556
811.158	7563
811.299	7632
811.441	7776
811.582	7670
811.724	7639
811.865	7552
812.007	7632
812.148	7666
812.29	7708
812.431	7799
812.573	7963
812.714	8027
812.855	8233
812.997	8347
813.138	8339
813.279	8218
813.421	8107
813.562	7978
813.703	7970
813.845	7761
813.986	7480
814.127	7278
814.268	7263
814.41	7274
814.551	7266
814.692	7270
814.833	7061
814.974	7179
815.115	7198
815.256	6947
815.397	6897
815.539	6916
815.68	6848
815.821	6768
815.962	6913
816.103	6840
816.244	6707
816.385	6684
816.526	6620
816.666	6544
816.807	6342
816.948	6471
817.089	6460
817.23	6483
817.371	6403
817.512	6353
817.653	6467
817.793	6388
817.934	6433
818.075	6528
818.216	6475
818.356	6426
818.497	6338
818.638	6224
818.778	6213
818.919	6197
819.06	6167
819.2	6365
819.341	6384
819.481	6407
819.622	6616
819.762	6818
819.903	6749
820.043	6662
820.184	6612
820.324	6662
820.465	6719
820.605	6703
820.746	6612
820.886	6540
821.026	6665
821.167	6791
821.307	6829
821.447	6818
821.588	6658
821.728	6585
821.868	6544
822.008	6334
822.149	6372
822.289	6410
822.429	6254
822.569	6095
822.709	6163
822.849	5920
822.99	5927
823.13	5977
823.27	5935
823.41	5798
823.55	5847
823.69	5771
823.83	5836
823.97	5684
824.11	5577
824.25	5528
824.389	5638
824.529	5646
824.669	5528
824.809	5649
824.949	5707
825.089	5653
825.228	5634
825.368	5421
825.508	5334
825.648	5353
825.787	5398
825.927	5379
826.067	5357
826.206	5326
826.346	5372
826.485	5391
826.625	5414
826.765	5623
826.904	5532
827.044	5258
827.183	5170
827.323	5193
827.462	5235
827.601	5185
827.741	5246
827.88	5235
828.02	5193
828.159	5246
828.298	5315
828.437	5368
828.577	5261
828.716	5463
828.855	5353
828.994	5193
829.134	5197
829.273	5250
829.412	5189
829.551	5193
829.69	5189
829.829	5288
829.968	5364
830.107	5360
830.246	5322
830.385	5193
830.524	5204
830.663	5041
830.802	4968
830.941	4942
831.08	4904
831.219	5010
831.357	5033
831.496	5143
831.635	4923
831.774	4889
831.913	4866
832.051	4797
832.19	4725
832.329	4812
832.467	4729
832.606	4630
832.744	4774
832.883	4763
833.022	4767
833.16	4835
833.299	4850
833.437	4797
833.576	4877
833.714	4870
833.852	4892
833.991	4908
834.129	5037
834.267	4999
834.406	4957
834.544	5079
834.682	4987
834.821	5010
834.959	5178
835.097	5018
835.235	5189
835.373	5132
835.511	5170
835.65	5025
835.788	5048
835.926	4961
836.064	4866
836.202	4957
836.34	5201
836.478	5265
836.615	5170
836.753	5273
836.891	5311
837.029	5284
837.167	5239
837.305	5235
837.443	5201
837.58	5045
837.718	5277
837.856	5178
837.993	5128
838.131	5299
838.269	5204
838.406	5212
838.544	5212
838.681	5098
838.819	5045
838.956	4987
839.094	4908
839.231	5006
839.369	5128
839.506	5444
839.643	5261
839.781	5079
839.918	5045
840.055	5109
840.193	5102
840.33	5121
840.467	5136
840.604	5231
840.742	5467
840.879	5147
841.016	5102
841.153	5159
841.29	5410
841.427	5395
841.564	5322
841.701	5429
841.838	5322
841.975	5261
842.112	5337
842.249	5151
842.385	5109
842.522	5349
842.659	5170
842.796	5170
842.933	5246
843.069	5147
843.206	5216
843.343	5341
843.479	5258
843.616	5265
843.752	5052
843.889	5045
844.025	5265
844.162	5041
844.298	5208
844.435	5102
844.571	5052
844.708	5227
844.844	5330
844.98	5364
845.117	5296
845.253	5174
845.389	5140
845.525	5197
845.661	5136
845.798	5037
845.934	5136
846.07	5037
846.206	5239
846.342	5341
846.478	5220
846.614	5060
846.75	4995
846.886	4915
847.022	5166
847.158	5041
847.294	5067
847.429	5124
847.565	5155
847.701	5330
847.837	4854
847.972	4839
848.108	4957
848.244	4987
848.379	4759
848.515	4797
848.65	4729
848.786	4763
848.921	4831
849.057	4934
849.192	4968
849.328	4850
849.463	4850
849.598	4839
849.734	4831
849.869	4740
850.004	4634
850.14	4691
850.275	4630
850.41	4580
850.545	4577
850.68	4615
850.815	4675
850.95	4672
851.085	4854
851.22	4805
851.355	4679
851.49	4577
851.625	4668
851.76	4668
851.895	4554
852.03	4592
852.165	4694
852.299	4736
852.434	4805
852.569	4809
852.703	4816
852.838	4835
852.973	5006
853.107	4938
853.242	4782
853.376	4752
853.511	4599
853.645	4626
853.78	4843
853.914	4702
854.048	4698
854.183	4649
854.317	4691
854.451	4900
854.585	4653
854.72	4660
854.854	4793
854.988	4645
855.122	4679
855.256	4550
855.39	4702
855.524	4793
855.658	4748
855.792	4736
855.926	4752
856.06	4831
856.194	4816
856.327	4729
856.461	4626
856.595	4664
856.729	4668
856.862	4812
856.996	4744
857.13	4733
857.263	4740
857.397	4828
857.53	4645
857.664	4752
857.797	4850
857.931	4824
858.064	4733
858.197	4782
858.331	4721
858.464	4656
858.597	4592
858.731	4634
858.864	4675
858.997	4656
859.13	4702
859.263	4721
859.396	4702
859.529	4618
859.662	4607
859.795	4577
859.928	4637
860.061	4767
860.194	4805
860.327	4645
860.46	4615
860.592	4744
860.725	4725
860.858	4820
860.99	4603
861.123	4527
861.256	4546
861.388	4634
861.521	5269
861.653	4504
861.786	4474
861.918	4497
862.05	4542
862.183	4584
862.315	4622
862.447	4592
862.58	4573
862.712	4413
862.844	4341
862.976	4512
863.108	4470
863.24	4881
863.372	4341
863.504	4421
863.636	4383
863.768	4508
863.9	4459
864.032	4371
864.164	4413
864.296	4516
864.428	4569
864.559	4512
864.691	4523
864.823	4531
864.954	4462
865.086	4519
865.217	4485
865.349	4470
865.48	4489
865.612	4531
865.743	4698
865.875	4489
866.006	4462
866.137	4447
866.269	4436
866.4	4424
866.531	4489
866.662	4424
866.793	4360
866.924	4493
867.055	4565
867.186	4512
867.317	4402
867.448	4432
867.579	4394
867.71	4447
867.841	4409
867.972	4455
868.103	4481
868.233	4466
868.364	4497
868.495	4512
868.625	4706
868.756	4790
868.886	4558
869.017	4649
869.147	4755
869.278	4866
869.408	4691
869.539	4664
869.669	4755
869.799	4698
869.929	4755
870.06	4752
870.19	5022
870.32	4934
870.45	4987
870.58	5045
870.71	5128
870.84	5083
870.97	4984
871.1	4946
871.23	5113
871.36	5143
871.489	5083
871.619	5124
871.749	5231
871.879	5147
872.008	5178
872.138	5067
872.267	4984
872.397	4904
872.526	4850
872.656	4721
872.785	4839
872.915	4984
873.044	5067
873.173	4949
873.303	4961
873.432	4987
873.561	4995
873.69	4870
873.819	4908
873.948	4942
874.077	4843
874.206	4771
874.335	4831
874.464	4938
874.593	5102
874.722	5006
874.851	5083
874.979	5166
875.108	5037
875.237	4965
875.365	4934
875.494	4904
875.623	4953
875.751	4862
875.88	4889
876.008	4984
876.136	5045
876.265	5246
876.393	5387
876.521	5353
876.65	5277
876.778	5254
876.906	5105
877.034	5041
877.162	5018
877.29	5025
877.418	5048
877.546	5067
877.674	5014
877.802	5048
877.93	5079
878.058	4938
878.185	4843
878.313	4972
878.441	5003
878.568	4805
878.696	4873
878.824	4976
878.951	5056
879.079	5204
879.206	5334
879.333	5140
879.461	5083
879.588	5022
879.715	5174
879.842	5223
879.97	5014
880.097	4805
880.224	4797
880.351	4862
880.478	4866
880.605	4771
880.732	4828
880.859	5132
880.986	4934
881.112	4949
881.239	4797
881.366	4679
881.493	4584
881.619	4630
881.746	4702
881.872	4653
881.999	4714
882.125	4641
882.252	4820
882.378	4877
882.505	5029
882.631	4809
882.757	4698
882.883	4733
883.01	4755
883.136	4691
883.262	4637
883.388	4637
883.514	4816
883.64	4881
883.766	4824
883.892	4672
884.018	4714
884.143	4900
884.269	5006
884.395	4694
884.52	4656
884.646	4668
884.772	4626
884.897	4607
885.023	4664
885.148	4816
885.274	4850
885.399	4839
885.524	4736
885.65	4755
885.775	4755
885.9	4736
886.025	4911
886.15	4847
886.275	4721
886.4	4714
886.525	4736
886.65	4736
886.775	4744
886.9	4957
887.025	5064
887.149	4831
887.274	4679
887.399	4615
887.523	4622
887.648	4637
887.773	4637
887.897	4759
888.021	4771
888.146	4706
888.27	4797
888.395	4911
888.519	4858
888.643	4797
888.767	4847
888.891	4710
889.015	4637
889.139	4717
889.263	4660
889.387	4812
889.511	4889
889.635	4820
889.759	4660
889.883	4664
890.006	4736
890.13	4854
890.254	4626
890.377	4706
890.501	4588
890.624	4573
890.748	4691
890.871	4512
890.995	4455
891.118	4394
891.241	4546
891.364	4607
891.488	4664
891.611	4527
891.734	4599
891.857	4634
891.98	4565
892.103	4668
892.226	4618
892.349	4554
892.471	4504
892.594	4546
892.717	4588
892.839	4577
892.962	4599
893.085	4714
893.207	4653
893.33	4504
893.452	4542
893.575	4698
893.697	4592
893.819	4812
893.941	4900
894.064	4801
894.186	4569
894.308	4603
894.43	4717
894.552	4839
894.674	4801
894.796	4569
894.918	4603
895.04	4584
895.161	4759
895.283	4660
895.405	4603
895.526	4668
895.648	4725
895.769	4710
895.891	4679
896.012	4748
896.134	4729
896.255	4687
896.376	4683
896.498	4664
896.619	4687
896.74	4694
896.861	4717
896.982	4968
897.103	5117
897.224	4858
897.345	4771
897.466	4752
897.587	4767
897.708	4885
897.828	4824
897.949	4714
898.07	4611
898.19	4618
898.311	4889
898.431	4744
898.552	4763
898.672	4828
898.792	4782
898.913	4744
899.033	4634
899.153	4497
899.273	4462
899.393	4516
899.513	4569
899.633	4550
899.753	4561
899.873	4493
899.993	4599
900.113	4577
900.232	4660
900.352	4577
900.472	4493
900.591	4451
900.711	4519
900.83	4481
900.95	4641
901.069	4694
901.189	4618
901.308	4398
901.427	4360
901.546	4455
901.665	4451
901.784	4535
901.904	4390
902.023	4398
902.141	4207
902.26	4166
902.379	4325
902.498	4287
902.617	4230
902.735	4436
902.854	4405
902.973	4379
903.091	4246
903.21	4265
903.328	4299
903.446	4272
903.565	4257
903.683	4379
903.801	4261
903.919	4405
904.038	4493
904.156	4379
904.274	4462
904.392	4443
904.51	4443
904.627	4538
904.745	4580
904.863	4736
904.981	4443
905.098	4295
905.216	4394
905.334	4436
905.451	4455
905.569	4493
905.686	4558
905.803	4592
905.921	4474
906.038	4531
906.155	4523
906.272	4405
906.389	4489
906.506	4390
906.623	4421
906.74	4440
906.857	4284
906.974	4379
907.091	4550
907.208	4744
907.324	4599
907.441	4519
907.557	4344
907.674	4360
907.79	4348
907.907	4474
908.023	4504
908.139	4523
908.256	4466
908.372	4512
908.488	4470
908.604	4413
908.72	4272
908.836	4405
908.952	4367
909.068	4443
909.184	4603
909.3	4523
909.415	4580
909.531	4573
909.647	4417
909.762	4432
909.878	4402
909.993	4508
910.108	4421
910.224	4421
910.339	4535
910.454	4402
910.57	4421
910.685	4299
910.8	4683
910.915	4630
911.03	4512
911.145	4344
911.259	4356
911.374	4390
911.489	4280
911.604	4303
911.718	4166
911.833	4272
911.947	4097
912.062	4055
912.176	4196
912.291	4295
912.405	4287
912.519	4470
912.633	4508
912.748	4428
912.862	4383
912.976	4272
913.09	4124
913.204	4169
913.318	4287
913.431	4447
913.545	4402
913.659	4497
913.772	4402
913.886	4253
914	4227
914.113	4428
914.226	4459
914.34	4398
914.453	4227
914.566	4428
914.68	4344
914.793	4367
914.906	4192
915.019	4158
915.132	4090
915.245	4166
915.358	4242
915.47	4242
915.583	4287
915.696	4356
915.809	4478
915.921	4459
916.034	4234
916.146	4261
916.259	4234
916.371	4394
916.483	4390
916.595	4325
916.708	4356
916.82	4344
916.932	4344
917.044	4344
917.156	4333
917.268	4246
917.38	4272
917.491	4280
917.603	4337
917.715	4451
917.826	4455
917.938	4352
918.049	4272
918.161	4447
918.272	4512
918.384	4580
918.495	4470
918.606	4356
918.717	4295
918.828	4360
918.939	4447
919.05	4261
919.161	4341
919.272	4211
919.383	4268
919.494	4428
919.604	4714
919.715	4493
919.826	4367
919.936	4447
920.047	4573
920.157	4527
920.267	4729
920.378	4561
920.488	4554
920.598	4706
920.708	4892
920.818	4805
920.928	4797
921.038	5006
921.148	4980
921.258	4634
921.368	4599
921.477	4535
921.587	4516
921.697	4405
921.806	4558
921.916	4508
922.025	4299
922.134	4268
922.244	4230
922.353	4295
922.462	4192
922.571	4207
922.68	4032
922.789	3972
922.898	4105
923.007	4017
923.116	4116
923.224	4086
923.333	4093
923.442	4010
923.55	3975
923.659	4067
923.767	4109
923.876	4051
923.984	4169
924.092	4010
924.201	4105
924.309	4116
924.417	4131
924.525	4116
924.633	4124
924.741	4889
924.849	3937
924.956	4173
925.064	3972
925.172	3922
925.279	3972
925.387	4093
925.494	4086
925.602	4272
925.709	4185
925.816	4055
925.924	4150
926.031	4246
926.138	4204
926.245	4192
926.352	4143
926.459	4280
926.566	4310
926.673	4188
926.779	4120
926.886	4112
926.993	4032
927.099	3941
927.206	4021
927.312	3949
927.419	4086
927.525	4048
927.631	4162
927.737	3960
927.843	3964
927.95	3838
928.056	3979
928.162	4025
928.267	4116
928.373	4599
928.479	4112
928.585	3922
928.69	4040
928.796	4120
928.901	3972
929.007	3850
929.112	4029
929.218	4025
929.323	3941
929.428	3964
929.533	4147
929.638	3953
929.743	3994
929.848	4059
929.953	4048
930.058	4002
930.163	3800
930.267	3865
930.372	4029
930.477	3812
930.581	4097
930.685	3987
930.79	3797
930.894	3865
930.998	3865
931.103	4059
931.207	3759
931.311	3736
931.415	3656
931.519	3580
931.623	3553
