Data from test_V78500241_72.txt Node
Date: Fri Mar 25 16:49:30 CST 2022
User: usil
Spectrometer: V785-0024
Trigger mode: 0
Integration Time (sec): 4.000000E-1
Scans to average: 1
Nonlinearity correction enabled: false
Boxcar width: 0
Storing dark spectrum: false
XAxis mode: Wavelengths
Number of Pixels in Spectrum: 1024
>>>>>Begin Spectral Data<<<<<
801.071	8046
801.214	8058
801.356	8054
801.499	7936
801.641	7849
801.783	7849
801.926	8001
802.068	8027
802.211	8138
802.353	8027
802.496	7944
802.638	7989
802.78	8035
802.923	8016
803.065	7986
803.208	7917
803.35	8001
803.492	8161
803.635	8107
803.777	8005
803.919	8157
804.061	8480
804.204	8142
804.346	8073
804.488	8031
804.63	8145
804.773	8031
804.915	8081
805.057	8271
805.199	8161
805.341	8313
805.483	8202
805.626	8279
805.768	8164
805.91	8229
806.052	8183
806.194	8149
806.336	8324
806.478	8130
806.62	8107
806.762	8279
806.904	8358
807.046	8492
807.188	8305
807.33	8324
807.472	8347
807.614	8282
807.756	8256
807.898	8077
808.04	8020
808.182	7989
808.324	7898
808.465	7928
808.607	8077
808.749	8130
808.891	8214
809.033	8320
809.174	8244
809.316	8100
809.458	8084
809.6	7993
809.741	8069
809.883	8073
810.025	8157
810.166	8096
810.308	8062
810.45	8043
810.591	7967
810.733	7799
810.875	7731
811.016	7636
811.158	7521
811.299	7719
811.441	7788
811.582	7792
811.724	7651
811.865	7590
812.007	7670
812.148	7616
812.29	7689
812.431	7830
812.573	7978
812.714	8107
812.855	8210
812.997	8309
813.138	8434
813.279	8294
813.421	8119
813.562	8046
813.703	7925
813.845	7772
813.986	7464
814.127	7251
814.268	7343
814.41	7247
814.551	7198
814.692	7270
814.833	7168
814.974	7103
815.115	7145
815.256	7099
815.397	6932
815.539	7050
815.68	6875
815.821	6844
815.962	6882
816.103	6818
816.244	6745
816.385	6646
816.526	6673
816.666	6532
816.807	6357
816.948	6490
817.089	6498
817.23	6471
817.371	6445
817.512	6502
817.653	6456
817.793	6471
817.934	6509
818.075	6486
818.216	6502
818.356	6517
818.497	6258
818.638	6163
818.778	6235
818.919	6171
819.06	6224
819.2	6357
819.341	6342
819.481	6403
819.622	6601
819.762	6787
819.903	6745
820.043	6662
820.184	6627
820.324	6616
820.465	6772
820.605	6711
820.746	6692
820.886	6555
821.026	6688
821.167	6753
821.307	6871
821.447	6840
821.588	6757
821.728	6585
821.868	6555
822.008	6350
822.149	6426
822.289	6410
822.429	6182
822.569	6060
822.709	6144
822.849	5908
822.99	5889
823.13	5969
823.27	5954
823.41	5844
823.55	5817
823.69	5870
823.83	5813
823.97	5714
824.11	5604
824.25	5497
824.389	5634
824.529	5634
824.669	5573
824.809	5737
824.949	5691
825.089	5672
825.228	5623
825.368	5433
825.508	5372
825.648	5444
825.787	5433
825.927	5414
826.067	5299
826.206	5292
826.346	5364
826.485	5410
826.625	5421
826.765	5611
826.904	5566
827.044	5280
827.183	5235
827.323	5193
827.462	5284
827.601	5269
827.741	5246
827.88	5284
828.02	5109
828.159	5261
828.298	5379
828.437	5436
828.577	5311
828.716	5554
828.855	5406
828.994	5170
829.134	5227
829.273	5280
829.412	5128
829.551	5159
829.69	5231
829.829	5277
829.968	5467
830.107	5360
830.246	5353
830.385	5212
830.524	5174
830.663	5140
830.802	5006
830.941	4946
831.08	4930
831.219	5083
831.357	5037
831.496	5204
831.635	4987
831.774	4946
831.913	4881
832.051	4786
832.19	4790
832.329	4892
832.467	4721
832.606	4679
832.744	4755
832.883	4809
833.022	4793
833.16	4839
833.299	4870
833.437	4866
833.576	4854
833.714	4877
833.852	4942
833.991	4934
834.129	4976
834.267	4999
834.406	4972
834.544	4968
834.682	5018
834.821	4968
834.959	5254
835.097	5033
835.235	5170
835.373	5140
835.511	5151
835.65	5067
835.788	5052
835.926	4927
836.064	4911
836.202	4961
836.34	5284
836.478	5258
836.615	5204
836.753	5269
836.891	5322
837.029	5277
837.167	5231
837.305	5212
837.443	5208
837.58	5140
837.718	5318
837.856	5220
837.993	5220
838.131	5223
838.269	5239
838.406	5193
838.544	5220
838.681	5033
838.819	5056
838.956	4923
839.094	4942
839.231	4999
839.369	5098
839.506	5459
839.643	5288
839.781	5098
839.918	5022
840.055	5128
840.193	5079
840.33	5166
840.467	5220
840.604	5235
840.742	5455
840.879	5098
841.016	5140
841.153	5105
841.29	5402
841.427	5372
841.564	5334
841.701	5387
841.838	5299
841.975	5201
842.112	5318
842.249	5162
842.385	5109
842.522	5387
842.659	5227
842.796	5204
842.933	5269
843.069	5185
843.206	5204
843.343	5326
843.479	5258
843.616	5326
843.752	5045
843.889	4999
844.025	5254
844.162	5071
844.298	5261
844.435	5147
844.571	5128
844.708	5216
844.844	5326
844.98	5398
845.117	5326
845.253	5227
845.389	5113
845.525	5159
845.661	5178
845.798	5064
845.934	5151
846.07	5124
846.206	5185
846.342	5341
846.478	5227
846.614	5075
846.75	5033
846.886	4980
847.022	5166
847.158	5048
847.294	5060
847.429	5197
847.565	5083
847.701	5311
847.837	4881
847.972	4847
848.108	4987
848.244	4991
848.379	4843
848.515	4763
848.65	4759
848.786	4805
848.921	4820
849.057	4911
849.192	4908
849.328	4835
849.463	4831
849.598	4831
849.734	4797
849.869	4778
850.004	4717
850.14	4691
850.275	4626
850.41	4554
850.545	4634
850.68	4637
850.815	4649
850.95	4656
851.085	4877
851.22	4771
851.355	4702
851.49	4698
851.625	4649
851.76	4653
851.895	4573
852.03	4558
852.165	4698
852.299	4759
852.434	4774
852.569	4797
852.703	4812
852.838	4870
852.973	4961
853.107	4953
853.242	4729
853.376	4675
853.511	4618
853.645	4634
853.78	4786
853.914	4691
854.048	4736
854.183	4634
854.317	4778
854.451	4881
854.585	4714
854.72	4683
854.854	4774
854.988	4626
855.122	4694
855.256	4531
855.39	4694
855.524	4797
855.658	4744
855.792	4744
855.926	4774
856.06	4729
856.194	4862
856.327	4740
856.461	4626
856.595	4668
856.729	4710
856.862	4771
856.996	4740
857.13	4786
857.263	4793
857.397	4858
857.53	4683
857.664	4733
857.797	4835
857.931	4801
858.064	4755
858.197	4805
858.331	4702
858.464	4672
858.597	4565
858.731	4660
858.864	4679
858.997	4615
859.13	4694
859.263	4683
859.396	4714
859.529	4599
859.662	4615
859.795	4569
859.928	4626
860.061	4801
860.194	4801
860.327	4664
860.46	4618
860.592	4702
860.725	4729
860.858	4740
860.99	4630
861.123	4565
861.256	4538
861.388	4630
861.521	5258
861.653	4493
861.786	4504
861.918	4538
862.05	4546
862.183	4565
862.315	4607
862.447	4664
862.58	4580
862.712	4440
862.844	4383
862.976	4508
863.108	4489
863.24	4854
863.372	4413
863.504	4462
863.636	4440
863.768	4516
863.9	4432
864.032	4424
864.164	4432
864.296	4519
864.428	4527
864.559	4592
864.691	4565
864.823	4577
864.954	4497
865.086	4565
865.217	4485
865.349	4428
865.48	4481
865.612	4512
865.743	4626
865.875	4527
866.006	4481
866.137	4500
866.269	4485
866.4	4459
866.531	4432
866.662	4474
866.793	4409
866.924	4470
867.055	4535
867.186	4462
867.317	4409
867.448	4432
867.579	4443
867.71	4413
867.841	4466
867.972	4447
868.103	4508
868.233	4508
868.364	4474
868.495	4481
868.625	4702
868.756	4797
868.886	4611
869.017	4660
869.147	4790
869.278	4828
869.408	4698
869.539	4664
869.669	4801
869.799	4717
869.929	4748
870.06	4767
870.19	5029
870.32	4919
870.45	5010
870.58	5067
870.71	5140
870.84	5132
870.97	4984
871.1	4953
871.23	5185
871.36	5117
871.489	5022
871.619	5105
871.749	5147
871.879	5140
872.008	5170
872.138	5075
872.267	5041
872.397	4866
872.526	4881
872.656	4710
872.785	4870
872.915	5022
873.044	5045
873.173	4965
873.303	5003
873.432	5022
873.561	4995
873.69	4915
873.819	4927
873.948	4919
874.077	4881
874.206	4812
874.335	4790
874.464	5052
874.593	5071
874.722	4984
874.851	5090
874.979	5086
875.108	5056
875.237	4968
875.365	4904
875.494	4923
875.623	5045
875.751	4854
875.88	4930
876.008	5014
876.136	5105
876.265	5231
876.393	5379
876.521	5250
876.65	5216
876.778	5189
876.906	5109
877.034	5075
877.162	5067
877.29	5033
877.418	5117
877.546	5098
877.674	5090
877.802	5041
877.93	5045
878.058	4949
878.185	4923
878.313	5037
878.441	5041
878.568	4831
878.696	4847
878.824	4987
878.951	5006
879.079	5170
879.206	5296
879.333	5159
879.461	5022
879.588	5010
879.715	5140
879.842	5269
879.97	5025
880.097	4828
880.224	4714
880.351	4820
880.478	4835
880.605	4797
880.732	4797
880.859	5105
880.986	4927
881.112	4938
881.239	4847
881.366	4733
881.493	4653
881.619	4656
881.746	4683
881.872	4675
881.999	4668
882.125	4721
882.252	4828
882.378	4889
882.505	5003
882.631	4858
882.757	4717
882.883	4774
883.01	4694
883.136	4691
883.262	4656
883.388	4637
883.514	4870
883.64	4911
883.766	4862
883.892	4721
884.018	4725
884.143	4930
884.269	5029
884.395	4759
884.52	4672
884.646	4694
884.772	4599
884.897	4573
885.023	4679
885.148	4873
885.274	4900
885.399	4805
885.524	4767
885.65	4767
885.775	4782
885.9	4755
886.025	4923
886.15	4809
886.275	4729
886.4	4672
886.525	4752
886.65	4733
886.775	4691
886.9	4949
887.025	5045
887.149	4866
887.274	4656
887.399	4603
887.523	4630
887.648	4584
887.773	4653
887.897	4809
888.021	4797
888.146	4675
888.27	4843
888.395	4946
888.519	4828
888.643	4790
888.767	4862
888.891	4702
889.015	4615
889.139	4698
889.263	4691
889.387	4816
889.511	4885
889.635	4820
889.759	4675
889.883	4714
890.006	4797
890.13	4870
890.254	4622
890.377	4717
890.501	4573
890.624	4588
890.748	4687
890.871	4542
890.995	4432
891.118	4375
891.241	4519
891.364	4508
891.488	4694
891.611	4519
891.734	4573
891.857	4679
891.98	4618
892.103	4687
892.226	4607
892.349	4565
892.471	4428
892.594	4546
892.717	4641
892.839	4645
892.962	4656
893.085	4622
893.207	4596
893.33	4512
893.452	4558
893.575	4694
893.697	4596
893.819	4850
893.941	4862
894.064	4824
894.186	4634
894.308	4554
894.43	4740
894.552	4843
894.674	4774
894.796	4554
894.918	4618
895.04	4592
895.161	4740
895.283	4721
895.405	4645
895.526	4725
895.648	4679
895.769	4702
895.891	4755
896.012	4763
896.134	4763
896.255	4672
896.376	4706
896.498	4603
896.619	4679
896.74	4664
896.861	4641
896.982	4915
897.103	5090
897.224	4877
897.345	4752
897.466	4687
897.587	4733
897.708	4877
897.828	4816
897.949	4710
898.07	4577
898.19	4645
898.311	4870
898.431	4683
898.552	4698
898.672	4854
898.792	4835
898.913	4782
899.033	4626
899.153	4542
899.273	4497
899.393	4550
899.513	4550
899.633	4592
899.753	4550
899.873	4523
899.993	4607
900.113	4542
900.232	4637
900.352	4577
900.472	4485
900.591	4409
900.711	4508
900.83	4443
900.95	4603
901.069	4721
901.189	4573
901.308	4428
901.427	4379
901.546	4348
901.665	4428
901.784	4508
901.904	4367
902.023	4363
902.141	4249
902.26	4223
902.379	4306
902.498	4284
902.617	4287
902.735	4325
902.854	4478
902.973	4383
903.091	4280
903.21	4253
903.328	4356
903.446	4303
903.565	4337
903.683	4424
903.801	4280
903.919	4409
904.038	4466
904.156	4348
904.274	4474
904.392	4424
904.51	4459
904.627	4504
904.745	4611
904.863	4675
904.981	4474
905.098	4322
905.216	4383
905.334	4493
905.451	4451
905.569	4527
905.686	4596
905.803	4550
905.921	4413
906.038	4592
906.155	4493
906.272	4405
906.389	4504
906.506	4352
906.623	4402
906.74	4421
906.857	4386
906.974	4386
907.091	4554
907.208	4755
907.324	4573
907.441	4546
907.557	4303
907.674	4421
907.79	4379
907.907	4390
908.023	4500
908.139	4470
908.256	4481
908.372	4451
908.488	4504
908.604	4394
908.72	4375
908.836	4413
908.952	4455
909.068	4493
909.184	4637
909.3	4535
909.415	4588
909.531	4573
909.647	4379
909.762	4421
909.878	4371
909.993	4455
910.108	4447
910.224	4462
910.339	4523
910.454	4428
910.57	4402
910.685	4314
910.8	4679
910.915	4573
911.03	4527
911.145	4299
911.259	4402
911.374	4440
911.489	4341
911.604	4325
911.718	4177
911.833	4238
911.947	4101
912.062	4071
912.176	4238
912.291	4284
912.405	4322
912.519	4493
912.633	4558
912.748	4398
912.862	4379
912.976	4265
913.09	4101
913.204	4246
913.318	4272
913.431	4360
913.545	4386
913.659	4478
913.772	4367
913.886	4280
914	4280
914.113	4417
914.226	4512
914.34	4405
914.453	4265
914.566	4485
914.68	4333
914.793	4356
914.906	4166
915.019	4215
915.132	4055
915.245	4253
915.358	4272
915.47	4234
915.583	4276
915.696	4325
915.809	4432
915.921	4459
916.034	4295
916.146	4295
916.259	4303
916.371	4409
916.483	4356
916.595	4272
916.708	4322
916.82	4329
916.932	4348
917.044	4402
917.156	4371
917.268	4261
917.38	4284
917.491	4291
917.603	4398
917.715	4504
917.826	4500
917.938	4360
918.049	4299
918.161	4440
918.272	4565
918.384	4554
918.495	4523
918.606	4291
918.717	4272
918.828	4344
918.939	4394
919.05	4314
919.161	4386
919.272	4162
919.383	4253
919.494	4474
919.604	4626
919.715	4462
919.826	4371
919.936	4432
920.047	4523
920.157	4481
920.267	4759
920.378	4584
920.488	4516
920.598	4717
920.708	4908
920.818	4778
920.928	4774
921.038	4987
921.148	4946
921.258	4679
921.368	4580
921.477	4508
921.587	4466
921.697	4409
921.806	4569
921.916	4489
922.025	4291
922.134	4287
922.244	4284
922.353	4337
922.462	4188
922.571	4147
922.68	4067
922.789	4013
922.898	4105
923.007	4013
923.116	4131
923.224	4112
923.333	4116
923.442	4010
923.55	3994
923.659	3998
923.767	4143
923.876	4063
923.984	4200
924.092	3994
924.201	4154
924.309	4082
924.417	4135
924.525	4090
924.633	4120
924.741	4915
924.849	3975
924.956	4185
925.064	4036
925.172	3922
925.279	4021
925.387	4063
925.494	4086
925.602	4249
925.709	4196
925.816	4093
925.924	4200
926.031	4284
926.138	4185
926.245	4215
926.352	4128
926.459	4303
926.566	4333
926.673	4200
926.779	4090
926.886	4120
926.993	4017
927.099	4017
927.206	3983
927.312	3998
927.419	4101
927.525	4074
927.631	4101
927.737	3991
927.843	3983
927.95	3911
928.056	3953
928.162	3975
928.267	4116
928.373	4698
928.479	4131
928.585	3918
928.69	4071
928.796	4109
928.901	3983
929.007	3907
929.112	4055
929.218	4036
929.323	3975
929.428	3968
929.533	4078
929.638	3953
929.743	3975
929.848	4097
929.953	4036
930.058	4002
930.163	3804
930.267	3846
930.372	3975
930.477	3835
930.581	4124
930.685	3945
930.79	3831
930.894	3930
930.998	3896
931.103	4055
931.207	3728
931.311	3717
931.415	3690
931.519	3545
931.623	3576
