Data from test_V78500241_230.txt Node
Date: Fri Mar 25 16:50:36 CST 2022
User: usil
Spectrometer: V785-0024
Trigger mode: 0
Integration Time (sec): 4.000000E-1
Scans to average: 1
Nonlinearity correction enabled: false
Boxcar width: 0
Storing dark spectrum: false
XAxis mode: Wavelengths
Number of Pixels in Spectrum: 1024
>>>>>Begin Spectral Data<<<<<
801.071	7959
801.214	8077
801.356	7871
801.499	7864
801.641	7765
801.783	7833
801.926	7997
802.068	7970
802.211	8020
802.353	7970
802.496	7841
802.638	7925
802.78	7936
802.923	7947
803.065	7837
803.208	7814
803.35	7925
803.492	8096
803.635	8138
803.777	8016
803.919	8073
804.061	8438
804.204	8096
804.346	8024
804.488	7951
804.63	8111
804.773	7925
804.915	8020
805.057	8218
805.199	8176
805.341	8138
805.483	8168
805.626	8240
805.768	8012
805.91	8199
806.052	8157
806.194	8073
806.336	8305
806.478	8065
806.62	8046
806.762	8103
806.904	8233
807.046	8412
807.188	8328
807.33	8351
807.472	8275
807.614	8081
807.756	8111
807.898	8001
808.04	7871
808.182	7928
808.324	7902
808.465	7932
808.607	8035
808.749	8138
808.891	8229
809.033	8320
809.174	8176
809.316	8039
809.458	8043
809.6	7974
809.741	8008
809.883	7970
810.025	8084
810.166	8103
810.308	8050
810.45	7959
810.591	7803
810.733	7746
810.875	7624
811.016	7521
811.158	7533
811.299	7567
811.441	7696
811.582	7639
811.724	7578
811.865	7495
812.007	7594
812.148	7628
812.29	7647
812.431	7753
812.573	7894
812.714	8012
812.855	8172
812.997	8233
813.138	8294
813.279	8180
813.421	8164
813.562	7997
813.703	7871
813.845	7750
813.986	7480
814.127	7270
814.268	7179
814.41	7152
814.551	7133
814.692	7202
814.833	7091
814.974	7126
815.115	7072
815.256	7031
815.397	6943
815.539	7000
815.68	6848
815.821	6825
815.962	6852
816.103	6821
816.244	6688
816.385	6642
816.526	6662
816.666	6521
816.807	6361
816.948	6414
817.089	6490
817.23	6437
817.371	6315
817.512	6365
817.653	6391
817.793	6353
817.934	6445
818.075	6456
818.216	6429
818.356	6334
818.497	6262
818.638	6095
818.778	6102
818.919	6140
819.06	6140
819.2	6289
819.341	6323
819.481	6277
819.622	6536
819.762	6715
819.903	6707
820.043	6646
820.184	6566
820.324	6540
820.465	6681
820.605	6639
820.746	6703
820.886	6490
821.026	6677
821.167	6635
821.307	6814
821.447	6768
821.588	6627
821.728	6563
821.868	6494
822.008	6277
822.149	6384
822.289	6395
822.429	6194
822.569	6064
822.709	6152
822.849	5912
822.99	5878
823.13	5908
823.27	5920
823.41	5760
823.55	5798
823.69	5779
823.83	5745
823.97	5665
824.11	5539
824.25	5436
824.389	5611
824.529	5585
824.669	5539
824.809	5634
824.949	5684
825.089	5646
825.228	5570
825.368	5395
825.508	5269
825.648	5315
825.787	5349
825.927	5357
826.067	5303
826.206	5299
826.346	5360
826.485	5330
826.625	5379
826.765	5573
826.904	5459
827.044	5273
827.183	5201
827.323	5102
827.462	5258
827.601	5151
827.741	5216
827.88	5212
828.02	5113
828.159	5239
828.298	5334
828.437	5391
828.577	5303
828.716	5490
828.855	5334
828.994	5231
829.134	5201
829.273	5208
829.412	5220
829.551	5189
829.69	5162
829.829	5265
829.968	5383
830.107	5242
830.246	5311
830.385	5193
830.524	5124
830.663	5067
830.802	4965
830.941	4923
831.08	4949
831.219	5025
831.357	4999
831.496	5208
831.635	4961
831.774	4843
831.913	4850
832.051	4790
832.19	4812
832.329	4854
832.467	4748
832.606	4706
832.744	4721
832.883	4759
833.022	4793
833.16	4816
833.299	4824
833.437	4919
833.576	4854
833.714	4908
833.852	4930
833.991	4911
834.129	5018
834.267	5029
834.406	4957
834.544	5006
834.682	5003
834.821	5010
834.959	5193
835.097	5033
835.235	5181
835.373	5071
835.511	5128
835.65	5075
835.788	5064
835.926	4961
836.064	4911
836.202	5037
836.34	5239
836.478	5277
836.615	5136
836.753	5296
836.891	5353
837.029	5235
837.167	5269
837.305	5204
837.443	5208
837.58	5147
837.718	5311
837.856	5239
837.993	5208
838.131	5288
838.269	5349
838.406	5265
838.544	5235
838.681	5086
838.819	5083
838.956	4938
839.094	4953
839.231	5006
839.369	5147
839.506	5417
839.643	5337
839.781	5109
839.918	5098
840.055	5162
840.193	5136
840.33	5147
840.467	5189
840.604	5178
840.742	5482
840.879	5162
841.016	5121
841.153	5201
841.29	5440
841.427	5391
841.564	5357
841.701	5383
841.838	5292
841.975	5284
842.112	5326
842.249	5220
842.385	5124
842.522	5337
842.659	5227
842.796	5197
842.933	5242
843.069	5174
843.206	5193
843.343	5341
843.479	5307
843.616	5330
843.752	5094
843.889	5056
844.025	5261
844.162	5018
844.298	5231
844.435	5060
844.571	5067
844.708	5239
844.844	5292
844.98	5398
845.117	5307
845.253	5193
845.389	5105
845.525	5208
845.661	5235
845.798	5086
845.934	5155
846.07	5098
846.206	5216
846.342	5299
846.478	5220
846.614	5041
846.75	5067
846.886	5010
847.022	5136
847.158	5090
847.294	5124
847.429	5178
847.565	5113
847.701	5330
847.837	4938
847.972	4839
848.108	4980
848.244	4968
848.379	4812
848.515	4797
848.65	4752
848.786	4774
848.921	4820
849.057	4968
849.192	4980
849.328	4854
849.463	4858
849.598	4824
849.734	4812
849.869	4782
850.004	4668
850.14	4714
850.275	4622
850.41	4569
850.545	4626
850.68	4668
850.815	4694
850.95	4702
851.085	4900
851.22	4805
851.355	4694
851.49	4653
851.625	4687
851.76	4618
851.895	4542
852.03	4588
852.165	4721
852.299	4740
852.434	4774
852.569	4793
852.703	4839
852.838	4911
852.973	4995
853.107	4942
853.242	4790
853.376	4725
853.511	4573
853.645	4603
853.78	4858
853.914	4790
854.048	4725
854.183	4744
854.317	4740
854.451	4881
854.585	4717
854.72	4645
854.854	4816
854.988	4653
855.122	4683
855.256	4580
855.39	4672
855.524	4835
855.658	4733
855.792	4717
855.926	4759
856.06	4805
856.194	4809
856.327	4729
856.461	4630
856.595	4618
856.729	4679
856.862	4835
856.996	4797
857.13	4831
857.263	4824
857.397	4854
857.53	4668
857.664	4736
857.797	4835
857.931	4831
858.064	4752
858.197	4755
858.331	4683
858.464	4649
858.597	4531
858.731	4656
858.864	4698
858.997	4577
859.13	4660
859.263	4694
859.396	4691
859.529	4622
859.662	4637
859.795	4588
859.928	4717
860.061	4805
860.194	4858
860.327	4611
860.46	4626
860.592	4778
860.725	4721
860.858	4744
860.99	4653
861.123	4580
861.256	4558
861.388	4672
861.521	5440
861.653	4554
861.786	4470
861.918	4455
862.05	4542
862.183	4603
862.315	4577
862.447	4698
862.58	4546
862.712	4462
862.844	4344
862.976	4527
863.108	4516
863.24	4927
863.372	4344
863.504	4447
863.636	4428
863.768	4565
863.9	4451
864.032	4386
864.164	4424
864.296	4519
864.428	4558
864.559	4569
864.691	4558
864.823	4546
864.954	4584
865.086	4577
865.217	4485
865.349	4474
865.48	4481
865.612	4558
865.743	4675
865.875	4493
866.006	4447
866.137	4527
866.269	4481
866.4	4478
866.531	4474
866.662	4440
866.793	4462
866.924	4478
867.055	4538
867.186	4489
867.317	4440
867.448	4394
867.579	4413
867.71	4383
867.841	4379
867.972	4481
868.103	4500
868.233	4504
868.364	4443
868.495	4508
868.625	4645
868.756	4809
868.886	4603
869.017	4675
869.147	4782
869.278	4809
869.408	4698
869.539	4698
869.669	4786
869.799	4763
869.929	4782
870.06	4805
870.19	5022
870.32	4976
870.45	4968
870.58	5045
870.71	5102
870.84	5140
870.97	4991
871.1	4953
871.23	5189
871.36	5121
871.489	5132
871.619	5102
871.749	5136
871.879	5197
872.008	5170
872.138	5075
872.267	5010
872.397	4911
872.526	4843
872.656	4755
872.785	4870
872.915	5010
873.044	5037
873.173	4965
873.303	4980
873.432	5018
873.561	4965
873.69	4892
873.819	4904
873.948	4995
874.077	4835
874.206	4790
874.335	4782
874.464	5022
874.593	5117
874.722	5056
874.851	5136
874.979	5117
875.108	5018
875.237	4976
875.365	4942
875.494	4930
875.623	4991
875.751	4847
875.88	4957
876.008	5010
876.136	5010
876.265	5265
876.393	5360
876.521	5277
876.65	5239
876.778	5174
876.906	5117
877.034	5079
877.162	5090
877.29	5006
877.418	5083
877.546	5056
877.674	5048
877.802	5041
877.93	5006
878.058	4946
878.185	4946
878.313	5025
878.441	4995
878.568	4850
878.696	4870
878.824	4987
878.951	4995
879.079	5124
879.206	5353
879.333	5170
879.461	5018
879.588	5052
879.715	5147
879.842	5269
879.97	4987
880.097	4820
880.224	4793
880.351	4843
880.478	4850
880.605	4809
880.732	4839
880.859	5067
880.986	4930
881.112	4961
881.239	4839
881.366	4660
881.493	4634
881.619	4637
881.746	4653
881.872	4645
881.999	4653
882.125	4664
882.252	4839
882.378	4847
882.505	4999
882.631	4824
882.757	4721
882.883	4759
883.01	4767
883.136	4664
883.262	4668
883.388	4618
883.514	4828
883.64	4915
883.766	4843
883.892	4710
884.018	4736
884.143	4968
884.269	5060
884.395	4660
884.52	4645
884.646	4691
884.772	4645
884.897	4630
885.023	4656
885.148	4835
885.274	4927
885.399	4820
885.524	4752
885.65	4744
885.775	4763
885.9	4744
886.025	4919
886.15	4793
886.275	4774
886.4	4656
886.525	4763
886.65	4729
886.775	4740
886.9	4957
887.025	5022
887.149	4835
887.274	4702
887.399	4637
887.523	4618
887.648	4607
887.773	4634
887.897	4752
888.021	4782
888.146	4744
888.27	4820
888.395	4972
888.519	4812
888.643	4835
888.767	4850
888.891	4687
889.015	4599
889.139	4656
889.263	4653
889.387	4816
889.511	4873
889.635	4805
889.759	4710
889.883	4656
890.006	4809
890.13	4858
890.254	4679
890.377	4721
890.501	4596
890.624	4538
890.748	4687
890.871	4535
890.995	4443
891.118	4394
891.241	4538
891.364	4561
891.488	4679
891.611	4531
891.734	4519
891.857	4588
891.98	4523
892.103	4698
892.226	4592
892.349	4573
892.471	4462
892.594	4561
892.717	4611
892.839	4592
892.962	4645
893.085	4687
893.207	4618
893.33	4489
893.452	4558
893.575	4672
893.697	4573
893.819	4805
893.941	4812
894.064	4843
894.186	4622
894.308	4577
894.43	4748
894.552	4801
894.674	4755
894.796	4561
894.918	4615
895.04	4596
895.161	4721
895.283	4694
895.405	4637
895.526	4649
895.648	4691
895.769	4710
895.891	4733
896.012	4816
896.134	4748
896.255	4714
896.376	4668
896.498	4694
896.619	4733
896.74	4649
896.861	4698
896.982	4930
897.103	5128
897.224	4828
897.345	4733
897.466	4725
897.587	4748
897.708	4816
897.828	4816
897.949	4687
898.07	4615
898.19	4668
898.311	4831
898.431	4740
898.552	4744
898.672	4816
898.792	4843
898.913	4740
899.033	4656
899.153	4546
899.273	4466
899.393	4485
899.513	4516
899.633	4573
899.753	4512
899.873	4493
899.993	4580
900.113	4538
900.232	4660
900.352	4550
900.472	4489
900.591	4405
900.711	4542
900.83	4485
900.95	4637
901.069	4733
901.189	4607
901.308	4402
901.427	4363
901.546	4402
901.665	4462
901.784	4523
901.904	4341
902.023	4325
902.141	4204
902.26	4188
902.379	4341
902.498	4261
902.617	4265
902.735	4379
902.854	4375
902.973	4421
903.091	4234
903.21	4227
903.328	4299
903.446	4310
903.565	4265
903.683	4383
903.801	4284
903.919	4421
904.038	4470
904.156	4333
904.274	4443
904.392	4398
904.51	4474
904.627	4455
904.745	4596
904.863	4622
904.981	4390
905.098	4333
905.216	4394
905.334	4447
905.451	4447
905.569	4447
905.686	4569
905.803	4558
905.921	4447
906.038	4607
906.155	4512
906.272	4447
906.389	4493
906.506	4363
906.623	4440
906.74	4451
906.857	4341
906.974	4341
907.091	4618
907.208	4687
907.324	4649
907.441	4538
907.557	4299
907.674	4367
907.79	4276
907.907	4383
908.023	4481
908.139	4481
908.256	4478
908.372	4489
908.488	4436
908.604	4409
908.72	4348
908.836	4390
908.952	4394
909.068	4440
909.184	4603
909.3	4493
909.415	4626
909.531	4527
909.647	4405
909.762	4390
909.878	4337
909.993	4455
910.108	4394
910.224	4417
910.339	4508
910.454	4424
910.57	4413
910.685	4310
910.8	4687
910.915	4607
911.03	4508
911.145	4356
911.259	4314
911.374	4352
911.489	4363
911.604	4314
911.718	4181
911.833	4211
911.947	4071
912.062	4086
912.176	4249
912.291	4192
912.405	4261
912.519	4466
912.633	4542
912.748	4421
912.862	4333
912.976	4219
913.09	4109
913.204	4158
913.318	4276
913.431	4383
913.545	4383
913.659	4500
913.772	4383
913.886	4242
914	4234
914.113	4390
914.226	4493
914.34	4440
914.453	4227
914.566	4405
914.68	4249
914.793	4356
914.906	4188
915.019	4162
915.132	4093
915.245	4204
915.358	4242
915.47	4265
915.583	4280
915.696	4325
915.809	4424
915.921	4447
916.034	4257
916.146	4257
916.259	4242
916.371	4379
916.483	4390
916.595	4257
916.708	4322
916.82	4360
916.932	4333
917.044	4333
917.156	4310
917.268	4249
917.38	4291
917.491	4341
917.603	4333
917.715	4436
917.826	4409
917.938	4371
918.049	4242
918.161	4409
918.272	4523
918.384	4592
918.495	4413
918.606	4371
918.717	4261
918.828	4344
918.939	4405
919.05	4261
919.161	4325
919.272	4131
919.383	4200
919.494	4443
919.604	4694
919.715	4432
919.826	4356
919.936	4405
920.047	4523
920.157	4493
920.267	4725
920.378	4599
920.488	4538
920.598	4733
920.708	4923
920.818	4786
920.928	4778
921.038	5018
921.148	4904
921.258	4672
921.368	4641
921.477	4512
921.587	4432
921.697	4398
921.806	4550
921.916	4485
922.025	4280
922.134	4265
922.244	4265
922.353	4375
922.462	4177
922.571	4150
922.68	4021
922.789	4002
922.898	4059
923.007	4021
923.116	4120
923.224	4101
923.333	4112
923.442	4013
923.55	4002
923.659	4048
923.767	4120
923.876	3998
923.984	4112
924.092	3991
924.201	4082
924.309	4090
924.417	4147
924.525	4071
924.633	4112
924.741	5083
924.849	3945
924.956	4124
925.064	3964
925.172	3937
925.279	3987
925.387	4036
925.494	4090
925.602	4257
925.709	4204
925.816	4071
925.924	4131
926.031	4219
926.138	4204
926.245	4185
926.352	4101
926.459	4272
926.566	4314
926.673	4143
926.779	4120
926.886	4097
926.993	3987
927.099	4002
927.206	3960
927.312	3956
927.419	4086
927.525	4048
927.631	4150
927.737	4002
927.843	3949
927.95	3838
928.056	3934
928.162	3983
928.267	4135
928.373	4611
928.479	4143
928.585	3903
928.69	4017
928.796	4101
928.901	3968
929.007	3884
929.112	3991
929.218	3960
929.323	3991
929.428	3964
929.533	4074
929.638	3930
929.743	3941
929.848	4051
929.953	3987
930.058	3964
930.163	3800
930.267	3831
930.372	4013
930.477	3819
930.581	4074
930.685	3941
930.79	3846
930.894	3934
930.998	3888
931.103	3998
931.207	3724
931.311	3694
931.415	3705
931.519	3534
931.623	3576
