Data from test_V78500241_343.txt Node
Date: Fri Mar 25 16:51:23 CST 2022
User: usil
Spectrometer: V785-0024
Trigger mode: 0
Integration Time (sec): 4.000000E-1
Scans to average: 1
Nonlinearity correction enabled: false
Boxcar width: 0
Storing dark spectrum: false
XAxis mode: Wavelengths
Number of Pixels in Spectrum: 1024
>>>>>Begin Spectral Data<<<<<
801.071	8123
801.214	8012
801.356	7947
801.499	7868
801.641	7875
801.783	7864
801.926	8058
802.068	7940
802.211	7978
802.353	8020
802.496	7871
802.638	8016
802.78	7955
802.923	8027
803.065	7898
803.208	7868
803.35	8039
803.492	8043
803.635	8115
803.777	8130
803.919	8229
804.061	8469
804.204	8221
804.346	8111
804.488	8005
804.63	8092
804.773	8043
804.915	8107
805.057	8381
805.199	8172
805.341	8271
805.483	8320
805.626	8214
805.768	8050
805.91	8218
806.052	8320
806.194	8168
806.336	8317
806.478	8214
806.62	8153
806.762	8252
806.904	8320
807.046	8522
807.188	8415
807.33	8282
807.472	8351
807.614	8214
807.756	8206
807.898	8103
808.04	7967
808.182	8043
808.324	7951
808.465	8043
808.607	8157
808.749	8183
808.891	8256
809.033	8343
809.174	8240
809.316	8027
809.458	8126
809.6	8054
809.741	8065
809.883	7989
810.025	8206
810.166	8168
810.308	8103
810.45	8088
810.591	7936
810.733	7830
810.875	7715
811.016	7529
811.158	7502
811.299	7620
811.441	7852
811.582	7811
811.724	7632
811.865	7643
812.007	7708
812.148	7636
812.29	7670
812.431	7807
812.573	7925
812.714	7955
812.855	8161
812.997	8305
813.138	8320
813.279	8248
813.421	8164
813.562	8043
813.703	7993
813.845	7833
813.986	7499
814.127	7285
814.268	7285
814.41	7202
814.551	7194
814.692	7244
814.833	7114
814.974	7122
815.115	7126
815.256	7000
815.397	6951
815.539	7076
815.68	6821
815.821	6814
815.962	6897
816.103	6818
816.244	6840
816.385	6726
816.526	6696
816.666	6528
816.807	6296
816.948	6506
817.089	6525
817.23	6521
817.371	6414
817.512	6448
817.653	6395
817.793	6376
817.934	6467
818.075	6517
818.216	6502
818.356	6429
818.497	6292
818.638	6216
818.778	6175
818.919	6175
819.06	6205
819.2	6311
819.341	6403
819.481	6464
819.622	6585
819.762	6764
819.903	6726
820.043	6703
820.184	6654
820.324	6612
820.465	6715
820.605	6703
820.746	6722
820.886	6551
821.026	6677
821.167	6745
821.307	6856
821.447	6852
821.588	6684
821.728	6570
821.868	6509
822.008	6342
822.149	6388
822.289	6433
822.429	6182
822.569	6106
822.709	6175
822.849	5988
822.99	5920
823.13	5992
823.27	5942
823.41	5863
823.55	5817
823.69	5809
823.83	5847
823.97	5741
824.11	5566
824.25	5516
824.389	5627
824.529	5554
824.669	5581
824.809	5665
824.949	5729
825.089	5676
825.228	5615
825.368	5452
825.508	5360
825.648	5402
825.787	5364
825.927	5463
826.067	5376
826.206	5284
826.346	5436
826.485	5425
826.625	5417
826.765	5630
826.904	5516
827.044	5273
827.183	5239
827.323	5147
827.462	5250
827.601	5197
827.741	5216
827.88	5273
828.02	5128
828.159	5254
828.298	5341
828.437	5410
828.577	5345
828.716	5486
828.855	5417
828.994	5178
829.134	5178
829.273	5212
829.412	5174
829.551	5147
829.69	5170
829.829	5265
829.968	5395
830.107	5337
830.246	5269
830.385	5227
830.524	5174
830.663	5086
830.802	5033
830.941	4892
831.08	4892
831.219	5025
831.357	5003
831.496	5235
831.635	4965
831.774	4870
831.913	4927
832.051	4744
832.19	4736
832.329	4892
832.467	4733
832.606	4687
832.744	4767
832.883	4748
833.022	4755
833.16	4843
833.299	4828
833.437	4828
833.576	4862
833.714	4885
833.852	4919
833.991	4957
834.129	5006
834.267	4961
834.406	4980
834.544	4991
834.682	4976
834.821	5003
834.959	5223
835.097	5041
835.235	5155
835.373	5090
835.511	5132
835.65	5056
835.788	5064
835.926	4999
836.064	4938
836.202	4919
836.34	5208
836.478	5280
836.615	5147
836.753	5220
836.891	5315
837.029	5254
837.167	5227
837.305	5136
837.443	5162
837.58	5124
837.718	5216
837.856	5223
837.993	5212
838.131	5288
838.269	5269
838.406	5223
838.544	5208
838.681	5086
838.819	5079
838.956	4976
839.094	4972
839.231	4999
839.369	5151
839.506	5444
839.643	5292
839.781	5109
839.918	5037
840.055	5136
840.193	5140
840.33	5102
840.467	5181
840.604	5212
840.742	5478
840.879	5109
841.016	5090
841.153	5208
841.29	5364
841.427	5395
841.564	5410
841.701	5414
841.838	5322
841.975	5235
842.112	5307
842.249	5181
842.385	5105
842.522	5364
842.659	5204
842.796	5216
842.933	5254
843.069	5166
843.206	5246
843.343	5330
843.479	5280
843.616	5341
843.752	5003
843.889	5006
844.025	5239
844.162	5041
844.298	5239
844.435	5094
844.571	5113
844.708	5292
844.844	5330
844.98	5391
845.117	5322
845.253	5178
845.389	5090
845.525	5216
845.661	5212
845.798	5060
845.934	5185
846.07	5124
846.206	5212
846.342	5284
846.478	5170
846.614	5064
846.75	4980
846.886	5006
847.022	5201
847.158	5064
847.294	5064
847.429	5132
847.565	5083
847.701	5379
847.837	4923
847.972	4866
848.108	4976
848.244	4862
848.379	4820
848.515	4774
848.65	4736
848.786	4725
848.921	4805
849.057	4889
849.192	4911
849.328	4881
849.463	4854
849.598	4824
849.734	4778
849.869	4748
850.004	4649
850.14	4748
850.275	4656
850.41	4542
850.545	4535
850.68	4630
850.815	4615
850.95	4683
851.085	4862
851.22	4767
851.355	4687
851.49	4626
851.625	4706
851.76	4675
851.895	4599
852.03	4558
852.165	4691
852.299	4736
852.434	4778
852.569	4771
852.703	4767
852.838	4847
852.973	4968
853.107	4938
853.242	4763
853.376	4653
853.511	4565
853.645	4645
853.78	4866
853.914	4740
854.048	4698
854.183	4687
854.317	4679
854.451	4877
854.585	4721
854.72	4675
854.854	4790
854.988	4603
855.122	4634
855.256	4569
855.39	4672
855.524	4862
855.658	4687
855.792	4710
855.926	4774
856.06	4740
856.194	4820
856.327	4752
856.461	4592
856.595	4626
856.729	4637
856.862	4771
856.996	4748
857.13	4752
857.263	4812
857.397	4858
857.53	4634
857.664	4740
857.797	4793
857.931	4797
858.064	4729
858.197	4763
858.331	4679
858.464	4634
858.597	4554
858.731	4653
858.864	4649
858.997	4622
859.13	4702
859.263	4694
859.396	4725
859.529	4607
859.662	4546
859.795	4558
859.928	4691
860.061	4805
860.194	4805
860.327	4660
860.46	4630
860.592	4729
860.725	4733
860.858	4759
860.99	4584
861.123	4565
861.256	4588
861.388	4630
861.521	5334
861.653	4497
861.786	4455
861.918	4493
862.05	4527
862.183	4573
862.315	4649
862.447	4706
862.58	4561
862.712	4447
862.844	4379
862.976	4470
863.108	4508
863.24	4847
863.372	4333
863.504	4390
863.636	4459
863.768	4489
863.9	4489
864.032	4356
864.164	4402
864.296	4447
864.428	4542
864.559	4592
864.691	4561
864.823	4561
864.954	4508
865.086	4516
865.217	4474
865.349	4424
865.48	4519
865.612	4466
865.743	4668
865.875	4462
866.006	4424
866.137	4489
866.269	4447
866.4	4481
866.531	4481
866.662	4462
866.793	4440
866.924	4485
867.055	4493
867.186	4478
867.317	4459
867.448	4402
867.579	4455
867.71	4405
867.841	4379
867.972	4459
868.103	4455
868.233	4497
868.364	4474
868.495	4497
868.625	4717
868.756	4774
868.886	4622
869.017	4672
869.147	4786
869.278	4797
869.408	4717
869.539	4637
869.669	4755
869.799	4694
869.929	4805
870.06	4790
870.19	4991
870.32	4889
870.45	4953
870.58	5025
870.71	5140
870.84	5102
870.97	4900
871.1	4953
871.23	5159
871.36	5159
871.489	5079
871.619	5102
871.749	5098
871.879	5102
872.008	5193
872.138	5090
872.267	4976
872.397	4870
872.526	4843
872.656	4748
872.785	4828
872.915	4949
873.044	5037
873.173	4927
873.303	4938
873.432	4911
873.561	5037
873.69	4923
873.819	4854
873.948	4976
874.077	4824
874.206	4782
874.335	4831
874.464	4961
874.593	5056
874.722	4987
874.851	5079
874.979	5140
875.108	5071
875.237	4915
875.365	4877
875.494	4911
875.623	5025
875.751	4870
875.88	4885
876.008	4980
876.136	5060
876.265	5254
876.393	5318
876.521	5250
876.65	5220
876.778	5136
876.906	5117
877.034	5018
877.162	5010
877.29	5014
877.418	5086
877.546	5018
877.674	5045
877.802	5052
877.93	5045
878.058	4968
878.185	4911
878.313	4942
878.441	4930
878.568	4915
878.696	4919
878.824	4934
878.951	4965
879.079	5155
879.206	5273
879.333	5086
879.461	5006
879.588	4976
879.715	5143
879.842	5250
879.97	5003
880.097	4812
880.224	4752
880.351	4847
880.478	4862
880.605	4786
880.732	4790
880.859	5121
880.986	4938
881.112	4927
881.239	4782
881.366	4717
881.493	4637
881.619	4656
881.746	4645
881.872	4653
881.999	4653
882.125	4698
882.252	4771
882.378	4801
882.505	4968
882.631	4809
882.757	4698
882.883	4740
883.01	4797
883.136	4691
883.262	4577
883.388	4615
883.514	4820
883.64	4866
883.766	4831
883.892	4691
884.018	4733
884.143	4953
884.269	5014
884.395	4710
884.52	4683
884.646	4710
884.772	4630
884.897	4588
885.023	4630
885.148	4797
885.274	4881
885.399	4828
885.524	4679
885.65	4729
885.775	4774
885.9	4778
886.025	4885
886.15	4755
886.275	4816
886.4	4641
886.525	4733
886.65	4714
886.775	4672
886.9	4930
887.025	5033
887.149	4790
887.274	4618
887.399	4592
887.523	4603
887.648	4618
887.773	4634
887.897	4774
888.021	4782
888.146	4698
888.27	4797
888.395	4923
888.519	4824
888.643	4797
888.767	4831
888.891	4683
889.015	4611
889.139	4653
889.263	4603
889.387	4771
889.511	4885
889.635	4805
889.759	4599
889.883	4649
890.006	4710
890.13	4771
890.254	4622
890.377	4694
890.501	4588
890.624	4580
890.748	4622
890.871	4550
890.995	4428
891.118	4413
891.241	4546
891.364	4554
891.488	4649
891.611	4565
891.734	4519
891.857	4630
891.98	4565
892.103	4710
892.226	4611
892.349	4561
892.471	4413
892.594	4550
892.717	4584
892.839	4531
892.962	4561
893.085	4653
893.207	4588
893.33	4424
893.452	4558
893.575	4675
893.697	4596
893.819	4828
893.941	4778
894.064	4778
894.186	4588
894.308	4535
894.43	4729
894.552	4835
894.674	4771
894.796	4580
894.918	4573
895.04	4569
895.161	4694
895.283	4675
895.405	4630
895.526	4599
895.648	4706
895.769	4675
895.891	4672
896.012	4725
896.134	4752
896.255	4672
896.376	4664
896.498	4588
896.619	4702
896.74	4649
896.861	4664
896.982	4900
897.103	5071
897.224	4835
897.345	4736
897.466	4649
897.587	4771
897.708	4820
897.828	4805
897.949	4687
898.07	4554
898.19	4672
898.311	4847
898.431	4702
898.552	4733
898.672	4862
898.792	4820
898.913	4717
899.033	4596
899.153	4535
899.273	4394
899.393	4538
899.513	4535
899.633	4493
899.753	4565
899.873	4500
899.993	4569
900.113	4577
900.232	4554
900.352	4584
900.472	4485
900.591	4375
900.711	4489
900.83	4485
900.95	4573
901.069	4733
901.189	4542
901.308	4371
901.427	4337
901.546	4390
901.665	4485
901.784	4493
901.904	4386
902.023	4352
902.141	4173
902.26	4207
902.379	4356
902.498	4287
902.617	4219
902.735	4394
902.854	4386
902.973	4375
903.091	4230
903.21	4207
903.328	4276
903.446	4299
903.565	4246
903.683	4390
903.801	4257
903.919	4348
904.038	4405
904.156	4306
904.274	4481
904.392	4428
904.51	4390
904.627	4504
904.745	4615
904.863	4615
904.981	4409
905.098	4325
905.216	4398
905.334	4455
905.451	4474
905.569	4421
905.686	4542
905.803	4592
905.921	4405
906.038	4592
906.155	4527
906.272	4421
906.389	4440
906.506	4405
906.623	4394
906.74	4405
906.857	4284
906.974	4428
907.091	4550
907.208	4653
907.324	4622
907.441	4519
907.557	4379
907.674	4341
907.79	4341
907.907	4424
908.023	4504
908.139	4485
908.256	4413
908.372	4493
908.488	4455
908.604	4375
908.72	4363
908.836	4367
908.952	4394
909.068	4489
909.184	4641
909.3	4466
909.415	4542
909.531	4634
909.647	4367
909.762	4360
909.878	4375
909.993	4440
910.108	4394
910.224	4409
910.339	4497
910.454	4421
910.57	4367
910.685	4295
910.8	4672
910.915	4622
911.03	4512
911.145	4344
911.259	4344
911.374	4360
911.489	4295
911.604	4268
911.718	4196
911.833	4162
911.947	4029
912.062	4048
912.176	4173
912.291	4253
912.405	4253
912.519	4489
912.633	4493
912.748	4386
912.862	4299
912.976	4230
913.09	4093
913.204	4162
913.318	4272
913.431	4363
913.545	4428
913.659	4451
913.772	4344
913.886	4280
914	4227
914.113	4398
914.226	4455
914.34	4386
914.453	4291
914.566	4405
914.68	4360
914.793	4337
914.906	4150
915.019	4131
915.132	4051
915.245	4177
915.358	4204
915.47	4265
915.583	4268
915.696	4325
915.809	4409
915.921	4443
916.034	4268
916.146	4276
916.259	4230
916.371	4371
916.483	4394
916.595	4287
916.708	4276
916.82	4356
916.932	4344
917.044	4318
917.156	4356
917.268	4215
917.38	4306
917.491	4249
917.603	4341
917.715	4462
917.826	4428
917.938	4318
918.049	4238
918.161	4421
918.272	4565
918.384	4512
918.495	4493
918.606	4299
918.717	4223
918.828	4394
918.939	4352
919.05	4257
919.161	4356
919.272	4162
919.383	4249
919.494	4409
919.604	4675
919.715	4504
919.826	4341
919.936	4394
920.047	4531
920.157	4474
920.267	4717
920.378	4573
920.488	4504
920.598	4702
920.708	4915
920.818	4828
920.928	4820
921.038	4927
921.148	4885
921.258	4630
921.368	4577
921.477	4523
921.587	4447
921.697	4348
921.806	4577
921.916	4421
922.025	4333
922.134	4265
922.244	4196
922.353	4310
922.462	4211
922.571	4166
922.68	3956
922.789	3975
922.898	4093
923.007	3983
923.116	4124
923.224	4044
923.333	4067
923.442	3975
923.55	3968
923.659	4040
923.767	4128
923.876	3998
923.984	4097
924.092	4025
924.201	4124
924.309	4078
924.417	4139
924.525	4097
924.633	4120
924.741	4889
924.849	3903
924.956	4143
925.064	3941
925.172	3937
925.279	3975
925.387	4090
925.494	4048
925.602	4204
925.709	4223
925.816	4059
925.924	4135
926.031	4253
926.138	4158
926.245	4166
926.352	4105
926.459	4227
926.566	4295
926.673	4139
926.779	4116
926.886	4101
926.993	4006
927.099	3945
927.206	3953
927.312	3968
927.419	3998
927.525	4036
927.631	4078
927.737	3994
927.843	3907
927.95	3880
928.056	3998
928.162	4002
928.267	4074
928.373	4573
928.479	4116
928.585	3907
928.69	4040
928.796	4055
928.901	3983
929.007	3880
929.112	3991
929.218	3960
929.323	3930
929.428	3975
929.533	4150
929.638	3907
929.743	3934
929.848	4010
929.953	3994
930.058	3968
930.163	3800
930.267	3819
930.372	3945
930.477	3827
930.581	4078
930.685	3941
930.79	3804
930.894	3888
930.998	3865
931.103	4059
931.207	3724
931.311	3732
931.415	3644
931.519	3542
931.623	3530
