Data from test_V78500241_220.txt Node
Date: Fri Mar 25 16:50:31 CST 2022
User: usil
Spectrometer: V785-0024
Trigger mode: 0
Integration Time (sec): 4.000000E-1
Scans to average: 1
Nonlinearity correction enabled: false
Boxcar width: 0
Storing dark spectrum: false
XAxis mode: Wavelengths
Number of Pixels in Spectrum: 1024
>>>>>Begin Spectral Data<<<<<
801.071	8115
801.214	8058
801.356	7894
801.499	7788
801.641	7746
801.783	7833
801.926	7963
802.068	7947
802.211	8039
802.353	8016
802.496	7925
802.638	7879
802.78	7875
802.923	7951
803.065	7826
803.208	7944
803.35	8001
803.492	8206
803.635	8180
803.777	7993
803.919	8119
804.061	8370
804.204	8172
804.346	8024
804.488	7955
804.63	8115
804.773	7989
804.915	8107
805.057	8225
805.199	8157
805.341	8225
805.483	8199
805.626	8142
805.768	8103
805.91	8199
806.052	8237
806.194	8031
806.336	8374
806.478	8126
806.62	8016
806.762	8183
806.904	8225
807.046	8408
807.188	8320
807.33	8244
807.472	8267
807.614	8180
807.756	8176
807.898	7959
808.04	7875
808.182	7860
808.324	7860
808.465	7959
808.607	8092
808.749	8126
808.891	8233
809.033	8309
809.174	8168
809.316	8031
809.458	8100
809.6	8001
809.741	8054
809.883	8050
810.025	8134
810.166	8035
810.308	8046
810.45	8039
810.591	7887
810.733	7731
810.875	7738
811.016	7506
811.158	7529
811.299	7540
811.441	7727
811.582	7647
811.724	7518
811.865	7563
812.007	7639
812.148	7643
812.29	7632
812.431	7833
812.573	7890
812.714	7982
812.855	8168
812.997	8259
813.138	8385
813.279	8210
813.421	8054
813.562	7963
813.703	7906
813.845	7750
813.986	7430
814.127	7232
814.268	7221
814.41	7198
814.551	7137
814.692	7183
814.833	7129
814.974	7141
815.115	7107
815.256	6985
815.397	7000
815.539	6993
815.68	6802
815.821	6745
815.962	6875
816.103	6818
816.244	6764
816.385	6608
816.526	6658
816.666	6513
816.807	6311
816.948	6380
817.089	6536
817.23	6475
817.371	6380
817.512	6426
817.653	6365
817.793	6380
817.934	6445
818.075	6403
818.216	6410
818.356	6414
818.497	6216
818.638	6114
818.778	6186
818.919	6095
819.06	6110
819.2	6357
819.341	6376
819.481	6319
819.622	6502
819.762	6684
819.903	6681
820.043	6593
820.184	6574
820.324	6547
820.465	6684
820.605	6696
820.746	6646
820.886	6517
821.026	6654
821.167	6776
821.307	6833
821.447	6749
821.588	6642
821.728	6574
821.868	6502
822.008	6285
822.149	6361
822.289	6452
822.429	6163
822.569	6068
822.709	6140
822.849	5961
822.99	5840
823.13	5965
823.27	5874
823.41	5821
823.55	5798
823.69	5813
823.83	5767
823.97	5684
824.11	5516
824.25	5497
824.389	5585
824.529	5634
824.669	5505
824.809	5619
824.949	5703
825.089	5642
825.228	5566
825.368	5414
825.508	5410
825.648	5387
825.787	5383
825.927	5421
826.067	5326
826.206	5307
826.346	5364
826.485	5455
826.625	5425
826.765	5600
826.904	5493
827.044	5258
827.183	5151
827.323	5117
827.462	5292
827.601	5204
827.741	5178
827.88	5185
828.02	5094
828.159	5284
828.298	5307
828.437	5345
828.577	5318
828.716	5478
828.855	5341
828.994	5197
829.134	5155
829.273	5242
829.412	5121
829.551	5159
829.69	5181
829.829	5254
829.968	5360
830.107	5212
830.246	5273
830.385	5174
830.524	5136
830.663	5098
830.802	5018
830.941	4889
831.08	4885
831.219	5033
831.357	5041
831.496	5181
831.635	4900
831.774	4824
831.913	4843
832.051	4714
832.19	4782
832.329	4866
832.467	4649
832.606	4634
832.744	4759
832.883	4714
833.022	4706
833.16	4790
833.299	4805
833.437	4843
833.576	4862
833.714	4866
833.852	4904
833.991	4866
834.129	4972
834.267	4949
834.406	4927
834.544	4999
834.682	4976
834.821	4946
834.959	5140
835.097	5006
835.235	5109
835.373	5136
835.511	5109
835.65	5045
835.788	5048
835.926	4923
836.064	4946
836.202	4934
836.34	5143
836.478	5231
836.615	5143
836.753	5201
836.891	5303
837.029	5250
837.167	5185
837.305	5147
837.443	5124
837.58	5086
837.718	5280
837.856	5189
837.993	5178
838.131	5204
838.269	5299
838.406	5151
838.544	5151
838.681	5010
838.819	5048
838.956	4934
839.094	4915
839.231	4965
839.369	5075
839.506	5497
839.643	5212
839.781	5083
839.918	5037
840.055	5090
840.193	5098
840.33	5090
840.467	5166
840.604	5208
840.742	5459
840.879	5083
841.016	5132
841.153	5189
841.29	5337
841.427	5315
841.564	5330
841.701	5372
841.838	5292
841.975	5239
842.112	5277
842.249	5159
842.385	5151
842.522	5353
842.659	5178
842.796	5098
842.933	5208
843.069	5128
843.206	5143
843.343	5292
843.479	5239
843.616	5284
843.752	5006
843.889	5033
844.025	5239
844.162	5052
844.298	5296
844.435	5105
844.571	5064
844.708	5212
844.844	5307
844.98	5292
845.117	5349
845.253	5159
845.389	5045
845.525	5140
845.661	5136
845.798	5075
845.934	5086
846.07	5029
846.206	5235
846.342	5299
846.478	5178
846.614	5064
846.75	5025
846.886	4953
847.022	5151
847.158	5056
847.294	5079
847.429	5086
847.565	5079
847.701	5326
847.837	4862
847.972	4828
848.108	4946
848.244	4942
848.379	4752
848.515	4748
848.65	4736
848.786	4736
848.921	4793
849.057	4900
849.192	4892
849.328	4824
849.463	4892
849.598	4786
849.734	4752
849.869	4744
850.004	4618
850.14	4618
850.275	4634
850.41	4516
850.545	4565
850.68	4603
850.815	4656
850.95	4618
851.085	4801
851.22	4805
851.355	4714
851.49	4634
851.625	4645
851.76	4626
851.895	4558
852.03	4573
852.165	4664
852.299	4687
852.434	4812
852.569	4721
852.703	4778
852.838	4873
852.973	4911
853.107	4942
853.242	4740
853.376	4675
853.511	4558
853.645	4580
853.78	4812
853.914	4717
854.048	4679
854.183	4679
854.317	4679
854.451	4847
854.585	4691
854.72	4702
854.854	4774
854.988	4558
855.122	4649
855.256	4535
855.39	4672
855.524	4774
855.658	4755
855.792	4729
855.926	4733
856.06	4778
856.194	4805
856.327	4687
856.461	4565
856.595	4607
856.729	4603
856.862	4729
856.996	4675
857.13	4714
857.263	4771
857.397	4828
857.53	4653
857.664	4702
857.797	4790
857.931	4816
858.064	4694
858.197	4744
858.331	4660
858.464	4615
858.597	4519
858.731	4641
858.864	4641
858.997	4626
859.13	4637
859.263	4675
859.396	4706
859.529	4573
859.662	4546
859.795	4527
859.928	4637
860.061	4797
860.194	4752
860.327	4596
860.46	4607
860.592	4710
860.725	4706
860.858	4698
860.99	4580
861.123	4561
861.256	4500
861.388	4660
861.521	5337
861.653	4497
861.786	4443
861.918	4440
862.05	4538
862.183	4527
862.315	4596
862.447	4626
862.58	4577
862.712	4413
862.844	4329
862.976	4500
863.108	4485
863.24	4892
863.372	4367
863.504	4432
863.636	4440
863.768	4508
863.9	4398
864.032	4363
864.164	4447
864.296	4500
864.428	4596
864.559	4550
864.691	4527
864.823	4531
864.954	4481
865.086	4592
865.217	4485
865.349	4413
865.48	4474
865.612	4504
865.743	4706
865.875	4523
866.006	4409
866.137	4455
866.269	4436
866.4	4402
866.531	4451
866.662	4394
866.793	4424
866.924	4466
867.055	4474
867.186	4493
867.317	4383
867.448	4428
867.579	4337
867.71	4424
867.841	4337
867.972	4474
868.103	4424
868.233	4470
868.364	4432
868.495	4512
868.625	4691
868.756	4729
868.886	4523
869.017	4611
869.147	4729
869.278	4793
869.408	4698
869.539	4630
869.669	4714
869.799	4656
869.929	4831
870.06	4714
870.19	5003
870.32	4923
870.45	4972
870.58	5041
870.71	5086
870.84	5102
870.97	4949
871.1	4885
871.23	5105
871.36	5109
871.489	5029
871.619	5071
871.749	5113
871.879	5174
872.008	5204
872.138	5029
872.267	4976
872.397	4877
872.526	4801
872.656	4702
872.785	4809
872.915	4953
873.044	4980
873.173	4987
873.303	4957
873.432	4946
873.561	4957
873.69	4930
873.819	4900
873.948	4908
874.077	4881
874.206	4748
874.335	4820
874.464	4900
874.593	5075
874.722	5003
874.851	5098
874.979	5041
875.108	5086
875.237	4930
875.365	4915
875.494	4923
875.623	4984
875.751	4850
875.88	4915
876.008	5025
876.136	4995
876.265	5216
876.393	5353
876.521	5261
876.65	5147
876.778	5105
876.906	5102
877.034	4972
877.162	5090
877.29	5029
877.418	5022
877.546	5048
877.674	5022
877.802	5006
877.93	4991
878.058	4957
878.185	4873
878.313	4976
878.441	4908
878.568	4847
878.696	4847
878.824	4965
878.951	5006
879.079	5102
879.206	5220
879.333	5098
879.461	5006
879.588	5029
879.715	5128
879.842	5231
879.97	5018
880.097	4809
880.224	4752
880.351	4831
880.478	4828
880.605	4771
880.732	4812
880.859	5113
880.986	4927
881.112	4961
881.239	4778
881.366	4668
881.493	4626
881.619	4577
881.746	4668
881.872	4656
881.999	4618
882.125	4706
882.252	4828
882.378	4805
882.505	4942
882.631	4790
882.757	4694
882.883	4759
883.01	4725
883.136	4679
883.262	4599
883.388	4618
883.514	4850
883.64	4889
883.766	4801
883.892	4702
884.018	4755
884.143	4927
884.269	5022
884.395	4714
884.52	4649
884.646	4649
884.772	4611
884.897	4573
885.023	4698
885.148	4786
885.274	4911
885.399	4835
885.524	4656
885.65	4714
885.775	4733
885.9	4774
886.025	4858
886.15	4820
886.275	4744
886.4	4694
886.525	4774
886.65	4717
886.775	4702
886.9	4904
887.025	5033
887.149	4793
887.274	4660
887.399	4599
887.523	4634
887.648	4550
887.773	4592
887.897	4805
888.021	4831
888.146	4649
888.27	4820
888.395	4900
888.519	4835
888.643	4824
888.767	4854
888.891	4714
889.015	4599
889.139	4645
889.263	4603
889.387	4744
889.511	4847
889.635	4805
889.759	4626
889.883	4645
890.006	4778
890.13	4828
890.254	4626
890.377	4660
890.501	4561
890.624	4554
890.748	4615
890.871	4535
890.995	4459
891.118	4383
891.241	4535
891.364	4542
891.488	4672
891.611	4523
891.734	4531
891.857	4596
891.98	4592
892.103	4687
892.226	4607
892.349	4561
892.471	4443
892.594	4523
892.717	4630
892.839	4531
892.962	4596
893.085	4622
893.207	4672
893.33	4489
893.452	4531
893.575	4637
893.697	4592
893.819	4805
893.941	4820
894.064	4771
894.186	4607
894.308	4558
894.43	4759
894.552	4881
894.674	4809
894.796	4569
894.918	4599
895.04	4592
895.161	4774
895.283	4679
895.405	4592
895.526	4645
895.648	4752
895.769	4649
895.891	4694
896.012	4759
896.134	4721
896.255	4729
896.376	4660
896.498	4592
896.619	4714
896.74	4611
896.861	4656
896.982	4881
897.103	5113
897.224	4854
897.345	4752
897.466	4687
897.587	4759
897.708	4873
897.828	4847
897.949	4702
898.07	4561
898.19	4664
898.311	4790
898.431	4687
898.552	4721
898.672	4828
898.792	4824
898.913	4752
899.033	4649
899.153	4535
899.273	4455
899.393	4485
899.513	4504
899.633	4527
899.753	4561
899.873	4504
899.993	4611
900.113	4561
900.232	4538
900.352	4561
900.472	4485
900.591	4402
900.711	4470
900.83	4455
900.95	4592
901.069	4698
901.189	4538
901.308	4386
901.427	4341
901.546	4325
901.665	4443
901.784	4497
901.904	4379
902.023	4314
902.141	4158
902.26	4147
902.379	4333
902.498	4242
902.617	4265
902.735	4337
902.854	4402
902.973	4379
903.091	4223
903.21	4215
903.328	4352
903.446	4272
903.565	4265
903.683	4287
903.801	4295
903.919	4386
904.038	4485
904.156	4348
904.274	4440
904.392	4409
904.51	4443
904.627	4466
904.745	4558
904.863	4653
904.981	4386
905.098	4325
905.216	4379
905.334	4459
905.451	4417
905.569	4405
905.686	4546
905.803	4603
905.921	4417
906.038	4588
906.155	4455
906.272	4432
906.389	4485
906.506	4394
906.623	4379
906.74	4413
906.857	4325
906.974	4367
907.091	4558
907.208	4672
907.324	4611
907.441	4512
907.557	4402
907.674	4363
907.79	4352
907.907	4386
908.023	4516
908.139	4447
908.256	4466
908.372	4474
908.488	4447
908.604	4363
908.72	4303
908.836	4386
908.952	4432
909.068	4413
909.184	4561
909.3	4504
909.415	4607
909.531	4561
909.647	4432
909.762	4379
909.878	4344
909.993	4428
910.108	4443
910.224	4413
910.339	4516
910.454	4383
910.57	4371
910.685	4348
910.8	4679
910.915	4592
911.03	4516
911.145	4287
911.259	4314
911.374	4386
911.489	4344
911.604	4306
911.718	4150
911.833	4238
911.947	4097
912.062	3994
912.176	4234
912.291	4265
912.405	4287
912.519	4462
912.633	4466
912.748	4394
912.862	4280
912.976	4200
913.09	4109
913.204	4166
913.318	4276
913.431	4428
913.545	4394
913.659	4428
913.772	4360
913.886	4303
914	4257
914.113	4367
914.226	4455
914.34	4337
914.453	4234
914.566	4432
914.68	4291
914.793	4371
914.906	4112
915.019	4177
915.132	4150
915.245	4207
915.358	4181
915.47	4234
915.583	4329
915.696	4325
915.809	4443
915.921	4402
916.034	4284
916.146	4272
916.259	4280
916.371	4344
916.483	4390
916.595	4295
916.708	4363
916.82	4306
916.932	4333
917.044	4360
917.156	4314
917.268	4204
917.38	4272
917.491	4261
917.603	4367
917.715	4432
917.826	4443
917.938	4363
918.049	4268
918.161	4379
918.272	4558
918.384	4584
918.495	4508
918.606	4322
918.717	4280
918.828	4329
918.939	4405
919.05	4284
919.161	4310
919.272	4158
919.383	4211
919.494	4462
919.604	4634
919.715	4413
919.826	4329
919.936	4394
920.047	4565
920.157	4523
920.267	4691
920.378	4523
920.488	4531
920.598	4717
920.708	4946
920.818	4759
920.928	4748
921.038	4942
921.148	4949
921.258	4634
921.368	4603
921.477	4542
921.587	4440
921.697	4375
921.806	4573
921.916	4455
922.025	4295
922.134	4265
922.244	4219
922.353	4310
922.462	4207
922.571	4109
922.68	4017
922.789	3987
922.898	4055
923.007	3991
923.116	4131
923.224	4074
923.333	4071
923.442	3994
923.55	3972
923.659	3998
923.767	4150
923.876	4013
923.984	4116
924.092	3949
924.201	4051
924.309	4078
924.417	4101
924.525	4055
924.633	4143
924.741	5041
924.849	3926
924.956	4169
925.064	4036
925.172	3915
925.279	3975
925.387	4067
925.494	4109
925.602	4230
925.709	4188
925.816	4032
925.924	4147
926.031	4238
926.138	4185
926.245	4234
926.352	4101
926.459	4257
926.566	4306
926.673	4135
926.779	4093
926.886	4078
926.993	3922
927.099	3930
927.206	3945
927.312	3956
927.419	4101
927.525	3975
927.631	4120
927.737	3956
927.843	3915
927.95	3835
928.056	3994
928.162	4040
928.267	4071
928.373	4641
928.479	4120
928.585	3903
928.69	4063
928.796	4063
928.901	3987
929.007	3804
929.112	3991
929.218	3979
929.323	3934
929.428	3930
929.533	4120
929.638	3896
929.743	3983
929.848	4048
929.953	4055
930.058	3934
930.163	3770
930.267	3804
930.372	4013
930.477	3823
930.581	4109
930.685	3956
930.79	3819
930.894	3884
930.998	3831
931.103	4048
931.207	3717
931.311	3713
931.415	3675
931.519	3511
931.623	3553
