Data from test_V78500241_2741.txt Node
Date: Fri Mar 25 17:08:03 CST 2022
User: usil
Spectrometer: V785-0024
Trigger mode: 0
Integration Time (sec): 4.000000E-1
Scans to average: 1
Nonlinearity correction enabled: false
Boxcar width: 0
Storing dark spectrum: false
XAxis mode: Wavelengths
Number of Pixels in Spectrum: 1024
>>>>>Begin Spectral Data<<<<<
801.071	8027
801.214	8024
801.356	7830
801.499	7928
801.641	7841
801.783	7837
801.926	8001
802.068	8001
802.211	7959
802.353	8100
802.496	7845
802.638	7906
802.78	7845
802.923	7917
803.065	7887
803.208	7845
803.35	7993
803.492	8092
803.635	8237
803.777	8107
803.919	8206
804.061	8526
804.204	8161
804.346	8115
804.488	8005
804.63	8058
804.773	8134
804.915	8103
805.057	8275
805.199	8172
805.341	8240
805.483	8275
805.626	8252
805.768	8161
805.91	8161
806.052	8271
806.194	8115
806.336	8301
806.478	8073
806.62	8100
806.762	8142
806.904	8275
807.046	8423
807.188	8339
807.33	8339
807.472	8366
807.614	8157
807.756	8176
807.898	8008
808.04	7906
808.182	7986
808.324	7864
808.465	7963
808.607	8100
808.749	8069
808.891	8252
809.033	8358
809.174	8199
809.316	8130
809.458	8088
809.6	7978
809.741	8008
809.883	8058
810.025	8088
810.166	8043
810.308	8020
810.45	7993
810.591	7830
810.733	7689
810.875	7696
811.016	7594
811.158	7533
811.299	7616
811.441	7792
811.582	7685
811.724	7613
811.865	7605
812.007	7609
812.148	7613
812.29	7609
812.431	7696
812.573	7936
812.714	7974
812.855	8096
812.997	8240
813.138	8328
813.279	8115
813.421	8092
813.562	8008
813.703	7902
813.845	7746
813.986	7441
814.127	7362
814.268	7225
814.41	7251
814.551	7206
814.692	7213
814.833	7099
814.974	7152
815.115	7088
815.256	6981
815.397	6954
815.539	7000
815.68	6818
815.821	6783
815.962	6848
816.103	6795
816.244	6795
816.385	6547
816.526	6627
816.666	6536
816.807	6289
816.948	6452
817.089	6502
817.23	6498
817.371	6414
817.512	6448
817.653	6384
817.793	6369
817.934	6414
818.075	6464
818.216	6422
818.356	6418
818.497	6254
818.638	6098
818.778	6182
818.919	6133
819.06	6182
819.2	6266
819.341	6323
819.481	6372
819.622	6502
819.762	6814
819.903	6764
820.043	6574
820.184	6589
820.324	6563
820.465	6715
820.605	6665
820.746	6620
820.886	6479
821.026	6722
821.167	6684
821.307	6825
821.447	6764
821.588	6700
821.728	6623
821.868	6452
822.008	6319
822.149	6361
822.289	6369
822.429	6163
822.569	6121
822.709	6175
822.849	5916
822.99	5916
823.13	5935
823.27	5889
823.41	5771
823.55	5798
823.69	5783
823.83	5790
823.97	5665
824.11	5528
824.25	5486
824.389	5520
824.529	5581
824.669	5554
824.809	5668
824.949	5649
825.089	5630
825.228	5630
825.368	5414
825.508	5341
825.648	5360
825.787	5337
825.927	5353
826.067	5288
826.206	5330
826.346	5341
826.485	5376
826.625	5436
826.765	5532
826.904	5486
827.044	5265
827.183	5216
827.323	5124
827.462	5227
827.601	5178
827.741	5208
827.88	5197
828.02	5105
828.159	5265
828.298	5280
828.437	5315
828.577	5292
828.716	5478
828.855	5315
828.994	5178
829.134	5132
829.273	5193
829.412	5181
829.551	5151
829.69	5212
829.829	5189
829.968	5391
830.107	5254
830.246	5288
830.385	5220
830.524	5147
830.663	5006
830.802	4968
830.941	4835
831.08	4908
831.219	4999
831.357	4991
831.496	5132
831.635	4934
831.774	4831
831.913	4866
832.051	4763
832.19	4755
832.329	4850
832.467	4717
832.606	4626
832.744	4702
832.883	4706
833.022	4759
833.16	4740
833.299	4854
833.437	4828
833.576	4782
833.714	4892
833.852	4892
833.991	4858
834.129	4938
834.267	4957
834.406	4942
834.544	4976
834.682	4957
834.821	4900
834.959	5193
835.097	4934
835.235	5170
835.373	5060
835.511	5121
835.65	5025
835.788	5003
835.926	4915
836.064	4885
836.202	4908
836.34	5151
836.478	5261
836.615	5143
836.753	5204
836.891	5227
837.029	5330
837.167	5197
837.305	5109
837.443	5094
837.58	5105
837.718	5326
837.856	5201
837.993	5159
838.131	5201
838.269	5265
838.406	5193
838.544	5185
838.681	5018
838.819	5018
838.956	4850
839.094	4889
839.231	4999
839.369	5037
839.506	5410
839.643	5261
839.781	5067
839.918	5014
840.055	5094
840.193	5098
840.33	5098
840.467	5113
840.604	5162
840.742	5467
840.879	5064
841.016	5079
841.153	5159
841.29	5322
841.427	5307
841.564	5315
841.701	5341
841.838	5258
841.975	5269
842.112	5322
842.249	5185
842.385	5113
842.522	5303
842.659	5151
842.796	5136
842.933	5181
843.069	5117
843.206	5124
843.343	5261
843.479	5235
843.616	5261
843.752	5045
843.889	5006
844.025	5265
844.162	4995
844.298	5212
844.435	5113
844.571	5025
844.708	5265
844.844	5315
844.98	5322
845.117	5261
845.253	5147
845.389	5102
845.525	5178
845.661	5155
845.798	5071
845.934	5086
846.07	5064
846.206	5201
846.342	5303
846.478	5174
846.614	5052
846.75	4946
846.886	4896
847.022	5136
847.158	5018
847.294	5086
847.429	5094
847.565	5064
847.701	5311
847.837	4870
847.972	4835
848.108	4946
848.244	4885
848.379	4812
848.515	4721
848.65	4683
848.786	4725
848.921	4774
849.057	4831
849.192	4889
849.328	4816
849.463	4889
849.598	4767
849.734	4767
849.869	4717
850.004	4649
850.14	4660
850.275	4611
850.41	4546
850.545	4546
850.68	4577
850.815	4580
850.95	4653
851.085	4843
851.22	4721
851.355	4675
851.49	4599
851.625	4615
851.76	4679
851.895	4542
852.03	4538
852.165	4725
852.299	4714
852.434	4744
852.569	4729
852.703	4782
852.838	4896
852.973	4927
853.107	4946
853.242	4725
853.376	4653
853.511	4527
853.645	4660
853.78	4786
853.914	4611
854.048	4645
854.183	4630
854.317	4679
854.451	4801
854.585	4679
854.72	4596
854.854	4767
854.988	4611
855.122	4615
855.256	4527
855.39	4645
855.524	4805
855.658	4740
855.792	4679
855.926	4710
856.06	4744
856.194	4793
856.327	4710
856.461	4596
856.595	4615
856.729	4630
856.862	4786
856.996	4698
857.13	4706
857.263	4710
857.397	4809
857.53	4649
857.664	4656
857.797	4714
857.931	4717
858.064	4702
858.197	4675
858.331	4660
858.464	4607
858.597	4538
858.731	4656
858.864	4637
858.997	4599
859.13	4668
859.263	4634
859.396	4706
859.529	4592
859.662	4558
859.795	4538
859.928	4630
860.061	4748
860.194	4748
860.327	4618
860.46	4535
860.592	4664
860.725	4729
860.858	4729
860.99	4523
861.123	4512
861.256	4527
861.388	4645
861.521	5334
861.653	4481
861.786	4455
861.918	4424
862.05	4489
862.183	4523
862.315	4588
862.447	4660
862.58	4512
862.712	4348
862.844	4325
862.976	4504
863.108	4489
863.24	4805
863.372	4352
863.504	4432
863.636	4409
863.768	4470
863.9	4432
864.032	4379
864.164	4390
864.296	4481
864.428	4535
864.559	4542
864.691	4580
864.823	4512
864.954	4466
865.086	4508
865.217	4447
865.349	4432
865.48	4447
865.612	4519
865.743	4618
865.875	4497
866.006	4455
866.137	4470
866.269	4451
866.4	4398
866.531	4413
866.662	4440
866.793	4394
866.924	4447
867.055	4504
867.186	4447
867.317	4428
867.448	4348
867.579	4413
867.71	4398
867.841	4344
867.972	4459
868.103	4451
868.233	4451
868.364	4462
868.495	4538
868.625	4656
868.756	4759
868.886	4535
869.017	4641
869.147	4725
869.278	4767
869.408	4683
869.539	4675
869.669	4729
869.799	4702
869.929	4774
870.06	4717
870.19	4949
870.32	4820
870.45	4915
870.58	5025
870.71	5102
870.84	5109
870.97	5003
871.1	4892
871.23	5143
871.36	5162
871.489	4995
871.619	5010
871.749	5121
871.879	5162
872.008	5208
872.138	5075
872.267	4980
872.397	4854
872.526	4847
872.656	4706
872.785	4812
872.915	4930
873.044	5022
873.173	4957
873.303	4938
873.432	4999
873.561	4999
873.69	4862
873.819	4824
873.948	4908
874.077	4862
874.206	4805
874.335	4793
874.464	4938
874.593	5037
874.722	4961
874.851	5124
874.979	5056
875.108	5010
875.237	4942
875.365	4870
875.494	4915
875.623	5025
875.751	4812
875.88	4828
876.008	4961
876.136	4984
876.265	5197
876.393	5360
876.521	5261
876.65	5223
876.778	5128
876.906	5128
877.034	5029
877.162	5098
877.29	4976
877.418	5052
877.546	5045
877.674	5033
877.802	5045
877.93	5048
878.058	4987
878.185	4805
878.313	5025
878.441	4949
878.568	4767
878.696	4870
878.824	4965
878.951	4980
879.079	5132
879.206	5353
879.333	5117
879.461	5010
879.588	4976
879.715	5151
879.842	5235
879.97	4965
880.097	4790
880.224	4740
880.351	4793
880.478	4812
880.605	4786
880.732	4774
880.859	5079
880.986	4927
881.112	4938
881.239	4782
881.366	4622
881.493	4588
881.619	4599
881.746	4649
881.872	4630
881.999	4653
882.125	4725
882.252	4774
882.378	4858
882.505	4961
882.631	4809
882.757	4653
882.883	4755
883.01	4725
883.136	4683
883.262	4637
883.388	4611
883.514	4797
883.64	4877
883.766	4771
883.892	4672
884.018	4725
884.143	4896
884.269	5014
884.395	4694
884.52	4618
884.646	4679
884.772	4603
884.897	4573
885.023	4675
885.148	4793
885.274	4889
885.399	4793
885.524	4767
885.65	4694
885.775	4748
885.9	4729
886.025	4866
886.15	4755
886.275	4759
886.4	4664
886.525	4717
886.65	4702
886.775	4683
886.9	4938
887.025	5037
887.149	4828
887.274	4641
887.399	4577
887.523	4596
887.648	4577
887.773	4573
887.897	4793
888.021	4801
888.146	4694
888.27	4835
888.395	4942
888.519	4748
888.643	4790
888.767	4870
888.891	4634
889.015	4573
889.139	4634
889.263	4592
889.387	4733
889.511	4839
889.635	4778
889.759	4653
889.883	4664
890.006	4721
890.13	4873
890.254	4607
890.377	4721
890.501	4558
890.624	4531
890.748	4664
890.871	4497
890.995	4447
891.118	4367
891.241	4573
891.364	4588
891.488	4599
891.611	4512
891.734	4538
891.857	4592
891.98	4519
892.103	4637
892.226	4615
892.349	4531
892.471	4447
892.594	4554
892.717	4580
892.839	4558
892.962	4599
893.085	4664
893.207	4580
893.33	4459
893.452	4504
893.575	4660
893.697	4596
893.819	4778
893.941	4782
894.064	4801
894.186	4565
894.308	4573
894.43	4755
894.552	4812
894.674	4752
894.796	4531
894.918	4550
895.04	4504
895.161	4729
895.283	4656
895.405	4622
895.526	4637
895.648	4717
895.769	4691
895.891	4740
896.012	4763
896.134	4755
896.255	4649
896.376	4660
896.498	4573
896.619	4656
896.74	4649
896.861	4675
896.982	4946
897.103	5014
897.224	4828
897.345	4767
897.466	4660
897.587	4702
897.708	4854
897.828	4786
897.949	4687
898.07	4603
898.19	4634
898.311	4831
898.431	4634
898.552	4748
898.672	4797
898.792	4771
898.913	4706
899.033	4630
899.153	4489
899.273	4417
899.393	4519
899.513	4504
899.633	4500
899.753	4538
899.873	4508
899.993	4599
900.113	4527
900.232	4580
900.352	4516
900.472	4485
900.591	4394
900.711	4459
900.83	4459
900.95	4573
901.069	4717
901.189	4519
901.308	4386
901.427	4367
901.546	4390
901.665	4451
901.784	4535
901.904	4367
902.023	4291
902.141	4242
902.26	4185
902.379	4306
902.498	4219
902.617	4253
902.735	4375
902.854	4394
902.973	4394
903.091	4177
903.21	4223
903.328	4291
903.446	4253
903.565	4249
903.683	4375
903.801	4257
903.919	4390
904.038	4440
904.156	4322
904.274	4428
904.392	4417
904.51	4409
904.627	4466
904.745	4599
904.863	4615
904.981	4402
905.098	4284
905.216	4360
905.334	4421
905.451	4405
905.569	4440
905.686	4542
905.803	4573
905.921	4428
906.038	4561
906.155	4489
906.272	4402
906.389	4459
906.506	4337
906.623	4356
906.74	4352
906.857	4337
906.974	4386
907.091	4527
907.208	4679
907.324	4603
907.441	4519
907.557	4352
907.674	4318
907.79	4325
907.907	4402
908.023	4489
908.139	4485
908.256	4375
908.372	4455
908.488	4421
908.604	4402
908.72	4329
908.836	4409
908.952	4386
909.068	4405
909.184	4626
909.3	4478
909.415	4584
909.531	4550
909.647	4341
909.762	4371
909.878	4360
909.993	4440
910.108	4424
910.224	4432
910.339	4436
910.454	4424
910.57	4367
910.685	4318
910.8	4622
910.915	4618
911.03	4489
911.145	4363
911.259	4329
911.374	4386
911.489	4230
911.604	4268
911.718	4173
911.833	4166
911.947	4051
912.062	4040
912.176	4249
912.291	4223
912.405	4223
912.519	4527
912.633	4535
912.748	4379
912.862	4284
912.976	4249
913.09	4105
913.204	4204
913.318	4230
913.431	4390
913.545	4322
913.659	4443
913.772	4379
913.886	4299
914	4192
914.113	4383
914.226	4402
914.34	4367
914.453	4200
914.566	4432
914.68	4272
914.793	4344
914.906	4135
915.019	4150
915.132	4082
915.245	4185
915.358	4287
915.47	4303
915.583	4261
915.696	4306
915.809	4402
915.921	4447
916.034	4253
916.146	4242
916.259	4211
916.371	4352
916.483	4360
916.595	4261
916.708	4318
916.82	4352
916.932	4280
917.044	4333
917.156	4379
917.268	4223
917.38	4287
917.491	4284
917.603	4344
917.715	4375
917.826	4413
917.938	4344
918.049	4249
918.161	4390
918.272	4561
918.384	4535
918.495	4443
918.606	4318
918.717	4242
918.828	4344
918.939	4371
919.05	4329
919.161	4280
919.272	4135
919.383	4219
919.494	4455
919.604	4599
919.715	4459
919.826	4379
919.936	4371
920.047	4531
920.157	4485
920.267	4694
920.378	4611
920.488	4481
920.598	4691
920.708	4862
920.818	4694
920.928	4748
921.038	4938
921.148	4942
921.258	4649
921.368	4542
921.477	4497
921.587	4474
921.697	4375
921.806	4523
921.916	4436
922.025	4227
922.134	4268
922.244	4215
922.353	4329
922.462	4162
922.571	4147
922.68	4017
922.789	3964
922.898	4029
923.007	3934
923.116	4090
923.224	4063
923.333	4055
923.442	3994
923.55	3983
923.659	4017
923.767	4074
923.876	4040
923.984	4131
924.092	3991
924.201	4071
924.309	4048
924.417	4109
924.525	4097
924.633	4112
924.741	5037
924.849	3888
924.956	4120
925.064	3979
925.172	3850
925.279	3953
925.387	4048
925.494	4044
925.602	4188
925.709	4177
925.816	3987
925.924	4120
926.031	4192
926.138	4188
926.245	4215
926.352	4078
926.459	4211
926.566	4318
926.673	4181
926.779	4055
926.886	4093
926.993	3953
927.099	3975
927.206	3907
927.312	3934
927.419	4025
927.525	4044
927.631	4116
927.737	3953
927.843	3945
927.95	3819
928.056	3968
928.162	3991
928.267	4029
928.373	4733
928.479	4124
928.585	3888
928.69	4025
928.796	4063
928.901	3987
929.007	3857
929.112	4010
929.218	4013
929.323	3915
929.428	3949
929.533	4109
929.638	3884
929.743	3991
929.848	4048
929.953	4032
930.058	3956
930.163	3800
930.267	3835
930.372	3994
930.477	3816
930.581	4059
930.685	3945
930.79	3831
930.894	3899
930.998	3831
931.103	4048
931.207	3720
931.311	3652
931.415	3648
931.519	3523
931.623	3523
