Data from test_V78500241_68.txt Node
Date: Fri Mar 25 16:49:28 CST 2022
User: usil
Spectrometer: V785-0024
Trigger mode: 0
Integration Time (sec): 4.000000E-1
Scans to average: 1
Nonlinearity correction enabled: false
Boxcar width: 0
Storing dark spectrum: false
XAxis mode: Wavelengths
Number of Pixels in Spectrum: 1024
>>>>>Begin Spectral Data<<<<<
801.071	8077
801.214	8069
801.356	7890
801.499	7928
801.641	7890
801.783	7852
801.926	7978
802.068	7974
802.211	8001
802.353	8031
802.496	7883
802.638	7936
802.78	7978
802.923	8020
803.065	7849
803.208	7860
803.35	8077
803.492	8126
803.635	8123
803.777	7978
803.919	8077
804.061	8393
804.204	8123
804.346	8043
804.488	8020
804.63	8092
804.773	8058
804.915	8069
805.057	8237
805.199	8126
805.341	8229
805.483	8309
805.626	8206
805.768	8157
805.91	8164
806.052	8225
806.194	8145
806.336	8313
806.478	8107
806.62	8130
806.762	8138
806.904	8324
807.046	8442
807.188	8313
807.33	8301
807.472	8347
807.614	8168
807.756	8214
807.898	8008
808.04	8001
808.182	7947
808.324	7856
808.465	7944
808.607	7978
808.749	8138
808.891	8237
809.033	8298
809.174	8195
809.316	8050
809.458	8020
809.6	7928
809.741	8058
809.883	8046
810.025	8107
810.166	8073
810.308	8020
810.45	8020
810.591	7932
810.733	7784
810.875	7693
811.016	7575
811.158	7499
811.299	7700
811.441	7772
811.582	7715
811.724	7681
811.865	7616
812.007	7658
812.148	7651
812.29	7727
812.431	7826
812.573	7982
812.714	8065
812.855	8164
812.997	8317
813.138	8332
813.279	8191
813.421	8161
813.562	8016
813.703	7974
813.845	7731
813.986	7438
814.127	7266
814.268	7156
814.41	7228
814.551	7206
814.692	7232
814.833	7084
814.974	7198
815.115	7141
815.256	6985
815.397	6935
815.539	6939
815.68	6825
815.821	6741
815.962	6844
816.103	6848
816.244	6764
816.385	6642
816.526	6627
816.666	6578
816.807	6376
816.948	6456
817.089	6536
817.23	6479
817.371	6384
817.512	6410
817.653	6418
817.793	6376
817.934	6414
818.075	6486
818.216	6509
818.356	6407
818.497	6292
818.638	6140
818.778	6197
818.919	6167
819.06	6232
819.2	6361
819.341	6365
819.481	6384
819.622	6563
819.762	6772
819.903	6726
820.043	6642
820.184	6635
820.324	6604
820.465	6665
820.605	6665
820.746	6673
820.886	6551
821.026	6673
821.167	6772
821.307	6875
821.447	6818
821.588	6658
821.728	6555
821.868	6513
822.008	6296
822.149	6361
822.289	6376
822.429	6175
822.569	6087
822.709	6068
822.849	5901
822.99	5942
823.13	5999
823.27	5950
823.41	5832
823.55	5802
823.69	5847
823.83	5832
823.97	5691
824.11	5524
824.25	5596
824.389	5596
824.529	5627
824.669	5570
824.809	5642
824.949	5676
825.089	5665
825.228	5608
825.368	5433
825.508	5345
825.648	5425
825.787	5391
825.927	5372
826.067	5265
826.206	5322
826.346	5406
826.485	5398
826.625	5524
826.765	5524
826.904	5490
827.044	5242
827.183	5265
827.323	5208
827.462	5250
827.601	5166
827.741	5193
827.88	5269
828.02	5181
828.159	5235
828.298	5280
828.437	5417
828.577	5280
828.716	5471
828.855	5372
828.994	5197
829.134	5170
829.273	5280
829.412	5124
829.551	5155
829.69	5193
829.829	5265
829.968	5417
830.107	5280
830.246	5318
830.385	5166
830.524	5174
830.663	5037
830.802	5010
830.941	4892
831.08	4881
831.219	5014
831.357	4972
831.496	5159
831.635	4923
831.774	4824
831.913	4858
832.051	4767
832.19	4801
832.329	4828
832.467	4752
832.606	4687
832.744	4767
832.883	4683
833.022	4767
833.16	4847
833.299	4786
833.437	4831
833.576	4835
833.714	4866
833.852	4854
833.991	4919
834.129	4953
834.267	5048
834.406	4870
834.544	4984
834.682	5022
834.821	5018
834.959	5162
835.097	5048
835.235	5162
835.373	5166
835.511	5166
835.65	5033
835.788	5071
835.926	4927
836.064	4923
836.202	4965
836.34	5174
836.478	5299
836.615	5147
836.753	5250
836.891	5322
837.029	5307
837.167	5269
837.305	5178
837.443	5212
837.58	5102
837.718	5303
837.856	5242
837.993	5185
838.131	5303
838.269	5239
838.406	5239
838.544	5220
838.681	5071
838.819	5022
838.956	4923
839.094	4987
839.231	5014
839.369	5121
839.506	5535
839.643	5299
839.781	5105
839.918	5033
840.055	5166
840.193	5174
840.33	5159
840.467	5178
840.604	5250
840.742	5482
840.879	5143
841.016	5155
841.153	5235
841.29	5433
841.427	5417
841.564	5383
841.701	5448
841.838	5376
841.975	5303
842.112	5345
842.249	5189
842.385	5216
842.522	5436
842.659	5189
842.796	5189
842.933	5231
843.069	5246
843.206	5212
843.343	5436
843.479	5349
843.616	5341
843.752	5109
843.889	5086
844.025	5303
844.162	5064
844.298	5284
844.435	5124
844.571	5098
844.708	5277
844.844	5326
844.98	5425
845.117	5398
845.253	5231
845.389	5132
845.525	5223
845.661	5189
845.798	5086
845.934	5288
846.07	5166
846.206	5246
846.342	5299
846.478	5223
846.614	5090
846.75	5037
846.886	5052
847.022	5216
847.158	5086
847.294	5166
847.429	5181
847.565	5132
847.701	5398
847.837	4961
847.972	4877
848.108	4991
848.244	5033
848.379	4850
848.515	4790
848.65	4793
848.786	4839
848.921	4866
849.057	4934
849.192	4976
849.328	4896
849.463	4965
849.598	4843
849.734	4805
849.869	4767
850.004	4717
850.14	4744
850.275	4645
850.41	4611
850.545	4630
850.68	4645
850.815	4710
850.95	4630
851.085	4911
851.22	4816
851.355	4748
851.49	4702
851.625	4683
851.76	4721
851.895	4645
852.03	4542
852.165	4691
852.299	4771
852.434	4866
852.569	4790
852.703	4843
852.838	4915
852.973	5010
853.107	5003
853.242	4797
853.376	4740
853.511	4596
853.645	4687
853.78	4877
853.914	4725
854.048	4683
854.183	4687
854.317	4801
854.451	4919
854.585	4744
854.72	4698
854.854	4816
854.988	4691
855.122	4691
855.256	4596
855.39	4714
855.524	4858
855.658	4744
855.792	4759
855.926	4820
856.06	4816
856.194	4847
856.327	4721
856.461	4664
856.595	4687
856.729	4672
856.862	4816
856.996	4717
857.13	4763
857.263	4820
857.397	4839
857.53	4725
857.664	4805
857.797	4801
857.931	4866
858.064	4759
858.197	4835
858.331	4714
858.464	4641
858.597	4592
858.731	4725
858.864	4714
858.997	4675
859.13	4759
859.263	4782
859.396	4744
859.529	4691
859.662	4653
859.795	4538
859.928	4744
860.061	4858
860.194	4870
860.327	4660
860.46	4645
860.592	4763
860.725	4801
860.858	4824
860.99	4675
861.123	4607
861.256	4577
861.388	4653
861.521	5326
861.653	4531
861.786	4523
861.918	4497
862.05	4573
862.183	4588
862.315	4698
862.447	4675
862.58	4550
862.712	4527
862.844	4386
862.976	4527
863.108	4527
863.24	4938
863.372	4394
863.504	4455
863.636	4447
863.768	4565
863.9	4481
864.032	4489
864.164	4451
864.296	4561
864.428	4565
864.559	4618
864.691	4649
864.823	4622
864.954	4577
865.086	4512
865.217	4527
865.349	4447
865.48	4508
865.612	4516
865.743	4656
865.875	4531
866.006	4451
866.137	4512
866.269	4512
866.4	4497
866.531	4470
866.662	4478
866.793	4451
866.924	4459
867.055	4554
867.186	4538
867.317	4447
867.448	4485
867.579	4466
867.71	4447
867.841	4421
867.972	4485
868.103	4485
868.233	4519
868.364	4508
868.495	4542
868.625	4809
868.756	4850
868.886	4641
869.017	4683
869.147	4835
869.278	4809
869.408	4698
869.539	4691
869.669	4733
869.799	4694
869.929	4812
870.06	4809
870.19	5033
870.32	4934
870.45	5003
870.58	5083
870.71	5155
870.84	5094
870.97	5056
871.1	4972
871.23	5140
871.36	5147
871.489	5079
871.619	5220
871.749	5189
871.879	5162
872.008	5235
872.138	5124
872.267	5018
872.397	4892
872.526	4854
872.656	4790
872.785	4896
872.915	5075
873.044	5083
873.173	5041
873.303	5048
873.432	4984
873.561	5067
873.69	4934
873.819	4915
873.948	4965
874.077	4885
874.206	4831
874.335	4839
874.464	4930
874.593	5090
874.722	5060
874.851	5197
874.979	5132
875.108	5067
875.237	5003
875.365	4900
875.494	4984
875.623	5071
875.751	4866
875.88	4946
876.008	5067
876.136	5124
876.265	5280
876.393	5402
876.521	5311
876.65	5280
876.778	5216
876.906	5094
877.034	5086
877.162	5075
877.29	5041
877.418	5143
877.546	5094
877.674	5083
877.802	5098
877.93	5052
878.058	5052
878.185	4961
878.313	5018
878.441	5006
878.568	4850
878.696	4892
878.824	5006
878.951	5071
879.079	5170
879.206	5353
879.333	5117
879.461	5041
879.588	5052
879.715	5212
879.842	5277
879.97	5083
880.097	4816
880.224	4774
880.351	4873
880.478	4881
880.605	4862
880.732	4835
880.859	5170
880.986	4968
881.112	4892
881.239	4843
881.366	4740
881.493	4710
881.619	4664
881.746	4740
881.872	4694
881.999	4706
882.125	4733
882.252	4812
882.378	4877
882.505	5041
882.631	4896
882.757	4740
882.883	4812
883.01	4797
883.136	4687
883.262	4664
883.388	4634
883.514	4904
883.64	4915
883.766	4843
883.892	4687
884.018	4752
884.143	4965
884.269	5060
884.395	4733
884.52	4660
884.646	4714
884.772	4675
884.897	4542
885.023	4740
885.148	4835
885.274	4965
885.399	4828
885.524	4771
885.65	4740
885.775	4847
885.9	4786
886.025	4885
886.15	4831
886.275	4759
886.4	4702
886.525	4767
886.65	4721
886.775	4744
886.9	4908
887.025	5098
887.149	4892
887.274	4733
887.399	4599
887.523	4637
887.648	4656
887.773	4626
887.897	4786
888.021	4858
888.146	4706
888.27	4942
888.395	4896
888.519	4870
888.643	4843
888.767	4843
888.891	4752
889.015	4687
889.139	4687
889.263	4641
889.387	4828
889.511	4930
889.635	4866
889.759	4744
889.883	4656
890.006	4767
890.13	4866
890.254	4584
890.377	4733
890.501	4622
890.624	4584
890.748	4683
890.871	4550
890.995	4436
891.118	4459
891.241	4546
891.364	4653
891.488	4691
891.611	4504
891.734	4607
891.857	4641
891.98	4573
892.103	4710
892.226	4687
892.349	4584
892.471	4447
892.594	4561
892.717	4679
892.839	4637
892.962	4630
893.085	4668
893.207	4634
893.33	4481
893.452	4565
893.575	4687
893.697	4649
893.819	4839
893.941	4858
894.064	4778
894.186	4641
894.308	4615
894.43	4786
894.552	4908
894.674	4809
894.796	4634
894.918	4641
895.04	4660
895.161	4805
895.283	4710
895.405	4618
895.526	4664
895.648	4755
895.769	4771
895.891	4786
896.012	4786
896.134	4755
896.255	4675
896.376	4691
896.498	4668
896.619	4744
896.74	4634
896.861	4687
896.982	4938
897.103	5143
897.224	4866
897.345	4733
897.466	4675
897.587	4805
897.708	4915
897.828	4850
897.949	4725
898.07	4645
898.19	4653
898.311	4870
898.431	4717
898.552	4774
898.672	4896
898.792	4820
898.913	4805
899.033	4729
899.153	4580
899.273	4474
899.393	4504
899.513	4584
899.633	4577
899.753	4580
899.873	4580
899.993	4656
900.113	4618
900.232	4634
900.352	4577
900.472	4493
900.591	4394
900.711	4531
900.83	4500
900.95	4672
901.069	4729
901.189	4615
901.308	4409
901.427	4348
901.546	4386
901.665	4508
901.784	4535
901.904	4413
902.023	4386
902.141	4249
902.26	4219
902.379	4375
902.498	4314
902.617	4280
902.735	4455
902.854	4421
902.973	4409
903.091	4280
903.21	4253
903.328	4360
903.446	4276
903.565	4322
903.683	4417
903.801	4310
903.919	4436
904.038	4466
904.156	4348
904.274	4447
904.392	4447
904.51	4466
904.627	4527
904.745	4618
904.863	4656
904.981	4409
905.098	4329
905.216	4402
905.334	4447
905.451	4470
905.569	4443
905.686	4588
905.803	4630
905.921	4428
906.038	4592
906.155	4523
906.272	4413
906.389	4459
906.506	4413
906.623	4436
906.74	4470
906.857	4375
906.974	4383
907.091	4637
907.208	4717
907.324	4607
907.441	4538
907.557	4379
907.674	4421
907.79	4371
907.907	4455
908.023	4500
908.139	4508
908.256	4516
908.372	4561
908.488	4474
908.604	4443
908.72	4383
908.836	4386
908.952	4424
909.068	4474
909.184	4599
909.3	4493
909.415	4645
909.531	4634
909.647	4375
909.762	4440
909.878	4421
909.993	4474
910.108	4451
910.224	4497
910.339	4573
910.454	4478
910.57	4383
910.685	4356
910.8	4733
910.915	4698
911.03	4603
911.145	4367
911.259	4413
911.374	4413
911.489	4371
911.604	4344
911.718	4242
911.833	4295
911.947	4181
912.062	4124
912.176	4284
912.291	4344
912.405	4284
912.519	4546
912.633	4596
912.748	4428
912.862	4375
912.976	4303
913.09	4181
913.204	4257
913.318	4303
913.431	4459
913.545	4485
913.659	4508
913.772	4440
913.886	4390
914	4318
914.113	4447
914.226	4531
914.34	4428
914.453	4356
914.566	4451
914.68	4375
914.793	4360
914.906	4295
915.019	4188
915.132	4177
915.245	4215
915.358	4280
915.47	4287
915.583	4356
915.696	4322
915.809	4489
915.921	4497
916.034	4268
916.146	4295
916.259	4287
916.371	4451
916.483	4432
916.595	4318
916.708	4390
916.82	4394
916.932	4405
917.044	4386
917.156	4379
917.268	4322
917.38	4341
917.491	4352
917.603	4455
917.715	4481
917.826	4519
917.938	4451
918.049	4325
918.161	4504
918.272	4607
918.384	4656
918.495	4554
918.606	4383
918.717	4314
918.828	4360
918.939	4455
919.05	4379
919.161	4409
919.272	4169
919.383	4310
919.494	4500
919.604	4694
919.715	4527
919.826	4413
919.936	4485
920.047	4577
920.157	4535
920.267	4752
920.378	4630
920.488	4584
920.598	4786
920.708	4972
920.818	4820
920.928	4828
921.038	5067
921.148	5025
921.258	4664
921.368	4645
921.477	4622
921.587	4512
921.697	4424
921.806	4641
921.916	4512
922.025	4337
922.134	4329
922.244	4303
922.353	4394
922.462	4223
922.571	4196
922.68	4120
922.789	4036
922.898	4090
923.007	4063
923.116	4185
923.224	4093
923.333	4139
923.442	4051
923.55	4063
923.659	4097
923.767	4185
923.876	4071
923.984	4207
924.092	4055
924.201	4128
924.309	4143
924.417	4230
924.525	4173
924.633	4177
924.741	4984
924.849	3964
924.956	4181
925.064	4029
925.172	3941
925.279	4051
925.387	4097
925.494	4090
925.602	4246
925.709	4242
925.816	4109
925.924	4204
926.031	4246
926.138	4261
926.245	4272
926.352	4154
926.459	4337
926.566	4363
926.673	4227
926.779	4162
926.886	4162
926.993	4059
927.099	4029
927.206	4032
927.312	4032
927.419	4158
927.525	4036
927.631	4173
927.737	4032
927.843	4017
927.95	3876
928.056	3994
928.162	4067
928.267	4124
928.373	4774
928.479	4162
928.585	3896
928.69	4040
928.796	4154
928.901	4002
929.007	3907
929.112	4074
929.218	4040
929.323	3998
929.428	4036
929.533	4143
929.638	3987
929.743	4032
929.848	4124
929.953	4105
930.058	4013
930.163	3869
930.267	3911
930.372	4055
930.477	3865
930.581	4128
930.685	4021
930.79	3903
930.894	3960
930.998	3926
931.103	4147
931.207	3785
931.311	3781
931.415	3800
931.519	3576
931.623	3572
