Data from test_V78500241_1325.txt Node
Date: Fri Mar 25 16:58:12 CST 2022
User: usil
Spectrometer: V785-0024
Trigger mode: 0
Integration Time (sec): 4.000000E-1
Scans to average: 1
Nonlinearity correction enabled: false
Boxcar width: 0
Storing dark spectrum: false
XAxis mode: Wavelengths
Number of Pixels in Spectrum: 1024
>>>>>Begin Spectral Data<<<<<
801.071	7963
801.214	7986
801.356	7925
801.499	7849
801.641	7772
801.783	7852
801.926	7932
802.068	7913
802.211	8001
802.353	7921
802.496	7822
802.638	7849
802.78	7913
802.923	7951
803.065	7925
803.208	7940
803.35	7940
803.492	8092
803.635	8199
803.777	8001
803.919	8172
804.061	8541
804.204	8149
804.346	8058
804.488	8016
804.63	8096
804.773	8016
804.915	8130
805.057	8317
805.199	8187
805.341	8218
805.483	8263
805.626	8214
805.768	8115
805.91	8202
806.052	8248
806.194	8012
806.336	8320
806.478	8119
806.62	8020
806.762	8161
806.904	8290
807.046	8412
807.188	8404
807.33	8317
807.472	8309
807.614	8191
807.756	8153
807.898	7967
808.04	7871
808.182	7875
808.324	7940
808.465	7947
808.607	8195
808.749	8084
808.891	8183
809.033	8294
809.174	8142
809.316	8046
809.458	8046
809.6	8031
809.741	8035
809.883	8016
810.025	8027
810.166	8031
810.308	8001
810.45	8001
810.591	7852
810.733	7719
810.875	7666
811.016	7438
811.158	7540
811.299	7681
811.441	7715
811.582	7632
811.724	7643
811.865	7495
812.007	7540
812.148	7590
812.29	7624
812.431	7765
812.573	7887
812.714	7982
812.855	8142
812.997	8210
813.138	8351
813.279	8248
813.421	8164
813.562	8043
813.703	7887
813.845	7636
813.986	7480
814.127	7274
814.268	7228
814.41	7194
814.551	7183
814.692	7232
814.833	7107
814.974	7160
815.115	7095
815.256	6981
815.397	6924
815.539	6882
815.68	6871
815.821	6768
815.962	6871
816.103	6867
816.244	6719
816.385	6631
816.526	6612
816.666	6467
816.807	6346
816.948	6448
817.089	6445
817.23	6395
817.371	6410
817.512	6361
817.653	6338
817.793	6342
817.934	6372
818.075	6448
818.216	6441
818.356	6433
818.497	6205
818.638	6098
818.778	6136
818.919	6098
819.06	6175
819.2	6327
819.341	6281
819.481	6388
819.622	6517
819.762	6700
819.903	6707
820.043	6570
820.184	6540
820.324	6544
820.465	6650
820.605	6711
820.746	6646
820.886	6407
821.026	6650
821.167	6669
821.307	6825
821.447	6772
821.588	6692
821.728	6589
821.868	6498
822.008	6292
822.149	6361
822.289	6350
822.429	6159
822.569	6087
822.709	6117
822.849	5942
822.99	5897
823.13	5870
823.27	5935
823.41	5809
823.55	5760
823.69	5783
823.83	5767
823.97	5611
824.11	5562
824.25	5463
824.389	5611
824.529	5551
824.669	5535
824.809	5592
824.949	5680
825.089	5623
825.228	5524
825.368	5383
825.508	5318
825.648	5364
825.787	5391
825.927	5414
826.067	5322
826.206	5227
826.346	5315
826.485	5402
826.625	5467
826.765	5554
826.904	5455
827.044	5204
827.183	5185
827.323	5181
827.462	5201
827.601	5155
827.741	5197
827.88	5220
828.02	5140
828.159	5254
828.298	5318
828.437	5307
828.577	5277
828.716	5433
828.855	5311
828.994	5155
829.134	5174
829.273	5197
829.412	5105
829.551	5105
829.69	5189
829.829	5254
829.968	5387
830.107	5242
830.246	5231
830.385	5193
830.524	5117
830.663	5003
830.802	4991
830.941	4881
831.08	4809
831.219	4923
831.357	4987
831.496	5121
831.635	4904
831.774	4835
831.913	4839
832.051	4702
832.19	4763
832.329	4854
832.467	4679
832.606	4618
832.744	4744
832.883	4698
833.022	4748
833.16	4782
833.299	4839
833.437	4805
833.576	4771
833.714	4812
833.852	4881
833.991	4915
834.129	5003
834.267	4968
834.406	4900
834.544	4991
834.682	5006
834.821	4919
834.959	5128
835.097	5037
835.235	5117
835.373	5045
835.511	5121
835.65	4987
835.788	5025
835.926	4839
836.064	4858
836.202	4911
836.34	5151
836.478	5246
836.615	5128
836.753	5170
836.891	5284
837.029	5246
837.167	5162
837.305	5185
837.443	5117
837.58	5003
837.718	5250
837.856	5185
837.993	5124
838.131	5223
838.269	5201
838.406	5204
838.544	5147
838.681	5018
838.819	4991
838.956	4892
839.094	4873
839.231	5029
839.369	5094
839.506	5444
839.643	5269
839.781	5090
839.918	5025
840.055	5090
840.193	5075
840.33	5083
840.467	5124
840.604	5166
840.742	5448
840.879	5048
841.016	5086
841.153	5159
841.29	5303
841.427	5299
841.564	5284
841.701	5357
841.838	5292
841.975	5201
842.112	5220
842.249	5117
842.385	5143
842.522	5337
842.659	5094
842.796	5162
842.933	5181
843.069	5159
843.206	5155
843.343	5261
843.479	5223
843.616	5239
843.752	5037
843.889	5067
844.025	5250
844.162	5045
844.298	5231
844.435	5113
844.571	5018
844.708	5189
844.844	5326
844.98	5341
845.117	5318
845.253	5128
845.389	5060
845.525	5162
845.661	5140
845.798	5010
845.934	5117
846.07	5037
846.206	5185
846.342	5315
846.478	5128
846.614	5029
846.75	4923
846.886	4911
847.022	5105
847.158	5056
847.294	5033
847.429	5067
847.565	4999
847.701	5269
847.837	4854
847.972	4820
848.108	4949
848.244	4946
848.379	4774
848.515	4710
848.65	4710
848.786	4706
848.921	4786
849.057	4892
849.192	4908
849.328	4797
849.463	4843
849.598	4767
849.734	4717
849.869	4656
850.004	4653
850.14	4660
850.275	4626
850.41	4569
850.545	4542
850.68	4550
850.815	4618
850.95	4649
851.085	4877
851.22	4710
851.355	4626
851.49	4561
851.625	4584
851.76	4645
851.895	4565
852.03	4527
852.165	4607
852.299	4752
852.434	4816
852.569	4714
852.703	4782
852.838	4812
852.973	4957
853.107	4896
853.242	4710
853.376	4672
853.511	4538
853.645	4656
853.78	4782
853.914	4694
854.048	4649
854.183	4630
854.317	4637
854.451	4820
854.585	4675
854.72	4653
854.854	4736
854.988	4592
855.122	4630
855.256	4535
855.39	4672
855.524	4797
855.658	4729
855.792	4672
855.926	4679
856.06	4733
856.194	4831
856.327	4710
856.461	4607
856.595	4634
856.729	4618
856.862	4687
856.996	4702
857.13	4721
857.263	4714
857.397	4797
857.53	4641
857.664	4740
857.797	4740
857.931	4759
858.064	4645
858.197	4698
858.331	4615
858.464	4603
858.597	4516
858.731	4626
858.864	4637
858.997	4577
859.13	4641
859.263	4634
859.396	4691
859.529	4588
859.662	4550
859.795	4584
859.928	4603
860.061	4759
860.194	4744
860.327	4615
860.46	4500
860.592	4702
860.725	4740
860.858	4721
860.99	4607
861.123	4485
861.256	4523
861.388	4588
861.521	5170
861.653	4531
861.786	4443
861.918	4440
862.05	4523
862.183	4512
862.315	4618
862.447	4603
862.58	4561
862.712	4371
862.844	4306
862.976	4459
863.108	4470
863.24	4850
863.372	4310
863.504	4455
863.636	4371
863.768	4500
863.9	4413
864.032	4337
864.164	4421
864.296	4508
864.428	4531
864.559	4588
864.691	4538
864.823	4489
864.954	4443
865.086	4508
865.217	4470
865.349	4383
865.48	4451
865.612	4500
865.743	4664
865.875	4428
866.006	4478
866.137	4436
866.269	4474
866.4	4432
866.531	4443
866.662	4390
866.793	4417
866.924	4394
867.055	4443
867.186	4455
867.317	4436
867.448	4322
867.579	4409
867.71	4371
867.841	4322
867.972	4474
868.103	4455
868.233	4421
868.364	4417
868.495	4451
868.625	4634
868.756	4771
868.886	4584
869.017	4592
869.147	4771
869.278	4721
869.408	4679
869.539	4615
869.669	4664
869.799	4653
869.929	4710
870.06	4748
870.19	4984
870.32	4896
870.45	4965
870.58	4980
870.71	5117
870.84	5048
870.97	4949
871.1	4862
871.23	5086
871.36	5121
871.489	4995
871.619	5083
871.749	5109
871.879	5136
872.008	5128
872.138	5060
872.267	4987
872.397	4850
872.526	4786
872.656	4714
872.785	4786
872.915	4934
873.044	4980
873.173	4908
873.303	4919
873.432	4976
873.561	4934
873.69	4854
873.819	4790
873.948	4934
874.077	4812
874.206	4752
874.335	4820
874.464	4938
874.593	5022
874.722	4927
874.851	5117
874.979	5071
875.108	5014
875.237	4877
875.365	4835
875.494	4870
875.623	4984
875.751	4812
875.88	4881
876.008	4949
876.136	5029
876.265	5204
876.393	5254
876.521	5235
876.65	5197
876.778	5105
876.906	5064
877.034	4972
877.162	5052
877.29	4961
877.418	5060
877.546	5033
877.674	5029
877.802	5025
877.93	4972
878.058	4942
878.185	4862
878.313	4942
878.441	4961
878.568	4820
878.696	4820
878.824	4934
878.951	4976
879.079	5113
879.206	5261
879.333	5014
879.461	4953
879.588	4968
879.715	5090
879.842	5174
879.97	5037
880.097	4759
880.224	4725
880.351	4812
880.478	4828
880.605	4790
880.732	4793
880.859	5124
880.986	4919
881.112	4862
881.239	4793
881.366	4710
881.493	4584
881.619	4584
881.746	4641
881.872	4626
881.999	4630
882.125	4694
882.252	4748
882.378	4805
882.505	4968
882.631	4786
882.757	4687
882.883	4740
883.01	4729
883.136	4660
883.262	4546
883.388	4596
883.514	4854
883.64	4858
883.766	4790
883.892	4641
884.018	4725
884.143	4892
884.269	4984
884.395	4656
884.52	4664
884.646	4706
884.772	4573
884.897	4531
885.023	4679
885.148	4748
885.274	4858
885.399	4809
885.524	4755
885.65	4714
885.775	4767
885.9	4740
886.025	4889
886.15	4733
886.275	4721
886.4	4626
886.525	4782
886.65	4691
886.775	4672
886.9	4889
887.025	5018
887.149	4801
887.274	4622
887.399	4592
887.523	4611
887.648	4596
887.773	4558
887.897	4786
888.021	4801
888.146	4645
888.27	4748
888.395	4915
888.519	4771
888.643	4801
888.767	4824
888.891	4641
889.015	4569
889.139	4626
889.263	4580
889.387	4714
889.511	4850
889.635	4782
889.759	4611
889.883	4649
890.006	4687
890.13	4877
890.254	4660
890.377	4641
890.501	4535
890.624	4497
890.748	4649
890.871	4504
890.995	4436
891.118	4405
891.241	4538
891.364	4577
891.488	4641
891.611	4481
891.734	4542
891.857	4607
891.98	4538
892.103	4660
892.226	4592
892.349	4542
892.471	4394
892.594	4569
892.717	4573
892.839	4558
892.962	4618
893.085	4668
893.207	4592
893.33	4440
893.452	4542
893.575	4694
893.697	4603
893.819	4771
893.941	4824
894.064	4797
894.186	4596
894.308	4569
894.43	4683
894.552	4755
894.674	4774
894.796	4527
894.918	4565
895.04	4561
895.161	4687
895.283	4637
895.405	4565
895.526	4630
895.648	4687
895.769	4668
895.891	4653
896.012	4668
896.134	4698
896.255	4637
896.376	4607
896.498	4607
896.619	4645
896.74	4607
896.861	4653
896.982	4877
897.103	5033
897.224	4786
897.345	4763
897.466	4622
897.587	4733
897.708	4847
897.828	4793
897.949	4691
898.07	4565
898.19	4603
898.311	4752
898.431	4668
898.552	4717
898.672	4797
898.792	4763
898.913	4721
899.033	4580
899.153	4512
899.273	4462
899.393	4500
899.513	4500
899.633	4538
899.753	4504
899.873	4485
899.993	4561
900.113	4500
900.232	4611
900.352	4519
900.472	4447
900.591	4424
900.711	4500
900.83	4421
900.95	4630
901.069	4653
901.189	4504
901.308	4341
901.427	4344
901.546	4352
901.665	4421
901.784	4497
901.904	4337
902.023	4303
902.141	4158
902.26	4192
902.379	4303
902.498	4223
902.617	4234
902.735	4348
902.854	4375
902.973	4318
903.091	4185
903.21	4200
903.328	4322
903.446	4227
903.565	4276
903.683	4367
903.801	4261
903.919	4363
904.038	4413
904.156	4238
904.274	4405
904.392	4398
904.51	4440
904.627	4481
904.745	4527
904.863	4603
904.981	4390
905.098	4299
905.216	4348
905.334	4398
905.451	4424
905.569	4451
905.686	4481
905.803	4565
905.921	4367
906.038	4546
906.155	4451
906.272	4367
906.389	4428
906.506	4363
906.623	4367
906.74	4379
906.857	4314
906.974	4360
907.091	4573
907.208	4637
907.324	4535
907.441	4485
907.557	4337
907.674	4341
907.79	4314
907.907	4390
908.023	4402
908.139	4497
908.256	4493
908.372	4459
908.488	4409
908.604	4356
908.72	4348
908.836	4352
908.952	4383
909.068	4409
909.184	4546
909.3	4508
909.415	4546
909.531	4561
909.647	4337
909.762	4363
909.878	4318
909.993	4443
910.108	4402
910.224	4375
910.339	4474
910.454	4417
910.57	4352
910.685	4299
910.8	4626
910.915	4599
911.03	4459
911.145	4291
911.259	4329
911.374	4356
911.489	4249
911.604	4249
911.718	4147
911.833	4196
911.947	4074
912.062	4025
912.176	4219
912.291	4227
912.405	4200
912.519	4440
912.633	4455
912.748	4367
912.862	4360
912.976	4192
913.09	4093
913.204	4166
913.318	4215
913.431	4363
913.545	4383
913.659	4398
913.772	4337
913.886	4215
914	4238
914.113	4341
914.226	4386
914.34	4344
914.453	4238
914.566	4390
914.68	4348
914.793	4272
914.906	4150
915.019	4112
915.132	4105
915.245	4120
915.358	4181
915.47	4246
915.583	4253
915.696	4261
915.809	4413
915.921	4440
916.034	4272
916.146	4261
916.259	4242
916.371	4356
916.483	4341
916.595	4276
916.708	4303
916.82	4299
916.932	4329
917.044	4333
917.156	4306
917.268	4196
917.38	4265
917.491	4230
917.603	4295
917.715	4405
917.826	4432
917.938	4363
918.049	4272
918.161	4371
918.272	4519
918.384	4527
918.495	4409
918.606	4310
918.717	4185
918.828	4341
918.939	4394
919.05	4268
919.161	4284
919.272	4128
919.383	4200
919.494	4436
919.604	4599
919.715	4436
919.826	4341
919.936	4413
920.047	4500
920.157	4481
920.267	4687
920.378	4546
920.488	4497
920.598	4710
920.708	4847
920.818	4717
920.928	4740
921.038	4885
921.148	4873
921.258	4596
921.368	4558
921.477	4500
921.587	4428
921.697	4371
921.806	4527
921.916	4394
922.025	4238
922.134	4257
922.244	4265
922.353	4299
922.462	4158
922.571	4109
922.68	4017
922.789	3937
922.898	4032
923.007	3987
923.116	4078
923.224	4036
923.333	4059
923.442	3968
923.55	3964
923.659	4017
923.767	4051
923.876	4013
923.984	4109
924.092	3998
924.201	4029
924.309	4093
924.417	4116
924.525	4048
924.633	4086
924.741	5033
924.849	3930
924.956	4128
925.064	3926
925.172	3880
925.279	3968
925.387	4082
925.494	4021
925.602	4257
925.709	4162
925.816	4059
925.924	4147
926.031	4238
926.138	4154
926.245	4192
926.352	4078
926.459	4249
926.566	4287
926.673	4154
926.779	4086
926.886	4067
926.993	3964
927.099	3960
927.206	3960
927.312	3926
927.419	4021
927.525	4040
927.631	4124
927.737	3956
927.843	3945
927.95	3831
928.056	3937
928.162	3968
928.267	4082
928.373	4683
928.479	4135
928.585	3869
928.69	4029
928.796	4006
928.901	3956
929.007	3800
929.112	3994
929.218	3964
929.323	3888
929.428	3926
929.533	4090
929.638	3911
929.743	3960
929.848	4086
929.953	3975
930.058	3968
930.163	3759
930.267	3819
930.372	3956
930.477	3812
930.581	4109
930.685	4010
930.79	3819
930.894	3892
930.998	3831
931.103	4078
931.207	3663
931.311	3671
931.415	3648
931.519	3504
931.623	3545
