Data from test_V78500241_1663.txt Node
Date: Fri Mar 25 17:00:33 CST 2022
User: usil
Spectrometer: V785-0024
Trigger mode: 0
Integration Time (sec): 4.000000E-1
Scans to average: 1
Nonlinearity correction enabled: false
Boxcar width: 0
Storing dark spectrum: false
XAxis mode: Wavelengths
Number of Pixels in Spectrum: 1024
>>>>>Begin Spectral Data<<<<<
801.071	8001
801.214	8012
801.356	7887
801.499	7792
801.641	7795
801.783	7803
801.926	7967
802.068	7917
802.211	7951
802.353	7928
802.496	7860
802.638	7841
802.78	7856
802.923	7875
803.065	7833
803.208	7841
803.35	7864
803.492	8046
803.635	8107
803.777	7974
803.919	8111
804.061	8366
804.204	8058
804.346	8054
804.488	7967
804.63	8100
804.773	8027
804.915	8024
805.057	8229
805.199	8084
805.341	8214
805.483	8275
805.626	8153
805.768	8062
805.91	8145
806.052	8176
806.194	8050
806.336	8282
806.478	8081
806.62	8031
806.762	8130
806.904	8233
807.046	8533
807.188	8294
807.33	8298
807.472	8374
807.614	8191
807.756	8130
807.898	7963
808.04	7928
808.182	7883
808.324	7849
808.465	7940
808.607	8077
808.749	8088
808.891	8176
809.033	8256
809.174	8195
809.316	8039
809.458	8035
809.6	7951
809.741	8005
809.883	8031
810.025	8084
810.166	7989
810.308	8046
810.45	7959
810.591	7906
810.733	7700
810.875	7696
811.016	7533
811.158	7468
811.299	7510
811.441	7693
811.582	7681
811.724	7620
811.865	7575
812.007	7578
812.148	7605
812.29	7613
812.431	7803
812.573	7845
812.714	8008
812.855	8100
812.997	8218
813.138	8320
813.279	8157
813.421	8081
813.562	7970
813.703	7856
813.845	7734
813.986	7495
814.127	7217
814.268	7202
814.41	7190
814.551	7118
814.692	7187
814.833	7084
814.974	7164
815.115	7133
815.256	6970
815.397	6932
815.539	6989
815.68	6783
815.821	6711
815.962	6802
816.103	6840
816.244	6650
816.385	6627
816.526	6631
816.666	6437
816.807	6331
816.948	6437
817.089	6460
817.23	6410
817.371	6357
817.512	6327
817.653	6353
817.793	6315
817.934	6391
818.075	6467
818.216	6410
818.356	6372
818.497	6270
818.638	6079
818.778	6068
818.919	6133
819.06	6144
819.2	6319
819.341	6292
819.481	6350
819.622	6547
819.762	6719
819.903	6669
820.043	6547
820.184	6563
820.324	6612
820.465	6662
820.605	6669
820.746	6692
820.886	6479
821.026	6635
821.167	6673
821.307	6772
821.447	6764
821.588	6677
821.728	6566
821.868	6498
822.008	6319
822.149	6334
822.289	6361
822.429	6228
822.569	6095
822.709	6155
822.849	5885
822.99	5882
823.13	5939
823.27	5977
823.41	5794
823.55	5764
823.69	5764
823.83	5828
823.97	5722
824.11	5535
824.25	5532
824.389	5509
824.529	5649
824.669	5524
824.809	5653
824.949	5691
825.089	5634
825.228	5573
825.368	5410
825.508	5387
825.648	5357
825.787	5414
825.927	5402
826.067	5299
826.206	5387
826.346	5448
826.485	5444
826.625	5402
826.765	5539
826.904	5501
827.044	5254
827.183	5265
827.323	5151
827.462	5322
827.601	5170
827.741	5231
827.88	5242
828.02	5162
828.159	5265
828.298	5307
828.437	5372
828.577	5330
828.716	5493
828.855	5353
828.994	5185
829.134	5181
829.273	5220
829.412	5140
829.551	5201
829.69	5216
829.829	5254
829.968	5474
830.107	5345
830.246	5326
830.385	5197
830.524	5208
830.663	5045
830.802	5018
830.941	4908
831.08	4911
831.219	4991
831.357	4957
831.496	5212
831.635	4980
831.774	4908
831.913	4889
832.051	4717
832.19	4774
832.329	4839
832.467	4740
832.606	4630
832.744	4702
832.883	4782
833.022	4763
833.16	4816
833.299	4881
833.437	4858
833.576	4843
833.714	4885
833.852	4904
833.991	4949
834.129	5018
834.267	4976
834.406	4965
834.544	5037
834.682	5003
834.821	4995
834.959	5223
835.097	5064
835.235	5193
835.373	5128
835.511	5113
835.65	5064
835.788	5022
835.926	4915
836.064	4858
836.202	4961
836.34	5216
836.478	5250
836.615	5128
836.753	5231
836.891	5292
837.029	5258
837.167	5239
837.305	5239
837.443	5204
837.58	5075
837.718	5288
837.856	5216
837.993	5147
838.131	5212
838.269	5212
838.406	5242
838.544	5235
838.681	5056
838.819	5071
838.956	4942
839.094	4938
839.231	5033
839.369	5090
839.506	5436
839.643	5284
839.781	5022
839.918	5029
840.055	5105
840.193	5159
840.33	5193
840.467	5159
840.604	5147
840.742	5493
840.879	5105
841.016	5143
841.153	5185
841.29	5425
841.427	5341
841.564	5337
841.701	5387
841.838	5288
841.975	5261
842.112	5239
842.249	5204
842.385	5121
842.522	5315
842.659	5185
842.796	5170
842.933	5239
843.069	5227
843.206	5246
843.343	5376
843.479	5269
843.616	5284
843.752	5045
843.889	5018
844.025	5261
844.162	5056
844.298	5227
844.435	5071
844.571	5105
844.708	5178
844.844	5334
844.98	5398
845.117	5398
845.253	5170
845.389	5071
845.525	5162
845.661	5159
845.798	5086
845.934	5136
846.07	5113
846.206	5223
846.342	5345
846.478	5185
846.614	5079
846.75	5014
846.886	4961
847.022	5136
847.158	5052
847.294	5052
847.429	5109
847.565	5060
847.701	5364
847.837	4873
847.972	4809
848.108	4972
848.244	4919
848.379	4809
848.515	4767
848.65	4725
848.786	4774
848.921	4812
849.057	4881
849.192	4976
849.328	4847
849.463	4911
849.598	4847
849.734	4820
849.869	4706
850.004	4668
850.14	4683
850.275	4637
850.41	4531
850.545	4573
850.68	4618
850.815	4618
850.95	4618
851.085	4828
851.22	4801
851.355	4675
851.49	4622
851.625	4607
851.76	4637
851.895	4592
852.03	4580
852.165	4656
852.299	4710
852.434	4847
852.569	4820
852.703	4774
852.838	4843
852.973	4930
853.107	4927
853.242	4748
853.376	4656
853.511	4592
853.645	4645
853.78	4892
853.914	4729
854.048	4664
854.183	4637
854.317	4694
854.451	4881
854.585	4660
854.72	4634
854.854	4755
854.988	4649
855.122	4637
855.256	4554
855.39	4649
855.524	4828
855.658	4763
855.792	4778
855.926	4714
856.06	4797
856.194	4839
856.327	4717
856.461	4664
856.595	4634
856.729	4649
856.862	4816
856.996	4664
857.13	4740
857.263	4721
857.397	4805
857.53	4668
857.664	4786
857.797	4778
857.931	4793
858.064	4744
858.197	4755
858.331	4683
858.464	4622
858.597	4546
858.731	4649
858.864	4672
858.997	4634
859.13	4683
859.263	4675
859.396	4691
859.529	4596
859.662	4615
859.795	4573
859.928	4683
860.061	4801
860.194	4824
860.327	4641
860.46	4603
860.592	4721
860.725	4767
860.858	4759
860.99	4607
861.123	4531
861.256	4554
861.388	4672
861.521	5353
861.653	4485
861.786	4474
861.918	4512
862.05	4527
862.183	4554
862.315	4523
862.447	4672
862.58	4527
862.712	4424
862.844	4383
862.976	4497
863.108	4516
863.24	4824
863.372	4375
863.504	4451
863.636	4440
863.768	4459
863.9	4421
864.032	4371
864.164	4413
864.296	4474
864.428	4542
864.559	4618
864.691	4554
864.823	4542
864.954	4580
865.086	4527
865.217	4497
865.349	4459
865.48	4527
865.612	4516
865.743	4637
865.875	4538
866.006	4455
866.137	4466
866.269	4474
866.4	4413
866.531	4424
866.662	4424
866.793	4447
866.924	4443
867.055	4569
867.186	4485
867.317	4470
867.448	4421
867.579	4383
867.71	4409
867.841	4394
867.972	4451
868.103	4451
868.233	4451
868.364	4459
868.495	4519
868.625	4702
868.756	4759
868.886	4618
869.017	4637
869.147	4767
869.278	4778
869.408	4702
869.539	4649
869.669	4702
869.799	4634
869.929	4805
870.06	4767
870.19	4930
870.32	4972
870.45	4927
870.58	5010
870.71	5136
870.84	5098
870.97	5010
871.1	4881
871.23	5185
871.36	5178
871.489	5052
871.619	5113
871.749	5136
871.879	5159
872.008	5239
872.138	5090
872.267	4980
872.397	4873
872.526	4816
872.656	4733
872.785	4873
872.915	4923
873.044	5025
873.173	4995
873.303	4961
873.432	5014
873.561	4972
873.69	4843
873.819	4881
873.948	4923
874.077	4782
874.206	4790
874.335	4805
874.464	4949
874.593	5098
874.722	4961
874.851	5105
874.979	5098
875.108	5025
875.237	5003
875.365	4892
875.494	4896
875.623	4965
875.751	4793
875.88	4930
876.008	5014
876.136	5067
876.265	5246
876.393	5326
876.521	5288
876.65	5216
876.778	5231
876.906	5098
877.034	5052
877.162	5105
877.29	4987
877.418	5067
877.546	5086
877.674	5045
877.802	5067
877.93	5006
878.058	4976
878.185	4866
878.313	4965
878.441	4976
878.568	4771
878.696	4873
878.824	4972
878.951	4980
879.079	5185
879.206	5265
879.333	5132
879.461	5029
879.588	5041
879.715	5136
879.842	5201
879.97	5029
880.097	4847
880.224	4759
880.351	4824
880.478	4873
880.605	4824
880.732	4790
880.859	5124
880.986	4972
881.112	5010
881.239	4805
881.366	4698
881.493	4584
881.619	4596
881.746	4679
881.872	4649
881.999	4672
882.125	4694
882.252	4790
882.378	4816
882.505	4949
882.631	4839
882.757	4691
882.883	4725
883.01	4816
883.136	4653
883.262	4592
883.388	4668
883.514	4866
883.64	4862
883.766	4790
883.892	4706
884.018	4710
884.143	4896
884.269	5029
884.395	4653
884.52	4618
884.646	4656
884.772	4641
884.897	4596
885.023	4664
885.148	4839
885.274	4896
885.399	4812
885.524	4717
885.65	4740
885.775	4714
885.9	4744
886.025	4839
886.15	4835
886.275	4748
886.4	4679
886.525	4740
886.65	4725
886.775	4698
886.9	4919
887.025	5014
887.149	4843
887.274	4675
887.399	4603
887.523	4656
887.648	4577
887.773	4558
887.897	4725
888.021	4812
888.146	4744
888.27	4816
888.395	4961
888.519	4816
888.643	4862
888.767	4843
888.891	4691
889.015	4611
889.139	4653
889.263	4626
889.387	4767
889.511	4831
889.635	4805
889.759	4656
889.883	4702
890.006	4782
890.13	4850
890.254	4675
890.377	4691
890.501	4542
890.624	4500
890.748	4649
890.871	4554
890.995	4428
891.118	4383
891.241	4531
891.364	4542
891.488	4683
891.611	4466
891.734	4558
891.857	4577
891.98	4550
892.103	4618
892.226	4603
892.349	4577
892.471	4470
892.594	4573
892.717	4561
892.839	4561
892.962	4675
893.085	4698
893.207	4558
893.33	4497
893.452	4512
893.575	4706
893.697	4592
893.819	4774
893.941	4866
894.064	4835
894.186	4584
894.308	4618
894.43	4725
894.552	4828
894.674	4736
894.796	4535
894.918	4630
895.04	4561
895.161	4672
895.283	4634
895.405	4569
895.526	4607
895.648	4679
895.769	4675
895.891	4767
896.012	4706
896.134	4698
896.255	4683
896.376	4615
896.498	4645
896.619	4656
896.74	4618
896.861	4668
896.982	4934
897.103	5132
897.224	4801
897.345	4805
897.466	4683
897.587	4759
897.708	4862
897.828	4809
897.949	4710
898.07	4592
898.19	4618
898.311	4801
898.431	4694
898.552	4755
898.672	4858
898.792	4763
898.913	4782
899.033	4637
899.153	4519
899.273	4489
899.393	4500
899.513	4546
899.633	4504
899.753	4573
899.873	4565
899.993	4542
900.113	4535
900.232	4584
900.352	4580
900.472	4455
900.591	4409
900.711	4493
900.83	4478
900.95	4599
901.069	4733
901.189	4538
901.308	4371
901.427	4379
901.546	4360
901.665	4489
901.784	4554
901.904	4413
902.023	4325
902.141	4234
902.26	4154
902.379	4325
902.498	4192
902.617	4211
902.735	4398
902.854	4421
902.973	4341
903.091	4223
903.21	4268
903.328	4314
903.446	4257
903.565	4238
903.683	4371
903.801	4291
903.919	4390
904.038	4424
904.156	4314
904.274	4451
904.392	4428
904.51	4421
904.627	4462
904.745	4554
904.863	4588
904.981	4390
905.098	4363
905.216	4337
905.334	4447
905.451	4405
905.569	4466
905.686	4592
905.803	4561
905.921	4428
906.038	4569
906.155	4474
906.272	4386
906.389	4451
906.506	4394
906.623	4402
906.74	4390
906.857	4295
906.974	4390
907.091	4573
907.208	4664
907.324	4596
907.441	4504
907.557	4333
907.674	4375
907.79	4322
907.907	4398
908.023	4500
908.139	4527
908.256	4398
908.372	4497
908.488	4459
908.604	4371
908.72	4352
908.836	4383
908.952	4402
909.068	4428
909.184	4542
909.3	4432
909.415	4596
909.531	4584
909.647	4390
909.762	4383
909.878	4325
909.993	4432
910.108	4409
910.224	4466
910.339	4493
910.454	4409
910.57	4417
910.685	4291
910.8	4675
910.915	4645
911.03	4478
911.145	4367
911.259	4310
911.374	4383
911.489	4318
911.604	4257
911.718	4158
911.833	4215
911.947	4097
912.062	4082
912.176	4211
912.291	4234
912.405	4280
912.519	4493
912.633	4462
912.748	4375
912.862	4299
912.976	4227
913.09	4082
913.204	4169
913.318	4223
913.431	4325
913.545	4348
913.659	4474
913.772	4344
913.886	4238
914	4261
914.113	4367
914.226	4466
914.34	4443
914.453	4207
914.566	4386
914.68	4268
914.793	4379
914.906	4173
915.019	4131
915.132	4116
915.245	4147
915.358	4242
915.47	4211
915.583	4261
915.696	4291
915.809	4363
915.921	4421
916.034	4261
916.146	4280
916.259	4257
916.371	4394
916.483	4367
916.595	4284
916.708	4318
916.82	4314
916.932	4337
917.044	4306
917.156	4352
917.268	4249
917.38	4272
917.491	4303
917.603	4348
917.715	4440
917.826	4417
917.938	4329
918.049	4234
918.161	4360
918.272	4523
918.384	4497
918.495	4424
918.606	4295
918.717	4230
918.828	4337
918.939	4379
919.05	4257
919.161	4360
919.272	4116
919.383	4173
919.494	4424
919.604	4615
919.715	4481
919.826	4318
919.936	4428
920.047	4459
920.157	4455
920.267	4694
920.378	4546
920.488	4500
920.598	4698
920.708	4862
920.818	4752
920.928	4752
921.038	4938
921.148	4885
921.258	4641
921.368	4603
921.477	4489
921.587	4466
921.697	4398
921.806	4500
921.916	4428
922.025	4249
922.134	4310
922.244	4268
922.353	4314
922.462	4185
922.571	4173
922.68	4013
922.789	3994
922.898	4029
923.007	4002
923.116	4131
923.224	4067
923.333	4109
923.442	3956
923.55	4017
923.659	4017
923.767	4090
923.876	4013
923.984	4120
924.092	4032
924.201	4071
924.309	4105
924.417	4112
924.525	4032
924.633	4101
924.741	4839
924.849	3896
924.956	4147
925.064	3945
925.172	3907
925.279	3956
925.387	4055
925.494	4059
925.602	4211
925.709	4166
925.816	4074
925.924	4131
926.031	4249
926.138	4204
926.245	4223
926.352	4086
926.459	4230
926.566	4291
926.673	4143
926.779	4086
926.886	4109
926.993	3975
927.099	3972
927.206	3922
927.312	3934
927.419	4048
927.525	4040
927.631	4097
927.737	3941
927.843	3949
927.95	3842
928.056	3953
928.162	3972
928.267	4051
928.373	4599
928.479	4101
928.585	3915
928.69	4010
928.796	4051
928.901	3926
929.007	3876
929.112	3987
929.218	3983
929.323	3953
929.428	3937
929.533	4120
929.638	3899
929.743	3964
929.848	4051
929.953	3968
930.058	3918
930.163	3793
930.267	3838
930.372	4002
930.477	3797
930.581	4059
930.685	3903
930.79	3804
930.894	3869
930.998	3873
931.103	4074
931.207	3686
931.311	3686
931.415	3686
931.519	3519
931.623	3534
