Data from test_V78500241_140.txt Node
Date: Fri Mar 25 16:49:58 CST 2022
User: usil
Spectrometer: V785-0024
Trigger mode: 0
Integration Time (sec): 4.000000E-1
Scans to average: 1
Nonlinearity correction enabled: false
Boxcar width: 0
Storing dark spectrum: false
XAxis mode: Wavelengths
Number of Pixels in Spectrum: 1024
>>>>>Begin Spectral Data<<<<<
801.071	8016
801.214	8001
801.356	7818
801.499	7875
801.641	7841
801.783	7807
801.926	7967
802.068	7967
802.211	8016
802.353	8088
802.496	7833
802.638	7898
802.78	7864
802.923	7955
803.065	7890
803.208	7871
803.35	8024
803.492	8092
803.635	8157
803.777	7917
803.919	8103
804.061	8389
804.204	8103
804.346	7974
804.488	7947
804.63	8081
804.773	7936
804.915	8069
805.057	8267
805.199	8123
805.341	8191
805.483	8233
805.626	8153
805.768	8065
805.91	8092
806.052	8229
806.194	8077
806.336	8305
806.478	8142
806.62	8142
806.762	8054
806.904	8183
807.046	8480
807.188	8412
807.33	8282
807.472	8377
807.614	8123
807.756	8187
807.898	8001
808.04	7906
808.182	7879
808.324	7830
808.465	7940
808.607	8008
808.749	8115
808.891	8153
809.033	8396
809.174	8237
809.316	8069
809.458	8081
809.6	7993
809.741	8058
809.883	8043
810.025	8119
810.166	8065
810.308	8092
810.45	7959
810.591	7875
810.733	7753
810.875	7689
811.016	7544
811.158	7441
811.299	7624
811.441	7738
811.582	7723
811.724	7624
811.865	7575
812.007	7636
812.148	7628
812.29	7636
812.431	7750
812.573	7925
812.714	8001
812.855	8183
812.997	8298
813.138	8389
813.279	8225
813.421	8123
813.562	8062
813.703	7845
813.845	7799
813.986	7476
814.127	7327
814.268	7274
814.41	7282
814.551	7168
814.692	7221
814.833	7107
814.974	7145
815.115	7175
815.256	6966
815.397	6977
815.539	6996
815.68	6802
815.821	6818
815.962	6852
816.103	6791
816.244	6760
816.385	6612
816.526	6623
816.666	6544
816.807	6418
816.948	6467
817.089	6494
817.23	6502
817.371	6418
817.512	6407
817.653	6414
817.793	6372
817.934	6376
818.075	6445
818.216	6460
818.356	6407
818.497	6247
818.638	6125
818.778	6148
818.919	6110
819.06	6133
819.2	6315
819.341	6357
819.481	6357
819.622	6528
819.762	6745
819.903	6696
820.043	6593
820.184	6578
820.324	6585
820.465	6707
820.605	6654
820.746	6684
820.886	6506
821.026	6719
821.167	6696
821.307	6772
821.447	6768
821.588	6696
821.728	6631
821.868	6502
822.008	6350
822.149	6376
822.289	6323
822.429	6220
822.569	6087
822.709	6140
822.849	5935
822.99	5923
823.13	5916
823.27	5977
823.41	5783
823.55	5802
823.69	5824
823.83	5817
823.97	5665
824.11	5547
824.25	5520
824.389	5585
824.529	5623
824.669	5532
824.809	5684
824.949	5657
825.089	5630
825.228	5581
825.368	5421
825.508	5368
825.648	5410
825.787	5368
825.927	5364
826.067	5322
826.206	5349
826.346	5387
826.485	5379
826.625	5402
826.765	5493
826.904	5497
827.044	5277
827.183	5181
827.323	5151
827.462	5235
827.601	5227
827.741	5170
827.88	5212
828.02	5121
828.159	5181
828.298	5261
828.437	5387
828.577	5265
828.716	5417
828.855	5318
828.994	5208
829.134	5155
829.273	5193
829.412	5128
829.551	5128
829.69	5166
829.829	5261
829.968	5398
830.107	5311
830.246	5242
830.385	5227
830.524	5128
830.663	5098
830.802	4968
830.941	4915
831.08	4866
831.219	5010
831.357	4999
831.496	5174
831.635	4900
831.774	4866
831.913	4824
832.051	4771
832.19	4710
832.329	4892
832.467	4694
832.606	4653
832.744	4706
832.883	4759
833.022	4736
833.16	4801
833.299	4771
833.437	4790
833.576	4877
833.714	4870
833.852	4873
833.991	4900
834.129	4961
834.267	4930
834.406	4942
834.544	5029
834.682	4995
834.821	4999
834.959	5132
835.097	4972
835.235	5201
835.373	5071
835.511	5113
835.65	5048
835.788	5037
835.926	4904
836.064	4927
836.202	4919
836.34	5201
836.478	5204
836.615	5201
836.753	5208
836.891	5303
837.029	5258
837.167	5204
837.305	5159
837.443	5140
837.58	5102
837.718	5284
837.856	5220
837.993	5128
838.131	5242
838.269	5208
838.406	5250
838.544	5239
838.681	4991
838.819	5048
838.956	4904
839.094	4949
839.231	5029
839.369	5079
839.506	5410
839.643	5318
839.781	5086
839.918	4972
840.055	5136
840.193	5162
840.33	5121
840.467	5147
840.604	5181
840.742	5417
840.879	5075
841.016	5086
841.153	5181
841.29	5402
841.427	5349
841.564	5311
841.701	5330
841.838	5231
841.975	5242
842.112	5311
842.249	5147
842.385	5132
842.522	5391
842.659	5178
842.796	5162
842.933	5178
843.069	5174
843.206	5136
843.343	5353
843.479	5204
843.616	5269
843.752	5052
843.889	5029
844.025	5280
844.162	5010
844.298	5223
844.435	5086
844.571	5018
844.708	5181
844.844	5307
844.98	5280
845.117	5292
845.253	5128
845.389	5075
845.525	5204
845.661	5159
845.798	5102
845.934	5143
846.07	5037
846.206	5201
846.342	5277
846.478	5178
846.614	5105
846.75	5029
846.886	4942
847.022	5132
847.158	4999
847.294	5041
847.429	5155
847.565	5075
847.701	5311
847.837	4831
847.972	4786
848.108	4942
848.244	5003
848.379	4763
848.515	4721
848.65	4771
848.786	4710
848.921	4790
849.057	4873
849.192	4904
849.328	4820
849.463	4854
849.598	4782
849.734	4755
849.869	4698
850.004	4637
850.14	4694
850.275	4569
850.41	4561
850.545	4558
850.68	4626
850.815	4588
850.95	4649
851.085	4850
851.22	4778
851.355	4656
851.49	4607
851.625	4675
851.76	4637
851.895	4565
852.03	4535
852.165	4668
852.299	4733
852.434	4809
852.569	4812
852.703	4763
852.838	4870
852.973	4919
853.107	4942
853.242	4710
853.376	4618
853.511	4546
853.645	4622
853.78	4771
853.914	4687
854.048	4634
854.183	4691
854.317	4717
854.451	4847
854.585	4706
854.72	4660
854.854	4748
854.988	4607
855.122	4622
855.256	4542
855.39	4687
855.524	4774
855.658	4759
855.792	4729
855.926	4721
856.06	4725
856.194	4828
856.327	4706
856.461	4622
856.595	4607
856.729	4580
856.862	4771
856.996	4694
857.13	4721
857.263	4752
857.397	4870
857.53	4626
857.664	4683
857.797	4752
857.931	4805
858.064	4744
858.197	4733
858.331	4618
858.464	4603
858.597	4531
858.731	4630
858.864	4596
858.997	4626
859.13	4675
859.263	4664
859.396	4744
859.529	4573
859.662	4546
859.795	4527
859.928	4672
860.061	4790
860.194	4702
860.327	4603
860.46	4569
860.592	4721
860.725	4710
860.858	4683
860.99	4554
861.123	4554
861.256	4523
861.388	4611
861.521	5372
861.653	4489
861.786	4447
861.918	4470
862.05	4508
862.183	4531
862.315	4645
862.447	4630
862.58	4519
862.712	4379
862.844	4322
862.976	4478
863.108	4432
863.24	4835
863.372	4337
863.504	4417
863.636	4379
863.768	4459
863.9	4451
864.032	4371
864.164	4363
864.296	4474
864.428	4527
864.559	4546
864.691	4573
864.823	4596
864.954	4516
865.086	4508
865.217	4432
865.349	4413
865.48	4459
865.612	4527
865.743	4645
865.875	4440
866.006	4405
866.137	4470
866.269	4470
866.4	4436
866.531	4459
866.662	4360
866.793	4455
866.924	4459
867.055	4527
867.186	4466
867.317	4424
867.448	4398
867.579	4432
867.71	4421
867.841	4356
867.972	4516
868.103	4500
868.233	4493
868.364	4497
868.495	4535
868.625	4687
868.756	4782
868.886	4649
869.017	4668
869.147	4812
869.278	4809
869.408	4714
869.539	4717
869.669	4736
869.799	4714
869.929	4786
870.06	4759
870.19	5045
870.32	4946
870.45	5006
870.58	5037
870.71	5117
870.84	5128
870.97	4991
871.1	4961
871.23	5159
871.36	5201
871.489	5071
871.619	5105
871.749	5113
871.879	5178
872.008	5162
872.138	5105
872.267	5045
872.397	4930
872.526	4904
872.656	4790
872.785	4904
872.915	5022
873.044	5067
873.173	4987
873.303	4991
873.432	5018
873.561	5003
873.69	4911
873.819	4892
873.948	4881
874.077	4858
874.206	4862
874.335	4831
874.464	4972
874.593	5105
874.722	4987
874.851	5140
874.979	5121
875.108	5083
875.237	4934
875.365	4919
875.494	4927
875.623	4987
875.751	4927
875.88	4942
876.008	5052
876.136	5083
876.265	5242
876.393	5387
876.521	5337
876.65	5242
876.778	5181
876.906	5136
877.034	5128
877.162	5166
877.29	5079
877.418	5170
877.546	5105
877.674	5098
877.802	5056
877.93	5071
878.058	4965
878.185	4900
878.313	4965
878.441	5029
878.568	4854
878.696	4934
878.824	5029
878.951	5067
879.079	5208
879.206	5353
879.333	5151
879.461	5025
879.588	4995
879.715	5170
879.842	5288
879.97	5067
880.097	4847
880.224	4786
880.351	4862
880.478	4873
880.605	4870
880.732	4831
880.859	5132
880.986	4908
881.112	4949
881.239	4847
881.366	4706
881.493	4649
881.619	4645
881.746	4733
881.872	4687
881.999	4698
882.125	4683
882.252	4866
882.378	4881
882.505	4995
882.631	4797
882.757	4687
882.883	4767
883.01	4748
883.136	4706
883.262	4645
883.388	4653
883.514	4858
883.64	4904
883.766	4847
883.892	4736
884.018	4782
884.143	4949
884.269	5041
884.395	4736
884.52	4637
884.646	4694
884.772	4641
884.897	4577
885.023	4702
885.148	4858
885.274	4881
885.399	4850
885.524	4733
885.65	4717
885.775	4752
885.9	4763
886.025	4877
886.15	4809
886.275	4782
886.4	4679
886.525	4771
886.65	4698
886.775	4736
886.9	4999
887.025	5105
887.149	4839
887.274	4710
887.399	4618
887.523	4584
887.648	4577
887.773	4607
887.897	4824
888.021	4835
888.146	4736
888.27	4858
888.395	5029
888.519	4881
888.643	4873
888.767	4877
888.891	4725
889.015	4596
889.139	4653
889.263	4675
889.387	4809
889.511	4919
889.635	4847
889.759	4691
889.883	4683
890.006	4790
890.13	4866
890.254	4653
890.377	4725
890.501	4577
890.624	4561
890.748	4634
890.871	4542
890.995	4489
891.118	4443
891.241	4603
891.364	4618
891.488	4714
891.611	4493
891.734	4596
891.857	4668
891.98	4641
892.103	4641
892.226	4668
892.349	4565
892.471	4497
892.594	4603
892.717	4668
892.839	4618
892.962	4660
893.085	4721
893.207	4645
893.33	4565
893.452	4580
893.575	4710
893.697	4634
893.819	4870
893.941	4892
894.064	4820
894.186	4637
894.308	4622
894.43	4782
894.552	4877
894.674	4847
894.796	4630
894.918	4653
895.04	4626
895.161	4759
895.283	4691
895.405	4626
895.526	4630
895.648	4721
895.769	4691
895.891	4744
896.012	4744
896.134	4759
896.255	4736
896.376	4668
896.498	4679
896.619	4721
896.74	4675
896.861	4736
896.982	4972
897.103	5098
897.224	4858
897.345	4831
897.466	4725
897.587	4782
897.708	4873
897.828	4793
897.949	4725
898.07	4630
898.19	4668
898.311	4870
898.431	4717
898.552	4759
898.672	4843
898.792	4828
898.913	4790
899.033	4645
899.153	4516
899.273	4470
899.393	4542
899.513	4577
899.633	4592
899.753	4603
899.873	4550
899.993	4607
900.113	4573
900.232	4577
900.352	4561
900.472	4516
900.591	4481
900.711	4542
900.83	4485
900.95	4675
901.069	4759
901.189	4596
901.308	4405
901.427	4390
901.546	4432
901.665	4531
901.784	4599
901.904	4379
902.023	4413
902.141	4230
902.26	4188
902.379	4390
902.498	4314
902.617	4272
902.735	4451
902.854	4421
902.973	4375
903.091	4204
903.21	4268
903.328	4356
903.446	4299
903.565	4356
903.683	4402
903.801	4291
903.919	4478
904.038	4489
904.156	4360
904.274	4470
904.392	4440
904.51	4493
904.627	4542
904.745	4615
904.863	4672
904.981	4405
905.098	4379
905.216	4447
905.334	4481
905.451	4504
905.569	4493
905.686	4660
905.803	4592
905.921	4470
906.038	4596
906.155	4538
906.272	4440
906.389	4478
906.506	4432
906.623	4417
906.74	4424
906.857	4360
906.974	4440
907.091	4611
907.208	4717
907.324	4653
907.441	4523
907.557	4394
907.674	4375
907.79	4371
907.907	4413
908.023	4500
908.139	4565
908.256	4523
908.372	4485
908.488	4440
908.604	4424
908.72	4402
908.836	4398
908.952	4432
909.068	4436
909.184	4622
909.3	4542
909.415	4672
909.531	4618
909.647	4348
909.762	4409
909.878	4386
909.993	4470
910.108	4459
910.224	4436
910.339	4512
910.454	4474
910.57	4443
910.685	4287
910.8	4714
910.915	4645
911.03	4478
911.145	4383
911.259	4379
911.374	4398
911.489	4299
911.604	4299
911.718	4257
911.833	4261
911.947	4120
912.062	4101
912.176	4253
912.291	4272
912.405	4295
912.519	4519
912.633	4527
912.748	4466
912.862	4352
912.976	4284
913.09	4116
913.204	4227
913.318	4310
913.431	4383
913.545	4386
913.659	4481
913.772	4405
913.886	4284
914	4215
914.113	4413
914.226	4466
914.34	4417
914.453	4306
914.566	4481
914.68	4318
914.793	4360
914.906	4207
915.019	4200
915.132	4093
915.245	4227
915.358	4253
915.47	4265
915.583	4333
915.696	4360
915.809	4455
915.921	4462
916.034	4310
916.146	4246
916.259	4238
916.371	4428
916.483	4394
916.595	4303
916.708	4341
916.82	4405
916.932	4371
917.044	4356
917.156	4360
917.268	4268
917.38	4360
917.491	4360
917.603	4352
917.715	4440
917.826	4485
917.938	4386
918.049	4257
918.161	4405
918.272	4580
918.384	4546
918.495	4451
918.606	4299
918.717	4230
918.828	4352
918.939	4413
919.05	4348
919.161	4352
919.272	4185
919.383	4284
919.494	4489
919.604	4679
919.715	4455
919.826	4394
919.936	4417
920.047	4527
920.157	4481
920.267	4748
920.378	4554
920.488	4531
920.598	4744
920.708	4999
920.818	4797
920.928	4786
921.038	4957
921.148	4968
921.258	4660
921.368	4603
921.477	4497
921.587	4470
921.697	4417
921.806	4569
921.916	4508
922.025	4314
922.134	4303
922.244	4291
922.353	4383
922.462	4215
922.571	4150
922.68	4093
922.789	4048
922.898	4029
923.007	4013
923.116	4120
923.224	4093
923.333	4082
923.442	4036
923.55	3987
923.659	4059
923.767	4120
923.876	4063
923.984	4150
924.092	4010
924.201	4143
924.309	4093
924.417	4173
924.525	4086
924.633	4139
924.741	4908
924.849	3934
924.956	4166
925.064	4006
925.172	3915
925.279	4006
925.387	4109
925.494	4093
925.602	4223
925.709	4219
925.816	4086
925.924	4158
926.031	4249
926.138	4196
926.245	4249
926.352	4128
926.459	4303
926.566	4318
926.673	4181
926.779	4101
926.886	4097
926.993	3987
927.099	3975
927.206	3964
927.312	3975
927.419	4082
927.525	4071
927.631	4131
927.737	3968
927.843	4013
927.95	3899
928.056	3945
928.162	4029
928.267	4082
928.373	4611
928.479	4181
928.585	3911
928.69	4036
928.796	4112
928.901	4006
929.007	3903
929.112	4090
929.218	3979
929.323	3972
929.428	3964
929.533	4154
929.638	3949
929.743	3934
929.848	4040
929.953	4002
930.058	3956
930.163	3789
930.267	3869
930.372	3972
930.477	3835
930.581	4147
930.685	3979
930.79	3823
930.894	3892
930.998	3899
931.103	4078
931.207	3743
931.311	3732
931.415	3740
931.519	3530
931.623	3549
